{
  "AcquisitionMatrixPE": 104,
  "AcquisitionNumber": 1,
  "AcquisitionTime": "14:00:19.325000",
  "BandwidthPerPixelPhaseEncode": 17.17,
  "BaseResolution": 104,
  "BodyPartExamined": "BRAIN",
  "CoilString": "HC1-7;NC1_2",
  "ConsistencyInfo": "N4_VE11C_LATEST_20160120",
  "ConversionSoftware": "dcm2niix",
  "ConversionSoftwareVersion": "v1.0.20190902",
  "DerivedVendorReportedEchoSpacing": 0.000560011,
  "DeviceSerialNumber": "167006",
  "DwellTime": 2.1e-06,
  "EchoTime": 0.037,
  "EchoTrainLength": 104,
  "EffectiveEchoSpacing": 0.000560011,
  "FlipAngle": 52,
  "ImageComments": "Unaliased_MB4_PE3_LB",
  "ImageOrientationPatientDICOM": [0.999848, 0.00300941, 0.0171708, 0.00226854, 0.954149, -0.299323],
  "ImageType": [
    "ORIGINAL",
    "PRIMARY",
    "M",
    "MB",
    "ND",
    "MOSAIC"
],
  "ImagingFrequency": 123.259,
  "InPlanePhaseEncodingDirectionDICOM": "COL",
  "InstitutionAddress": "Chemin_Queen-Mary_4565_Montreal_District_CA_H3W_1W5",
  "InstitutionName": "IUGM",
  "InstitutionalDepartmentName": "Department",
  "MRAcquisitionType": "2D",
  "MagneticFieldStrength": 3,
  "Manufacturer": "Siemens",
  "ManufacturersModelName": "Prisma_fit",
  "Modality": "MR",
  "MultibandAccelerationFactor": 4,
  "PartialFourier": 1,
  "PatientPosition": "HFS",
  "PercentPhaseFOV": 100,
  "PhaseEncodingDirection": "j",
  "PhaseEncodingSteps": 104,
  "PhaseResolution": 1,
  "PixelBandwidth": 2290,
  "ProcedureStepDescription": "memory_things",
  "ProtocolName": "func_task-things_run-6",
  "PulseSequenceDetails": "%CustomerSeq%_cmrr_mbep2d_bold",
  "ReceiveCoilActiveElements": "HC1-7;NC1,2",
  "ReceiveCoilName": "HeadNeck_64",
  "ReconMatrixPE": 104,
  "RepetitionTime": 1.49,
  "SAR": 0.0470987,
  "ScanOptions": "FS",
  "ScanningSequence": "EP",
  "SequenceName": "epfid2d1_104",
  "SequenceVariant": "SK_SS",
  "SeriesDescription": "func_task-things_run-6",
  "SeriesNumber": 25,
  "ShimSetting": [628, -7197, -8791, 716, 11, 56, 8, -9],
  "SliceThickness": 2,
  "SliceTiming": [0, 0.7825, 0.0975, 0.8825, 0.195, 0.98, 0.2925, 1.0775, 0.3925, 1.175, 0.49, 1.2725, 0.5875, 1.3725, 0.685, 0, 0.7825, 0.0975, 0.8825, 0.195, 0.98, 0.2925, 1.0775, 0.3925, 1.175, 0.49, 1.2725, 0.5875, 1.3725, 0.685, 0, 0.7825, 0.0975, 0.8825, 0.195, 0.98, 0.2925, 1.0775, 0.3925, 1.175, 0.49, 1.2725, 0.5875, 1.3725, 0.685, 0, 0.7825, 0.0975, 0.8825, 0.195, 0.98, 0.2925, 1.0775, 0.3925, 1.175, 0.49, 1.2725, 0.5875, 1.3725, 0.685],
  "SoftwareVersions": "syngo_MR_E11",
  "SpacingBetweenSlices": 2,
  "StationName": "MRC35049",
  "TaskName": "things",
  "TotalReadoutTime": 0.0576811,
  "TxRefAmp": 230.019,
  "WipMemBlock": "e3ac521a-6774-4b0c-ab69-b96769199c7a||Sequence: R016 ve11c/master r/e634e98; Dec 19 2017 11:00:25 by eja",
  "dcmmeta_affine": [
    [-1.999696135520935, 0.004537072964012623, 0.034568510949611664, 108.13180541992188],
    [-0.006018810905516148, 1.9082980155944824, -0.598633885383606, -71.47090148925781],
    [0.03434153273701668, 0.5986469388008118, 1.9079943895339966, -67.8319091796875],
    [0.0, 0.0, 0.0, 1.0]
],
  "dcmmeta_reorient_transform": [
    [0.0, -1.0, 0.0, 103.0],
    [1.0, 0.0, 0.0, 0.0],
    [0.0, 0.0, 1.0, 0.0],
    [0.0, 0.0, 0.0, 1.0]
],
  "dcmmeta_shape": [104, 104, 60, 190],
  "dcmmeta_slice_dim": 2,
  "dcmmeta_version": 0.6,
  "global": {
    "const": {
      "AcquisitionMatrix": [104, 0, 0, 104],
      "AngioFlag": "N",
      "BitsAllocated": 16,
      "BitsStored": 16,
      "BodyPartExamined": "BRAIN",
      "Columns": 832,
      "EchoNumbers": 1,
      "EchoTime": 37.0,
      "EchoTrainLength": 104,
      "FlipAngle": 52.0,
      "HighBit": 15,
      "ImageOrientationPatient": [0.99984804260071, 0.00300940554652, 0.01717076544002, 0.00226853637472, 0.95414900247797, -0.2993234618486],
      "ImagePositionPatient": [-838.13999437131, -821.89511356109, 199.23588380498],
      "ImageType": [
        "ORIGINAL",
        "PRIMARY",
        "M",
        "MB",
        "ND",
        "MOSAIC"
],
      "ImagedNucleus": "1H",
      "ImagingFrequency": 123.259177,
      "InPlanePhaseEncodingDirection": "COL",
      "MRAcquisitionType": "2D",
      "MagneticFieldStrength": 3.0,
      "Manufacturer": "SIEMENS",
      "ManufacturerModelName": "Prisma_fit",
      "Modality": "MR",
      "NumberOfAverages": 1.0,
      "NumberOfPhaseEncodingSteps": 104,
      "PercentPhaseFieldOfView": 100.0,
      "PercentSampling": 100.0,
      "PerformedProcedureStepStartTime": "131323.231000",
      "PhotometricInterpretation": "MONOCHROME2",
      "PixelBandwidth": 2290.0,
      "PixelRepresentation": 0,
      "PixelSpacing": [2.0, 2.0],
      "ProtocolName": "func_task-things_run-6",
      "RepetitionTime": 1490.0,
      "Rows": 832,
      "SAR": 0.04709872859495,
      "SamplesPerPixel": 1,
      "ScanOptions": "FS",
      "ScanningSequence": "EP",
      "SequenceName": "epfid2d1_104",
      "SequenceVariant": [
        "SK",
        "SS"
],
      "SeriesDescription": "func_task-things_run-6",
      "SeriesNumber": 25,
      "SeriesTime": "140128.036000",
      "SliceLocation": -41.450024829071,
      "SliceThickness": 2.0,
      "SmallestImagePixelValue": 0,
      "SoftwareVersions": "syngo MR E11",
      "SpacingBetweenSlices": 2.0000000435742,
      "SpecificCharacterSet": "ISO_IR 100",
      "StudyID": "1",
      "StudyTime": "131323.050000",
      "TransmitCoilName": "Body",
      "VariableFlipAngleFlag": "N",
      "WindowCenterWidthExplanation": "Algo1",
      "dBdt": 0.0},
    "slices": {}
  },
  "time": {
    "samples": {
      "AcquisitionNumber": [1, 2, 3, 4, 5, 6, 7, 8, 9, 10, 11, 12, 13, 14, 15, 16, 17, 18, 19, 20, 21, 22, 23, 24, 25, 26, 27, 28, 29, 30, 31, 32, 33, 34, 35, 36, 37, 38, 39, 40, 41, 42, 43, 44, 45, 46, 47, 48, 49, 50, 51, 52, 53, 54, 55, 56, 57, 58, 59, 60, 61, 62, 63, 64, 65, 66, 67, 68, 69, 70, 71, 72, 73, 74, 75, 76, 77, 78, 79, 80, 81, 82, 83, 84, 85, 86, 87, 88, 89, 90, 91, 92, 93, 94, 95, 96, 97, 98, 99, 100, 101, 102, 103, 104, 105, 106, 107, 108, 109, 110, 111, 112, 113, 114, 115, 116, 117, 118, 119, 120, 121, 122, 123, 124, 125, 126, 127, 128, 129, 130, 131, 132, 133, 134, 135, 136, 137, 138, 139, 140, 141, 142, 143, 144, 145, 146, 147, 148, 149, 150, 151, 152, 153, 154, 155, 156, 157, 158, 159, 160, 161, 162, 163, 164, 165, 166, 167, 168, 169, 170, 171, 172, 173, 174, 175, 176, 177, 178, 179, 180, 181, 182, 183, 184, 185, 186, 187, 188, 189, 190],
      "AcquisitionTime": ["140019.325000", "140020.815000", "140022.305000", "140023.795000", "140025.285000", "140026.775000", "140028.265000", "140029.755000", "140031.245000", "140032.735000", "140034.225000", "140035.715000", "140037.205000", "140038.695000", "140040.185000", "140041.675000", "140043.165000", "140044.655000", "140046.145000", "140047.635000", "140049.125000", "140050.615000", "140052.105000", "140053.595000", "140055.085000", "140056.575000", "140058.065000", "140059.555000", "140101.045000", "140102.535000", "140104.025000", "140105.515000", "140107.005000", "140108.495000", "140109.985000", "140111.475000", "140112.965000", "140114.455000", "140115.945000", "140117.435000", "140118.925000", "140120.415000", "140121.905000", "140123.395000", "140124.885000", "140126.375000", "140127.865000", "140129.355000", "140130.845000", "140132.335000", "140133.825000", "140135.315000", "140136.805000", "140138.295000", "140139.785000", "140141.275000", "140142.765000", "140144.255000", "140145.745000", "140147.235000", "140148.725000", "140150.215000", "140151.705000", "140153.195000", "140154.685000", "140156.175000", "140157.665000", "140159.155000", "140200.645000", "140202.135000", "140203.625000", "140205.115000", "140206.605000", "140208.095000", "140209.585000", "140211.075000", "140212.565000", "140214.055000", "140215.545000", "140217.035000", "140218.525000", "140220.015000", "140221.505000", "140222.995000", "140224.485000", "140225.975000", "140227.465000", "140228.955000", "140230.445000", "140231.935000", "140233.425000", "140234.915000", "140236.405000", "140237.895000", "140239.385000", "140240.875000", "140242.365000", "140243.855000", "140245.345000", "140246.835000", "140248.325000", "140249.815000", "140251.305000", "140252.795000", "140254.285000", "140255.775000", "140257.265000", "140258.755000", "140300.245000", "140301.735000", "140303.225000", "140304.715000", "140306.205000", "140307.695000", "140309.185000", "140310.675000", "140312.165000", "140313.655000", "140315.145000", "140316.635000", "140318.125000", "140319.615000", "140321.105000", "140322.595000", "140324.085000", "140325.575000", "140327.065000", "140328.555000", "140330.045000", "140331.535000", "140333.025000", "140334.515000", "140336.005000", "140337.495000", "140338.985000", "140340.475000", "140341.965000", "140343.455000", "140344.945000", "140346.435000", "140347.925000", "140349.415000", "140350.905000", "140352.395000", "140353.885000", "140355.375000", "140356.865000", "140358.355000", "140359.845000", "140401.335000", "140402.825000", "140404.315000", "140405.805000", "140407.295000", "140408.785000", "140410.275000", "140411.765000", "140413.255000", "140414.745000", "140416.235000", "140417.725000", "140419.215000", "140420.705000", "140422.195000", "140423.685000", "140425.175000", "140426.665000", "140428.155000", "140429.645000", "140431.135000", "140432.625000", "140434.115000", "140435.605000", "140437.095000", "140438.585000", "140440.075000", "140441.565000", "140443.055000", "140444.545000", "140446.035000", "140447.525000", "140449.015000", "140450.505000", "140451.995000", "140453.485000", "140454.975000", "140456.465000", "140457.955000", "140459.445000", "140500.935000"],
      "ContentTime": ["140128.039000", "140128.043000", "140128.046000", "140128.050000", "140128.053000", "140128.056000", "140128.059000", "140128.063000", "140128.066000", "140128.069000", "140128.072000", "140128.075000", "140128.078000", "140128.082000", "140128.085000", "140148.002000", "140148.006000", "140148.009000", "140148.012000", "140148.015000", "140148.019000", "140148.022000", "140148.025000", "140148.028000", "140148.031000", "140148.035000", "140148.055000", "140148.058000", "140148.061000", "140148.064000", "140148.068000", "140148.071000", "140148.074000", "140148.077000", "140148.085000", "140208.002000", "140208.006000", "140208.009000", "140208.023000", "140208.026000", "140208.029000", "140208.032000", "140208.036000", "140208.039000", "140208.042000", "140208.045000", "140208.048000", "140208.052000", "140208.055000", "140208.058000", "140208.061000", "140208.065000", "140208.068000", "140208.071000", "140208.075000", "140228.002000", "140228.006000", "140228.009000", "140228.012000", "140228.015000", "140228.018000", "140228.022000", "140228.025000", "140228.028000", "140228.031000", "140228.035000", "140228.038000", "140228.041000", "140228.044000", "140228.047000", "140228.051000", "140228.054000", "140228.057000", "140228.060000", "140228.064000", "140228.067000", "140248.002000", "140248.006000", "140248.009000", "140248.012000", "140248.015000", "140248.019000", "140248.022000", "140248.025000", "140248.028000", "140248.032000", "140248.035000", "140248.038000", "140248.041000", "140248.044000", "140248.048000", "140248.051000", "140248.054000", "140248.057000", "140248.061000", "140248.064000", "140328.002000", "140328.006000", "140328.009000", "140328.012000", "140328.015000", "140328.019000", "140328.022000", "140328.025000", "140328.028000", "140328.032000", "140328.035000", "140328.038000", "140328.041000", "140328.045000", "140328.048000", "140328.051000", "140328.055000", "140328.058000", "140328.061000", "140328.064000", "140328.068000", "140328.071000", "140328.074000", "140328.078000", "140328.081000", "140328.084000", "140328.087000", "140328.091000", "140328.094000", "140328.097000", "140408.002000", "140408.006000", "140408.009000", "140408.012000", "140408.015000", "140408.019000", "140408.022000", "140408.025000", "140408.028000", "140408.032000", "140408.035000", "140408.038000", "140408.041000", "140408.045000", "140408.048000", "140408.051000", "140408.054000", "140408.058000", "140408.061000", "140408.064000", "140408.067000", "140408.071000", "140408.074000", "140408.077000", "140408.080000", "140408.084000", "140408.087000", "140448.002000", "140448.006000", "140448.009000", "140448.012000", "140448.015000", "140448.019000", "140448.022000", "140448.025000", "140448.028000", "140448.032000", "140448.035000", "140448.038000", "140448.041000", "140448.045000", "140448.048000", "140448.051000", "140448.054000", "140448.058000", "140448.061000", "140448.065000", "140448.068000", "140448.072000", "140448.075000", "140448.078000", "140448.082000", "140448.085000", "140503.035000", "140503.039000", "140503.042000", "140503.054000", "140503.057000", "140503.060000", "140503.063000", "140503.067000", "140503.070000", "140503.074000", "140503.077000"],
      "InstanceCreationTime": ["140128.039000", "140128.043000", "140128.046000", "140128.050000", "140128.053000", "140128.056000", "140128.059000", "140128.063000", "140128.066000", "140128.069000", "140128.072000", "140128.075000", "140128.078000", "140128.082000", "140128.085000", "140148.002000", "140148.006000", "140148.009000", "140148.012000", "140148.015000", "140148.019000", "140148.022000", "140148.025000", "140148.028000", "140148.031000", "140148.035000", "140148.055000", "140148.058000", "140148.061000", "140148.064000", "140148.068000", "140148.071000", "140148.074000", "140148.077000", "140148.085000", "140208.002000", "140208.006000", "140208.009000", "140208.023000", "140208.026000", "140208.029000", "140208.032000", "140208.036000", "140208.039000", "140208.042000", "140208.045000", "140208.048000", "140208.052000", "140208.055000", "140208.058000", "140208.061000", "140208.065000", "140208.068000", "140208.071000", "140208.075000", "140228.002000", "140228.006000", "140228.009000", "140228.012000", "140228.015000", "140228.018000", "140228.022000", "140228.025000", "140228.028000", "140228.031000", "140228.035000", "140228.038000", "140228.041000", "140228.044000", "140228.047000", "140228.051000", "140228.054000", "140228.057000", "140228.060000", "140228.064000", "140228.067000", "140248.002000", "140248.006000", "140248.009000", "140248.012000", "140248.015000", "140248.019000", "140248.022000", "140248.025000", "140248.028000", "140248.032000", "140248.035000", "140248.038000", "140248.041000", "140248.044000", "140248.048000", "140248.051000", "140248.054000", "140248.057000", "140248.061000", "140248.064000", "140328.002000", "140328.006000", "140328.009000", "140328.012000", "140328.015000", "140328.019000", "140328.022000", "140328.025000", "140328.028000", "140328.032000", "140328.035000", "140328.038000", "140328.041000", "140328.045000", "140328.048000", "140328.051000", "140328.055000", "140328.058000", "140328.061000", "140328.064000", "140328.068000", "140328.071000", "140328.074000", "140328.078000", "140328.081000", "140328.084000", "140328.087000", "140328.091000", "140328.094000", "140328.097000", "140408.002000", "140408.006000", "140408.009000", "140408.012000", "140408.015000", "140408.019000", "140408.022000", "140408.025000", "140408.028000", "140408.032000", "140408.035000", "140408.038000", "140408.041000", "140408.045000", "140408.048000", "140408.051000", "140408.054000", "140408.058000", "140408.061000", "140408.064000", "140408.067000", "140408.071000", "140408.074000", "140408.077000", "140408.080000", "140408.084000", "140408.087000", "140448.002000", "140448.006000", "140448.009000", "140448.012000", "140448.015000", "140448.019000", "140448.022000", "140448.025000", "140448.028000", "140448.032000", "140448.035000", "140448.038000", "140448.041000", "140448.045000", "140448.048000", "140448.051000", "140448.054000", "140448.058000", "140448.061000", "140448.065000", "140448.068000", "140448.072000", "140448.075000", "140448.078000", "140448.082000", "140448.085000", "140503.035000", "140503.039000", "140503.042000", "140503.054000", "140503.057000", "140503.060000", "140503.063000", "140503.067000", "140503.070000", "140503.074000", "140503.077000"],
      "InstanceNumber": [1, 2, 3, 4, 5, 6, 7, 8, 9, 10, 11, 12, 13, 14, 15, 16, 17, 18, 19, 20, 21, 22, 23, 24, 25, 26, 27, 28, 29, 30, 31, 32, 33, 34, 35, 36, 37, 38, 39, 40, 41, 42, 43, 44, 45, 46, 47, 48, 49, 50, 51, 52, 53, 54, 55, 56, 57, 58, 59, 60, 61, 62, 63, 64, 65, 66, 67, 68, 69, 70, 71, 72, 73, 74, 75, 76, 77, 78, 79, 80, 81, 82, 83, 84, 85, 86, 87, 88, 89, 90, 91, 92, 93, 94, 95, 96, 97, 98, 99, 100, 101, 102, 103, 104, 105, 106, 107, 108, 109, 110, 111, 112, 113, 114, 115, 116, 117, 118, 119, 120, 121, 122, 123, 124, 125, 126, 127, 128, 129, 130, 131, 132, 133, 134, 135, 136, 137, 138, 139, 140, 141, 142, 143, 144, 145, 146, 147, 148, 149, 150, 151, 152, 153, 154, 155, 156, 157, 158, 159, 160, 161, 162, 163, 164, 165, 166, 167, 168, 169, 170, 171, 172, 173, 174, 175, 176, 177, 178, 179, 180, 181, 182, 183, 184, 185, 186, 187, 188, 189, 190],
      "LargestImagePixelValue": [39630, 38670, 38389, 37665, 37707, 37000, 37147, 37399, 37475, 36952, 37638, 37241, 37599, 37219, 37874, 37372, 37461, 37839, 37405, 37676, 37628, 37277, 37784, 37663, 37562, 37905, 37367, 37479, 37198, 37580, 37167, 37495, 37604, 37692, 37480, 37249, 37530, 36834, 37936, 36880, 36906, 37258, 37039, 36936, 36980, 37191, 36976, 37636, 36923, 37304, 37233, 37415, 36549, 37762, 37142, 37244, 37132, 37848, 36688, 37551, 37520, 36738, 36958, 37194, 36606, 37727, 36986, 36992, 37284, 37497, 36594, 37599, 37016, 37349, 36544, 37193, 36900, 37204, 37238, 37035, 36460, 37067, 36585, 37186, 36489, 36619, 36666, 36855, 36382, 36377, 36911, 37077, 36728, 37150, 37052, 36627, 36425, 36865, 36527, 37572, 37055, 37454, 36346, 37421, 36948, 37385, 36378, 36673, 36720, 36863, 36462, 37120, 36965, 36953, 36209, 36790, 36540, 36889, 36964, 36869, 36986, 36785, 36539, 36957, 36658, 36526, 36823, 36799, 36462, 36564, 36849, 36312, 36299, 36706, 36801, 36214, 36339, 37005, 36855, 36174, 36591, 36705, 36345, 36318, 36941, 36402, 36767, 36347, 36980, 36449, 36405, 36263, 37175, 36799, 36329, 36565, 36902, 36695, 36556, 36371, 36645, 36267, 36562, 37002, 36339, 36451, 36616, 37048, 36287, 36636, 36982, 36441, 36442, 36662, 36364, 36475, 36387, 36839, 35995, 37171, 36802, 36902, 36385, 36553, 37157, 36719, 36527, 37052, 37593, 36909],
      "WindowCenter": [10136.0, 10097.0, 10091.0, 10095.0, 10095.0, 10088.0, 10071.0, 10077.0, 10076.0, 10071.0, 10074.0, 10070.0, 10069.0, 10054.0, 10059.0, 10060.0, 10064.0, 10081.0, 10086.0, 10086.0, 10076.0, 10067.0, 10058.0, 10063.0, 10066.0, 10075.0, 10075.0, 10070.0, 10068.0, 10074.0, 10070.0, 10092.0, 10092.0, 10082.0, 10067.0, 10062.0, 10065.0, 10052.0, 10063.0, 10050.0, 10046.0, 10050.0, 10040.0, 10026.0, 10038.0, 10051.0, 10061.0, 10065.0, 10060.0, 10069.0, 10070.0, 10068.0, 10055.0, 10065.0, 10045.0, 10043.0, 10047.0, 10054.0, 10067.0, 10078.0, 10077.0, 10055.0, 10043.0, 10057.0, 10065.0, 10077.0, 10068.0, 10053.0, 10055.0, 10055.0, 10069.0, 10091.0, 10084.0, 10076.0, 10056.0, 10050.0, 10052.0, 10070.0, 10079.0, 10079.0, 10072.0, 10068.0, 10062.0, 10067.0, 10055.0, 10054.0, 10059.0, 10053.0, 10062.0, 10065.0, 10063.0, 10054.0, 10046.0, 10034.0, 10049.0, 10061.0, 10071.0, 10078.0, 10065.0, 10058.0, 10051.0, 10058.0, 10049.0, 10065.0, 10069.0, 10085.0, 10072.0, 10062.0, 10053.0, 10043.0, 10053.0, 10084.0, 10111.0, 10101.0, 10080.0, 10053.0, 10029.0, 10026.0, 10031.0, 10034.0, 10049.0, 10042.0, 10035.0, 10035.0, 10035.0, 10044.0, 10050.0, 10070.0, 10064.0, 10053.0, 10043.0, 10044.0, 10055.0, 10062.0, 10069.0, 10065.0, 10064.0, 10066.0, 10053.0, 10055.0, 10054.0, 10046.0, 10044.0, 10054.0, 10071.0, 10082.0, 10091.0, 10083.0, 10071.0, 10050.0, 10047.0, 10055.0, 10060.0, 10046.0, 10046.0, 10045.0, 10044.0, 10049.0, 10052.0, 10061.0, 10070.0, 10074.0, 10065.0, 10052.0, 10037.0, 10028.0, 10042.0, 10074.0, 10075.0, 10058.0, 10050.0, 10037.0, 10058.0, 10070.0, 10072.0, 10072.0, 10057.0, 10053.0, 10047.0, 10068.0, 10070.0, 10073.0, 10074.0, 10066.0, 10060.0, 10045.0, 10052.0, 10071.0, 10079.0, 10056.0],
      "WindowWidth": [21591.0, 21480.0, 21453.0, 21460.0, 21456.0, 21438.0, 21400.0, 21410.0, 21408.0, 21398.0, 21401.0, 21394.0, 21393.0, 21358.0, 21367.0, 21371.0, 21378.0, 21416.0, 21430.0, 21431.0, 21406.0, 21385.0, 21363.0, 21375.0, 21382.0, 21404.0, 21406.0, 21395.0, 21389.0, 21401.0, 21396.0, 21443.0, 21443.0, 21418.0, 21387.0, 21377.0, 21378.0, 21354.0, 21372.0, 21348.0, 21344.0, 21348.0, 21325.0, 21298.0, 21324.0, 21354.0, 21378.0, 21384.0, 21373.0, 21395.0, 21398.0, 21391.0, 21366.0, 21382.0, 21338.0, 21334.0, 21339.0, 21355.0, 21391.0, 21416.0, 21410.0, 21363.0, 21335.0, 21363.0, 21389.0, 21414.0, 21391.0, 21357.0, 21358.0, 21358.0, 21396.0, 21443.0, 21426.0, 21406.0, 21367.0, 21348.0, 21355.0, 21399.0, 21421.0, 21419.0, 21403.0, 21391.0, 21378.0, 21388.0, 21365.0, 21360.0, 21370.0, 21359.0, 21381.0, 21391.0, 21383.0, 21361.0, 21343.0, 21314.0, 21346.0, 21377.0, 21402.0, 21415.0, 21385.0, 21367.0, 21351.0, 21366.0, 21353.0, 21384.0, 21396.0, 21428.0, 21402.0, 21378.0, 21357.0, 21335.0, 21360.0, 21430.0, 21491.0, 21470.0, 21422.0, 21355.0, 21304.0, 21297.0, 21306.0, 21317.0, 21347.0, 21334.0, 21318.0, 21316.0, 21317.0, 21338.0, 21354.0, 21398.0, 21385.0, 21357.0, 21331.0, 21339.0, 21368.0, 21380.0, 21394.0, 21388.0, 21383.0, 21383.0, 21357.0, 21364.0, 21362.0, 21342.0, 21339.0, 21364.0, 21405.0, 21429.0, 21448.0, 21430.0, 21398.0, 21354.0, 21345.0, 21363.0, 21372.0, 21343.0, 21344.0, 21342.0, 21338.0, 21348.0, 21358.0, 21377.0, 21396.0, 21408.0, 21385.0, 21352.0, 21322.0, 21303.0, 21334.0, 21405.0, 21414.0, 21373.0, 21348.0, 21323.0, 21369.0, 21399.0, 21405.0, 21405.0, 21369.0, 21357.0, 21348.0, 21390.0, 21397.0, 21403.0, 21408.0, 21390.0, 21369.0, 21337.0, 21354.0, 21398.0, 21411.0, 21360.0]
    },
    "slices": {}
  }
}