{
  "AcquisitionMatrixPE": 104,
  "AcquisitionNumber": 1,
  "AcquisitionTime": "13:27:26.542500",
  "BandwidthPerPixelPhaseEncode": 17.17,
  "BaseResolution": 104,
  "BodyPartExamined": "BRAIN",
  "CoilString": "HC1-7;NC1_2",
  "ConsistencyInfo": "N4_VE11C_LATEST_20160120",
  "ConversionSoftware": "dcm2niix",
  "ConversionSoftwareVersion": "v1.0.20190902",
  "DerivedVendorReportedEchoSpacing": 0.000560011,
  "DeviceSerialNumber": "167006",
  "DwellTime": 2.1e-06,
  "EchoTime": 0.037,
  "EchoTrainLength": 104,
  "EffectiveEchoSpacing": 0.000560011,
  "FlipAngle": 52,
  "ImageComments": "Unaliased_MB4_PE3_LB",
  "ImageOrientationPatientDICOM": [0.999848, 0.00300941, 0.0171708, 0.00226854, 0.954149, -0.299323],
  "ImageType": [
    "ORIGINAL",
    "PRIMARY",
    "M",
    "MB",
    "ND",
    "MOSAIC"
],
  "ImagingFrequency": 123.259,
  "InPlanePhaseEncodingDirectionDICOM": "COL",
  "InstitutionAddress": "Chemin_Queen-Mary_4565_Montreal_District_CA_H3W_1W5",
  "InstitutionName": "IUGM",
  "InstitutionalDepartmentName": "Department",
  "MRAcquisitionType": "2D",
  "MagneticFieldStrength": 3,
  "Manufacturer": "Siemens",
  "ManufacturersModelName": "Prisma_fit",
  "Modality": "MR",
  "MultibandAccelerationFactor": 4,
  "PartialFourier": 1,
  "PatientPosition": "HFS",
  "PercentPhaseFOV": 100,
  "PhaseEncodingDirection": "j",
  "PhaseEncodingSteps": 104,
  "PhaseResolution": 1,
  "PixelBandwidth": 2290,
  "ProcedureStepDescription": "memory_things",
  "ProtocolName": "func_task-things_run-1",
  "PulseSequenceDetails": "%CustomerSeq%_cmrr_mbep2d_bold",
  "ReceiveCoilActiveElements": "HC1-7;NC1,2",
  "ReceiveCoilName": "HeadNeck_64",
  "ReconMatrixPE": 104,
  "RepetitionTime": 1.49,
  "SAR": 0.0470987,
  "ScanOptions": "FS",
  "ScanningSequence": "EP",
  "SequenceName": "epfid2d1_104",
  "SequenceVariant": "SK_SS",
  "SeriesDescription": "func_task-things_run-1",
  "SeriesNumber": 10,
  "ShimSetting": [628, -7197, -8791, 716, 11, 56, 8, -9],
  "SliceThickness": 2,
  "SliceTiming": [0, 0.7825, 0.0975, 0.88, 0.195, 0.98, 0.2925, 1.0775, 0.39, 1.175, 0.49, 1.2725, 0.5875, 1.37, 0.685, 0, 0.7825, 0.0975, 0.88, 0.195, 0.98, 0.2925, 1.0775, 0.39, 1.175, 0.49, 1.2725, 0.5875, 1.37, 0.685, 0, 0.7825, 0.0975, 0.88, 0.195, 0.98, 0.2925, 1.0775, 0.39, 1.175, 0.49, 1.2725, 0.5875, 1.37, 0.685, 0, 0.7825, 0.0975, 0.88, 0.195, 0.98, 0.2925, 1.0775, 0.39, 1.175, 0.49, 1.2725, 0.5875, 1.37, 0.685],
  "SoftwareVersions": "syngo_MR_E11",
  "SpacingBetweenSlices": 2,
  "StationName": "MRC35049",
  "TaskName": "things",
  "TotalReadoutTime": 0.0576811,
  "TxRefAmp": 230.019,
  "WipMemBlock": "df068cc5-147f-48d6-beb5-14f3c193de76||Sequence: R016 ve11c/master r/e634e98; Dec 19 2017 11:00:25 by eja",
  "dcmmeta_affine": [
    [-1.999696135520935, 0.004537072964012623, 0.034568510949611664, 108.13180541992188],
    [-0.006018810905516148, 1.9082980155944824, -0.598633885383606, -71.47090148925781],
    [0.03434153273701668, 0.5986469388008118, 1.9079943895339966, -67.8319091796875],
    [0.0, 0.0, 0.0, 1.0]
],
  "dcmmeta_reorient_transform": [
    [0.0, -1.0, 0.0, 103.0],
    [1.0, 0.0, 0.0, 0.0],
    [0.0, 0.0, 1.0, 0.0],
    [0.0, 0.0, 0.0, 1.0]
],
  "dcmmeta_shape": [104, 104, 60, 190],
  "dcmmeta_slice_dim": 2,
  "dcmmeta_version": 0.6,
  "global": {
    "const": {
      "AcquisitionMatrix": [104, 0, 0, 104],
      "AngioFlag": "N",
      "BitsAllocated": 16,
      "BitsStored": 16,
      "BodyPartExamined": "BRAIN",
      "Columns": 832,
      "EchoNumbers": 1,
      "EchoTime": 37.0,
      "EchoTrainLength": 104,
      "FlipAngle": 52.0,
      "HighBit": 15,
      "ImageOrientationPatient": [0.99984804260071, 0.00300940554652, 0.01717076544002, 0.00226853637472, 0.95414900247797, -0.2993234618486],
      "ImagePositionPatient": [-838.13999437131, -821.89511356109, 199.23588380498],
      "ImageType": [
        "ORIGINAL",
        "PRIMARY",
        "M",
        "MB",
        "ND",
        "MOSAIC"
],
      "ImagedNucleus": "1H",
      "ImagingFrequency": 123.259163,
      "InPlanePhaseEncodingDirection": "COL",
      "MRAcquisitionType": "2D",
      "MagneticFieldStrength": 3.0,
      "Manufacturer": "SIEMENS",
      "ManufacturerModelName": "Prisma_fit",
      "Modality": "MR",
      "NumberOfAverages": 1.0,
      "NumberOfPhaseEncodingSteps": 104,
      "PercentPhaseFieldOfView": 100.0,
      "PercentSampling": 100.0,
      "PerformedProcedureStepStartTime": "131323.231000",
      "PhotometricInterpretation": "MONOCHROME2",
      "PixelBandwidth": 2290.0,
      "PixelRepresentation": 0,
      "PixelSpacing": [2.0, 2.0],
      "ProtocolName": "func_task-things_run-1",
      "RepetitionTime": 1490.0,
      "Rows": 832,
      "SAR": 0.04709872859495,
      "SamplesPerPixel": 1,
      "ScanOptions": "FS",
      "ScanningSequence": "EP",
      "SequenceName": "epfid2d1_104",
      "SequenceVariant": [
        "SK",
        "SS"
],
      "SeriesDescription": "func_task-things_run-1",
      "SeriesNumber": 10,
      "SeriesTime": "132849.378000",
      "SliceLocation": -41.450024829071,
      "SliceThickness": 2.0,
      "SmallestImagePixelValue": 0,
      "SoftwareVersions": "syngo MR E11",
      "SpacingBetweenSlices": 2.0000000435742,
      "SpecificCharacterSet": "ISO_IR 100",
      "StudyID": "1",
      "StudyTime": "131323.050000",
      "TransmitCoilName": "Body",
      "VariableFlipAngleFlag": "N",
      "WindowCenterWidthExplanation": "Algo1",
      "dBdt": 0.0},
    "slices": {}
  },
  "time": {
    "samples": {
      "AcquisitionNumber": [1, 2, 3, 4, 5, 6, 7, 8, 9, 10, 11, 12, 13, 14, 15, 16, 17, 18, 19, 20, 21, 22, 23, 24, 25, 26, 27, 28, 29, 30, 31, 32, 33, 34, 35, 36, 37, 38, 39, 40, 41, 42, 43, 44, 45, 46, 47, 48, 49, 50, 51, 52, 53, 54, 55, 56, 57, 58, 59, 60, 61, 62, 63, 64, 65, 66, 67, 68, 69, 70, 71, 72, 73, 74, 75, 76, 77, 78, 79, 80, 81, 82, 83, 84, 85, 86, 87, 88, 89, 90, 91, 92, 93, 94, 95, 96, 97, 98, 99, 100, 101, 102, 103, 104, 105, 106, 107, 108, 109, 110, 111, 112, 113, 114, 115, 116, 117, 118, 119, 120, 121, 122, 123, 124, 125, 126, 127, 128, 129, 130, 131, 132, 133, 134, 135, 136, 137, 138, 139, 140, 141, 142, 143, 144, 145, 146, 147, 148, 149, 150, 151, 152, 153, 154, 155, 156, 157, 158, 159, 160, 161, 162, 163, 164, 165, 166, 167, 168, 169, 170, 171, 172, 173, 174, 175, 176, 177, 178, 179, 180, 181, 182, 183, 184, 185, 186, 187, 188, 189, 190],
      "AcquisitionTime": ["132726.542500", "132728.032500", "132729.522500", "132731.012500", "132732.502500", "132733.992500", "132735.482500", "132736.972500", "132738.462500", "132739.952500", "132741.442500", "132742.932500", "132744.422500", "132745.912500", "132747.402500", "132748.892500", "132750.382500", "132751.872500", "132753.362500", "132754.852500", "132756.342500", "132757.832500", "132759.322500", "132800.812500", "132802.302500", "132803.792500", "132805.282500", "132806.772500", "132808.262500", "132809.752500", "132811.242500", "132812.732500", "132814.222500", "132815.712500", "132817.202500", "132818.692500", "132820.182500", "132821.672500", "132823.162500", "132824.652500", "132826.142500", "132827.632500", "132829.122500", "132830.612500", "132832.102500", "132833.592500", "132835.082500", "132836.572500", "132838.062500", "132839.552500", "132841.042500", "132842.532500", "132844.022500", "132845.512500", "132847.002500", "132848.492500", "132849.982500", "132851.472500", "132852.962500", "132854.452500", "132855.942500", "132857.432500", "132858.922500", "132900.412500", "132901.902500", "132903.392500", "132904.882500", "132906.372500", "132907.862500", "132909.352500", "132910.842500", "132912.332500", "132913.822500", "132915.312500", "132916.802500", "132918.292500", "132919.782500", "132921.272500", "132922.762500", "132924.252500", "132925.742500", "132927.232500", "132928.722500", "132930.212500", "132931.702500", "132933.192500", "132934.682500", "132936.172500", "132937.662500", "132939.152500", "132940.642500", "132942.132500", "132943.622500", "132945.112500", "132946.602500", "132948.092500", "132949.582500", "132951.072500", "132952.562500", "132954.052500", "132955.542500", "132957.032500", "132958.522500", "133000.012500", "133001.502500", "133002.992500", "133004.482500", "133005.972500", "133007.462500", "133008.952500", "133010.442500", "133011.932500", "133013.422500", "133014.912500", "133016.402500", "133017.892500", "133019.382500", "133020.872500", "133022.362500", "133023.852500", "133025.342500", "133026.832500", "133028.322500", "133029.812500", "133031.302500", "133032.792500", "133034.282500", "133035.772500", "133037.262500", "133038.752500", "133040.242500", "133041.732500", "133043.222500", "133044.712500", "133046.202500", "133047.692500", "133049.182500", "133050.672500", "133052.162500", "133053.652500", "133055.142500", "133056.632500", "133058.122500", "133059.612500", "133101.102500", "133102.592500", "133104.082500", "133105.572500", "133107.062500", "133108.552500", "133110.042500", "133111.532500", "133113.022500", "133114.512500", "133116.002500", "133117.492500", "133118.982500", "133120.472500", "133121.962500", "133123.452500", "133124.942500", "133126.432500", "133127.922500", "133129.412500", "133130.902500", "133132.392500", "133133.882500", "133135.372500", "133136.862500", "133138.352500", "133139.842500", "133141.332500", "133142.822500", "133144.312500", "133145.802500", "133147.292500", "133148.782500", "133150.272500", "133151.762500", "133153.252500", "133154.742500", "133156.232500", "133157.722500", "133159.212500", "133200.702500", "133202.192500", "133203.682500", "133205.172500", "133206.662500", "133208.152500"],
      "ContentTime": ["132849.381000", "132849.385000", "132849.388000", "132849.391000", "132849.394000", "132849.398000", "132849.401000", "132849.404000", "132849.407000", "132849.411000", "132849.414000", "132849.426000", "132849.429000", "132849.432000", "132849.436000", "132849.439000", "132849.442000", "132849.445000", "132849.449000", "132849.452000", "132849.455000", "132849.459000", "132849.469000", "132849.472000", "132849.475000", "132849.479000", "132849.482000", "132849.485000", "132849.488000", "132909.342000", "132909.345000", "132909.349000", "132909.358000", "132909.361000", "132909.364000", "132909.367000", "132909.370000", "132909.374000", "132909.377000", "132909.380000", "132909.383000", "132909.387000", "132909.390000", "132909.393000", "132909.403000", "132909.407000", "132909.410000", "132909.413000", "132909.417000", "132929.342000", "132929.345000", "132929.349000", "132929.353000", "132929.357000", "132929.361000", "132929.364000", "132929.368000", "132929.371000", "132929.374000", "132929.378000", "132929.381000", "132929.384000", "132929.387000", "132929.391000", "132929.394000", "132929.397000", "132929.400000", "132929.404000", "132929.407000", "132949.341000", "132949.345000", "132949.348000", "132949.351000", "132949.354000", "132949.358000", "132949.361000", "132949.364000", "132949.367000", "132949.371000", "132949.374000", "132949.377000", "132949.380000", "132949.384000", "132949.387000", "132949.390000", "132949.393000", "132949.397000", "132949.400000", "132949.403000", "132949.406000", "133029.341000", "133029.345000", "133029.348000", "133029.351000", "133029.354000", "133029.358000", "133029.361000", "133029.380000", "133029.383000", "133029.387000", "133029.390000", "133029.393000", "133029.396000", "133029.399000", "133029.403000", "133029.406000", "133029.409000", "133029.413000", "133029.416000", "133029.419000", "133029.422000", "133029.426000", "133029.429000", "133029.432000", "133029.435000", "133029.439000", "133029.442000", "133029.445000", "133029.448000", "133029.452000", "133029.455000", "133029.458000", "133109.342000", "133109.346000", "133109.349000", "133109.352000", "133109.356000", "133109.359000", "133109.362000", "133109.366000", "133109.369000", "133109.372000", "133109.376000", "133109.379000", "133109.382000", "133109.385000", "133109.389000", "133109.392000", "133109.395000", "133109.399000", "133109.402000", "133109.405000", "133109.408000", "133109.412000", "133109.415000", "133109.418000", "133109.422000", "133109.425000", "133109.428000", "133149.341000", "133149.345000", "133149.355000", "133149.358000", "133149.361000", "133149.364000", "133149.376000", "133149.379000", "133149.383000", "133149.386000", "133149.389000", "133149.393000", "133149.396000", "133149.399000", "133149.402000", "133149.406000", "133149.409000", "133149.412000", "133149.416000", "133149.419000", "133149.422000", "133149.425000", "133149.429000", "133149.432000", "133149.435000", "133149.438000", "133149.442000", "133210.011000", "133210.014000", "133210.018000", "133210.021000", "133210.029000", "133210.032000", "133210.035000", "133210.039000", "133210.042000", "133210.045000", "133210.048000", "133210.052000", "133210.055000", "133210.059000"],
      "InstanceCreationTime": ["132849.381000", "132849.385000", "132849.388000", "132849.391000", "132849.394000", "132849.398000", "132849.401000", "132849.404000", "132849.407000", "132849.411000", "132849.414000", "132849.426000", "132849.429000", "132849.432000", "132849.436000", "132849.439000", "132849.442000", "132849.445000", "132849.449000", "132849.452000", "132849.455000", "132849.459000", "132849.469000", "132849.472000", "132849.475000", "132849.479000", "132849.482000", "132849.485000", "132849.488000", "132909.342000", "132909.345000", "132909.349000", "132909.358000", "132909.361000", "132909.364000", "132909.367000", "132909.370000", "132909.374000", "132909.377000", "132909.380000", "132909.383000", "132909.387000", "132909.390000", "132909.393000", "132909.403000", "132909.407000", "132909.410000", "132909.413000", "132909.417000", "132929.342000", "132929.345000", "132929.349000", "132929.353000", "132929.357000", "132929.361000", "132929.364000", "132929.368000", "132929.371000", "132929.374000", "132929.378000", "132929.381000", "132929.384000", "132929.387000", "132929.391000", "132929.394000", "132929.397000", "132929.400000", "132929.404000", "132929.407000", "132949.341000", "132949.345000", "132949.348000", "132949.351000", "132949.354000", "132949.358000", "132949.361000", "132949.364000", "132949.367000", "132949.371000", "132949.374000", "132949.377000", "132949.380000", "132949.384000", "132949.387000", "132949.390000", "132949.393000", "132949.397000", "132949.400000", "132949.403000", "132949.406000", "133029.341000", "133029.345000", "133029.348000", "133029.351000", "133029.354000", "133029.358000", "133029.361000", "133029.380000", "133029.383000", "133029.387000", "133029.390000", "133029.393000", "133029.396000", "133029.399000", "133029.403000", "133029.406000", "133029.409000", "133029.413000", "133029.416000", "133029.419000", "133029.422000", "133029.426000", "133029.429000", "133029.432000", "133029.435000", "133029.439000", "133029.442000", "133029.445000", "133029.448000", "133029.452000", "133029.455000", "133029.458000", "133109.342000", "133109.346000", "133109.349000", "133109.352000", "133109.356000", "133109.359000", "133109.362000", "133109.366000", "133109.369000", "133109.372000", "133109.376000", "133109.379000", "133109.382000", "133109.385000", "133109.389000", "133109.392000", "133109.395000", "133109.399000", "133109.402000", "133109.405000", "133109.408000", "133109.412000", "133109.415000", "133109.418000", "133109.422000", "133109.425000", "133109.428000", "133149.341000", "133149.345000", "133149.355000", "133149.358000", "133149.361000", "133149.364000", "133149.376000", "133149.379000", "133149.383000", "133149.386000", "133149.389000", "133149.393000", "133149.396000", "133149.399000", "133149.402000", "133149.406000", "133149.409000", "133149.412000", "133149.416000", "133149.419000", "133149.422000", "133149.425000", "133149.429000", "133149.432000", "133149.435000", "133149.438000", "133149.442000", "133210.011000", "133210.014000", "133210.018000", "133210.021000", "133210.029000", "133210.032000", "133210.035000", "133210.039000", "133210.042000", "133210.045000", "133210.048000", "133210.052000", "133210.055000", "133210.059000"],
      "InstanceNumber": [1, 2, 3, 4, 5, 6, 7, 8, 9, 10, 11, 12, 13, 14, 15, 16, 17, 18, 19, 20, 21, 22, 23, 24, 25, 26, 27, 28, 29, 30, 31, 32, 33, 34, 35, 36, 37, 38, 39, 40, 41, 42, 43, 44, 45, 46, 47, 48, 49, 50, 51, 52, 53, 54, 55, 56, 57, 58, 59, 60, 61, 62, 63, 64, 65, 66, 67, 68, 69, 70, 71, 72, 73, 74, 75, 76, 77, 78, 79, 80, 81, 82, 83, 84, 85, 86, 87, 88, 89, 90, 91, 92, 93, 94, 95, 96, 97, 98, 99, 100, 101, 102, 103, 104, 105, 106, 107, 108, 109, 110, 111, 112, 113, 114, 115, 116, 117, 118, 119, 120, 121, 122, 123, 124, 125, 126, 127, 128, 129, 130, 131, 132, 133, 134, 135, 136, 137, 138, 139, 140, 141, 142, 143, 144, 145, 146, 147, 148, 149, 150, 151, 152, 153, 154, 155, 156, 157, 158, 159, 160, 161, 162, 163, 164, 165, 166, 167, 168, 169, 170, 171, 172, 173, 174, 175, 176, 177, 178, 179, 180, 181, 182, 183, 184, 185, 186, 187, 188, 189, 190],
      "LargestImagePixelValue": [39987, 38637, 37906, 37634, 37727, 37808, 37281, 37400, 38026, 37365, 37575, 37204, 38004, 36842, 37410, 37222, 37769, 37010, 37219, 37213, 37173, 37354, 37339, 37214, 37184, 37256, 37370, 37670, 37313, 37182, 37451, 37274, 37192, 37495, 37197, 37236, 37586, 37261, 37497, 37606, 37094, 37542, 37222, 37089, 37324, 37500, 37058, 37202, 37215, 37310, 37387, 37266, 37268, 37323, 37211, 37224, 37349, 37383, 37213, 37362, 37277, 37110, 37510, 37068, 37298, 37128, 37315, 37452, 37538, 37099, 37508, 37365, 36961, 37978, 37108, 37643, 37258, 37122, 37441, 36886, 37542, 37221, 37033, 37275, 36962, 37478, 37486, 36997, 37208, 37128, 37323, 37168, 36982, 37152, 37196, 37044, 37138, 37481, 37058, 37202, 37473, 37134, 37030, 36940, 36988, 37043, 37099, 36824, 36896, 37070, 37248, 37005, 37196, 37130, 36673, 37200, 37307, 37260, 37091, 37202, 37123, 37235, 37016, 37706, 37112, 37120, 37115, 37070, 37346, 36684, 37141, 37143, 37185, 37036, 37311, 37326, 37294, 37111, 37487, 37547, 37080, 37188, 37366, 37012, 37443, 37150, 37003, 37167, 37338, 37342, 36962, 36944, 36996, 37112, 37226, 37384, 37054, 37047, 37553, 37439, 37127, 37410, 37248, 37195, 37133, 37356, 37263, 37474, 37223, 36922, 37483, 37232, 37640, 37506, 37279, 37110, 37066, 37105, 37004, 37257, 37551, 37101, 37066, 37200, 37311, 37000, 37594, 37021, 37078, 37306],
      "WindowCenter": [10222.0, 10168.0, 10139.0, 10121.0, 10133.0, 10125.0, 10125.0, 10136.0, 10148.0, 10144.0, 10155.0, 10157.0, 10157.0, 10142.0, 10138.0, 10134.0, 10145.0, 10137.0, 10130.0, 10131.0, 10137.0, 10145.0, 10147.0, 10140.0, 10136.0, 10122.0, 10120.0, 10118.0, 10119.0, 10113.0, 10104.0, 10100.0, 10100.0, 10110.0, 10114.0, 10113.0, 10111.0, 10111.0, 10120.0, 10133.0, 10120.0, 10114.0, 10113.0, 10128.0, 10129.0, 10121.0, 10113.0, 10112.0, 10111.0, 10111.0, 10110.0, 10104.0, 10103.0, 10111.0, 10103.0, 10111.0, 10125.0, 10129.0, 10122.0, 10122.0, 10129.0, 10122.0, 10121.0, 10111.0, 10111.0, 10111.0, 10120.0, 10128.0, 10120.0, 10113.0, 10110.0, 10112.0, 10114.0, 10119.0, 10105.0, 10101.0, 10092.0, 10103.0, 10110.0, 10113.0, 10112.0, 10112.0, 10120.0, 10123.0, 10122.0, 10129.0, 10125.0, 10115.0, 10107.0, 10097.0, 10101.0, 10112.0, 10124.0, 10133.0, 10123.0, 10108.0, 10098.0, 10101.0, 10096.0, 10096.0, 10109.0, 10113.0, 10123.0, 10110.0, 10104.0, 10095.0, 10094.0, 10103.0, 10104.0, 10106.0, 10105.0, 10106.0, 10127.0, 10120.0, 10107.0, 10104.0, 10109.0, 10117.0, 10129.0, 10129.0, 10115.0, 10104.0, 10106.0, 10118.0, 10122.0, 10115.0, 10112.0, 10111.0, 10113.0, 10107.0, 10106.0, 10088.0, 10077.0, 10084.0, 10100.0, 10110.0, 10105.0, 10095.0, 10094.0, 10106.0, 10119.0, 10122.0, 10120.0, 10112.0, 10111.0, 10112.0, 10120.0, 10113.0, 10111.0, 10104.0, 10110.0, 10114.0, 10114.0, 10106.0, 10110.0, 10112.0, 10115.0, 10106.0, 10093.0, 10084.0, 10091.0, 10100.0, 10103.0, 10113.0, 10129.0, 10123.0, 10114.0, 10102.0, 10087.0, 10080.0, 10093.0, 10086.0, 10106.0, 10110.0, 10106.0, 10105.0, 10104.0, 10096.0, 10104.0, 10113.0, 10114.0, 10107.0, 10112.0, 10108.0, 10120.0, 10122.0, 10119.0, 10114.0, 10104.0, 10093.0],
      "WindowWidth": [21786.0, 21640.0, 21563.0, 21517.0, 21538.0, 21520.0, 21519.0, 21545.0, 21569.0, 21564.0, 21590.0, 21595.0, 21594.0, 21560.0, 21548.0, 21543.0, 21564.0, 21547.0, 21531.0, 21534.0, 21545.0, 21562.0, 21569.0, 21554.0, 21541.0, 21511.0, 21505.0, 21501.0, 21503.0, 21493.0, 21469.0, 21459.0, 21460.0, 21484.0, 21496.0, 21491.0, 21485.0, 21484.0, 21507.0, 21534.0, 21507.0, 21495.0, 21492.0, 21524.0, 21525.0, 21506.0, 21490.0, 21489.0, 21483.0, 21484.0, 21482.0, 21468.0, 21466.0, 21482.0, 21467.0, 21484.0, 21514.0, 21526.0, 21510.0, 21510.0, 21527.0, 21513.0, 21509.0, 21484.0, 21483.0, 21483.0, 21506.0, 21523.0, 21505.0, 21489.0, 21481.0, 21486.0, 21491.0, 21498.0, 21473.0, 21459.0, 21441.0, 21467.0, 21483.0, 21490.0, 21486.0, 21487.0, 21507.0, 21517.0, 21514.0, 21527.0, 21521.0, 21497.0, 21477.0, 21453.0, 21458.0, 21486.0, 21518.0, 21537.0, 21512.0, 21479.0, 21457.0, 21459.0, 21450.0, 21451.0, 21477.0, 21490.0, 21513.0, 21486.0, 21467.0, 21446.0, 21445.0, 21465.0, 21469.0, 21477.0, 21472.0, 21474.0, 21518.0, 21505.0, 21477.0, 21467.0, 21476.0, 21497.0, 21528.0, 21529.0, 21497.0, 21472.0, 21477.0, 21501.0, 21511.0, 21499.0, 21488.0, 21485.0, 21490.0, 21478.0, 21473.0, 21432.0, 21406.0, 21420.0, 21457.0, 21480.0, 21473.0, 21449.0, 21444.0, 21470.0, 21504.0, 21510.0, 21504.0, 21486.0, 21483.0, 21487.0, 21505.0, 21491.0, 21486.0, 21470.0, 21481.0, 21494.0, 21490.0, 21474.0, 21479.0, 21486.0, 21496.0, 21474.0, 21441.0, 21418.0, 21436.0, 21456.0, 21464.0, 21489.0, 21524.0, 21513.0, 21490.0, 21457.0, 21426.0, 21417.0, 21442.0, 21428.0, 21467.0, 21479.0, 21473.0, 21470.0, 21468.0, 21451.0, 21469.0, 21489.0, 21493.0, 21477.0, 21486.0, 21480.0, 21501.0, 21509.0, 21499.0, 21486.0, 21463.0, 21437.0]
    },
    "slices": {}
  }
}