{
  "AcquisitionMatrixPE": 104,
  "AcquisitionNumber": 1,
  "AcquisitionTime": "14:00:19.325000",
  "BandwidthPerPixelPhaseEncode": 17.17,
  "BaseResolution": 104,
  "BodyPartExamined": "BRAIN",
  "CoilString": "HC1-7;NC1_2",
  "ConsistencyInfo": "N4_VE11C_LATEST_20160120",
  "ConversionSoftware": "dcm2niix",
  "ConversionSoftwareVersion": "v1.0.20190902",
  "DerivedVendorReportedEchoSpacing": 0.000560011,
  "DeviceSerialNumber": "167006",
  "DwellTime": 2.1e-06,
  "EchoTime": 0.037,
  "EchoTrainLength": 104,
  "EffectiveEchoSpacing": 0.000560011,
  "FlipAngle": 52,
  "ImageComments": "Unaliased_MB4_PE3_LB",
  "ImageOrientationPatientDICOM": [0.999848, 0.00300941, 0.0171708, 0.00226854, 0.954149, -0.299323],
  "ImageType": [
    "ORIGINAL",
    "PRIMARY",
    "P",
    "MB",
    "ND",
    "MOSAIC"
],
  "ImagingFrequency": 123.259,
  "InPlanePhaseEncodingDirectionDICOM": "COL",
  "InstitutionAddress": "Chemin_Queen-Mary_4565_Montreal_District_CA_H3W_1W5",
  "InstitutionName": "IUGM",
  "InstitutionalDepartmentName": "Department",
  "MRAcquisitionType": "2D",
  "MagneticFieldStrength": 3,
  "Manufacturer": "Siemens",
  "ManufacturersModelName": "Prisma_fit",
  "Modality": "MR",
  "MultibandAccelerationFactor": 4,
  "PartialFourier": 1,
  "PatientPosition": "HFS",
  "PercentPhaseFOV": 100,
  "PhaseEncodingDirection": "j",
  "PhaseEncodingSteps": 104,
  "PhaseResolution": 1,
  "PixelBandwidth": 2290,
  "ProcedureStepDescription": "memory_things",
  "ProtocolName": "func_task-things_run-6",
  "PulseSequenceDetails": "%CustomerSeq%_cmrr_mbep2d_bold",
  "ReceiveCoilActiveElements": "HC1-7;NC1,2",
  "ReceiveCoilName": "HeadNeck_64",
  "ReconMatrixPE": 104,
  "RepetitionTime": 1.49,
  "SAR": 0.0470987,
  "ScanOptions": "FS",
  "ScanningSequence": "EP",
  "SequenceName": "epfid2d1_104",
  "SequenceVariant": "SK_SS",
  "SeriesDescription": "func_task-things_run-6",
  "SeriesNumber": 26,
  "ShimSetting": [628, -7197, -8791, 716, 11, 56, 8, -9],
  "SliceThickness": 2,
  "SliceTiming": [0, 0.7825, 0.0975, 0.8825, 0.195, 0.98, 0.2925, 1.0775, 0.3925, 1.175, 0.49, 1.2725, 0.5875, 1.3725, 0.685, 0, 0.7825, 0.0975, 0.8825, 0.195, 0.98, 0.2925, 1.0775, 0.3925, 1.175, 0.49, 1.2725, 0.5875, 1.3725, 0.685, 0, 0.7825, 0.0975, 0.8825, 0.195, 0.98, 0.2925, 1.0775, 0.3925, 1.175, 0.49, 1.2725, 0.5875, 1.3725, 0.685, 0, 0.7825, 0.0975, 0.8825, 0.195, 0.98, 0.2925, 1.0775, 0.3925, 1.175, 0.49, 1.2725, 0.5875, 1.3725, 0.685],
  "SoftwareVersions": "syngo_MR_E11",
  "SpacingBetweenSlices": 2,
  "StationName": "MRC35049",
  "TaskName": "things",
  "TotalReadoutTime": 0.0576811,
  "TxRefAmp": 230.019,
  "WipMemBlock": "e3ac521a-6774-4b0c-ab69-b96769199c7a||Sequence: R016 ve11c/master r/e634e98; Dec 19 2017 11:00:25 by eja",
  "dcmmeta_affine": [
    [-1.999696135520935, 0.004537072964012623, 0.034568510949611664, 108.13180541992188],
    [-0.006018810905516148, 1.9082980155944824, -0.598633885383606, -71.47090148925781],
    [0.03434153273701668, 0.5986469388008118, 1.9079943895339966, -67.8319091796875],
    [0.0, 0.0, 0.0, 1.0]
],
  "dcmmeta_reorient_transform": [
    [0.0, -1.0, 0.0, 103.0],
    [1.0, 0.0, 0.0, 0.0],
    [0.0, 0.0, 1.0, 0.0],
    [0.0, 0.0, 0.0, 1.0]
],
  "dcmmeta_shape": [104, 104, 60, 190],
  "dcmmeta_slice_dim": 2,
  "dcmmeta_version": 0.6,
  "global": {
    "const": {
      "AcquisitionMatrix": [104, 0, 0, 104],
      "AngioFlag": "N",
      "BitsAllocated": 16,
      "BitsStored": 16,
      "BodyPartExamined": "BRAIN",
      "Columns": 832,
      "EchoNumbers": 1,
      "EchoTime": 37.0,
      "EchoTrainLength": 104,
      "FlipAngle": 52.0,
      "HighBit": 15,
      "ImageOrientationPatient": [0.99984804260071, 0.00300940554652, 0.01717076544002, 0.00226853637472, 0.95414900247797, -0.2993234618486],
      "ImagePositionPatient": [-838.13999437131, -821.89511356109, 199.23588380498],
      "ImageType": [
        "ORIGINAL",
        "PRIMARY",
        "P",
        "MB",
        "ND",
        "MOSAIC"
],
      "ImagedNucleus": "1H",
      "ImagingFrequency": 123.259177,
      "InPlanePhaseEncodingDirection": "COL",
      "LargestImagePixelValue": 4095,
      "MRAcquisitionType": "2D",
      "MagneticFieldStrength": 3.0,
      "Manufacturer": "SIEMENS",
      "ManufacturerModelName": "Prisma_fit",
      "Modality": "MR",
      "NumberOfAverages": 1.0,
      "NumberOfPhaseEncodingSteps": 104,
      "PercentPhaseFieldOfView": 100.0,
      "PercentSampling": 100.0,
      "PerformedProcedureStepStartTime": "131323.231000",
      "PhotometricInterpretation": "MONOCHROME2",
      "PixelBandwidth": 2290.0,
      "PixelRepresentation": 0,
      "PixelSpacing": [2.0, 2.0],
      "ProtocolName": "func_task-things_run-6",
      "RepetitionTime": 1490.0,
      "RescaleIntercept": -4096.0,
      "RescaleSlope": 2.0,
      "RescaleType": "US",
      "Rows": 832,
      "SAR": 0.04709872859495,
      "SamplesPerPixel": 1,
      "ScanOptions": "FS",
      "ScanningSequence": "EP",
      "SequenceName": "epfid2d1_104",
      "SequenceVariant": [
        "SK",
        "SS"
],
      "SeriesDescription": "func_task-things_run-6",
      "SeriesNumber": 26,
      "SeriesTime": "140128.129000",
      "SliceLocation": -41.450024829071,
      "SliceThickness": 2.0,
      "SmallestImagePixelValue": 0,
      "SoftwareVersions": "syngo MR E11",
      "SpacingBetweenSlices": 2.0000000435742,
      "SpecificCharacterSet": "ISO_IR 100",
      "StudyID": "1",
      "StudyTime": "131323.050000",
      "TransmitCoilName": "Body",
      "VariableFlipAngleFlag": "N",
      "WindowCenterWidthExplanation": "Algo1",
      "dBdt": 0.0},
    "slices": {}
  },
  "time": {
    "samples": {
      "AcquisitionNumber": [1, 2, 3, 4, 5, 6, 7, 8, 9, 10, 11, 12, 13, 14, 15, 16, 17, 18, 19, 20, 21, 22, 23, 24, 25, 26, 27, 28, 29, 30, 31, 32, 33, 34, 35, 36, 37, 38, 39, 40, 41, 42, 43, 44, 45, 46, 47, 48, 49, 50, 51, 52, 53, 54, 55, 56, 57, 58, 59, 60, 61, 62, 63, 64, 65, 66, 67, 68, 69, 70, 71, 72, 73, 74, 75, 76, 77, 78, 79, 80, 81, 82, 83, 84, 85, 86, 87, 88, 89, 90, 91, 92, 93, 94, 95, 96, 97, 98, 99, 100, 101, 102, 103, 104, 105, 106, 107, 108, 109, 110, 111, 112, 113, 114, 115, 116, 117, 118, 119, 120, 121, 122, 123, 124, 125, 126, 127, 128, 129, 130, 131, 132, 133, 134, 135, 136, 137, 138, 139, 140, 141, 142, 143, 144, 145, 146, 147, 148, 149, 150, 151, 152, 153, 154, 155, 156, 157, 158, 159, 160, 161, 162, 163, 164, 165, 166, 167, 168, 169, 170, 171, 172, 173, 174, 175, 176, 177, 178, 179, 180, 181, 182, 183, 184, 185, 186, 187, 188, 189, 190],
      "AcquisitionTime": ["140019.325000", "140020.815000", "140022.305000", "140023.795000", "140025.285000", "140026.775000", "140028.265000", "140029.755000", "140031.245000", "140032.735000", "140034.225000", "140035.715000", "140037.205000", "140038.695000", "140040.185000", "140041.675000", "140043.165000", "140044.655000", "140046.145000", "140047.635000", "140049.125000", "140050.615000", "140052.105000", "140053.595000", "140055.085000", "140056.575000", "140058.065000", "140059.555000", "140101.045000", "140102.535000", "140104.025000", "140105.515000", "140107.005000", "140108.495000", "140109.985000", "140111.475000", "140112.965000", "140114.455000", "140115.945000", "140117.435000", "140118.925000", "140120.415000", "140121.905000", "140123.395000", "140124.885000", "140126.375000", "140127.865000", "140129.355000", "140130.845000", "140132.335000", "140133.825000", "140135.315000", "140136.805000", "140138.295000", "140139.785000", "140141.275000", "140142.765000", "140144.255000", "140145.745000", "140147.235000", "140148.725000", "140150.215000", "140151.705000", "140153.195000", "140154.685000", "140156.175000", "140157.665000", "140159.155000", "140200.645000", "140202.135000", "140203.625000", "140205.115000", "140206.605000", "140208.095000", "140209.585000", "140211.075000", "140212.565000", "140214.055000", "140215.545000", "140217.035000", "140218.525000", "140220.015000", "140221.505000", "140222.995000", "140224.485000", "140225.975000", "140227.465000", "140228.955000", "140230.445000", "140231.935000", "140233.425000", "140234.915000", "140236.405000", "140237.895000", "140239.385000", "140240.875000", "140242.365000", "140243.855000", "140245.345000", "140246.835000", "140248.325000", "140249.815000", "140251.305000", "140252.795000", "140254.285000", "140255.775000", "140257.265000", "140258.755000", "140300.245000", "140301.735000", "140303.225000", "140304.715000", "140306.205000", "140307.695000", "140309.185000", "140310.675000", "140312.165000", "140313.655000", "140315.145000", "140316.635000", "140318.125000", "140319.615000", "140321.105000", "140322.595000", "140324.085000", "140325.575000", "140327.065000", "140328.555000", "140330.045000", "140331.535000", "140333.025000", "140334.515000", "140336.005000", "140337.495000", "140338.985000", "140340.475000", "140341.965000", "140343.455000", "140344.945000", "140346.435000", "140347.925000", "140349.415000", "140350.905000", "140352.395000", "140353.885000", "140355.375000", "140356.865000", "140358.355000", "140359.845000", "140401.335000", "140402.825000", "140404.315000", "140405.805000", "140407.295000", "140408.785000", "140410.275000", "140411.765000", "140413.255000", "140414.745000", "140416.235000", "140417.725000", "140419.215000", "140420.705000", "140422.195000", "140423.685000", "140425.175000", "140426.665000", "140428.155000", "140429.645000", "140431.135000", "140432.625000", "140434.115000", "140435.605000", "140437.095000", "140438.585000", "140440.075000", "140441.565000", "140443.055000", "140444.545000", "140446.035000", "140447.525000", "140449.015000", "140450.505000", "140451.995000", "140453.485000", "140454.975000", "140456.465000", "140457.955000", "140459.445000", "140500.935000"],
      "ContentTime": ["140128.131000", "140128.134000", "140128.143000", "140128.145000", "140128.148000", "140128.150000", "140128.153000", "140128.155000", "140128.157000", "140128.160000", "140128.162000", "140128.165000", "140128.167000", "140128.170000", "140128.172000", "140148.135000", "140148.137000", "140148.140000", "140148.142000", "140148.145000", "140148.147000", "140148.150000", "140148.152000", "140148.155000", "140148.157000", "140148.160000", "140148.162000", "140148.165000", "140148.167000", "140148.170000", "140148.172000", "140148.175000", "140148.177000", "140148.180000", "140148.182000", "140208.133000", "140208.136000", "140208.138000", "140208.141000", "140208.143000", "140208.146000", "140208.148000", "140208.151000", "140208.153000", "140208.156000", "140208.158000", "140208.160000", "140208.163000", "140208.165000", "140208.168000", "140208.170000", "140208.173000", "140208.182000", "140208.184000", "140208.187000", "140228.116000", "140228.118000", "140228.121000", "140228.123000", "140228.126000", "140228.128000", "140228.130000", "140228.133000", "140228.135000", "140228.138000", "140228.140000", "140228.143000", "140228.145000", "140228.148000", "140228.150000", "140228.153000", "140228.155000", "140228.158000", "140228.160000", "140228.162000", "140228.165000", "140248.120000", "140248.123000", "140248.126000", "140248.128000", "140248.130000", "140248.141000", "140248.144000", "140248.146000", "140248.149000", "140248.153000", "140248.155000", "140248.157000", "140248.165000", "140248.168000", "140248.170000", "140248.173000", "140248.175000", "140248.178000", "140248.180000", "140248.183000", "140328.157000", "140328.159000", "140328.171000", "140328.173000", "140328.176000", "140328.178000", "140328.181000", "140328.183000", "140328.186000", "140328.188000", "140328.190000", "140328.193000", "140328.196000", "140328.198000", "140328.200000", "140328.203000", "140328.205000", "140328.208000", "140328.210000", "140328.213000", "140328.215000", "140328.218000", "140328.220000", "140328.223000", "140328.225000", "140328.228000", "140328.230000", "140328.233000", "140328.235000", "140328.238000", "140408.131000", "140408.134000", "140408.136000", "140408.139000", "140408.141000", "140408.144000", "140408.146000", "140408.149000", "140408.151000", "140408.154000", "140408.156000", "140408.159000", "140408.161000", "140408.163000", "140408.166000", "140408.168000", "140408.171000", "140408.173000", "140408.176000", "140408.178000", "140408.181000", "140408.183000", "140408.186000", "140408.188000", "140408.191000", "140408.193000", "140408.196000", "140448.167000", "140448.169000", "140448.172000", "140448.174000", "140448.177000", "140448.185000", "140448.187000", "140448.189000", "140448.192000", "140448.195000", "140448.197000", "140448.199000", "140448.202000", "140448.205000", "140448.207000", "140448.210000", "140448.212000", "140448.215000", "140448.217000", "140448.220000", "140448.222000", "140448.224000", "140448.227000", "140448.229000", "140448.232000", "140448.234000", "140503.123000", "140503.125000", "140503.128000", "140503.130000", "140503.139000", "140503.141000", "140503.144000", "140503.146000", "140503.149000", "140503.151000", "140503.154000"],
      "InstanceCreationTime": ["140128.131000", "140128.134000", "140128.143000", "140128.145000", "140128.148000", "140128.150000", "140128.153000", "140128.155000", "140128.157000", "140128.160000", "140128.162000", "140128.165000", "140128.167000", "140128.170000", "140128.172000", "140148.135000", "140148.137000", "140148.140000", "140148.142000", "140148.145000", "140148.147000", "140148.150000", "140148.152000", "140148.155000", "140148.157000", "140148.160000", "140148.162000", "140148.165000", "140148.167000", "140148.170000", "140148.172000", "140148.175000", "140148.177000", "140148.180000", "140148.182000", "140208.133000", "140208.136000", "140208.138000", "140208.141000", "140208.143000", "140208.146000", "140208.148000", "140208.151000", "140208.153000", "140208.156000", "140208.158000", "140208.160000", "140208.163000", "140208.165000", "140208.168000", "140208.170000", "140208.173000", "140208.182000", "140208.184000", "140208.187000", "140228.116000", "140228.118000", "140228.121000", "140228.123000", "140228.126000", "140228.128000", "140228.130000", "140228.133000", "140228.135000", "140228.138000", "140228.140000", "140228.143000", "140228.145000", "140228.148000", "140228.150000", "140228.153000", "140228.155000", "140228.158000", "140228.160000", "140228.162000", "140228.165000", "140248.120000", "140248.123000", "140248.126000", "140248.128000", "140248.130000", "140248.141000", "140248.144000", "140248.146000", "140248.149000", "140248.153000", "140248.155000", "140248.157000", "140248.165000", "140248.168000", "140248.170000", "140248.173000", "140248.175000", "140248.178000", "140248.180000", "140248.183000", "140328.157000", "140328.159000", "140328.171000", "140328.173000", "140328.176000", "140328.178000", "140328.181000", "140328.183000", "140328.186000", "140328.188000", "140328.190000", "140328.193000", "140328.196000", "140328.198000", "140328.200000", "140328.203000", "140328.205000", "140328.208000", "140328.210000", "140328.213000", "140328.215000", "140328.218000", "140328.220000", "140328.223000", "140328.225000", "140328.228000", "140328.230000", "140328.233000", "140328.235000", "140328.238000", "140408.131000", "140408.134000", "140408.136000", "140408.139000", "140408.141000", "140408.144000", "140408.146000", "140408.149000", "140408.151000", "140408.154000", "140408.156000", "140408.159000", "140408.161000", "140408.163000", "140408.166000", "140408.168000", "140408.171000", "140408.173000", "140408.176000", "140408.178000", "140408.181000", "140408.183000", "140408.186000", "140408.188000", "140408.191000", "140408.193000", "140408.196000", "140448.167000", "140448.169000", "140448.172000", "140448.174000", "140448.177000", "140448.185000", "140448.187000", "140448.189000", "140448.192000", "140448.195000", "140448.197000", "140448.199000", "140448.202000", "140448.205000", "140448.207000", "140448.210000", "140448.212000", "140448.215000", "140448.217000", "140448.220000", "140448.222000", "140448.224000", "140448.227000", "140448.229000", "140448.232000", "140448.234000", "140503.123000", "140503.125000", "140503.128000", "140503.130000", "140503.139000", "140503.141000", "140503.144000", "140503.146000", "140503.149000", "140503.151000", "140503.154000"],
      "InstanceNumber": [1, 2, 3, 4, 5, 6, 7, 8, 9, 10, 11, 12, 13, 14, 15, 16, 17, 18, 19, 20, 21, 22, 23, 24, 25, 26, 27, 28, 29, 30, 31, 32, 33, 34, 35, 36, 37, 38, 39, 40, 41, 42, 43, 44, 45, 46, 47, 48, 49, 50, 51, 52, 53, 54, 55, 56, 57, 58, 59, 60, 61, 62, 63, 64, 65, 66, 67, 68, 69, 70, 71, 72, 73, 74, 75, 76, 77, 78, 79, 80, 81, 82, 83, 84, 85, 86, 87, 88, 89, 90, 91, 92, 93, 94, 95, 96, 97, 98, 99, 100, 101, 102, 103, 104, 105, 106, 107, 108, 109, 110, 111, 112, 113, 114, 115, 116, 117, 118, 119, 120, 121, 122, 123, 124, 125, 126, 127, 128, 129, 130, 131, 132, 133, 134, 135, 136, 137, 138, 139, 140, 141, 142, 143, 144, 145, 146, 147, 148, 149, 150, 151, 152, 153, 154, 155, 156, 157, 158, 159, 160, 161, 162, 163, 164, 165, 166, 167, 168, 169, 170, 171, 172, 173, 174, 175, 176, 177, 178, 179, 180, 181, 182, 183, 184, 185, 186, 187, 188, 189, 190],
      "WindowCenter": [4792.0, 4800.0, 4794.0, 4794.0, 4792.0, 4794.0, 4794.0, 4794.0, 4796.0, 4792.0, 4796.0, 4796.0, 4794.0, 4794.0, 4796.0, 4796.0, 4772.0, 4792.0, 4796.0, 4796.0, 4792.0, 4798.0, 4792.0, 4798.0, 4794.0, 4798.0, 4794.0, 4796.0, 4796.0, 4798.0, 4792.0, 4798.0, 4798.0, 4796.0, 4794.0, 4798.0, 4794.0, 4796.0, 4772.0, 4796.0, 4796.0, 4796.0, 4794.0, 4798.0, 4796.0, 4794.0, 4794.0, 4794.0, 4798.0, 4798.0, 4796.0, 4792.0, 4796.0, 4794.0, 4796.0, 4796.0, 4796.0, 4798.0, 4796.0, 4792.0, 4792.0, 4794.0, 4796.0, 4798.0, 4798.0, 4796.0, 4794.0, 4800.0, 4798.0, 4800.0, 4794.0, 4800.0, 4794.0, 4794.0, 4798.0, 4792.0, 4796.0, 4798.0, 4798.0, 4796.0, 4796.0, 4798.0, 4794.0, 4798.0, 4798.0, 4796.0, 4798.0, 4796.0, 4798.0, 4794.0, 4798.0, 4796.0, 4794.0, 4798.0, 4798.0, 4794.0, 4798.0, 4794.0, 4794.0, 4798.0, 4796.0, 4798.0, 4796.0, 4792.0, 4796.0, 4798.0, 4798.0, 4798.0, 4796.0, 4796.0, 4800.0, 4798.0, 4798.0, 4796.0, 4792.0, 4794.0, 4792.0, 4798.0, 4794.0, 4802.0, 4798.0, 4798.0, 4800.0, 4796.0, 4794.0, 4796.0, 4788.0, 4798.0, 4794.0, 4798.0, 4796.0, 4794.0, 4796.0, 4802.0, 4798.0, 4796.0, 4798.0, 4798.0, 4794.0, 4798.0, 4796.0, 4796.0, 4798.0, 4800.0, 4800.0, 4800.0, 4796.0, 4796.0, 4796.0, 4798.0, 4792.0, 4798.0, 4796.0, 4800.0, 4796.0, 4800.0, 4796.0, 4792.0, 4796.0, 4798.0, 4796.0, 4792.0, 4796.0, 4798.0, 4796.0, 4798.0, 4796.0, 4796.0, 4796.0, 4796.0, 4798.0, 4796.0, 4796.0, 4798.0, 4796.0, 4802.0, 4798.0, 4798.0, 4798.0, 4796.0, 4796.0, 4798.0, 4798.0, 4798.0, 4798.0, 4796.0, 4798.0, 4794.0, 4796.0, 4798.0],
      "WindowWidth": [18562.0, 18564.0, 18564.0, 18562.0, 18558.0, 18560.0, 18566.0, 18560.0, 18566.0, 18560.0, 18566.0, 18564.0, 18566.0, 18560.0, 18564.0, 18560.0, 18532.0, 18562.0, 18566.0, 18570.0, 18564.0, 18564.0, 18560.0, 18564.0, 18558.0, 18564.0, 18558.0, 18556.0, 18566.0, 18566.0, 18560.0, 18568.0, 18566.0, 18556.0, 18562.0, 18566.0, 18560.0, 18562.0, 18536.0, 18560.0, 18568.0, 18566.0, 18562.0, 18560.0, 18562.0, 18560.0, 18560.0, 18562.0, 18564.0, 18564.0, 18564.0, 18556.0, 18570.0, 18564.0, 18564.0, 18564.0, 18562.0, 18566.0, 18564.0, 18558.0, 18560.0, 18560.0, 18566.0, 18564.0, 18568.0, 18566.0, 18562.0, 18566.0, 18564.0, 18564.0, 18558.0, 18566.0, 18564.0, 18560.0, 18570.0, 18558.0, 18564.0, 18562.0, 18564.0, 18560.0, 18568.0, 18566.0, 18560.0, 18560.0, 18564.0, 18560.0, 18568.0, 18564.0, 18564.0, 18560.0, 18562.0, 18562.0, 18560.0, 18568.0, 18562.0, 18562.0, 18564.0, 18562.0, 18562.0, 18564.0, 18568.0, 18566.0, 18566.0, 18560.0, 18566.0, 18570.0, 18566.0, 18566.0, 18560.0, 18564.0, 18560.0, 18568.0, 18564.0, 18568.0, 18564.0, 18562.0, 18558.0, 18560.0, 18562.0, 18568.0, 18568.0, 18562.0, 18564.0, 18558.0, 18560.0, 18564.0, 18562.0, 18568.0, 18564.0, 18562.0, 18562.0, 18562.0, 18558.0, 18564.0, 18568.0, 18560.0, 18568.0, 18560.0, 18564.0, 18570.0, 18564.0, 18564.0, 18566.0, 18562.0, 18566.0, 18562.0, 18564.0, 18564.0, 18564.0, 18560.0, 18564.0, 18564.0, 18566.0, 18564.0, 18566.0, 18562.0, 18562.0, 18558.0, 18558.0, 18562.0, 18564.0, 18558.0, 18566.0, 18566.0, 18560.0, 18564.0, 18558.0, 18562.0, 18560.0, 18564.0, 18566.0, 18560.0, 18564.0, 18566.0, 18558.0, 18562.0, 18566.0, 18562.0, 18566.0, 18564.0, 18562.0, 18562.0, 18566.0, 18562.0, 18562.0, 18562.0, 18566.0, 18564.0, 18566.0, 18568.0]
    },
    "slices": {}
  }
}