{
  "AcquisitionMatrixPE": 104,
  "AcquisitionNumber": 1,
  "AcquisitionTime": "13:35:36.697500",
  "BandwidthPerPixelPhaseEncode": 17.17,
  "BaseResolution": 104,
  "BodyPartExamined": "BRAIN",
  "CoilString": "HC1-7;NC1_2",
  "ConsistencyInfo": "N4_VE11C_LATEST_20160120",
  "ConversionSoftware": "dcm2niix",
  "ConversionSoftwareVersion": "v1.0.20190902",
  "DerivedVendorReportedEchoSpacing": 0.000560011,
  "DeviceSerialNumber": "167006",
  "DwellTime": 2.1e-06,
  "EchoTime": 0.037,
  "EchoTrainLength": 104,
  "EffectiveEchoSpacing": 0.000560011,
  "FlipAngle": 52,
  "ImageComments": "Unaliased_MB4_PE3_LB",
  "ImageOrientationPatientDICOM": [0.999848, 0.00300941, 0.0171708, 0.00226854, 0.954149, -0.299323],
  "ImageType": [
    "ORIGINAL",
    "PRIMARY",
    "P",
    "MB",
    "ND",
    "MOSAIC"
],
  "ImagingFrequency": 123.259,
  "InPlanePhaseEncodingDirectionDICOM": "COL",
  "InstitutionAddress": "Chemin_Queen-Mary_4565_Montreal_District_CA_H3W_1W5",
  "InstitutionName": "IUGM",
  "InstitutionalDepartmentName": "Department",
  "MRAcquisitionType": "2D",
  "MagneticFieldStrength": 3,
  "Manufacturer": "Siemens",
  "ManufacturersModelName": "Prisma_fit",
  "Modality": "MR",
  "MultibandAccelerationFactor": 4,
  "PartialFourier": 1,
  "PatientPosition": "HFS",
  "PercentPhaseFOV": 100,
  "PhaseEncodingDirection": "j",
  "PhaseEncodingSteps": 104,
  "PhaseResolution": 1,
  "PixelBandwidth": 2290,
  "ProcedureStepDescription": "memory_things",
  "ProtocolName": "func_task-things_run-2",
  "PulseSequenceDetails": "%CustomerSeq%_cmrr_mbep2d_bold",
  "ReceiveCoilActiveElements": "HC1-7;NC1,2",
  "ReceiveCoilName": "HeadNeck_64",
  "ReconMatrixPE": 104,
  "RepetitionTime": 1.49,
  "SAR": 0.0470987,
  "ScanOptions": "FS",
  "ScanningSequence": "EP",
  "SequenceName": "epfid2d1_104",
  "SequenceVariant": "SK_SS",
  "SeriesDescription": "func_task-things_run-2",
  "SeriesNumber": 14,
  "ShimSetting": [628, -7197, -8791, 716, 11, 56, 8, -9],
  "SliceThickness": 2,
  "SliceTiming": [0, 0.785, 0.0975, 0.8825, 0.1975, 0.98, 0.295, 1.0775, 0.3925, 1.1775, 0.49, 1.275, 0.5875, 1.3725, 0.6875, 0, 0.785, 0.0975, 0.8825, 0.1975, 0.98, 0.295, 1.0775, 0.3925, 1.1775, 0.49, 1.275, 0.5875, 1.3725, 0.6875, 0, 0.785, 0.0975, 0.8825, 0.1975, 0.98, 0.295, 1.0775, 0.3925, 1.1775, 0.49, 1.275, 0.5875, 1.3725, 0.6875, 0, 0.785, 0.0975, 0.8825, 0.1975, 0.98, 0.295, 1.0775, 0.3925, 1.1775, 0.49, 1.275, 0.5875, 1.3725, 0.6875],
  "SoftwareVersions": "syngo_MR_E11",
  "SpacingBetweenSlices": 2,
  "StationName": "MRC35049",
  "TaskName": "things",
  "TotalReadoutTime": 0.0576811,
  "TxRefAmp": 230.019,
  "WipMemBlock": "8e9dac85-488d-4afb-8a83-cd100d1f7532||Sequence: R016 ve11c/master r/e634e98; Dec 19 2017 11:00:25 by eja",
  "dcmmeta_affine": [
    [-1.999696135520935, 0.004537072964012623, 0.034568510949611664, 108.13180541992188],
    [-0.006018810905516148, 1.9082980155944824, -0.598633885383606, -71.47090148925781],
    [0.03434153273701668, 0.5986469388008118, 1.9079943895339966, -67.8319091796875],
    [0.0, 0.0, 0.0, 1.0]
],
  "dcmmeta_reorient_transform": [
    [0.0, -1.0, 0.0, 103.0],
    [1.0, 0.0, 0.0, 0.0],
    [0.0, 0.0, 1.0, 0.0],
    [0.0, 0.0, 0.0, 1.0]
],
  "dcmmeta_shape": [104, 104, 60, 190],
  "dcmmeta_slice_dim": 2,
  "dcmmeta_version": 0.6,
  "global": {
    "const": {
      "AcquisitionMatrix": [104, 0, 0, 104],
      "AngioFlag": "N",
      "BitsAllocated": 16,
      "BitsStored": 16,
      "BodyPartExamined": "BRAIN",
      "Columns": 832,
      "EchoNumbers": 1,
      "EchoTime": 37.0,
      "EchoTrainLength": 104,
      "FlipAngle": 52.0,
      "HighBit": 15,
      "ImageOrientationPatient": [0.99984804260071, 0.00300940554652, 0.01717076544002, 0.00226853637472, 0.95414900247797, -0.2993234618486],
      "ImagePositionPatient": [-838.13999437131, -821.89511356109, 199.23588380498],
      "ImageType": [
        "ORIGINAL",
        "PRIMARY",
        "P",
        "MB",
        "ND",
        "MOSAIC"
],
      "ImagedNucleus": "1H",
      "ImagingFrequency": 123.259167,
      "InPlanePhaseEncodingDirection": "COL",
      "LargestImagePixelValue": 4095,
      "MRAcquisitionType": "2D",
      "MagneticFieldStrength": 3.0,
      "Manufacturer": "SIEMENS",
      "ManufacturerModelName": "Prisma_fit",
      "Modality": "MR",
      "NumberOfAverages": 1.0,
      "NumberOfPhaseEncodingSteps": 104,
      "PercentPhaseFieldOfView": 100.0,
      "PercentSampling": 100.0,
      "PerformedProcedureStepStartTime": "131323.231000",
      "PhotometricInterpretation": "MONOCHROME2",
      "PixelBandwidth": 2290.0,
      "PixelRepresentation": 0,
      "PixelSpacing": [2.0, 2.0],
      "ProtocolName": "func_task-things_run-2",
      "RepetitionTime": 1490.0,
      "RescaleIntercept": -4096.0,
      "RescaleSlope": 2.0,
      "RescaleType": "US",
      "Rows": 832,
      "SAR": 0.04709872859495,
      "SamplesPerPixel": 1,
      "ScanOptions": "FS",
      "ScanningSequence": "EP",
      "SequenceName": "epfid2d1_104",
      "SequenceVariant": [
        "SK",
        "SS"
],
      "SeriesDescription": "func_task-things_run-2",
      "SeriesNumber": 14,
      "SeriesTime": "133703.420000",
      "SliceLocation": -41.450024829071,
      "SliceThickness": 2.0,
      "SmallestImagePixelValue": 0,
      "SoftwareVersions": "syngo MR E11",
      "SpacingBetweenSlices": 2.0000000435742,
      "SpecificCharacterSet": "ISO_IR 100",
      "StudyID": "1",
      "StudyTime": "131323.050000",
      "TransmitCoilName": "Body",
      "VariableFlipAngleFlag": "N",
      "WindowCenterWidthExplanation": "Algo1",
      "dBdt": 0.0},
    "slices": {}
  },
  "time": {
    "samples": {
      "AcquisitionNumber": [1, 2, 3, 4, 5, 6, 7, 8, 9, 10, 11, 12, 13, 14, 15, 16, 17, 18, 19, 20, 21, 22, 23, 24, 25, 26, 27, 28, 29, 30, 31, 32, 33, 34, 35, 36, 37, 38, 39, 40, 41, 42, 43, 44, 45, 46, 47, 48, 49, 50, 51, 52, 53, 54, 55, 56, 57, 58, 59, 60, 61, 62, 63, 64, 65, 66, 67, 68, 69, 70, 71, 72, 73, 74, 75, 76, 77, 78, 79, 80, 81, 82, 83, 84, 85, 86, 87, 88, 89, 90, 91, 92, 93, 94, 95, 96, 97, 98, 99, 100, 101, 102, 103, 104, 105, 106, 107, 108, 109, 110, 111, 112, 113, 114, 115, 116, 117, 118, 119, 120, 121, 122, 123, 124, 125, 126, 127, 128, 129, 130, 131, 132, 133, 134, 135, 136, 137, 138, 139, 140, 141, 142, 143, 144, 145, 146, 147, 148, 149, 150, 151, 152, 153, 154, 155, 156, 157, 158, 159, 160, 161, 162, 163, 164, 165, 166, 167, 168, 169, 170, 171, 172, 173, 174, 175, 176, 177, 178, 179, 180, 181, 182, 183, 184, 185, 186, 187, 188, 189, 190],
      "AcquisitionTime": ["133536.697500", "133538.187500", "133539.677500", "133541.167500", "133542.657500", "133544.147500", "133545.637500", "133547.127500", "133548.617500", "133550.107500", "133551.597500", "133553.087500", "133554.577500", "133556.067500", "133557.557500", "133559.047500", "133600.537500", "133602.027500", "133603.517500", "133605.007500", "133606.497500", "133607.987500", "133609.477500", "133610.967500", "133612.457500", "133613.947500", "133615.437500", "133616.927500", "133618.417500", "133619.907500", "133621.397500", "133622.887500", "133624.377500", "133625.867500", "133627.357500", "133628.847500", "133630.337500", "133631.827500", "133633.317500", "133634.807500", "133636.297500", "133637.787500", "133639.277500", "133640.767500", "133642.257500", "133643.747500", "133645.237500", "133646.727500", "133648.217500", "133649.707500", "133651.197500", "133652.687500", "133654.177500", "133655.667500", "133657.157500", "133658.647500", "133700.137500", "133701.627500", "133703.117500", "133704.607500", "133706.097500", "133707.587500", "133709.077500", "133710.567500", "133712.057500", "133713.547500", "133715.037500", "133716.527500", "133718.017500", "133719.507500", "133720.997500", "133722.487500", "133723.977500", "133725.467500", "133726.957500", "133728.447500", "133729.937500", "133731.427500", "133732.917500", "133734.407500", "133735.897500", "133737.387500", "133738.877500", "133740.367500", "133741.857500", "133743.347500", "133744.837500", "133746.327500", "133747.817500", "133749.307500", "133750.797500", "133752.287500", "133753.777500", "133755.267500", "133756.757500", "133758.247500", "133759.737500", "133801.227500", "133802.717500", "133804.207500", "133805.697500", "133807.187500", "133808.677500", "133810.167500", "133811.657500", "133813.147500", "133814.637500", "133816.127500", "133817.617500", "133819.107500", "133820.597500", "133822.087500", "133823.577500", "133825.067500", "133826.557500", "133828.047500", "133829.537500", "133831.027500", "133832.517500", "133834.007500", "133835.497500", "133836.987500", "133838.477500", "133839.967500", "133841.457500", "133842.947500", "133844.437500", "133845.927500", "133847.417500", "133848.907500", "133850.397500", "133851.887500", "133853.377500", "133854.867500", "133856.357500", "133857.847500", "133859.337500", "133900.827500", "133902.317500", "133903.807500", "133905.297500", "133906.787500", "133908.277500", "133909.767500", "133911.257500", "133912.747500", "133914.237500", "133915.727500", "133917.217500", "133918.707500", "133920.197500", "133921.687500", "133923.177500", "133924.667500", "133926.157500", "133927.647500", "133929.137500", "133930.627500", "133932.117500", "133933.607500", "133935.097500", "133936.587500", "133938.077500", "133939.567500", "133941.057500", "133942.547500", "133944.037500", "133945.527500", "133947.017500", "133948.507500", "133949.997500", "133951.487500", "133952.977500", "133954.467500", "133955.957500", "133957.447500", "133958.937500", "134000.427500", "134001.917500", "134003.407500", "134004.897500", "134006.387500", "134007.877500", "134009.367500", "134010.857500", "134012.347500", "134013.837500", "134015.327500", "134016.817500", "134018.307500"],
      "ContentTime": ["133703.423000", "133703.425000", "133703.428000", "133703.430000", "133703.433000", "133703.436000", "133703.438000", "133703.440000", "133703.443000", "133703.446000", "133703.449000", "133703.452000", "133703.455000", "133703.457000", "133703.469000", "133703.472000", "133703.486000", "133703.489000", "133703.491000", "133703.494000", "133703.496000", "133703.499000", "133703.501000", "133703.504000", "133703.506000", "133703.509000", "133703.511000", "133723.363000", "133723.366000", "133723.368000", "133723.371000", "133723.377000", "133723.380000", "133723.382000", "133723.385000", "133723.387000", "133723.390000", "133723.397000", "133723.399000", "133723.402000", "133723.405000", "133723.407000", "133723.409000", "133723.412000", "133723.414000", "133723.417000", "133723.419000", "133743.362000", "133743.365000", "133743.367000", "133743.370000", "133743.373000", "133743.375000", "133743.378000", "133743.380000", "133743.383000", "133743.385000", "133743.397000", "133743.399000", "133743.402000", "133743.404000", "133743.407000", "133743.409000", "133743.412000", "133743.414000", "133743.417000", "133743.419000", "133743.422000", "133803.348000", "133803.351000", "133803.353000", "133803.356000", "133803.358000", "133803.361000", "133803.363000", "133803.366000", "133803.368000", "133803.371000", "133803.373000", "133803.375000", "133803.378000", "133803.381000", "133803.383000", "133803.385000", "133803.388000", "133803.391000", "133803.393000", "133803.395000", "133823.347000", "133823.350000", "133823.352000", "133823.355000", "133823.357000", "133823.360000", "133823.362000", "133823.365000", "133823.367000", "133823.370000", "133823.372000", "133823.375000", "133823.377000", "133823.380000", "133823.382000", "133823.385000", "133823.387000", "133823.390000", "133823.392000", "133823.395000", "133903.373000", "133903.376000", "133903.378000", "133903.381000", "133903.383000", "133903.386000", "133903.388000", "133903.391000", "133903.393000", "133903.395000", "133903.398000", "133903.400000", "133903.403000", "133903.405000", "133903.408000", "133903.410000", "133903.427000", "133903.430000", "133903.432000", "133903.435000", "133903.438000", "133903.440000", "133903.443000", "133903.445000", "133903.448000", "133903.450000", "133903.453000", "133903.455000", "133903.458000", "133923.320000", "133923.322000", "133923.325000", "133923.327000", "133923.330000", "133923.333000", "133923.335000", "133923.338000", "133923.340000", "133923.343000", "133923.345000", "133923.348000", "133923.350000", "133923.353000", "134003.379000", "134003.381000", "134003.384000", "134003.386000", "134003.389000", "134003.392000", "134003.394000", "134003.397000", "134003.399000", "134003.402000", "134003.404000", "134003.406000", "134003.409000", "134003.412000", "134003.414000", "134003.416000", "134003.419000", "134003.422000", "134003.424000", "134003.427000", "134003.429000", "134003.432000", "134003.434000", "134003.437000", "134003.439000", "134003.442000", "134003.444000", "134020.924000", "134020.927000", "134020.930000", "134020.932000", "134020.935000", "134020.937000", "134020.940000", "134020.942000", "134020.945000", "134020.947000", "134020.950000", "134020.952000"],
      "InstanceCreationTime": ["133703.423000", "133703.425000", "133703.428000", "133703.430000", "133703.433000", "133703.436000", "133703.438000", "133703.440000", "133703.443000", "133703.446000", "133703.449000", "133703.452000", "133703.455000", "133703.457000", "133703.469000", "133703.472000", "133703.486000", "133703.489000", "133703.491000", "133703.494000", "133703.496000", "133703.499000", "133703.501000", "133703.504000", "133703.506000", "133703.509000", "133703.511000", "133723.363000", "133723.366000", "133723.368000", "133723.371000", "133723.377000", "133723.380000", "133723.382000", "133723.385000", "133723.387000", "133723.390000", "133723.397000", "133723.399000", "133723.402000", "133723.405000", "133723.407000", "133723.409000", "133723.412000", "133723.414000", "133723.417000", "133723.419000", "133743.362000", "133743.365000", "133743.367000", "133743.370000", "133743.373000", "133743.375000", "133743.378000", "133743.380000", "133743.383000", "133743.385000", "133743.397000", "133743.399000", "133743.402000", "133743.404000", "133743.407000", "133743.409000", "133743.412000", "133743.414000", "133743.417000", "133743.419000", "133743.422000", "133803.348000", "133803.351000", "133803.353000", "133803.356000", "133803.358000", "133803.361000", "133803.363000", "133803.366000", "133803.368000", "133803.371000", "133803.373000", "133803.375000", "133803.378000", "133803.381000", "133803.383000", "133803.385000", "133803.388000", "133803.391000", "133803.393000", "133803.395000", "133823.347000", "133823.350000", "133823.352000", "133823.355000", "133823.357000", "133823.360000", "133823.362000", "133823.365000", "133823.367000", "133823.370000", "133823.372000", "133823.375000", "133823.377000", "133823.380000", "133823.382000", "133823.385000", "133823.387000", "133823.390000", "133823.392000", "133823.395000", "133903.373000", "133903.376000", "133903.378000", "133903.381000", "133903.383000", "133903.386000", "133903.388000", "133903.391000", "133903.393000", "133903.395000", "133903.398000", "133903.400000", "133903.403000", "133903.405000", "133903.408000", "133903.410000", "133903.427000", "133903.430000", "133903.432000", "133903.435000", "133903.438000", "133903.440000", "133903.443000", "133903.445000", "133903.448000", "133903.450000", "133903.453000", "133903.455000", "133903.458000", "133923.320000", "133923.322000", "133923.325000", "133923.327000", "133923.330000", "133923.333000", "133923.335000", "133923.338000", "133923.340000", "133923.343000", "133923.345000", "133923.348000", "133923.350000", "133923.353000", "134003.379000", "134003.381000", "134003.384000", "134003.386000", "134003.389000", "134003.392000", "134003.394000", "134003.397000", "134003.399000", "134003.402000", "134003.404000", "134003.406000", "134003.409000", "134003.412000", "134003.414000", "134003.416000", "134003.419000", "134003.422000", "134003.424000", "134003.427000", "134003.429000", "134003.432000", "134003.434000", "134003.437000", "134003.439000", "134003.442000", "134003.444000", "134020.924000", "134020.927000", "134020.930000", "134020.932000", "134020.935000", "134020.937000", "134020.940000", "134020.942000", "134020.945000", "134020.947000", "134020.950000", "134020.952000"],
      "InstanceNumber": [1, 2, 3, 4, 5, 6, 7, 8, 9, 10, 11, 12, 13, 14, 15, 16, 17, 18, 19, 20, 21, 22, 23, 24, 25, 26, 27, 28, 29, 30, 31, 32, 33, 34, 35, 36, 37, 38, 39, 40, 41, 42, 43, 44, 45, 46, 47, 48, 49, 50, 51, 52, 53, 54, 55, 56, 57, 58, 59, 60, 61, 62, 63, 64, 65, 66, 67, 68, 69, 70, 71, 72, 73, 74, 75, 76, 77, 78, 79, 80, 81, 82, 83, 84, 85, 86, 87, 88, 89, 90, 91, 92, 93, 94, 95, 96, 97, 98, 99, 100, 101, 102, 103, 104, 105, 106, 107, 108, 109, 110, 111, 112, 113, 114, 115, 116, 117, 118, 119, 120, 121, 122, 123, 124, 125, 126, 127, 128, 129, 130, 131, 132, 133, 134, 135, 136, 137, 138, 139, 140, 141, 142, 143, 144, 145, 146, 147, 148, 149, 150, 151, 152, 153, 154, 155, 156, 157, 158, 159, 160, 161, 162, 163, 164, 165, 166, 167, 168, 169, 170, 171, 172, 173, 174, 175, 176, 177, 178, 179, 180, 181, 182, 183, 184, 185, 186, 187, 188, 189, 190],
      "WindowCenter": [4796.0, 4796.0, 4802.0, 4800.0, 4798.0, 4798.0, 4800.0, 4798.0, 4792.0, 4798.0, 4802.0, 4796.0, 4802.0, 4796.0, 4798.0, 4796.0, 4802.0, 4800.0, 4802.0, 4796.0, 4800.0, 4796.0, 4800.0, 4796.0, 4798.0, 4796.0, 4800.0, 4798.0, 4800.0, 4800.0, 4800.0, 4800.0, 4798.0, 4796.0, 4800.0, 4800.0, 4800.0, 4800.0, 4798.0, 4794.0, 4798.0, 4798.0, 4798.0, 4802.0, 4800.0, 4800.0, 4804.0, 4800.0, 4800.0, 4796.0, 4798.0, 4796.0, 4802.0, 4798.0, 4800.0, 4802.0, 4798.0, 4798.0, 4802.0, 4798.0, 4804.0, 4800.0, 4798.0, 4796.0, 4804.0, 4800.0, 4796.0, 4804.0, 4800.0, 4800.0, 4798.0, 4800.0, 4798.0, 4800.0, 4798.0, 4798.0, 4796.0, 4802.0, 4802.0, 4800.0, 4800.0, 4800.0, 4800.0, 4800.0, 4800.0, 4804.0, 4802.0, 4800.0, 4796.0, 4800.0, 4800.0, 4796.0, 4800.0, 4798.0, 4798.0, 4798.0, 4800.0, 4800.0, 4800.0, 4798.0, 4798.0, 4798.0, 4802.0, 4804.0, 4798.0, 4800.0, 4800.0, 4800.0, 4804.0, 4796.0, 4800.0, 4798.0, 4800.0, 4800.0, 4802.0, 4800.0, 4802.0, 4802.0, 4802.0, 4802.0, 4800.0, 4802.0, 4798.0, 4800.0, 4800.0, 4804.0, 4800.0, 4798.0, 4800.0, 4798.0, 4802.0, 4800.0, 4804.0, 4798.0, 4804.0, 4800.0, 4802.0, 4802.0, 4804.0, 4798.0, 4800.0, 4800.0, 4800.0, 4800.0, 4800.0, 4804.0, 4800.0, 4802.0, 4800.0, 4802.0, 4800.0, 4800.0, 4800.0, 4798.0, 4794.0, 4802.0, 4796.0, 4800.0, 4800.0, 4800.0, 4802.0, 4800.0, 4800.0, 4800.0, 4802.0, 4800.0, 4802.0, 4798.0, 4804.0, 4798.0, 4804.0, 4800.0, 4798.0, 4800.0, 4804.0, 4798.0, 4802.0, 4802.0, 4802.0, 4800.0, 4802.0, 4802.0, 4804.0, 4800.0, 4796.0, 4800.0, 4802.0, 4802.0, 4796.0, 4804.0],
      "WindowWidth": [18562.0, 18562.0, 18568.0, 18558.0, 18560.0, 18558.0, 18560.0, 18562.0, 18562.0, 18562.0, 18558.0, 18556.0, 18560.0, 18560.0, 18558.0, 18556.0, 18556.0, 18566.0, 18564.0, 18562.0, 18558.0, 18556.0, 18560.0, 18558.0, 18556.0, 18558.0, 18558.0, 18558.0, 18558.0, 18562.0, 18556.0, 18560.0, 18556.0, 18554.0, 18556.0, 18562.0, 18556.0, 18562.0, 18562.0, 18560.0, 18556.0, 18560.0, 18560.0, 18566.0, 18554.0, 18556.0, 18558.0, 18566.0, 18556.0, 18552.0, 18554.0, 18562.0, 18560.0, 18562.0, 18556.0, 18564.0, 18556.0, 18560.0, 18562.0, 18558.0, 18564.0, 18562.0, 18558.0, 18554.0, 18558.0, 18556.0, 18552.0, 18562.0, 18556.0, 18558.0, 18560.0, 18562.0, 18560.0, 18560.0, 18560.0, 18556.0, 18552.0, 18562.0, 18560.0, 18558.0, 18560.0, 18556.0, 18564.0, 18560.0, 18560.0, 18564.0, 18558.0, 18558.0, 18560.0, 18564.0, 18552.0, 18552.0, 18562.0, 18554.0, 18558.0, 18560.0, 18558.0, 18556.0, 18556.0, 18558.0, 18556.0, 18562.0, 18562.0, 18562.0, 18550.0, 18558.0, 18556.0, 18564.0, 18560.0, 18556.0, 18562.0, 18556.0, 18552.0, 18556.0, 18560.0, 18560.0, 18566.0, 18558.0, 18564.0, 18556.0, 18560.0, 18558.0, 18556.0, 18562.0, 18556.0, 18564.0, 18560.0, 18558.0, 18560.0, 18558.0, 18554.0, 18558.0, 18558.0, 18558.0, 18558.0, 18564.0, 18554.0, 18560.0, 18562.0, 18560.0, 18562.0, 18560.0, 18556.0, 18558.0, 18554.0, 18562.0, 18560.0, 18560.0, 18560.0, 18556.0, 18560.0, 18560.0, 18558.0, 18558.0, 18554.0, 18560.0, 18558.0, 18560.0, 18556.0, 18554.0, 18560.0, 18554.0, 18562.0, 18558.0, 18562.0, 18560.0, 18562.0, 18560.0, 18560.0, 18558.0, 18558.0, 18558.0, 18560.0, 18560.0, 18560.0, 18556.0, 18558.0, 18560.0, 18560.0, 18554.0, 18560.0, 18558.0, 18562.0, 18558.0, 18558.0, 18562.0, 18558.0, 18558.0, 18558.0, 18558.0]
    },
    "slices": {}
  }
}