{
  "AcquisitionMatrixPE": 104,
  "AcquisitionNumber": 1,
  "AcquisitionTime": "13:48:4.802500",
  "BandwidthPerPixelPhaseEncode": 17.17,
  "BaseResolution": 104,
  "BodyPartExamined": "BRAIN",
  "CoilString": "HC1-7;NC1_2",
  "ConsistencyInfo": "N4_VE11C_LATEST_20160120",
  "ConversionSoftware": "dcm2niix",
  "ConversionSoftwareVersion": "v1.0.20190902",
  "DerivedVendorReportedEchoSpacing": 0.000560011,
  "DeviceSerialNumber": "167006",
  "DwellTime": 2.1e-06,
  "EchoTime": 0.037,
  "EchoTrainLength": 104,
  "EffectiveEchoSpacing": 0.000560011,
  "FlipAngle": 52,
  "ImageComments": "Unaliased_MB4_PE3_LB",
  "ImageOrientationPatientDICOM": [0.999848, 0.00300941, 0.0171708, 0.00226854, 0.954149, -0.299323],
  "ImageType": [
    "ORIGINAL",
    "PRIMARY",
    "M",
    "MB",
    "ND",
    "MOSAIC"
],
  "ImagingFrequency": 123.259,
  "InPlanePhaseEncodingDirectionDICOM": "COL",
  "InstitutionAddress": "Chemin_Queen-Mary_4565_Montreal_District_CA_H3W_1W5",
  "InstitutionName": "IUGM",
  "InstitutionalDepartmentName": "Department",
  "MRAcquisitionType": "2D",
  "MagneticFieldStrength": 3,
  "Manufacturer": "Siemens",
  "ManufacturersModelName": "Prisma_fit",
  "Modality": "MR",
  "MultibandAccelerationFactor": 4,
  "PartialFourier": 1,
  "PatientPosition": "HFS",
  "PercentPhaseFOV": 100,
  "PhaseEncodingDirection": "j",
  "PhaseEncodingSteps": 104,
  "PhaseResolution": 1,
  "PixelBandwidth": 2290,
  "ProcedureStepDescription": "memory_things",
  "ProtocolName": "func_task-things_run-4",
  "PulseSequenceDetails": "%CustomerSeq%_cmrr_mbep2d_bold",
  "ReceiveCoilActiveElements": "HC1-7;NC1,2",
  "ReceiveCoilName": "HeadNeck_64",
  "ReconMatrixPE": 104,
  "RepetitionTime": 1.49,
  "SAR": 0.0470987,
  "ScanOptions": "FS",
  "ScanningSequence": "EP",
  "SequenceName": "epfid2d1_104",
  "SequenceVariant": "SK_SS",
  "SeriesDescription": "func_task-things_run-4",
  "SeriesNumber": 19,
  "ShimSetting": [628, -7197, -8791, 716, 11, 56, 8, -9],
  "SliceThickness": 2,
  "SliceTiming": [0, 0.785, 0.0975, 0.8825, 0.195, 0.98, 0.295, 1.0775, 0.3925, 1.175, 0.49, 1.2725, 0.5875, 1.3725, 0.685, 0, 0.785, 0.0975, 0.8825, 0.195, 0.98, 0.295, 1.0775, 0.3925, 1.175, 0.49, 1.2725, 0.5875, 1.3725, 0.685, 0, 0.785, 0.0975, 0.8825, 0.195, 0.98, 0.295, 1.0775, 0.3925, 1.175, 0.49, 1.2725, 0.5875, 1.3725, 0.685, 0, 0.785, 0.0975, 0.8825, 0.195, 0.98, 0.295, 1.0775, 0.3925, 1.175, 0.49, 1.2725, 0.5875, 1.3725, 0.685],
  "SoftwareVersions": "syngo_MR_E11",
  "SpacingBetweenSlices": 2,
  "StationName": "MRC35049",
  "TaskName": "things",
  "TotalReadoutTime": 0.0576811,
  "TxRefAmp": 230.019,
  "WipMemBlock": "863706d6-1f7e-4118-8c40-ba38e128e675||Sequence: R016 ve11c/master r/e634e98; Dec 19 2017 11:00:25 by eja",
  "dcmmeta_affine": [
    [-1.999696135520935, 0.004537072964012623, 0.034568510949611664, 108.13180541992188],
    [-0.006018810905516148, 1.9082980155944824, -0.598633885383606, -71.47090148925781],
    [0.03434153273701668, 0.5986469388008118, 1.9079943895339966, -67.8319091796875],
    [0.0, 0.0, 0.0, 1.0]
],
  "dcmmeta_reorient_transform": [
    [0.0, -1.0, 0.0, 103.0],
    [1.0, 0.0, 0.0, 0.0],
    [0.0, 0.0, 1.0, 0.0],
    [0.0, 0.0, 0.0, 1.0]
],
  "dcmmeta_shape": [104, 104, 60, 190],
  "dcmmeta_slice_dim": 2,
  "dcmmeta_version": 0.6,
  "global": {
    "const": {
      "AcquisitionMatrix": [104, 0, 0, 104],
      "AngioFlag": "N",
      "BitsAllocated": 16,
      "BitsStored": 16,
      "BodyPartExamined": "BRAIN",
      "Columns": 832,
      "EchoNumbers": 1,
      "EchoTime": 37.0,
      "EchoTrainLength": 104,
      "FlipAngle": 52.0,
      "HighBit": 15,
      "ImageOrientationPatient": [0.99984804260071, 0.00300940554652, 0.01717076544002, 0.00226853637472, 0.95414900247797, -0.2993234618486],
      "ImagePositionPatient": [-838.13999437131, -821.89511356109, 199.23588380498],
      "ImageType": [
        "ORIGINAL",
        "PRIMARY",
        "M",
        "MB",
        "ND",
        "MOSAIC"
],
      "ImagedNucleus": "1H",
      "ImagingFrequency": 123.259173,
      "InPlanePhaseEncodingDirection": "COL",
      "MRAcquisitionType": "2D",
      "MagneticFieldStrength": 3.0,
      "Manufacturer": "SIEMENS",
      "ManufacturerModelName": "Prisma_fit",
      "Modality": "MR",
      "NumberOfAverages": 1.0,
      "NumberOfPhaseEncodingSteps": 104,
      "PercentPhaseFieldOfView": 100.0,
      "PercentSampling": 100.0,
      "PerformedProcedureStepStartTime": "131323.231000",
      "PhotometricInterpretation": "MONOCHROME2",
      "PixelBandwidth": 2290.0,
      "PixelRepresentation": 0,
      "PixelSpacing": [2.0, 2.0],
      "ProtocolName": "func_task-things_run-4",
      "RepetitionTime": 1490.0,
      "Rows": 832,
      "SAR": 0.04709872859495,
      "SamplesPerPixel": 1,
      "ScanOptions": "FS",
      "ScanningSequence": "EP",
      "SequenceName": "epfid2d1_104",
      "SequenceVariant": [
        "SK",
        "SS"
],
      "SeriesDescription": "func_task-things_run-4",
      "SeriesNumber": 19,
      "SeriesTime": "134929.370000",
      "SliceLocation": -41.450024829071,
      "SliceThickness": 2.0,
      "SmallestImagePixelValue": 0,
      "SoftwareVersions": "syngo MR E11",
      "SpacingBetweenSlices": 2.0000000435742,
      "SpecificCharacterSet": "ISO_IR 100",
      "StudyID": "1",
      "StudyTime": "131323.050000",
      "TransmitCoilName": "Body",
      "VariableFlipAngleFlag": "N",
      "WindowCenterWidthExplanation": "Algo1",
      "dBdt": 0.0},
    "slices": {}
  },
  "time": {
    "samples": {
      "AcquisitionNumber": [1, 2, 3, 4, 5, 6, 7, 8, 9, 10, 11, 12, 13, 14, 15, 16, 17, 18, 19, 20, 21, 22, 23, 24, 25, 26, 27, 28, 29, 30, 31, 32, 33, 34, 35, 36, 37, 38, 39, 40, 41, 42, 43, 44, 45, 46, 47, 48, 49, 50, 51, 52, 53, 54, 55, 56, 57, 58, 59, 60, 61, 62, 63, 64, 65, 66, 67, 68, 69, 70, 71, 72, 73, 74, 75, 76, 77, 78, 79, 80, 81, 82, 83, 84, 85, 86, 87, 88, 89, 90, 91, 92, 93, 94, 95, 96, 97, 98, 99, 100, 101, 102, 103, 104, 105, 106, 107, 108, 109, 110, 111, 112, 113, 114, 115, 116, 117, 118, 119, 120, 121, 122, 123, 124, 125, 126, 127, 128, 129, 130, 131, 132, 133, 134, 135, 136, 137, 138, 139, 140, 141, 142, 143, 144, 145, 146, 147, 148, 149, 150, 151, 152, 153, 154, 155, 156, 157, 158, 159, 160, 161, 162, 163, 164, 165, 166, 167, 168, 169, 170, 171, 172, 173, 174, 175, 176, 177, 178, 179, 180, 181, 182, 183, 184, 185, 186, 187, 188, 189, 190],
      "AcquisitionTime": ["134804.802500", "134806.292500", "134807.782500", "134809.272500", "134810.762500", "134812.252500", "134813.742500", "134815.232500", "134816.722500", "134818.212500", "134819.702500", "134821.192500", "134822.682500", "134824.172500", "134825.662500", "134827.152500", "134828.642500", "134830.132500", "134831.622500", "134833.112500", "134834.602500", "134836.092500", "134837.582500", "134839.072500", "134840.562500", "134842.052500", "134843.542500", "134845.032500", "134846.522500", "134848.012500", "134849.502500", "134850.992500", "134852.482500", "134853.972500", "134855.462500", "134856.952500", "134858.442500", "134859.932500", "134901.422500", "134902.912500", "134904.402500", "134905.892500", "134907.382500", "134908.872500", "134910.362500", "134911.852500", "134913.342500", "134914.832500", "134916.322500", "134917.812500", "134919.302500", "134920.792500", "134922.282500", "134923.772500", "134925.262500", "134926.752500", "134928.242500", "134929.732500", "134931.222500", "134932.712500", "134934.202500", "134935.692500", "134937.182500", "134938.672500", "134940.162500", "134941.652500", "134943.142500", "134944.632500", "134946.122500", "134947.612500", "134949.102500", "134950.592500", "134952.082500", "134953.572500", "134955.062500", "134956.552500", "134958.042500", "134959.532500", "135001.022500", "135002.512500", "135004.002500", "135005.492500", "135006.982500", "135008.472500", "135009.962500", "135011.452500", "135012.942500", "135014.432500", "135015.922500", "135017.412500", "135018.902500", "135020.392500", "135021.882500", "135023.372500", "135024.862500", "135026.352500", "135027.842500", "135029.332500", "135030.822500", "135032.312500", "135033.802500", "135035.292500", "135036.782500", "135038.272500", "135039.762500", "135041.252500", "135042.742500", "135044.232500", "135045.722500", "135047.212500", "135048.702500", "135050.192500", "135051.682500", "135053.172500", "135054.662500", "135056.152500", "135057.642500", "135059.132500", "135100.622500", "135102.112500", "135103.602500", "135105.092500", "135106.582500", "135108.072500", "135109.562500", "135111.052500", "135112.542500", "135114.032500", "135115.522500", "135117.012500", "135118.502500", "135119.992500", "135121.482500", "135122.972500", "135124.462500", "135125.952500", "135127.442500", "135128.932500", "135130.422500", "135131.912500", "135133.402500", "135134.892500", "135136.382500", "135137.872500", "135139.362500", "135140.852500", "135142.342500", "135143.832500", "135145.322500", "135146.812500", "135148.302500", "135149.792500", "135151.282500", "135152.772500", "135154.262500", "135155.752500", "135157.242500", "135158.732500", "135200.222500", "135201.712500", "135203.202500", "135204.692500", "135206.182500", "135207.672500", "135209.162500", "135210.652500", "135212.142500", "135213.632500", "135215.122500", "135216.612500", "135218.102500", "135219.592500", "135221.082500", "135222.572500", "135224.062500", "135225.552500", "135227.042500", "135228.532500", "135230.022500", "135231.512500", "135233.002500", "135234.492500", "135235.982500", "135237.472500", "135238.962500", "135240.452500", "135241.942500", "135243.432500", "135244.922500", "135246.412500"],
      "ContentTime": ["134929.373000", "134929.377000", "134929.380000", "134929.383000", "134929.386000", "134929.389000", "134929.393000", "134929.396000", "134929.399000", "134929.402000", "134929.406000", "134929.409000", "134929.412000", "134929.415000", "134929.419000", "134929.422000", "134929.425000", "134929.428000", "134929.432000", "134929.435000", "134929.438000", "134929.441000", "134929.445000", "134929.448000", "134929.451000", "134929.454000", "134929.463000", "134929.466000", "134929.469000", "134929.473000", "134949.342000", "134949.346000", "134949.349000", "134949.352000", "134949.355000", "134949.358000", "134949.361000", "134949.365000", "134949.368000", "134949.371000", "134949.374000", "134949.378000", "134949.381000", "134949.384000", "134949.387000", "134949.391000", "134949.394000", "134949.397000", "134949.400000", "134949.403000", "135009.342000", "135009.346000", "135009.349000", "135009.352000", "135009.355000", "135009.359000", "135009.362000", "135009.366000", "135009.370000", "135009.374000", "135009.377000", "135009.381000", "135009.384000", "135009.387000", "135009.390000", "135009.401000", "135009.404000", "135009.408000", "135009.411000", "135009.414000", "135029.341000", "135029.345000", "135029.348000", "135029.351000", "135029.355000", "135029.359000", "135029.362000", "135029.365000", "135029.368000", "135029.372000", "135029.375000", "135029.378000", "135029.381000", "135029.385000", "135029.388000", "135029.391000", "135029.405000", "135029.409000", "135029.412000", "135029.415000", "135109.341000", "135109.345000", "135109.348000", "135109.352000", "135109.355000", "135109.358000", "135109.361000", "135109.365000", "135109.368000", "135109.371000", "135109.375000", "135109.378000", "135109.381000", "135109.385000", "135109.391000", "135109.394000", "135109.398000", "135109.401000", "135109.404000", "135109.408000", "135109.411000", "135109.414000", "135109.417000", "135109.421000", "135109.424000", "135109.427000", "135109.430000", "135109.434000", "135109.437000", "135109.440000", "135109.444000", "135109.447000", "135109.450000", "135149.341000", "135149.345000", "135149.349000", "135149.353000", "135149.356000", "135149.360000", "135149.363000", "135149.366000", "135149.370000", "135149.373000", "135149.376000", "135149.380000", "135149.383000", "135149.386000", "135149.389000", "135149.393000", "135149.396000", "135149.399000", "135149.403000", "135149.406000", "135149.409000", "135149.413000", "135149.416000", "135149.419000", "135149.422000", "135149.426000", "135149.429000", "135229.342000", "135229.346000", "135229.349000", "135229.352000", "135229.356000", "135229.359000", "135229.362000", "135229.366000", "135229.369000", "135229.372000", "135229.376000", "135229.379000", "135229.382000", "135229.385000", "135229.389000", "135229.392000", "135229.395000", "135229.399000", "135229.402000", "135229.405000", "135229.418000", "135229.421000", "135229.424000", "135229.428000", "135229.431000", "135229.435000", "135249.000000", "135249.004000", "135249.007000", "135249.011000", "135249.014000", "135249.018000", "135249.021000", "135249.025000", "135249.028000", "135249.032000", "135249.035000", "135249.038000", "135249.042000", "135249.045000"],
      "InstanceCreationTime": ["134929.373000", "134929.377000", "134929.380000", "134929.383000", "134929.386000", "134929.389000", "134929.393000", "134929.396000", "134929.399000", "134929.402000", "134929.406000", "134929.409000", "134929.412000", "134929.415000", "134929.419000", "134929.422000", "134929.425000", "134929.428000", "134929.432000", "134929.435000", "134929.438000", "134929.441000", "134929.445000", "134929.448000", "134929.451000", "134929.454000", "134929.463000", "134929.466000", "134929.469000", "134929.473000", "134949.342000", "134949.346000", "134949.349000", "134949.352000", "134949.355000", "134949.358000", "134949.361000", "134949.365000", "134949.368000", "134949.371000", "134949.374000", "134949.378000", "134949.381000", "134949.384000", "134949.387000", "134949.391000", "134949.394000", "134949.397000", "134949.400000", "134949.403000", "135009.342000", "135009.346000", "135009.349000", "135009.352000", "135009.355000", "135009.359000", "135009.362000", "135009.366000", "135009.370000", "135009.374000", "135009.377000", "135009.381000", "135009.384000", "135009.387000", "135009.390000", "135009.401000", "135009.404000", "135009.408000", "135009.411000", "135009.414000", "135029.341000", "135029.345000", "135029.348000", "135029.351000", "135029.355000", "135029.359000", "135029.362000", "135029.365000", "135029.368000", "135029.372000", "135029.375000", "135029.378000", "135029.381000", "135029.385000", "135029.388000", "135029.391000", "135029.405000", "135029.409000", "135029.412000", "135029.415000", "135109.341000", "135109.345000", "135109.348000", "135109.352000", "135109.355000", "135109.358000", "135109.361000", "135109.365000", "135109.368000", "135109.371000", "135109.375000", "135109.378000", "135109.381000", "135109.385000", "135109.391000", "135109.394000", "135109.398000", "135109.401000", "135109.404000", "135109.408000", "135109.411000", "135109.414000", "135109.417000", "135109.421000", "135109.424000", "135109.427000", "135109.430000", "135109.434000", "135109.437000", "135109.440000", "135109.444000", "135109.447000", "135109.450000", "135149.341000", "135149.345000", "135149.349000", "135149.353000", "135149.356000", "135149.360000", "135149.363000", "135149.366000", "135149.370000", "135149.373000", "135149.376000", "135149.380000", "135149.383000", "135149.386000", "135149.389000", "135149.393000", "135149.396000", "135149.399000", "135149.403000", "135149.406000", "135149.409000", "135149.413000", "135149.416000", "135149.419000", "135149.422000", "135149.426000", "135149.429000", "135229.342000", "135229.346000", "135229.349000", "135229.352000", "135229.356000", "135229.359000", "135229.362000", "135229.366000", "135229.369000", "135229.372000", "135229.376000", "135229.379000", "135229.382000", "135229.385000", "135229.389000", "135229.392000", "135229.395000", "135229.399000", "135229.402000", "135229.405000", "135229.418000", "135229.421000", "135229.424000", "135229.428000", "135229.431000", "135229.435000", "135249.000000", "135249.004000", "135249.007000", "135249.011000", "135249.014000", "135249.018000", "135249.021000", "135249.025000", "135249.028000", "135249.032000", "135249.035000", "135249.038000", "135249.042000", "135249.045000"],
      "InstanceNumber": [1, 2, 3, 4, 5, 6, 7, 8, 9, 10, 11, 12, 13, 14, 15, 16, 17, 18, 19, 20, 21, 22, 23, 24, 25, 26, 27, 28, 29, 30, 31, 32, 33, 34, 35, 36, 37, 38, 39, 40, 41, 42, 43, 44, 45, 46, 47, 48, 49, 50, 51, 52, 53, 54, 55, 56, 57, 58, 59, 60, 61, 62, 63, 64, 65, 66, 67, 68, 69, 70, 71, 72, 73, 74, 75, 76, 77, 78, 79, 80, 81, 82, 83, 84, 85, 86, 87, 88, 89, 90, 91, 92, 93, 94, 95, 96, 97, 98, 99, 100, 101, 102, 103, 104, 105, 106, 107, 108, 109, 110, 111, 112, 113, 114, 115, 116, 117, 118, 119, 120, 121, 122, 123, 124, 125, 126, 127, 128, 129, 130, 131, 132, 133, 134, 135, 136, 137, 138, 139, 140, 141, 142, 143, 144, 145, 146, 147, 148, 149, 150, 151, 152, 153, 154, 155, 156, 157, 158, 159, 160, 161, 162, 163, 164, 165, 166, 167, 168, 169, 170, 171, 172, 173, 174, 175, 176, 177, 178, 179, 180, 181, 182, 183, 184, 185, 186, 187, 188, 189, 190],
      "LargestImagePixelValue": [38758, 37790, 37376, 36709, 36887, 36948, 36538, 36514, 36156, 36581, 36445, 36242, 36219, 36475, 36465, 36525, 36432, 36375, 36537, 36199, 36262, 36501, 36080, 36338, 36394, 36273, 36181, 36591, 36293, 36259, 36469, 36706, 36301, 36055, 36122, 36317, 36393, 36301, 36361, 36387, 36375, 36385, 36082, 36582, 36509, 36180, 36526, 36266, 36255, 36378, 36178, 36550, 36771, 36378, 36358, 36556, 36289, 36217, 36132, 36153, 36377, 36775, 36157, 36379, 36189, 36792, 36412, 36424, 36264, 36326, 36219, 36398, 36315, 36327, 36283, 36003, 36310, 36309, 36182, 36071, 36792, 36594, 36358, 36107, 36461, 36485, 37094, 36329, 36184, 36583, 36373, 36347, 36204, 36243, 36578, 36393, 36205, 36234, 36905, 36276, 36312, 36556, 36510, 36361, 35995, 36468, 36658, 35909, 36397, 36804, 36928, 36816, 36418, 36815, 37311, 36173, 36390, 37257, 36922, 36678, 36433, 36791, 37082, 36696, 36341, 36688, 37292, 36883, 36804, 37119, 37342, 36628, 36747, 37212, 36517, 36429, 36894, 37444, 36506, 36526, 36982, 36891, 36630, 36404, 37016, 37090, 37911, 37744, 37794, 37146, 37320, 37079, 37226, 37381, 37580, 36941, 37583, 37675, 37595, 37433, 37702, 37577, 38120, 37695, 37778, 38255, 38116, 37678, 37675, 38260, 38162, 37509, 37778, 38261, 38597, 37710, 37810, 38179, 38420, 37875, 37633, 37926, 38201, 37409, 37609, 37589, 38218, 37635, 37841, 37842],
      "WindowCenter": [10143.0, 10101.0, 10097.0, 10092.0, 10084.0, 10075.0, 10072.0, 10080.0, 10068.0, 10067.0, 10069.0, 10065.0, 10057.0, 10058.0, 10063.0, 10063.0, 10066.0, 10082.0, 10091.0, 10086.0, 10069.0, 10055.0, 10048.0, 10062.0, 10071.0, 10073.0, 10069.0, 10067.0, 10060.0, 10057.0, 10070.0, 10087.0, 10083.0, 10075.0, 10074.0, 10074.0, 10076.0, 10083.0, 10075.0, 10074.0, 10048.0, 10052.0, 10055.0, 10056.0, 10064.0, 10069.0, 10076.0, 10067.0, 10050.0, 10054.0, 10051.0, 10080.0, 10098.0, 10091.0, 10076.0, 10051.0, 10040.0, 10036.0, 10038.0, 10048.0, 10063.0, 10070.0, 10075.0, 10084.0, 10070.0, 10067.0, 10046.0, 10055.0, 10074.0, 10084.0, 10070.0, 10065.0, 10049.0, 10047.0, 10040.0, 10049.0, 10067.0, 10078.0, 10066.0, 10042.0, 10045.0, 10046.0, 10049.0, 10049.0, 10050.0, 10059.0, 10064.0, 10057.0, 10051.0, 10043.0, 10039.0, 10036.0, 10055.0, 10074.0, 10077.0, 10068.0, 10057.0, 10041.0, 10045.0, 10044.0, 10064.0, 10083.0, 10078.0, 10059.0, 10036.0, 10030.0, 10051.0, 10065.0, 10074.0, 10066.0, 10058.0, 10038.0, 10030.0, 10043.0, 10074.0, 10066.0, 10060.0, 10046.0, 10051.0, 10069.0, 10076.0, 10068.0, 10055.0, 10038.0, 10038.0, 10053.0, 10059.0, 10054.0, 10071.0, 10082.0, 10081.0, 10060.0, 10046.0, 10051.0, 10057.0, 10065.0, 10065.0, 10062.0, 10064.0, 10066.0, 10055.0, 10053.0, 10056.0, 10074.0, 10075.0, 10071.0, 10062.0, 10053.0, 10026.0, 10001.0, 9999.0, 10007.0, 10027.0, 10045.0, 10059.0, 10067.0, 10073.0, 10072.0, 10055.0, 10042.0, 10051.0, 10071.0, 10093.0, 10096.0, 10089.0, 10085.0, 10077.0, 10078.0, 10078.0, 10092.0, 10095.0, 10087.0, 10079.0, 10085.0, 10084.0, 10077.0, 10088.0, 10096.0, 10093.0, 10062.0, 10043.0, 10064.0, 10089.0, 10091.0, 10073.0, 10054.0, 10046.0, 10039.0, 10039.0, 10049.0],
      "WindowWidth": [21611.0, 21490.0, 21468.0, 21453.0, 21433.0, 21409.0, 21399.0, 21418.0, 21396.0, 21391.0, 21391.0, 21385.0, 21368.0, 21371.0, 21379.0, 21381.0, 21389.0, 21425.0, 21445.0, 21434.0, 21393.0, 21358.0, 21346.0, 21375.0, 21397.0, 21405.0, 21399.0, 21392.0, 21375.0, 21367.0, 21395.0, 21434.0, 21430.0, 21409.0, 21404.0, 21403.0, 21408.0, 21423.0, 21405.0, 21400.0, 21342.0, 21349.0, 21359.0, 21362.0, 21378.0, 21395.0, 21409.0, 21391.0, 21353.0, 21358.0, 21355.0, 21417.0, 21458.0, 21442.0, 21407.0, 21349.0, 21325.0, 21314.0, 21322.0, 21348.0, 21378.0, 21394.0, 21409.0, 21428.0, 21399.0, 21387.0, 21337.0, 21360.0, 21404.0, 21427.0, 21396.0, 21380.0, 21348.0, 21341.0, 21330.0, 21349.0, 21390.0, 21416.0, 21385.0, 21330.0, 21336.0, 21341.0, 21349.0, 21349.0, 21353.0, 21371.0, 21378.0, 21363.0, 21352.0, 21334.0, 21322.0, 21315.0, 21360.0, 21407.0, 21414.0, 21391.0, 21364.0, 21330.0, 21336.0, 21335.0, 21383.0, 21428.0, 21414.0, 21367.0, 21316.0, 21303.0, 21349.0, 21386.0, 21404.0, 21386.0, 21366.0, 21319.0, 21301.0, 21332.0, 21398.0, 21387.0, 21373.0, 21337.0, 21347.0, 21390.0, 21408.0, 21390.0, 21355.0, 21319.0, 21322.0, 21355.0, 21364.0, 21355.0, 21395.0, 21421.0, 21416.0, 21371.0, 21336.0, 21346.0, 21366.0, 21387.0, 21385.0, 21375.0, 21381.0, 21384.0, 21358.0, 21351.0, 21361.0, 21401.0, 21405.0, 21393.0, 21370.0, 21348.0, 21287.0, 21234.0, 21228.0, 21247.0, 21296.0, 21337.0, 21367.0, 21390.0, 21401.0, 21397.0, 21359.0, 21325.0, 21347.0, 21395.0, 21442.0, 21451.0, 21437.0, 21424.0, 21407.0, 21410.0, 21413.0, 21441.0, 21448.0, 21429.0, 21410.0, 21424.0, 21418.0, 21404.0, 21431.0, 21451.0, 21438.0, 21370.0, 21327.0, 21373.0, 21430.0, 21440.0, 21398.0, 21351.0, 21326.0, 21314.0, 21315.0, 21340.0]
    },
    "slices": {}
  }
}