{
  "AcquisitionMatrixPE": 104,
  "AcquisitionNumber": 1,
  "AcquisitionTime": "13:54:22.530000",
  "BandwidthPerPixelPhaseEncode": 17.17,
  "BaseResolution": 104,
  "BodyPartExamined": "BRAIN",
  "CoilString": "HC1-7;NC1_2",
  "ConsistencyInfo": "N4_VE11C_LATEST_20160120",
  "ConversionSoftware": "dcm2niix",
  "ConversionSoftwareVersion": "v1.0.20190902",
  "DerivedVendorReportedEchoSpacing": 0.000560011,
  "DeviceSerialNumber": "167006",
  "DwellTime": 2.1e-06,
  "EchoTime": 0.037,
  "EchoTrainLength": 104,
  "EffectiveEchoSpacing": 0.000560011,
  "FlipAngle": 52,
  "ImageComments": "Unaliased_MB4_PE3_LB",
  "ImageOrientationPatientDICOM": [0.999848, 0.00300941, 0.0171708, 0.00226854, 0.954149, -0.299323],
  "ImageType": [
    "ORIGINAL",
    "PRIMARY",
    "P",
    "MB",
    "ND",
    "MOSAIC"
],
  "ImagingFrequency": 123.259,
  "InPlanePhaseEncodingDirectionDICOM": "COL",
  "InstitutionAddress": "Chemin_Queen-Mary_4565_Montreal_District_CA_H3W_1W5",
  "InstitutionName": "IUGM",
  "InstitutionalDepartmentName": "Department",
  "MRAcquisitionType": "2D",
  "MagneticFieldStrength": 3,
  "Manufacturer": "Siemens",
  "ManufacturersModelName": "Prisma_fit",
  "Modality": "MR",
  "MultibandAccelerationFactor": 4,
  "PartialFourier": 1,
  "PatientPosition": "HFS",
  "PercentPhaseFOV": 100,
  "PhaseEncodingDirection": "j",
  "PhaseEncodingSteps": 104,
  "PhaseResolution": 1,
  "PixelBandwidth": 2290,
  "ProcedureStepDescription": "memory_things",
  "ProtocolName": "func_task-things_run-5",
  "PulseSequenceDetails": "%CustomerSeq%_cmrr_mbep2d_bold",
  "ReceiveCoilActiveElements": "HC1-7;NC1,2",
  "ReceiveCoilName": "HeadNeck_64",
  "ReconMatrixPE": 104,
  "RepetitionTime": 1.49,
  "SAR": 0.0470987,
  "ScanOptions": "FS",
  "ScanningSequence": "EP",
  "SequenceName": "epfid2d1_104",
  "SequenceVariant": "SK_SS",
  "SeriesDescription": "func_task-things_run-5",
  "SeriesNumber": 23,
  "ShimSetting": [628, -7197, -8791, 716, 11, 56, 8, -9],
  "SliceThickness": 2,
  "SliceTiming": [0, 0.785, 0.0975, 0.8825, 0.195, 0.98, 0.295, 1.0775, 0.3925, 1.175, 0.49, 1.2725, 0.5875, 1.3725, 0.685, 0, 0.785, 0.0975, 0.8825, 0.195, 0.98, 0.295, 1.0775, 0.3925, 1.175, 0.49, 1.2725, 0.5875, 1.3725, 0.685, 0, 0.785, 0.0975, 0.8825, 0.195, 0.98, 0.295, 1.0775, 0.3925, 1.175, 0.49, 1.2725, 0.5875, 1.3725, 0.685, 0, 0.785, 0.0975, 0.8825, 0.195, 0.98, 0.295, 1.0775, 0.3925, 1.175, 0.49, 1.2725, 0.5875, 1.3725, 0.685],
  "SoftwareVersions": "syngo_MR_E11",
  "SpacingBetweenSlices": 2,
  "StationName": "MRC35049",
  "TaskName": "things",
  "TotalReadoutTime": 0.0576811,
  "TxRefAmp": 230.019,
  "WipMemBlock": "0567c497-5674-48ec-98b8-95aa770ccee8||Sequence: R016 ve11c/master r/e634e98; Dec 19 2017 11:00:25 by eja",
  "dcmmeta_affine": [
    [-1.999696135520935, 0.004537072964012623, 0.034568510949611664, 108.13180541992188],
    [-0.006018810905516148, 1.9082980155944824, -0.598633885383606, -71.47090148925781],
    [0.03434153273701668, 0.5986469388008118, 1.9079943895339966, -67.8319091796875],
    [0.0, 0.0, 0.0, 1.0]
],
  "dcmmeta_reorient_transform": [
    [0.0, -1.0, 0.0, 103.0],
    [1.0, 0.0, 0.0, 0.0],
    [0.0, 0.0, 1.0, 0.0],
    [0.0, 0.0, 0.0, 1.0]
],
  "dcmmeta_shape": [104, 104, 60, 190],
  "dcmmeta_slice_dim": 2,
  "dcmmeta_version": 0.6,
  "global": {
    "const": {
      "AcquisitionMatrix": [104, 0, 0, 104],
      "AngioFlag": "N",
      "BitsAllocated": 16,
      "BitsStored": 16,
      "BodyPartExamined": "BRAIN",
      "Columns": 832,
      "EchoNumbers": 1,
      "EchoTime": 37.0,
      "EchoTrainLength": 104,
      "FlipAngle": 52.0,
      "HighBit": 15,
      "ImageOrientationPatient": [0.99984804260071, 0.00300940554652, 0.01717076544002, 0.00226853637472, 0.95414900247797, -0.2993234618486],
      "ImagePositionPatient": [-838.13999437131, -821.89511356109, 199.23588380498],
      "ImageType": [
        "ORIGINAL",
        "PRIMARY",
        "P",
        "MB",
        "ND",
        "MOSAIC"
],
      "ImagedNucleus": "1H",
      "ImagingFrequency": 123.259176,
      "InPlanePhaseEncodingDirection": "COL",
      "LargestImagePixelValue": 4095,
      "MRAcquisitionType": "2D",
      "MagneticFieldStrength": 3.0,
      "Manufacturer": "SIEMENS",
      "ManufacturerModelName": "Prisma_fit",
      "Modality": "MR",
      "NumberOfAverages": 1.0,
      "NumberOfPhaseEncodingSteps": 104,
      "PercentPhaseFieldOfView": 100.0,
      "PercentSampling": 100.0,
      "PerformedProcedureStepStartTime": "131323.231000",
      "PhotometricInterpretation": "MONOCHROME2",
      "PixelBandwidth": 2290.0,
      "PixelRepresentation": 0,
      "PixelSpacing": [2.0, 2.0],
      "ProtocolName": "func_task-things_run-5",
      "RepetitionTime": 1490.0,
      "RescaleIntercept": -4096.0,
      "RescaleSlope": 2.0,
      "RescaleType": "US",
      "Rows": 832,
      "SAR": 0.04709872859495,
      "SamplesPerPixel": 1,
      "ScanOptions": "FS",
      "ScanningSequence": "EP",
      "SequenceName": "epfid2d1_104",
      "SequenceVariant": [
        "SK",
        "SS"
],
      "SeriesDescription": "func_task-things_run-5",
      "SeriesNumber": 23,
      "SeriesTime": "135543.409000",
      "SliceLocation": -41.450024829071,
      "SliceThickness": 2.0,
      "SmallestImagePixelValue": 0,
      "SoftwareVersions": "syngo MR E11",
      "SpacingBetweenSlices": 2.0000000435742,
      "SpecificCharacterSet": "ISO_IR 100",
      "StudyID": "1",
      "StudyTime": "131323.050000",
      "TransmitCoilName": "Body",
      "VariableFlipAngleFlag": "N",
      "WindowCenterWidthExplanation": "Algo1",
      "dBdt": 0.0},
    "slices": {}
  },
  "time": {
    "samples": {
      "AcquisitionNumber": [1, 2, 3, 4, 5, 6, 7, 8, 9, 10, 11, 12, 13, 14, 15, 16, 17, 18, 19, 20, 21, 22, 23, 24, 25, 26, 27, 28, 29, 30, 31, 32, 33, 34, 35, 36, 37, 38, 39, 40, 41, 42, 43, 44, 45, 46, 47, 48, 49, 50, 51, 52, 53, 54, 55, 56, 57, 58, 59, 60, 61, 62, 63, 64, 65, 66, 67, 68, 69, 70, 71, 72, 73, 74, 75, 76, 77, 78, 79, 80, 81, 82, 83, 84, 85, 86, 87, 88, 89, 90, 91, 92, 93, 94, 95, 96, 97, 98, 99, 100, 101, 102, 103, 104, 105, 106, 107, 108, 109, 110, 111, 112, 113, 114, 115, 116, 117, 118, 119, 120, 121, 122, 123, 124, 125, 126, 127, 128, 129, 130, 131, 132, 133, 134, 135, 136, 137, 138, 139, 140, 141, 142, 143, 144, 145, 146, 147, 148, 149, 150, 151, 152, 153, 154, 155, 156, 157, 158, 159, 160, 161, 162, 163, 164, 165, 166, 167, 168, 169, 170, 171, 172, 173, 174, 175, 176, 177, 178, 179, 180, 181, 182, 183, 184, 185, 186, 187, 188, 189, 190],
      "AcquisitionTime": ["135422.530000", "135424.020000", "135425.510000", "135427.000000", "135428.490000", "135429.980000", "135431.470000", "135432.960000", "135434.450000", "135435.940000", "135437.430000", "135438.920000", "135440.410000", "135441.900000", "135443.390000", "135444.880000", "135446.370000", "135447.860000", "135449.350000", "135450.840000", "135452.330000", "135453.820000", "135455.310000", "135456.800000", "135458.290000", "135459.780000", "135501.270000", "135502.760000", "135504.250000", "135505.740000", "135507.230000", "135508.720000", "135510.210000", "135511.700000", "135513.190000", "135514.680000", "135516.170000", "135517.660000", "135519.150000", "135520.640000", "135522.130000", "135523.620000", "135525.110000", "135526.600000", "135528.090000", "135529.580000", "135531.070000", "135532.560000", "135534.050000", "135535.540000", "135537.030000", "135538.520000", "135540.010000", "135541.500000", "135542.990000", "135544.480000", "135545.970000", "135547.460000", "135548.950000", "135550.440000", "135551.930000", "135553.420000", "135554.910000", "135556.400000", "135557.890000", "135559.380000", "135600.870000", "135602.360000", "135603.850000", "135605.340000", "135606.830000", "135608.320000", "135609.810000", "135611.300000", "135612.790000", "135614.280000", "135615.770000", "135617.260000", "135618.750000", "135620.240000", "135621.730000", "135623.220000", "135624.710000", "135626.200000", "135627.690000", "135629.180000", "135630.670000", "135632.160000", "135633.650000", "135635.140000", "135636.630000", "135638.120000", "135639.610000", "135641.100000", "135642.590000", "135644.080000", "135645.570000", "135647.060000", "135648.550000", "135650.040000", "135651.530000", "135653.020000", "135654.510000", "135656.000000", "135657.490000", "135658.980000", "135700.470000", "135701.960000", "135703.450000", "135704.940000", "135706.430000", "135707.920000", "135709.410000", "135710.900000", "135712.390000", "135713.880000", "135715.370000", "135716.860000", "135718.350000", "135719.840000", "135721.330000", "135722.820000", "135724.310000", "135725.800000", "135727.290000", "135728.780000", "135730.270000", "135731.760000", "135733.250000", "135734.740000", "135736.230000", "135737.720000", "135739.210000", "135740.700000", "135742.190000", "135743.680000", "135745.170000", "135746.660000", "135748.150000", "135749.640000", "135751.130000", "135752.620000", "135754.110000", "135755.600000", "135757.090000", "135758.580000", "135800.070000", "135801.560000", "135803.050000", "135804.540000", "135806.030000", "135807.520000", "135809.010000", "135810.500000", "135811.990000", "135813.480000", "135814.970000", "135816.460000", "135817.950000", "135819.440000", "135820.930000", "135822.420000", "135823.910000", "135825.400000", "135826.890000", "135828.380000", "135829.870000", "135831.360000", "135832.850000", "135834.340000", "135835.830000", "135837.320000", "135838.810000", "135840.300000", "135841.790000", "135843.280000", "135844.770000", "135846.260000", "135847.750000", "135849.240000", "135850.730000", "135852.220000", "135853.710000", "135855.200000", "135856.690000", "135858.180000", "135859.670000", "135901.160000", "135902.650000", "135904.140000"],
      "ContentTime": ["135543.411000", "135543.413000", "135543.416000", "135543.419000", "135543.421000", "135543.424000", "135543.426000", "135543.429000", "135543.431000", "135543.434000", "135543.436000", "135543.439000", "135543.441000", "135543.444000", "135543.446000", "135543.449000", "135543.451000", "135543.454000", "135543.456000", "135543.459000", "135543.461000", "135543.463000", "135543.466000", "135543.476000", "135543.479000", "135543.481000", "135603.349000", "135603.352000", "135603.355000", "135603.364000", "135603.366000", "135603.369000", "135603.371000", "135603.374000", "135603.376000", "135603.379000", "135603.381000", "135603.384000", "135603.386000", "135603.389000", "135603.398000", "135603.400000", "135603.403000", "135603.405000", "135603.408000", "135603.410000", "135623.360000", "135623.363000", "135623.365000", "135623.368000", "135623.370000", "135623.373000", "135623.375000", "135623.378000", "135623.380000", "135623.383000", "135623.385000", "135623.388000", "135623.390000", "135623.393000", "135623.395000", "135623.398000", "135623.401000", "135623.403000", "135623.405000", "135623.408000", "135643.365000", "135643.368000", "135643.371000", "135643.378000", "135643.380000", "135643.383000", "135643.385000", "135643.388000", "135643.390000", "135643.393000", "135643.395000", "135643.398000", "135643.400000", "135643.403000", "135643.405000", "135643.408000", "135643.410000", "135643.413000", "135643.415000", "135643.418000", "135703.352000", "135703.355000", "135703.358000", "135703.360000", "135703.362000", "135703.365000", "135703.367000", "135703.370000", "135703.372000", "135703.375000", "135703.377000", "135703.380000", "135703.382000", "135703.384000", "135703.387000", "135703.389000", "135703.392000", "135703.394000", "135703.397000", "135703.399000", "135703.402000", "135743.386000", "135743.389000", "135743.392000", "135743.394000", "135743.397000", "135743.399000", "135743.401000", "135743.404000", "135743.406000", "135743.409000", "135743.411000", "135743.414000", "135743.416000", "135743.419000", "135743.421000", "135743.423000", "135743.426000", "135743.428000", "135743.431000", "135743.433000", "135743.436000", "135743.438000", "135743.441000", "135743.443000", "135743.446000", "135743.448000", "135743.450000", "135823.373000", "135823.376000", "135823.378000", "135823.381000", "135823.383000", "135823.385000", "135823.388000", "135823.390000", "135823.393000", "135823.395000", "135823.398000", "135823.400000", "135823.403000", "135823.405000", "135823.408000", "135823.410000", "135823.412000", "135823.415000", "135823.417000", "135823.420000", "135823.433000", "135823.435000", "135823.438000", "135823.440000", "135823.443000", "135823.445000", "135903.375000", "135903.377000", "135903.380000", "135903.382000", "135903.385000", "135903.387000", "135903.390000", "135903.392000", "135903.395000", "135903.397000", "135903.400000", "135903.402000", "135903.405000", "135903.407000", "135903.410000", "135903.412000", "135903.415000", "135903.417000", "135903.420000", "135903.422000", "135903.424000", "135903.427000", "135903.429000", "135903.432000", "135903.436000", "135903.438000", "135903.441000", "135906.657000", "135906.660000", "135906.662000"],
      "InstanceCreationTime": ["135543.411000", "135543.413000", "135543.416000", "135543.419000", "135543.421000", "135543.424000", "135543.426000", "135543.429000", "135543.431000", "135543.434000", "135543.436000", "135543.439000", "135543.441000", "135543.444000", "135543.446000", "135543.449000", "135543.451000", "135543.454000", "135543.456000", "135543.459000", "135543.461000", "135543.463000", "135543.466000", "135543.476000", "135543.479000", "135543.481000", "135603.349000", "135603.352000", "135603.355000", "135603.364000", "135603.366000", "135603.369000", "135603.371000", "135603.374000", "135603.376000", "135603.379000", "135603.381000", "135603.384000", "135603.386000", "135603.389000", "135603.398000", "135603.400000", "135603.403000", "135603.405000", "135603.408000", "135603.410000", "135623.360000", "135623.363000", "135623.365000", "135623.368000", "135623.370000", "135623.373000", "135623.375000", "135623.378000", "135623.380000", "135623.383000", "135623.385000", "135623.388000", "135623.390000", "135623.393000", "135623.395000", "135623.398000", "135623.401000", "135623.403000", "135623.405000", "135623.408000", "135643.365000", "135643.368000", "135643.371000", "135643.378000", "135643.380000", "135643.383000", "135643.385000", "135643.388000", "135643.390000", "135643.393000", "135643.395000", "135643.398000", "135643.400000", "135643.403000", "135643.405000", "135643.408000", "135643.410000", "135643.413000", "135643.415000", "135643.418000", "135703.352000", "135703.355000", "135703.358000", "135703.360000", "135703.362000", "135703.365000", "135703.367000", "135703.370000", "135703.372000", "135703.375000", "135703.377000", "135703.380000", "135703.382000", "135703.384000", "135703.387000", "135703.389000", "135703.392000", "135703.394000", "135703.397000", "135703.399000", "135703.402000", "135743.386000", "135743.389000", "135743.392000", "135743.394000", "135743.397000", "135743.399000", "135743.401000", "135743.404000", "135743.406000", "135743.409000", "135743.411000", "135743.414000", "135743.416000", "135743.419000", "135743.421000", "135743.423000", "135743.426000", "135743.428000", "135743.431000", "135743.433000", "135743.436000", "135743.438000", "135743.441000", "135743.443000", "135743.446000", "135743.448000", "135743.450000", "135823.373000", "135823.376000", "135823.378000", "135823.381000", "135823.383000", "135823.385000", "135823.388000", "135823.390000", "135823.393000", "135823.395000", "135823.398000", "135823.400000", "135823.403000", "135823.405000", "135823.408000", "135823.410000", "135823.412000", "135823.415000", "135823.417000", "135823.420000", "135823.433000", "135823.435000", "135823.438000", "135823.440000", "135823.443000", "135823.445000", "135903.375000", "135903.377000", "135903.380000", "135903.382000", "135903.385000", "135903.387000", "135903.390000", "135903.392000", "135903.395000", "135903.397000", "135903.400000", "135903.402000", "135903.405000", "135903.407000", "135903.410000", "135903.412000", "135903.415000", "135903.417000", "135903.420000", "135903.422000", "135903.424000", "135903.427000", "135903.429000", "135903.432000", "135903.436000", "135903.438000", "135903.441000", "135906.657000", "135906.660000", "135906.662000"],
      "InstanceNumber": [1, 2, 3, 4, 5, 6, 7, 8, 9, 10, 11, 12, 13, 14, 15, 16, 17, 18, 19, 20, 21, 22, 23, 24, 25, 26, 27, 28, 29, 30, 31, 32, 33, 34, 35, 36, 37, 38, 39, 40, 41, 42, 43, 44, 45, 46, 47, 48, 49, 50, 51, 52, 53, 54, 55, 56, 57, 58, 59, 60, 61, 62, 63, 64, 65, 66, 67, 68, 69, 70, 71, 72, 73, 74, 75, 76, 77, 78, 79, 80, 81, 82, 83, 84, 85, 86, 87, 88, 89, 90, 91, 92, 93, 94, 95, 96, 97, 98, 99, 100, 101, 102, 103, 104, 105, 106, 107, 108, 109, 110, 111, 112, 113, 114, 115, 116, 117, 118, 119, 120, 121, 122, 123, 124, 125, 126, 127, 128, 129, 130, 131, 132, 133, 134, 135, 136, 137, 138, 139, 140, 141, 142, 143, 144, 145, 146, 147, 148, 149, 150, 151, 152, 153, 154, 155, 156, 157, 158, 159, 160, 161, 162, 163, 164, 165, 166, 167, 168, 169, 170, 171, 172, 173, 174, 175, 176, 177, 178, 179, 180, 181, 182, 183, 184, 185, 186, 187, 188, 189, 190],
      "WindowCenter": [4764.0, 4762.0, 4786.0, 4786.0, 4786.0, 4786.0, 4762.0, 4760.0, 4764.0, 4764.0, 4758.0, 4766.0, 4764.0, 4764.0, 4788.0, 4764.0, 4788.0, 4764.0, 4764.0, 4762.0, 4786.0, 4788.0, 4786.0, 4786.0, 4788.0, 4764.0, 4762.0, 4766.0, 4790.0, 4790.0, 4786.0, 4764.0, 4788.0, 4764.0, 4766.0, 4764.0, 4762.0, 4764.0, 4790.0, 4790.0, 4764.0, 4788.0, 4768.0, 4770.0, 4792.0, 4762.0, 4766.0, 4764.0, 4790.0, 4760.0, 4766.0, 4766.0, 4760.0, 4792.0, 4788.0, 4762.0, 4788.0, 4760.0, 4786.0, 4786.0, 4768.0, 4768.0, 4788.0, 4792.0, 4786.0, 4792.0, 4764.0, 4764.0, 4764.0, 4788.0, 4766.0, 4764.0, 4788.0, 4766.0, 4786.0, 4788.0, 4764.0, 4786.0, 4764.0, 4764.0, 4766.0, 4788.0, 4788.0, 4768.0, 4788.0, 4788.0, 4764.0, 4764.0, 4766.0, 4790.0, 4788.0, 4786.0, 4792.0, 4792.0, 4764.0, 4762.0, 4758.0, 4760.0, 4766.0, 4766.0, 4788.0, 4794.0, 4792.0, 4768.0, 4764.0, 4766.0, 4764.0, 4764.0, 4764.0, 4764.0, 4764.0, 4764.0, 4764.0, 4788.0, 4790.0, 4766.0, 4764.0, 4790.0, 4766.0, 4766.0, 4766.0, 4762.0, 4760.0, 4766.0, 4766.0, 4768.0, 4764.0, 4770.0, 4790.0, 4764.0, 4766.0, 4764.0, 4762.0, 4766.0, 4764.0, 4788.0, 4768.0, 4790.0, 4766.0, 4768.0, 4768.0, 4766.0, 4768.0, 4768.0, 4790.0, 4788.0, 4764.0, 4768.0, 4766.0, 4790.0, 4790.0, 4766.0, 4764.0, 4764.0, 4766.0, 4766.0, 4764.0, 4792.0, 4762.0, 4792.0, 4766.0, 4766.0, 4792.0, 4766.0, 4790.0, 4766.0, 4766.0, 4766.0, 4764.0, 4764.0, 4788.0, 4788.0, 4768.0, 4766.0, 4790.0, 4766.0, 4792.0, 4792.0, 4790.0, 4762.0, 4790.0, 4762.0, 4764.0, 4790.0, 4766.0, 4772.0, 4766.0, 4762.0, 4766.0, 4762.0],
      "WindowWidth": [18538.0, 18536.0, 18568.0, 18564.0, 18568.0, 18570.0, 18532.0, 18532.0, 18532.0, 18538.0, 18530.0, 18538.0, 18534.0, 18534.0, 18566.0, 18538.0, 18566.0, 18538.0, 18536.0, 18534.0, 18562.0, 18568.0, 18566.0, 18566.0, 18568.0, 18538.0, 18536.0, 18534.0, 18568.0, 18562.0, 18564.0, 18538.0, 18570.0, 18534.0, 18538.0, 18534.0, 18536.0, 18530.0, 18572.0, 18570.0, 18536.0, 18568.0, 18536.0, 18540.0, 18572.0, 18534.0, 18532.0, 18540.0, 18566.0, 18532.0, 18532.0, 18538.0, 18536.0, 18568.0, 18566.0, 18536.0, 18568.0, 18534.0, 18566.0, 18568.0, 18540.0, 18534.0, 18566.0, 18570.0, 18564.0, 18572.0, 18538.0, 18534.0, 18540.0, 18568.0, 18540.0, 18534.0, 18564.0, 18536.0, 18568.0, 18564.0, 18536.0, 18566.0, 18536.0, 18532.0, 18534.0, 18568.0, 18564.0, 18536.0, 18570.0, 18566.0, 18536.0, 18532.0, 18534.0, 18566.0, 18572.0, 18564.0, 18560.0, 18560.0, 18536.0, 18538.0, 18536.0, 18538.0, 18536.0, 18536.0, 18564.0, 18564.0, 18564.0, 18532.0, 18530.0, 18534.0, 18536.0, 18536.0, 18538.0, 18530.0, 18534.0, 18536.0, 18532.0, 18564.0, 18562.0, 18538.0, 18536.0, 18570.0, 18542.0, 18536.0, 18538.0, 18534.0, 18532.0, 18532.0, 18536.0, 18534.0, 18538.0, 18536.0, 18564.0, 18534.0, 18540.0, 18536.0, 18534.0, 18536.0, 18538.0, 18568.0, 18538.0, 18564.0, 18538.0, 18532.0, 18536.0, 18534.0, 18538.0, 18536.0, 18566.0, 18566.0, 18532.0, 18536.0, 18536.0, 18564.0, 18568.0, 18532.0, 18536.0, 18536.0, 18540.0, 18538.0, 18534.0, 18572.0, 18532.0, 18562.0, 18538.0, 18536.0, 18568.0, 18532.0, 18570.0, 18538.0, 18534.0, 18536.0, 18536.0, 18534.0, 18568.0, 18570.0, 18536.0, 18530.0, 18568.0, 18538.0, 18560.0, 18566.0, 18568.0, 18538.0, 18566.0, 18538.0, 18534.0, 18564.0, 18534.0, 18530.0, 18530.0, 18532.0, 18540.0, 18538.0]
    },
    "slices": {}
  }
}