{
  "AcquisitionMatrixPE": 104,
  "AcquisitionNumber": 1,
  "AcquisitionTime": "13:35:36.697500",
  "BandwidthPerPixelPhaseEncode": 17.17,
  "BaseResolution": 104,
  "BodyPartExamined": "BRAIN",
  "CoilString": "HC1-7;NC1_2",
  "ConsistencyInfo": "N4_VE11C_LATEST_20160120",
  "ConversionSoftware": "dcm2niix",
  "ConversionSoftwareVersion": "v1.0.20190902",
  "DerivedVendorReportedEchoSpacing": 0.000560011,
  "DeviceSerialNumber": "167006",
  "DwellTime": 2.1e-06,
  "EchoTime": 0.037,
  "EchoTrainLength": 104,
  "EffectiveEchoSpacing": 0.000560011,
  "FlipAngle": 52,
  "ImageComments": "Unaliased_MB4_PE3_LB",
  "ImageOrientationPatientDICOM": [0.999848, 0.00300941, 0.0171708, 0.00226854, 0.954149, -0.299323],
  "ImageType": [
    "ORIGINAL",
    "PRIMARY",
    "M",
    "MB",
    "ND",
    "MOSAIC"
],
  "ImagingFrequency": 123.259,
  "InPlanePhaseEncodingDirectionDICOM": "COL",
  "InstitutionAddress": "Chemin_Queen-Mary_4565_Montreal_District_CA_H3W_1W5",
  "InstitutionName": "IUGM",
  "InstitutionalDepartmentName": "Department",
  "MRAcquisitionType": "2D",
  "MagneticFieldStrength": 3,
  "Manufacturer": "Siemens",
  "ManufacturersModelName": "Prisma_fit",
  "Modality": "MR",
  "MultibandAccelerationFactor": 4,
  "PartialFourier": 1,
  "PatientPosition": "HFS",
  "PercentPhaseFOV": 100,
  "PhaseEncodingDirection": "j",
  "PhaseEncodingSteps": 104,
  "PhaseResolution": 1,
  "PixelBandwidth": 2290,
  "ProcedureStepDescription": "memory_things",
  "ProtocolName": "func_task-things_run-2",
  "PulseSequenceDetails": "%CustomerSeq%_cmrr_mbep2d_bold",
  "ReceiveCoilActiveElements": "HC1-7;NC1,2",
  "ReceiveCoilName": "HeadNeck_64",
  "ReconMatrixPE": 104,
  "RepetitionTime": 1.49,
  "SAR": 0.0470987,
  "ScanOptions": "FS",
  "ScanningSequence": "EP",
  "SequenceName": "epfid2d1_104",
  "SequenceVariant": "SK_SS",
  "SeriesDescription": "func_task-things_run-2",
  "SeriesNumber": 13,
  "ShimSetting": [628, -7197, -8791, 716, 11, 56, 8, -9],
  "SliceThickness": 2,
  "SliceTiming": [0, 0.785, 0.0975, 0.8825, 0.1975, 0.98, 0.295, 1.0775, 0.3925, 1.1775, 0.49, 1.275, 0.5875, 1.3725, 0.6875, 0, 0.785, 0.0975, 0.8825, 0.1975, 0.98, 0.295, 1.0775, 0.3925, 1.1775, 0.49, 1.275, 0.5875, 1.3725, 0.6875, 0, 0.785, 0.0975, 0.8825, 0.1975, 0.98, 0.295, 1.0775, 0.3925, 1.1775, 0.49, 1.275, 0.5875, 1.3725, 0.6875, 0, 0.785, 0.0975, 0.8825, 0.1975, 0.98, 0.295, 1.0775, 0.3925, 1.1775, 0.49, 1.275, 0.5875, 1.3725, 0.6875],
  "SoftwareVersions": "syngo_MR_E11",
  "SpacingBetweenSlices": 2,
  "StationName": "MRC35049",
  "TaskName": "things",
  "TotalReadoutTime": 0.0576811,
  "TxRefAmp": 230.019,
  "WipMemBlock": "8e9dac85-488d-4afb-8a83-cd100d1f7532||Sequence: R016 ve11c/master r/e634e98; Dec 19 2017 11:00:25 by eja",
  "dcmmeta_affine": [
    [-1.999696135520935, 0.004537072964012623, 0.034568510949611664, 108.13180541992188],
    [-0.006018810905516148, 1.9082980155944824, -0.598633885383606, -71.47090148925781],
    [0.03434153273701668, 0.5986469388008118, 1.9079943895339966, -67.8319091796875],
    [0.0, 0.0, 0.0, 1.0]
],
  "dcmmeta_reorient_transform": [
    [0.0, -1.0, 0.0, 103.0],
    [1.0, 0.0, 0.0, 0.0],
    [0.0, 0.0, 1.0, 0.0],
    [0.0, 0.0, 0.0, 1.0]
],
  "dcmmeta_shape": [104, 104, 60, 190],
  "dcmmeta_slice_dim": 2,
  "dcmmeta_version": 0.6,
  "global": {
    "const": {
      "AcquisitionMatrix": [104, 0, 0, 104],
      "AngioFlag": "N",
      "BitsAllocated": 16,
      "BitsStored": 16,
      "BodyPartExamined": "BRAIN",
      "Columns": 832,
      "EchoNumbers": 1,
      "EchoTime": 37.0,
      "EchoTrainLength": 104,
      "FlipAngle": 52.0,
      "HighBit": 15,
      "ImageOrientationPatient": [0.99984804260071, 0.00300940554652, 0.01717076544002, 0.00226853637472, 0.95414900247797, -0.2993234618486],
      "ImagePositionPatient": [-838.13999437131, -821.89511356109, 199.23588380498],
      "ImageType": [
        "ORIGINAL",
        "PRIMARY",
        "M",
        "MB",
        "ND",
        "MOSAIC"
],
      "ImagedNucleus": "1H",
      "ImagingFrequency": 123.259167,
      "InPlanePhaseEncodingDirection": "COL",
      "MRAcquisitionType": "2D",
      "MagneticFieldStrength": 3.0,
      "Manufacturer": "SIEMENS",
      "ManufacturerModelName": "Prisma_fit",
      "Modality": "MR",
      "NumberOfAverages": 1.0,
      "NumberOfPhaseEncodingSteps": 104,
      "PercentPhaseFieldOfView": 100.0,
      "PercentSampling": 100.0,
      "PerformedProcedureStepStartTime": "131323.231000",
      "PhotometricInterpretation": "MONOCHROME2",
      "PixelBandwidth": 2290.0,
      "PixelRepresentation": 0,
      "PixelSpacing": [2.0, 2.0],
      "ProtocolName": "func_task-things_run-2",
      "RepetitionTime": 1490.0,
      "Rows": 832,
      "SAR": 0.04709872859495,
      "SamplesPerPixel": 1,
      "ScanOptions": "FS",
      "ScanningSequence": "EP",
      "SequenceName": "epfid2d1_104",
      "SequenceVariant": [
        "SK",
        "SS"
],
      "SeriesDescription": "func_task-things_run-2",
      "SeriesNumber": 13,
      "SeriesTime": "133703.269000",
      "SliceLocation": -41.450024829071,
      "SliceThickness": 2.0,
      "SmallestImagePixelValue": 0,
      "SoftwareVersions": "syngo MR E11",
      "SpacingBetweenSlices": 2.0000000435742,
      "SpecificCharacterSet": "ISO_IR 100",
      "StudyID": "1",
      "StudyTime": "131323.050000",
      "TransmitCoilName": "Body",
      "VariableFlipAngleFlag": "N",
      "WindowCenterWidthExplanation": "Algo1",
      "dBdt": 0.0},
    "slices": {}
  },
  "time": {
    "samples": {
      "AcquisitionNumber": [1, 2, 3, 4, 5, 6, 7, 8, 9, 10, 11, 12, 13, 14, 15, 16, 17, 18, 19, 20, 21, 22, 23, 24, 25, 26, 27, 28, 29, 30, 31, 32, 33, 34, 35, 36, 37, 38, 39, 40, 41, 42, 43, 44, 45, 46, 47, 48, 49, 50, 51, 52, 53, 54, 55, 56, 57, 58, 59, 60, 61, 62, 63, 64, 65, 66, 67, 68, 69, 70, 71, 72, 73, 74, 75, 76, 77, 78, 79, 80, 81, 82, 83, 84, 85, 86, 87, 88, 89, 90, 91, 92, 93, 94, 95, 96, 97, 98, 99, 100, 101, 102, 103, 104, 105, 106, 107, 108, 109, 110, 111, 112, 113, 114, 115, 116, 117, 118, 119, 120, 121, 122, 123, 124, 125, 126, 127, 128, 129, 130, 131, 132, 133, 134, 135, 136, 137, 138, 139, 140, 141, 142, 143, 144, 145, 146, 147, 148, 149, 150, 151, 152, 153, 154, 155, 156, 157, 158, 159, 160, 161, 162, 163, 164, 165, 166, 167, 168, 169, 170, 171, 172, 173, 174, 175, 176, 177, 178, 179, 180, 181, 182, 183, 184, 185, 186, 187, 188, 189, 190],
      "AcquisitionTime": ["133536.697500", "133538.187500", "133539.677500", "133541.167500", "133542.657500", "133544.147500", "133545.637500", "133547.127500", "133548.617500", "133550.107500", "133551.597500", "133553.087500", "133554.577500", "133556.067500", "133557.557500", "133559.047500", "133600.537500", "133602.027500", "133603.517500", "133605.007500", "133606.497500", "133607.987500", "133609.477500", "133610.967500", "133612.457500", "133613.947500", "133615.437500", "133616.927500", "133618.417500", "133619.907500", "133621.397500", "133622.887500", "133624.377500", "133625.867500", "133627.357500", "133628.847500", "133630.337500", "133631.827500", "133633.317500", "133634.807500", "133636.297500", "133637.787500", "133639.277500", "133640.767500", "133642.257500", "133643.747500", "133645.237500", "133646.727500", "133648.217500", "133649.707500", "133651.197500", "133652.687500", "133654.177500", "133655.667500", "133657.157500", "133658.647500", "133700.137500", "133701.627500", "133703.117500", "133704.607500", "133706.097500", "133707.587500", "133709.077500", "133710.567500", "133712.057500", "133713.547500", "133715.037500", "133716.527500", "133718.017500", "133719.507500", "133720.997500", "133722.487500", "133723.977500", "133725.467500", "133726.957500", "133728.447500", "133729.937500", "133731.427500", "133732.917500", "133734.407500", "133735.897500", "133737.387500", "133738.877500", "133740.367500", "133741.857500", "133743.347500", "133744.837500", "133746.327500", "133747.817500", "133749.307500", "133750.797500", "133752.287500", "133753.777500", "133755.267500", "133756.757500", "133758.247500", "133759.737500", "133801.227500", "133802.717500", "133804.207500", "133805.697500", "133807.187500", "133808.677500", "133810.167500", "133811.657500", "133813.147500", "133814.637500", "133816.127500", "133817.617500", "133819.107500", "133820.597500", "133822.087500", "133823.577500", "133825.067500", "133826.557500", "133828.047500", "133829.537500", "133831.027500", "133832.517500", "133834.007500", "133835.497500", "133836.987500", "133838.477500", "133839.967500", "133841.457500", "133842.947500", "133844.437500", "133845.927500", "133847.417500", "133848.907500", "133850.397500", "133851.887500", "133853.377500", "133854.867500", "133856.357500", "133857.847500", "133859.337500", "133900.827500", "133902.317500", "133903.807500", "133905.297500", "133906.787500", "133908.277500", "133909.767500", "133911.257500", "133912.747500", "133914.237500", "133915.727500", "133917.217500", "133918.707500", "133920.197500", "133921.687500", "133923.177500", "133924.667500", "133926.157500", "133927.647500", "133929.137500", "133930.627500", "133932.117500", "133933.607500", "133935.097500", "133936.587500", "133938.077500", "133939.567500", "133941.057500", "133942.547500", "133944.037500", "133945.527500", "133947.017500", "133948.507500", "133949.997500", "133951.487500", "133952.977500", "133954.467500", "133955.957500", "133957.447500", "133958.937500", "134000.427500", "134001.917500", "134003.407500", "134004.897500", "134006.387500", "134007.877500", "134009.367500", "134010.857500", "134012.347500", "134013.837500", "134015.327500", "134016.817500", "134018.307500"],
      "ContentTime": ["133703.272000", "133703.276000", "133703.279000", "133703.282000", "133703.285000", "133703.289000", "133703.292000", "133703.295000", "133703.298000", "133703.302000", "133703.305000", "133703.308000", "133703.311000", "133703.315000", "133703.318000", "133703.321000", "133703.324000", "133703.336000", "133703.339000", "133703.342000", "133703.345000", "133703.348000", "133703.352000", "133703.363000", "133703.366000", "133703.369000", "133703.372000", "133723.236000", "133723.240000", "133723.244000", "133723.248000", "133723.251000", "133723.254000", "133723.258000", "133723.261000", "133723.265000", "133723.268000", "133723.271000", "133723.275000", "133723.278000", "133723.282000", "133723.285000", "133723.288000", "133723.299000", "133723.302000", "133723.306000", "133723.309000", "133743.236000", "133743.240000", "133743.243000", "133743.246000", "133743.250000", "133743.253000", "133743.265000", "133743.268000", "133743.272000", "133743.279000", "133743.283000", "133743.286000", "133743.289000", "133743.293000", "133743.296000", "133743.299000", "133743.303000", "133743.306000", "133743.309000", "133743.312000", "133743.316000", "133803.236000", "133803.240000", "133803.243000", "133803.246000", "133803.249000", "133803.253000", "133803.256000", "133803.259000", "133803.270000", "133803.273000", "133803.276000", "133803.280000", "133803.283000", "133803.286000", "133803.289000", "133803.293000", "133803.296000", "133803.299000", "133803.302000", "133803.306000", "133823.236000", "133823.240000", "133823.243000", "133823.246000", "133823.250000", "133823.253000", "133823.256000", "133823.259000", "133823.263000", "133823.272000", "133823.276000", "133823.279000", "133823.282000", "133823.286000", "133823.289000", "133823.292000", "133823.295000", "133823.299000", "133823.302000", "133823.305000", "133903.236000", "133903.240000", "133903.243000", "133903.246000", "133903.250000", "133903.253000", "133903.256000", "133903.259000", "133903.262000", "133903.266000", "133903.269000", "133903.272000", "133903.276000", "133903.279000", "133903.283000", "133903.287000", "133903.290000", "133903.294000", "133903.298000", "133903.302000", "133903.305000", "133903.308000", "133903.312000", "133903.316000", "133903.319000", "133903.323000", "133903.326000", "133903.329000", "133903.332000", "133923.236000", "133923.240000", "133923.243000", "133923.246000", "133923.250000", "133923.253000", "133923.256000", "133923.260000", "133923.263000", "133923.266000", "133923.269000", "133923.273000", "133923.276000", "133923.279000", "134003.236000", "134003.240000", "134003.243000", "134003.246000", "134003.249000", "134003.253000", "134003.256000", "134003.259000", "134003.262000", "134003.266000", "134003.269000", "134003.272000", "134003.275000", "134003.279000", "134003.282000", "134003.285000", "134003.288000", "134003.292000", "134003.295000", "134003.298000", "134003.301000", "134003.305000", "134003.308000", "134003.311000", "134003.315000", "134003.318000", "134003.321000", "134020.825000", "134020.829000", "134020.832000", "134020.836000", "134020.839000", "134020.843000", "134020.846000", "134020.849000", "134020.853000", "134020.856000", "134020.860000", "134020.863000"],
      "InstanceCreationTime": ["133703.272000", "133703.276000", "133703.279000", "133703.282000", "133703.285000", "133703.289000", "133703.292000", "133703.295000", "133703.298000", "133703.302000", "133703.305000", "133703.308000", "133703.311000", "133703.315000", "133703.318000", "133703.321000", "133703.324000", "133703.336000", "133703.339000", "133703.342000", "133703.345000", "133703.348000", "133703.352000", "133703.363000", "133703.366000", "133703.369000", "133703.372000", "133723.236000", "133723.240000", "133723.244000", "133723.248000", "133723.251000", "133723.254000", "133723.258000", "133723.261000", "133723.265000", "133723.268000", "133723.271000", "133723.275000", "133723.278000", "133723.282000", "133723.285000", "133723.288000", "133723.299000", "133723.302000", "133723.306000", "133723.309000", "133743.236000", "133743.240000", "133743.243000", "133743.246000", "133743.250000", "133743.253000", "133743.265000", "133743.268000", "133743.272000", "133743.279000", "133743.283000", "133743.286000", "133743.289000", "133743.293000", "133743.296000", "133743.299000", "133743.303000", "133743.306000", "133743.309000", "133743.312000", "133743.316000", "133803.236000", "133803.240000", "133803.243000", "133803.246000", "133803.249000", "133803.253000", "133803.256000", "133803.259000", "133803.270000", "133803.273000", "133803.276000", "133803.280000", "133803.283000", "133803.286000", "133803.289000", "133803.293000", "133803.296000", "133803.299000", "133803.302000", "133803.306000", "133823.236000", "133823.240000", "133823.243000", "133823.246000", "133823.250000", "133823.253000", "133823.256000", "133823.259000", "133823.263000", "133823.272000", "133823.276000", "133823.279000", "133823.282000", "133823.286000", "133823.289000", "133823.292000", "133823.295000", "133823.299000", "133823.302000", "133823.305000", "133903.236000", "133903.240000", "133903.243000", "133903.246000", "133903.250000", "133903.253000", "133903.256000", "133903.259000", "133903.262000", "133903.266000", "133903.269000", "133903.272000", "133903.276000", "133903.279000", "133903.283000", "133903.287000", "133903.290000", "133903.294000", "133903.298000", "133903.302000", "133903.305000", "133903.308000", "133903.312000", "133903.316000", "133903.319000", "133903.323000", "133903.326000", "133903.329000", "133903.332000", "133923.236000", "133923.240000", "133923.243000", "133923.246000", "133923.250000", "133923.253000", "133923.256000", "133923.260000", "133923.263000", "133923.266000", "133923.269000", "133923.273000", "133923.276000", "133923.279000", "134003.236000", "134003.240000", "134003.243000", "134003.246000", "134003.249000", "134003.253000", "134003.256000", "134003.259000", "134003.262000", "134003.266000", "134003.269000", "134003.272000", "134003.275000", "134003.279000", "134003.282000", "134003.285000", "134003.288000", "134003.292000", "134003.295000", "134003.298000", "134003.301000", "134003.305000", "134003.308000", "134003.311000", "134003.315000", "134003.318000", "134003.321000", "134020.825000", "134020.829000", "134020.832000", "134020.836000", "134020.839000", "134020.843000", "134020.846000", "134020.849000", "134020.853000", "134020.856000", "134020.860000", "134020.863000"],
      "InstanceNumber": [1, 2, 3, 4, 5, 6, 7, 8, 9, 10, 11, 12, 13, 14, 15, 16, 17, 18, 19, 20, 21, 22, 23, 24, 25, 26, 27, 28, 29, 30, 31, 32, 33, 34, 35, 36, 37, 38, 39, 40, 41, 42, 43, 44, 45, 46, 47, 48, 49, 50, 51, 52, 53, 54, 55, 56, 57, 58, 59, 60, 61, 62, 63, 64, 65, 66, 67, 68, 69, 70, 71, 72, 73, 74, 75, 76, 77, 78, 79, 80, 81, 82, 83, 84, 85, 86, 87, 88, 89, 90, 91, 92, 93, 94, 95, 96, 97, 98, 99, 100, 101, 102, 103, 104, 105, 106, 107, 108, 109, 110, 111, 112, 113, 114, 115, 116, 117, 118, 119, 120, 121, 122, 123, 124, 125, 126, 127, 128, 129, 130, 131, 132, 133, 134, 135, 136, 137, 138, 139, 140, 141, 142, 143, 144, 145, 146, 147, 148, 149, 150, 151, 152, 153, 154, 155, 156, 157, 158, 159, 160, 161, 162, 163, 164, 165, 166, 167, 168, 169, 170, 171, 172, 173, 174, 175, 176, 177, 178, 179, 180, 181, 182, 183, 184, 185, 186, 187, 188, 189, 190],
      "LargestImagePixelValue": [39142, 37995, 37413, 37353, 37190, 37122, 37167, 36955, 36613, 37081, 37029, 37040, 37063, 36817, 37089, 36895, 37261, 36769, 36931, 37060, 36979, 36949, 37117, 36808, 36817, 36921, 36842, 37173, 37049, 37211, 37135, 36936, 37062, 36850, 37223, 37145, 36923, 37095, 37059, 37157, 37396, 37176, 37100, 37051, 37227, 37104, 37019, 37326, 37219, 36918, 37209, 36981, 36889, 36788, 37113, 36869, 37096, 36859, 36986, 37212, 37011, 37037, 36934, 36932, 36897, 36879, 37228, 37096, 36959, 37197, 36505, 37258, 36680, 36884, 37036, 36783, 37121, 36711, 36750, 36669, 36877, 36727, 36988, 36781, 36918, 37096, 37028, 36862, 37041, 36875, 37121, 36826, 37033, 36852, 37142, 36836, 37153, 36645, 36788, 36991, 36746, 36741, 36992, 36821, 37086, 36670, 36902, 36705, 37024, 36919, 36553, 36654, 36686, 36751, 36809, 36882, 37042, 37039, 36895, 36707, 36924, 36807, 36792, 36483, 37202, 36409, 37040, 36375, 36747, 36857, 36983, 36786, 36915, 36576, 36685, 36681, 36767, 36528, 36432, 36857, 36648, 36683, 36435, 36653, 36593, 37314, 36630, 36727, 36569, 36755, 37138, 36718, 36912, 36633, 36993, 36510, 36859, 36629, 37135, 36538, 36902, 36844, 36651, 36700, 36375, 36667, 36952, 36666, 37070, 36563, 36355, 36947, 36862, 37103, 36641, 36818, 36386, 36610, 36597, 36943, 36960, 36510, 36977, 36615, 36783, 36753, 37204, 37104, 37307, 37223],
      "WindowCenter": [10169.0, 10133.0, 10125.0, 10127.0, 10114.0, 10097.0, 10088.0, 10086.0, 10087.0, 10109.0, 10104.0, 10094.0, 10092.0, 10086.0, 10093.0, 10094.0, 10102.0, 10091.0, 10095.0, 10100.0, 10103.0, 10097.0, 10096.0, 10095.0, 10102.0, 10095.0, 10096.0, 10101.0, 10102.0, 10103.0, 10110.0, 10104.0, 10104.0, 10104.0, 10093.0, 10093.0, 10095.0, 10110.0, 10113.0, 10105.0, 10103.0, 10093.0, 10092.0, 10084.0, 10077.0, 10066.0, 10060.0, 10073.0, 10083.0, 10085.0, 10092.0, 10086.0, 10087.0, 10079.0, 10079.0, 10069.0, 10074.0, 10085.0, 10095.0, 10094.0, 10086.0, 10091.0, 10088.0, 10077.0, 10079.0, 10088.0, 10095.0, 10093.0, 10079.0, 10078.0, 10070.0, 10086.0, 10096.0, 10099.0, 10094.0, 10080.0, 10093.0, 10103.0, 10098.0, 10089.0, 10079.0, 10078.0, 10092.0, 10098.0, 10097.0, 10095.0, 10093.0, 10093.0, 10094.0, 10101.0, 10095.0, 10088.0, 10093.0, 10096.0, 10104.0, 10113.0, 10105.0, 10089.0, 10079.0, 10086.0, 10105.0, 10112.0, 10096.0, 10080.0, 10078.0, 10083.0, 10084.0, 10080.0, 10085.0, 10087.0, 10096.0, 10096.0, 10105.0, 10106.0, 10096.0, 10089.0, 10093.0, 10099.0, 10105.0, 10105.0, 10096.0, 10071.0, 10061.0, 10052.0, 10073.0, 10076.0, 10083.0, 10072.0, 10081.0, 10085.0, 10084.0, 10078.0, 10081.0, 10089.0, 10095.0, 10086.0, 10077.0, 10064.0, 10071.0, 10086.0, 10088.0, 10081.0, 10071.0, 10076.0, 10071.0, 10083.0, 10080.0, 10076.0, 10071.0, 10078.0, 10087.0, 10095.0, 10089.0, 10080.0, 10086.0, 10089.0, 10080.0, 10074.0, 10076.0, 10069.0, 10070.0, 10071.0, 10068.0, 10070.0, 10074.0, 10080.0, 10104.0, 10114.0, 10106.0, 10098.0, 10098.0, 10100.0, 10107.0, 10097.0, 10087.0, 10080.0, 10080.0, 10073.0, 10080.0, 10086.0, 10086.0, 10090.0, 10106.0, 10101.0, 10090.0, 10080.0, 10086.0, 10101.0, 10102.0, 10105.0],
      "WindowWidth": [21665.0, 21563.0, 21537.0, 21530.0, 21498.0, 21459.0, 21436.0, 21432.0, 21436.0, 21481.0, 21469.0, 21448.0, 21442.0, 21431.0, 21444.0, 21448.0, 21468.0, 21445.0, 21452.0, 21457.0, 21465.0, 21454.0, 21453.0, 21447.0, 21463.0, 21452.0, 21452.0, 21461.0, 21464.0, 21467.0, 21483.0, 21470.0, 21472.0, 21470.0, 21444.0, 21445.0, 21451.0, 21484.0, 21492.0, 21475.0, 21466.0, 21444.0, 21440.0, 21421.0, 21407.0, 21379.0, 21370.0, 21395.0, 21419.0, 21427.0, 21442.0, 21430.0, 21430.0, 21412.0, 21412.0, 21388.0, 21400.0, 21427.0, 21450.0, 21446.0, 21426.0, 21437.0, 21434.0, 21409.0, 21413.0, 21434.0, 21449.0, 21442.0, 21413.0, 21409.0, 21393.0, 21431.0, 21454.0, 21461.0, 21445.0, 21417.0, 21443.0, 21469.0, 21457.0, 21436.0, 21412.0, 21410.0, 21441.0, 21457.0, 21454.0, 21447.0, 21440.0, 21444.0, 21445.0, 21460.0, 21449.0, 21432.0, 21444.0, 21453.0, 21470.0, 21489.0, 21471.0, 21433.0, 21410.0, 21427.0, 21475.0, 21486.0, 21448.0, 21412.0, 21406.0, 21416.0, 21420.0, 21413.0, 21425.0, 21429.0, 21452.0, 21453.0, 21473.0, 21474.0, 21449.0, 21432.0, 21440.0, 21453.0, 21468.0, 21470.0, 21448.0, 21393.0, 21369.0, 21350.0, 21394.0, 21405.0, 21420.0, 21399.0, 21418.0, 21424.0, 21420.0, 21410.0, 21417.0, 21437.0, 21446.0, 21424.0, 21403.0, 21379.0, 21393.0, 21426.0, 21432.0, 21417.0, 21394.0, 21402.0, 21396.0, 21417.0, 21414.0, 21402.0, 21392.0, 21408.0, 21429.0, 21448.0, 21435.0, 21415.0, 21428.0, 21435.0, 21417.0, 21403.0, 21403.0, 21387.0, 21389.0, 21393.0, 21384.0, 21392.0, 21403.0, 21415.0, 21469.0, 21492.0, 21475.0, 21454.0, 21456.0, 21461.0, 21477.0, 21450.0, 21425.0, 21412.0, 21412.0, 21397.0, 21412.0, 21423.0, 21425.0, 21438.0, 21472.0, 21463.0, 21437.0, 21413.0, 21426.0, 21457.0, 21460.0, 21468.0]
    },
    "slices": {}
  }
}