{
  "AcquisitionMatrixPE": 104,
  "AcquisitionNumber": 1,
  "AcquisitionTime": "13:27:26.542500",
  "BandwidthPerPixelPhaseEncode": 17.17,
  "BaseResolution": 104,
  "BodyPartExamined": "BRAIN",
  "CoilString": "HC1-7;NC1_2",
  "ConsistencyInfo": "N4_VE11C_LATEST_20160120",
  "ConversionSoftware": "dcm2niix",
  "ConversionSoftwareVersion": "v1.0.20190902",
  "DerivedVendorReportedEchoSpacing": 0.000560011,
  "DeviceSerialNumber": "167006",
  "DwellTime": 2.1e-06,
  "EchoTime": 0.037,
  "EchoTrainLength": 104,
  "EffectiveEchoSpacing": 0.000560011,
  "FlipAngle": 52,
  "ImageComments": "Unaliased_MB4_PE3_LB",
  "ImageOrientationPatientDICOM": [0.999848, 0.00300941, 0.0171708, 0.00226854, 0.954149, -0.299323],
  "ImageType": [
    "ORIGINAL",
    "PRIMARY",
    "P",
    "MB",
    "ND",
    "MOSAIC"
],
  "ImagingFrequency": 123.259,
  "InPlanePhaseEncodingDirectionDICOM": "COL",
  "InstitutionAddress": "Chemin_Queen-Mary_4565_Montreal_District_CA_H3W_1W5",
  "InstitutionName": "IUGM",
  "InstitutionalDepartmentName": "Department",
  "MRAcquisitionType": "2D",
  "MagneticFieldStrength": 3,
  "Manufacturer": "Siemens",
  "ManufacturersModelName": "Prisma_fit",
  "Modality": "MR",
  "MultibandAccelerationFactor": 4,
  "PartialFourier": 1,
  "PatientPosition": "HFS",
  "PercentPhaseFOV": 100,
  "PhaseEncodingDirection": "j",
  "PhaseEncodingSteps": 104,
  "PhaseResolution": 1,
  "PixelBandwidth": 2290,
  "ProcedureStepDescription": "memory_things",
  "ProtocolName": "func_task-things_run-1",
  "PulseSequenceDetails": "%CustomerSeq%_cmrr_mbep2d_bold",
  "ReceiveCoilActiveElements": "HC1-7;NC1,2",
  "ReceiveCoilName": "HeadNeck_64",
  "ReconMatrixPE": 104,
  "RepetitionTime": 1.49,
  "SAR": 0.0470987,
  "ScanOptions": "FS",
  "ScanningSequence": "EP",
  "SequenceName": "epfid2d1_104",
  "SequenceVariant": "SK_SS",
  "SeriesDescription": "func_task-things_run-1",
  "SeriesNumber": 11,
  "ShimSetting": [628, -7197, -8791, 716, 11, 56, 8, -9],
  "SliceThickness": 2,
  "SliceTiming": [0, 0.7825, 0.0975, 0.88, 0.195, 0.98, 0.2925, 1.0775, 0.39, 1.175, 0.49, 1.2725, 0.5875, 1.37, 0.685, 0, 0.7825, 0.0975, 0.88, 0.195, 0.98, 0.2925, 1.0775, 0.39, 1.175, 0.49, 1.2725, 0.5875, 1.37, 0.685, 0, 0.7825, 0.0975, 0.88, 0.195, 0.98, 0.2925, 1.0775, 0.39, 1.175, 0.49, 1.2725, 0.5875, 1.37, 0.685, 0, 0.7825, 0.0975, 0.88, 0.195, 0.98, 0.2925, 1.0775, 0.39, 1.175, 0.49, 1.2725, 0.5875, 1.37, 0.685],
  "SoftwareVersions": "syngo_MR_E11",
  "SpacingBetweenSlices": 2,
  "StationName": "MRC35049",
  "TaskName": "things",
  "TotalReadoutTime": 0.0576811,
  "TxRefAmp": 230.019,
  "WipMemBlock": "df068cc5-147f-48d6-beb5-14f3c193de76||Sequence: R016 ve11c/master r/e634e98; Dec 19 2017 11:00:25 by eja",
  "dcmmeta_affine": [
    [-1.999696135520935, 0.004537072964012623, 0.034568510949611664, 108.13180541992188],
    [-0.006018810905516148, 1.9082980155944824, -0.598633885383606, -71.47090148925781],
    [0.03434153273701668, 0.5986469388008118, 1.9079943895339966, -67.8319091796875],
    [0.0, 0.0, 0.0, 1.0]
],
  "dcmmeta_reorient_transform": [
    [0.0, -1.0, 0.0, 103.0],
    [1.0, 0.0, 0.0, 0.0],
    [0.0, 0.0, 1.0, 0.0],
    [0.0, 0.0, 0.0, 1.0]
],
  "dcmmeta_shape": [104, 104, 60, 190],
  "dcmmeta_slice_dim": 2,
  "dcmmeta_version": 0.6,
  "global": {
    "const": {
      "AcquisitionMatrix": [104, 0, 0, 104],
      "AngioFlag": "N",
      "BitsAllocated": 16,
      "BitsStored": 16,
      "BodyPartExamined": "BRAIN",
      "Columns": 832,
      "EchoNumbers": 1,
      "EchoTime": 37.0,
      "EchoTrainLength": 104,
      "FlipAngle": 52.0,
      "HighBit": 15,
      "ImageOrientationPatient": [0.99984804260071, 0.00300940554652, 0.01717076544002, 0.00226853637472, 0.95414900247797, -0.2993234618486],
      "ImagePositionPatient": [-838.13999437131, -821.89511356109, 199.23588380498],
      "ImageType": [
        "ORIGINAL",
        "PRIMARY",
        "P",
        "MB",
        "ND",
        "MOSAIC"
],
      "ImagedNucleus": "1H",
      "ImagingFrequency": 123.259163,
      "InPlanePhaseEncodingDirection": "COL",
      "LargestImagePixelValue": 4095,
      "MRAcquisitionType": "2D",
      "MagneticFieldStrength": 3.0,
      "Manufacturer": "SIEMENS",
      "ManufacturerModelName": "Prisma_fit",
      "Modality": "MR",
      "NumberOfAverages": 1.0,
      "NumberOfPhaseEncodingSteps": 104,
      "PercentPhaseFieldOfView": 100.0,
      "PercentSampling": 100.0,
      "PerformedProcedureStepStartTime": "131323.231000",
      "PhotometricInterpretation": "MONOCHROME2",
      "PixelBandwidth": 2290.0,
      "PixelRepresentation": 0,
      "PixelSpacing": [2.0, 2.0],
      "ProtocolName": "func_task-things_run-1",
      "RepetitionTime": 1490.0,
      "RescaleIntercept": -4096.0,
      "RescaleSlope": 2.0,
      "RescaleType": "US",
      "Rows": 832,
      "SAR": 0.04709872859495,
      "SamplesPerPixel": 1,
      "ScanOptions": "FS",
      "ScanningSequence": "EP",
      "SequenceName": "epfid2d1_104",
      "SequenceVariant": [
        "SK",
        "SS"
],
      "SeriesDescription": "func_task-things_run-1",
      "SeriesNumber": 11,
      "SeriesTime": "132849.548000",
      "SliceLocation": -41.450024829071,
      "SliceThickness": 2.0,
      "SmallestImagePixelValue": 0,
      "SoftwareVersions": "syngo MR E11",
      "SpacingBetweenSlices": 2.0000000435742,
      "SpecificCharacterSet": "ISO_IR 100",
      "StudyID": "1",
      "StudyTime": "131323.050000",
      "TransmitCoilName": "Body",
      "VariableFlipAngleFlag": "N",
      "WindowCenterWidthExplanation": "Algo1",
      "dBdt": 0.0},
    "slices": {}
  },
  "time": {
    "samples": {
      "AcquisitionNumber": [1, 2, 3, 4, 5, 6, 7, 8, 9, 10, 11, 12, 13, 14, 15, 16, 17, 18, 19, 20, 21, 22, 23, 24, 25, 26, 27, 28, 29, 30, 31, 32, 33, 34, 35, 36, 37, 38, 39, 40, 41, 42, 43, 44, 45, 46, 47, 48, 49, 50, 51, 52, 53, 54, 55, 56, 57, 58, 59, 60, 61, 62, 63, 64, 65, 66, 67, 68, 69, 70, 71, 72, 73, 74, 75, 76, 77, 78, 79, 80, 81, 82, 83, 84, 85, 86, 87, 88, 89, 90, 91, 92, 93, 94, 95, 96, 97, 98, 99, 100, 101, 102, 103, 104, 105, 106, 107, 108, 109, 110, 111, 112, 113, 114, 115, 116, 117, 118, 119, 120, 121, 122, 123, 124, 125, 126, 127, 128, 129, 130, 131, 132, 133, 134, 135, 136, 137, 138, 139, 140, 141, 142, 143, 144, 145, 146, 147, 148, 149, 150, 151, 152, 153, 154, 155, 156, 157, 158, 159, 160, 161, 162, 163, 164, 165, 166, 167, 168, 169, 170, 171, 172, 173, 174, 175, 176, 177, 178, 179, 180, 181, 182, 183, 184, 185, 186, 187, 188, 189, 190],
      "AcquisitionTime": ["132726.542500", "132728.032500", "132729.522500", "132731.012500", "132732.502500", "132733.992500", "132735.482500", "132736.972500", "132738.462500", "132739.952500", "132741.442500", "132742.932500", "132744.422500", "132745.912500", "132747.402500", "132748.892500", "132750.382500", "132751.872500", "132753.362500", "132754.852500", "132756.342500", "132757.832500", "132759.322500", "132800.812500", "132802.302500", "132803.792500", "132805.282500", "132806.772500", "132808.262500", "132809.752500", "132811.242500", "132812.732500", "132814.222500", "132815.712500", "132817.202500", "132818.692500", "132820.182500", "132821.672500", "132823.162500", "132824.652500", "132826.142500", "132827.632500", "132829.122500", "132830.612500", "132832.102500", "132833.592500", "132835.082500", "132836.572500", "132838.062500", "132839.552500", "132841.042500", "132842.532500", "132844.022500", "132845.512500", "132847.002500", "132848.492500", "132849.982500", "132851.472500", "132852.962500", "132854.452500", "132855.942500", "132857.432500", "132858.922500", "132900.412500", "132901.902500", "132903.392500", "132904.882500", "132906.372500", "132907.862500", "132909.352500", "132910.842500", "132912.332500", "132913.822500", "132915.312500", "132916.802500", "132918.292500", "132919.782500", "132921.272500", "132922.762500", "132924.252500", "132925.742500", "132927.232500", "132928.722500", "132930.212500", "132931.702500", "132933.192500", "132934.682500", "132936.172500", "132937.662500", "132939.152500", "132940.642500", "132942.132500", "132943.622500", "132945.112500", "132946.602500", "132948.092500", "132949.582500", "132951.072500", "132952.562500", "132954.052500", "132955.542500", "132957.032500", "132958.522500", "133000.012500", "133001.502500", "133002.992500", "133004.482500", "133005.972500", "133007.462500", "133008.952500", "133010.442500", "133011.932500", "133013.422500", "133014.912500", "133016.402500", "133017.892500", "133019.382500", "133020.872500", "133022.362500", "133023.852500", "133025.342500", "133026.832500", "133028.322500", "133029.812500", "133031.302500", "133032.792500", "133034.282500", "133035.772500", "133037.262500", "133038.752500", "133040.242500", "133041.732500", "133043.222500", "133044.712500", "133046.202500", "133047.692500", "133049.182500", "133050.672500", "133052.162500", "133053.652500", "133055.142500", "133056.632500", "133058.122500", "133059.612500", "133101.102500", "133102.592500", "133104.082500", "133105.572500", "133107.062500", "133108.552500", "133110.042500", "133111.532500", "133113.022500", "133114.512500", "133116.002500", "133117.492500", "133118.982500", "133120.472500", "133121.962500", "133123.452500", "133124.942500", "133126.432500", "133127.922500", "133129.412500", "133130.902500", "133132.392500", "133133.882500", "133135.372500", "133136.862500", "133138.352500", "133139.842500", "133141.332500", "133142.822500", "133144.312500", "133145.802500", "133147.292500", "133148.782500", "133150.272500", "133151.762500", "133153.252500", "133154.742500", "133156.232500", "133157.722500", "133159.212500", "133200.702500", "133202.192500", "133203.682500", "133205.172500", "133206.662500", "133208.152500"],
      "ContentTime": ["132849.550000", "132849.553000", "132849.555000", "132849.558000", "132849.560000", "132849.563000", "132849.565000", "132849.575000", "132849.577000", "132849.580000", "132849.583000", "132849.585000", "132849.587000", "132849.590000", "132849.592000", "132849.595000", "132849.597000", "132849.600000", "132849.602000", "132849.605000", "132849.607000", "132849.610000", "132849.612000", "132849.615000", "132849.617000", "132849.620000", "132849.622000", "132849.625000", "132849.627000", "132909.473000", "132909.475000", "132909.478000", "132909.480000", "132909.483000", "132909.485000", "132909.488000", "132909.490000", "132909.493000", "132909.496000", "132909.498000", "132909.501000", "132909.503000", "132909.506000", "132909.509000", "132909.512000", "132909.515000", "132909.517000", "132909.519000", "132909.522000", "132929.466000", "132929.469000", "132929.471000", "132929.476000", "132929.479000", "132929.481000", "132929.491000", "132929.494000", "132929.497000", "132929.499000", "132929.501000", "132929.504000", "132929.507000", "132929.509000", "132929.511000", "132929.514000", "132929.517000", "132929.519000", "132929.521000", "132929.524000", "132949.454000", "132949.457000", "132949.459000", "132949.462000", "132949.464000", "132949.466000", "132949.476000", "132949.479000", "132949.481000", "132949.483000", "132949.488000", "132949.490000", "132949.493000", "132949.495000", "132949.498000", "132949.500000", "132949.503000", "132949.505000", "132949.508000", "132949.510000", "132949.513000", "133029.513000", "133029.516000", "133029.519000", "133029.521000", "133029.524000", "133029.526000", "133029.529000", "133029.531000", "133029.534000", "133029.537000", "133029.539000", "133029.542000", "133029.544000", "133029.547000", "133029.549000", "133029.551000", "133029.554000", "133029.556000", "133029.559000", "133029.561000", "133029.564000", "133029.566000", "133029.569000", "133029.571000", "133029.574000", "133029.576000", "133029.579000", "133029.581000", "133029.583000", "133029.586000", "133029.588000", "133029.591000", "133109.505000", "133109.508000", "133109.510000", "133109.513000", "133109.515000", "133109.518000", "133109.520000", "133109.523000", "133109.525000", "133109.528000", "133109.530000", "133109.533000", "133109.536000", "133109.538000", "133109.541000", "133109.543000", "133109.546000", "133109.548000", "133109.551000", "133109.553000", "133109.556000", "133109.558000", "133109.561000", "133109.563000", "133109.570000", "133109.572000", "133109.575000", "133149.495000", "133149.498000", "133149.500000", "133149.503000", "133149.506000", "133149.508000", "133149.510000", "133149.513000", "133149.516000", "133149.518000", "133149.520000", "133149.523000", "133149.526000", "133149.528000", "133149.530000", "133149.533000", "133149.536000", "133149.538000", "133149.541000", "133149.543000", "133149.546000", "133149.548000", "133149.551000", "133149.553000", "133149.556000", "133149.566000", "133149.568000", "133210.126000", "133210.129000", "133210.132000", "133210.135000", "133210.138000", "133210.140000", "133210.143000", "133210.146000", "133210.148000", "133210.151000", "133210.154000", "133210.156000", "133210.159000", "133210.162000"],
      "InstanceCreationTime": ["132849.550000", "132849.553000", "132849.555000", "132849.558000", "132849.560000", "132849.563000", "132849.565000", "132849.575000", "132849.577000", "132849.580000", "132849.583000", "132849.585000", "132849.587000", "132849.590000", "132849.592000", "132849.595000", "132849.597000", "132849.600000", "132849.602000", "132849.605000", "132849.607000", "132849.610000", "132849.612000", "132849.615000", "132849.617000", "132849.620000", "132849.622000", "132849.625000", "132849.627000", "132909.473000", "132909.475000", "132909.478000", "132909.480000", "132909.483000", "132909.485000", "132909.488000", "132909.490000", "132909.493000", "132909.496000", "132909.498000", "132909.501000", "132909.503000", "132909.506000", "132909.509000", "132909.512000", "132909.515000", "132909.517000", "132909.519000", "132909.522000", "132929.466000", "132929.469000", "132929.471000", "132929.476000", "132929.479000", "132929.481000", "132929.491000", "132929.494000", "132929.497000", "132929.499000", "132929.501000", "132929.504000", "132929.507000", "132929.509000", "132929.511000", "132929.514000", "132929.517000", "132929.519000", "132929.521000", "132929.524000", "132949.454000", "132949.457000", "132949.459000", "132949.462000", "132949.464000", "132949.466000", "132949.476000", "132949.479000", "132949.481000", "132949.483000", "132949.488000", "132949.490000", "132949.493000", "132949.495000", "132949.498000", "132949.500000", "132949.503000", "132949.505000", "132949.508000", "132949.510000", "132949.513000", "133029.513000", "133029.516000", "133029.519000", "133029.521000", "133029.524000", "133029.526000", "133029.529000", "133029.531000", "133029.534000", "133029.537000", "133029.539000", "133029.542000", "133029.544000", "133029.547000", "133029.549000", "133029.551000", "133029.554000", "133029.556000", "133029.559000", "133029.561000", "133029.564000", "133029.566000", "133029.569000", "133029.571000", "133029.574000", "133029.576000", "133029.579000", "133029.581000", "133029.583000", "133029.586000", "133029.588000", "133029.591000", "133109.505000", "133109.508000", "133109.510000", "133109.513000", "133109.515000", "133109.518000", "133109.520000", "133109.523000", "133109.525000", "133109.528000", "133109.530000", "133109.533000", "133109.536000", "133109.538000", "133109.541000", "133109.543000", "133109.546000", "133109.548000", "133109.551000", "133109.553000", "133109.556000", "133109.558000", "133109.561000", "133109.563000", "133109.570000", "133109.572000", "133109.575000", "133149.495000", "133149.498000", "133149.500000", "133149.503000", "133149.506000", "133149.508000", "133149.510000", "133149.513000", "133149.516000", "133149.518000", "133149.520000", "133149.523000", "133149.526000", "133149.528000", "133149.530000", "133149.533000", "133149.536000", "133149.538000", "133149.541000", "133149.543000", "133149.546000", "133149.548000", "133149.551000", "133149.553000", "133149.556000", "133149.566000", "133149.568000", "133210.126000", "133210.129000", "133210.132000", "133210.135000", "133210.138000", "133210.140000", "133210.143000", "133210.146000", "133210.148000", "133210.151000", "133210.154000", "133210.156000", "133210.159000", "133210.162000"],
      "InstanceNumber": [1, 2, 3, 4, 5, 6, 7, 8, 9, 10, 11, 12, 13, 14, 15, 16, 17, 18, 19, 20, 21, 22, 23, 24, 25, 26, 27, 28, 29, 30, 31, 32, 33, 34, 35, 36, 37, 38, 39, 40, 41, 42, 43, 44, 45, 46, 47, 48, 49, 50, 51, 52, 53, 54, 55, 56, 57, 58, 59, 60, 61, 62, 63, 64, 65, 66, 67, 68, 69, 70, 71, 72, 73, 74, 75, 76, 77, 78, 79, 80, 81, 82, 83, 84, 85, 86, 87, 88, 89, 90, 91, 92, 93, 94, 95, 96, 97, 98, 99, 100, 101, 102, 103, 104, 105, 106, 107, 108, 109, 110, 111, 112, 113, 114, 115, 116, 117, 118, 119, 120, 121, 122, 123, 124, 125, 126, 127, 128, 129, 130, 131, 132, 133, 134, 135, 136, 137, 138, 139, 140, 141, 142, 143, 144, 145, 146, 147, 148, 149, 150, 151, 152, 153, 154, 155, 156, 157, 158, 159, 160, 161, 162, 163, 164, 165, 166, 167, 168, 169, 170, 171, 172, 173, 174, 175, 176, 177, 178, 179, 180, 181, 182, 183, 184, 185, 186, 187, 188, 189, 190],
      "WindowCenter": [4800.0, 4800.0, 4800.0, 4802.0, 4800.0, 4804.0, 4802.0, 4800.0, 4802.0, 4800.0, 4800.0, 4802.0, 4800.0, 4800.0, 4802.0, 4802.0, 4802.0, 4800.0, 4798.0, 4800.0, 4804.0, 4798.0, 4800.0, 4800.0, 4800.0, 4798.0, 4802.0, 4802.0, 4802.0, 4806.0, 4802.0, 4802.0, 4800.0, 4800.0, 4802.0, 4804.0, 4804.0, 4804.0, 4802.0, 4804.0, 4802.0, 4802.0, 4802.0, 4806.0, 4800.0, 4798.0, 4800.0, 4802.0, 4802.0, 4802.0, 4802.0, 4802.0, 4802.0, 4800.0, 4800.0, 4804.0, 4806.0, 4804.0, 4802.0, 4802.0, 4800.0, 4802.0, 4802.0, 4802.0, 4802.0, 4804.0, 4800.0, 4804.0, 4802.0, 4802.0, 4806.0, 4806.0, 4802.0, 4804.0, 4804.0, 4802.0, 4806.0, 4802.0, 4802.0, 4800.0, 4804.0, 4802.0, 4808.0, 4804.0, 4828.0, 4806.0, 4802.0, 4798.0, 4804.0, 4802.0, 4804.0, 4800.0, 4802.0, 4802.0, 4800.0, 4802.0, 4804.0, 4804.0, 4806.0, 4804.0, 4806.0, 4808.0, 4802.0, 4830.0, 4802.0, 4808.0, 4802.0, 4804.0, 4806.0, 4806.0, 4802.0, 4802.0, 4804.0, 4804.0, 4804.0, 4802.0, 4804.0, 4800.0, 4806.0, 4806.0, 4804.0, 4802.0, 4804.0, 4802.0, 4804.0, 4804.0, 4804.0, 4804.0, 4806.0, 4806.0, 4806.0, 4802.0, 4806.0, 4806.0, 4804.0, 4804.0, 4804.0, 4806.0, 4806.0, 4806.0, 4804.0, 4804.0, 4808.0, 4806.0, 4808.0, 4804.0, 4802.0, 4802.0, 4800.0, 4802.0, 4802.0, 4804.0, 4830.0, 4802.0, 4802.0, 4802.0, 4802.0, 4806.0, 4808.0, 4800.0, 4806.0, 4804.0, 4834.0, 4804.0, 4806.0, 4806.0, 4806.0, 4808.0, 4808.0, 4802.0, 4804.0, 4804.0, 4804.0, 4804.0, 4806.0, 4806.0, 4806.0, 4806.0, 4808.0, 4806.0, 4804.0, 4806.0, 4804.0, 4806.0, 4802.0, 4810.0, 4806.0, 4804.0, 4802.0, 4804.0],
      "WindowWidth": [18560.0, 18564.0, 18556.0, 18560.0, 18560.0, 18562.0, 18560.0, 18562.0, 18562.0, 18560.0, 18560.0, 18558.0, 18560.0, 18562.0, 18562.0, 18558.0, 18554.0, 18558.0, 18558.0, 18558.0, 18558.0, 18556.0, 18560.0, 18560.0, 18560.0, 18560.0, 18558.0, 18556.0, 18558.0, 18564.0, 18558.0, 18560.0, 18560.0, 18556.0, 18562.0, 18560.0, 18560.0, 18556.0, 18560.0, 18556.0, 18560.0, 18554.0, 18556.0, 18560.0, 18560.0, 18556.0, 18560.0, 18560.0, 18558.0, 18558.0, 18560.0, 18556.0, 18560.0, 18556.0, 18554.0, 18554.0, 18562.0, 18562.0, 18554.0, 18556.0, 18554.0, 18560.0, 18558.0, 18552.0, 18556.0, 18560.0, 18562.0, 18560.0, 18564.0, 18556.0, 18562.0, 18560.0, 18562.0, 18556.0, 18560.0, 18558.0, 18566.0, 18556.0, 18558.0, 18556.0, 18556.0, 18558.0, 18558.0, 18564.0, 18592.0, 18560.0, 18556.0, 18556.0, 18560.0, 18556.0, 18560.0, 18562.0, 18558.0, 18560.0, 18556.0, 18560.0, 18556.0, 18560.0, 18558.0, 18558.0, 18560.0, 18562.0, 18560.0, 18592.0, 18556.0, 18558.0, 18558.0, 18556.0, 18562.0, 18556.0, 18558.0, 18548.0, 18558.0, 18558.0, 18558.0, 18556.0, 18560.0, 18556.0, 18560.0, 18560.0, 18558.0, 18556.0, 18552.0, 18556.0, 18558.0, 18560.0, 18554.0, 18560.0, 18558.0, 18560.0, 18558.0, 18556.0, 18558.0, 18560.0, 18560.0, 18556.0, 18558.0, 18558.0, 18560.0, 18564.0, 18554.0, 18558.0, 18560.0, 18560.0, 18560.0, 18558.0, 18562.0, 18558.0, 18558.0, 18554.0, 18560.0, 18560.0, 18588.0, 18558.0, 18556.0, 18560.0, 18554.0, 18564.0, 18564.0, 18558.0, 18560.0, 18562.0, 18594.0, 18558.0, 18558.0, 18560.0, 18558.0, 18564.0, 18562.0, 18556.0, 18562.0, 18556.0, 18556.0, 18562.0, 18558.0, 18564.0, 18562.0, 18562.0, 18560.0, 18562.0, 18552.0, 18558.0, 18560.0, 18558.0, 18560.0, 18560.0, 18560.0, 18554.0, 18558.0, 18560.0]
    },
    "slices": {}
  }
}