{
  "AcquisitionMatrixPE": 104,
  "AcquisitionNumber": 1,
  "AcquisitionTime": "13:41:36.140000",
  "BandwidthPerPixelPhaseEncode": 17.17,
  "BaseResolution": 104,
  "BodyPartExamined": "BRAIN",
  "CoilString": "HC1-7;NC1_2",
  "ConsistencyInfo": "N4_VE11C_LATEST_20160120",
  "ConversionSoftware": "dcm2niix",
  "ConversionSoftwareVersion": "v1.0.20190902",
  "DerivedVendorReportedEchoSpacing": 0.000560011,
  "DeviceSerialNumber": "167006",
  "DwellTime": 2.1e-06,
  "EchoTime": 0.037,
  "EchoTrainLength": 104,
  "EffectiveEchoSpacing": 0.000560011,
  "FlipAngle": 52,
  "ImageComments": "Unaliased_MB4_PE3_LB",
  "ImageOrientationPatientDICOM": [0.999848, 0.00300941, 0.0171708, 0.00226854, 0.954149, -0.299323],
  "ImageType": [
    "ORIGINAL",
    "PRIMARY",
    "P",
    "MB",
    "ND",
    "MOSAIC"
],
  "ImagingFrequency": 123.259,
  "InPlanePhaseEncodingDirectionDICOM": "COL",
  "InstitutionAddress": "Chemin_Queen-Mary_4565_Montreal_District_CA_H3W_1W5",
  "InstitutionName": "IUGM",
  "InstitutionalDepartmentName": "Department",
  "MRAcquisitionType": "2D",
  "MagneticFieldStrength": 3,
  "Manufacturer": "Siemens",
  "ManufacturersModelName": "Prisma_fit",
  "Modality": "MR",
  "MultibandAccelerationFactor": 4,
  "PartialFourier": 1,
  "PatientPosition": "HFS",
  "PercentPhaseFOV": 100,
  "PhaseEncodingDirection": "j",
  "PhaseEncodingSteps": 104,
  "PhaseResolution": 1,
  "PixelBandwidth": 2290,
  "ProcedureStepDescription": "memory_things",
  "ProtocolName": "func_task-things_run-3",
  "PulseSequenceDetails": "%CustomerSeq%_cmrr_mbep2d_bold",
  "ReceiveCoilActiveElements": "HC1-7;NC1,2",
  "ReceiveCoilName": "HeadNeck_64",
  "ReconMatrixPE": 104,
  "RepetitionTime": 1.49,
  "SAR": 0.0470987,
  "ScanOptions": "FS",
  "ScanningSequence": "EP",
  "SequenceName": "epfid2d1_104",
  "SequenceVariant": "SK_SS",
  "SeriesDescription": "func_task-things_run-3",
  "SeriesNumber": 17,
  "ShimSetting": [628, -7197, -8791, 716, 11, 56, 8, -9],
  "SliceThickness": 2,
  "SliceTiming": [0, 0.7825, 0.0975, 0.88, 0.195, 0.98, 0.2925, 1.0775, 0.39, 1.175, 0.49, 1.2725, 0.5875, 1.37, 0.685, 0, 0.7825, 0.0975, 0.88, 0.195, 0.98, 0.2925, 1.0775, 0.39, 1.175, 0.49, 1.2725, 0.5875, 1.37, 0.685, 0, 0.7825, 0.0975, 0.88, 0.195, 0.98, 0.2925, 1.0775, 0.39, 1.175, 0.49, 1.2725, 0.5875, 1.37, 0.685, 0, 0.7825, 0.0975, 0.88, 0.195, 0.98, 0.2925, 1.0775, 0.39, 1.175, 0.49, 1.2725, 0.5875, 1.37, 0.685],
  "SoftwareVersions": "syngo_MR_E11",
  "SpacingBetweenSlices": 2,
  "StationName": "MRC35049",
  "TaskName": "things",
  "TotalReadoutTime": 0.0576811,
  "TxRefAmp": 230.019,
  "WipMemBlock": "3e22adaa-5213-4282-abd9-0ae1859d9752||Sequence: R016 ve11c/master r/e634e98; Dec 19 2017 11:00:25 by eja",
  "dcmmeta_affine": [
    [-1.999696135520935, 0.004537072964012623, 0.034568510949611664, 108.13180541992188],
    [-0.006018810905516148, 1.9082980155944824, -0.598633885383606, -71.47090148925781],
    [0.03434153273701668, 0.5986469388008118, 1.9079943895339966, -67.8319091796875],
    [0.0, 0.0, 0.0, 1.0]
],
  "dcmmeta_reorient_transform": [
    [0.0, -1.0, 0.0, 103.0],
    [1.0, 0.0, 0.0, 0.0],
    [0.0, 0.0, 1.0, 0.0],
    [0.0, 0.0, 0.0, 1.0]
],
  "dcmmeta_shape": [104, 104, 60, 190],
  "dcmmeta_slice_dim": 2,
  "dcmmeta_version": 0.6,
  "global": {
    "const": {
      "AcquisitionMatrix": [104, 0, 0, 104],
      "AngioFlag": "N",
      "BitsAllocated": 16,
      "BitsStored": 16,
      "BodyPartExamined": "BRAIN",
      "Columns": 832,
      "EchoNumbers": 1,
      "EchoTime": 37.0,
      "EchoTrainLength": 104,
      "FlipAngle": 52.0,
      "HighBit": 15,
      "ImageOrientationPatient": [0.99984804260071, 0.00300940554652, 0.01717076544002, 0.00226853637472, 0.95414900247797, -0.2993234618486],
      "ImagePositionPatient": [-838.13999437131, -821.89511356109, 199.23588380498],
      "ImageType": [
        "ORIGINAL",
        "PRIMARY",
        "P",
        "MB",
        "ND",
        "MOSAIC"
],
      "ImagedNucleus": "1H",
      "ImagingFrequency": 123.25917,
      "InPlanePhaseEncodingDirection": "COL",
      "LargestImagePixelValue": 4095,
      "MRAcquisitionType": "2D",
      "MagneticFieldStrength": 3.0,
      "Manufacturer": "SIEMENS",
      "ManufacturerModelName": "Prisma_fit",
      "Modality": "MR",
      "NumberOfAverages": 1.0,
      "NumberOfPhaseEncodingSteps": 104,
      "PercentPhaseFieldOfView": 100.0,
      "PercentSampling": 100.0,
      "PerformedProcedureStepStartTime": "131323.231000",
      "PhotometricInterpretation": "MONOCHROME2",
      "PixelBandwidth": 2290.0,
      "PixelRepresentation": 0,
      "PixelSpacing": [2.0, 2.0],
      "ProtocolName": "func_task-things_run-3",
      "RepetitionTime": 1490.0,
      "RescaleIntercept": -4096.0,
      "RescaleSlope": 2.0,
      "RescaleType": "US",
      "Rows": 832,
      "SAR": 0.04709872859495,
      "SamplesPerPixel": 1,
      "ScanOptions": "FS",
      "ScanningSequence": "EP",
      "SequenceName": "epfid2d1_104",
      "SequenceVariant": [
        "SK",
        "SS"
],
      "SeriesDescription": "func_task-things_run-3",
      "SeriesNumber": 17,
      "SeriesTime": "134308.273000",
      "SliceLocation": -41.450024829071,
      "SliceThickness": 2.0,
      "SmallestImagePixelValue": 0,
      "SoftwareVersions": "syngo MR E11",
      "SpacingBetweenSlices": 2.0000000435742,
      "SpecificCharacterSet": "ISO_IR 100",
      "StudyID": "1",
      "StudyTime": "131323.050000",
      "TransmitCoilName": "Body",
      "VariableFlipAngleFlag": "N",
      "WindowCenterWidthExplanation": "Algo1",
      "dBdt": 0.0},
    "slices": {}
  },
  "time": {
    "samples": {
      "AcquisitionNumber": [1, 2, 3, 4, 5, 6, 7, 8, 9, 10, 11, 12, 13, 14, 15, 16, 17, 18, 19, 20, 21, 22, 23, 24, 25, 26, 27, 28, 29, 30, 31, 32, 33, 34, 35, 36, 37, 38, 39, 40, 41, 42, 43, 44, 45, 46, 47, 48, 49, 50, 51, 52, 53, 54, 55, 56, 57, 58, 59, 60, 61, 62, 63, 64, 65, 66, 67, 68, 69, 70, 71, 72, 73, 74, 75, 76, 77, 78, 79, 80, 81, 82, 83, 84, 85, 86, 87, 88, 89, 90, 91, 92, 93, 94, 95, 96, 97, 98, 99, 100, 101, 102, 103, 104, 105, 106, 107, 108, 109, 110, 111, 112, 113, 114, 115, 116, 117, 118, 119, 120, 121, 122, 123, 124, 125, 126, 127, 128, 129, 130, 131, 132, 133, 134, 135, 136, 137, 138, 139, 140, 141, 142, 143, 144, 145, 146, 147, 148, 149, 150, 151, 152, 153, 154, 155, 156, 157, 158, 159, 160, 161, 162, 163, 164, 165, 166, 167, 168, 169, 170, 171, 172, 173, 174, 175, 176, 177, 178, 179, 180, 181, 182, 183, 184, 185, 186, 187, 188, 189, 190],
      "AcquisitionTime": ["134136.140000", "134137.630000", "134139.120000", "134140.610000", "134142.100000", "134143.590000", "134145.080000", "134146.570000", "134148.060000", "134149.550000", "134151.040000", "134152.530000", "134154.020000", "134155.510000", "134157.000000", "134158.490000", "134159.980000", "134201.470000", "134202.960000", "134204.450000", "134205.940000", "134207.430000", "134208.920000", "134210.410000", "134211.900000", "134213.390000", "134214.880000", "134216.370000", "134217.860000", "134219.350000", "134220.840000", "134222.330000", "134223.820000", "134225.310000", "134226.800000", "134228.290000", "134229.780000", "134231.270000", "134232.760000", "134234.250000", "134235.740000", "134237.230000", "134238.720000", "134240.210000", "134241.700000", "134243.190000", "134244.680000", "134246.170000", "134247.660000", "134249.150000", "134250.640000", "134252.130000", "134253.620000", "134255.110000", "134256.600000", "134258.090000", "134259.580000", "134301.070000", "134302.560000", "134304.050000", "134305.540000", "134307.030000", "134308.520000", "134310.010000", "134311.500000", "134312.990000", "134314.480000", "134315.970000", "134317.460000", "134318.950000", "134320.440000", "134321.930000", "134323.420000", "134324.910000", "134326.400000", "134327.890000", "134329.380000", "134330.870000", "134332.360000", "134333.850000", "134335.340000", "134336.830000", "134338.320000", "134339.810000", "134341.300000", "134342.790000", "134344.280000", "134345.770000", "134347.260000", "134348.750000", "134350.240000", "134351.730000", "134353.220000", "134354.710000", "134356.200000", "134357.690000", "134359.180000", "134400.670000", "134402.160000", "134403.650000", "134405.140000", "134406.630000", "134408.120000", "134409.610000", "134411.100000", "134412.590000", "134414.080000", "134415.570000", "134417.060000", "134418.550000", "134420.040000", "134421.530000", "134423.020000", "134424.510000", "134426.000000", "134427.490000", "134428.980000", "134430.470000", "134431.960000", "134433.450000", "134434.940000", "134436.430000", "134437.920000", "134439.410000", "134440.900000", "134442.390000", "134443.880000", "134445.370000", "134446.860000", "134448.350000", "134449.840000", "134451.330000", "134452.820000", "134454.310000", "134455.800000", "134457.290000", "134458.780000", "134500.270000", "134501.760000", "134503.250000", "134504.740000", "134506.230000", "134507.720000", "134509.210000", "134510.700000", "134512.190000", "134513.680000", "134515.170000", "134516.660000", "134518.150000", "134519.640000", "134521.130000", "134522.620000", "134524.110000", "134525.600000", "134527.090000", "134528.580000", "134530.070000", "134531.560000", "134533.050000", "134534.540000", "134536.030000", "134537.520000", "134539.010000", "134540.500000", "134541.990000", "134543.480000", "134544.970000", "134546.460000", "134547.950000", "134549.440000", "134550.930000", "134552.420000", "134553.910000", "134555.400000", "134556.890000", "134558.380000", "134559.870000", "134601.360000", "134602.850000", "134604.340000", "134605.830000", "134607.320000", "134608.810000", "134610.300000", "134611.790000", "134613.280000", "134614.770000", "134616.260000", "134617.750000"],
      "ContentTime": ["134308.275000", "134308.278000", "134308.280000", "134308.283000", "134308.285000", "134308.288000", "134308.291000", "134308.293000", "134308.295000", "134308.298000", "134308.301000", "134308.303000", "134308.305000", "134308.308000", "134308.311000", "134308.313000", "134308.315000", "134308.318000", "134308.320000", "134308.323000", "134308.325000", "134308.328000", "134308.330000", "134308.333000", "134308.335000", "134308.338000", "134308.340000", "134308.343000", "134308.345000", "134308.348000", "134308.350000", "134308.353000", "134308.355000", "134308.358000", "134308.360000", "134308.363000", "134308.365000", "134308.368000", "134308.370000", "134328.118000", "134328.120000", "134328.123000", "134328.125000", "134328.128000", "134328.141000", "134328.143000", "134328.146000", "134328.148000", "134328.151000", "134328.153000", "134328.156000", "134328.158000", "134328.161000", "134328.163000", "134328.165000", "134328.168000", "134328.170000", "134328.173000", "134328.175000", "134348.106000", "134348.108000", "134348.111000", "134348.113000", "134348.116000", "134348.118000", "134348.121000", "134348.123000", "134348.125000", "134348.128000", "134348.130000", "134348.133000", "134348.135000", "134348.138000", "134348.140000", "134348.143000", "134348.145000", "134348.148000", "134348.150000", "134348.153000", "134408.110000", "134408.113000", "134408.115000", "134408.118000", "134408.120000", "134408.123000", "134408.125000", "134408.128000", "134408.130000", "134408.133000", "134408.135000", "134408.138000", "134408.140000", "134408.143000", "134408.145000", "134408.148000", "134408.150000", "134408.153000", "134408.155000", "134408.158000", "134448.170000", "134448.172000", "134448.175000", "134448.177000", "134448.180000", "134448.182000", "134448.185000", "134448.187000", "134448.190000", "134448.192000", "134448.195000", "134448.197000", "134448.200000", "134448.202000", "134448.205000", "134448.207000", "134448.210000", "134448.212000", "134448.215000", "134448.223000", "134448.225000", "134448.228000", "134448.230000", "134448.233000", "134448.235000", "134448.238000", "134448.240000", "134448.243000", "134448.245000", "134528.155000", "134528.158000", "134528.160000", "134528.163000", "134528.167000", "134528.169000", "134528.172000", "134528.174000", "134528.177000", "134528.179000", "134528.182000", "134528.184000", "134528.187000", "134528.190000", "134528.192000", "134528.194000", "134528.197000", "134528.200000", "134528.206000", "134528.208000", "134528.211000", "134528.213000", "134528.215000", "134528.218000", "134528.221000", "134528.223000", "134528.225000", "134608.152000", "134608.155000", "134608.158000", "134608.160000", "134608.162000", "134608.165000", "134608.167000", "134608.170000", "134608.172000", "134608.175000", "134608.177000", "134608.180000", "134608.182000", "134608.185000", "134608.187000", "134608.190000", "134608.192000", "134608.195000", "134608.197000", "134608.200000", "134608.202000", "134608.205000", "134608.207000", "134608.209000", "134608.212000", "134608.214000", "134620.193000", "134620.195000", "134620.198000", "134620.200000", "134620.210000", "134620.213000", "134620.215000", "134620.218000", "134620.220000"],
      "InstanceCreationTime": ["134308.275000", "134308.278000", "134308.280000", "134308.283000", "134308.285000", "134308.288000", "134308.291000", "134308.293000", "134308.295000", "134308.298000", "134308.301000", "134308.303000", "134308.305000", "134308.308000", "134308.311000", "134308.313000", "134308.315000", "134308.318000", "134308.320000", "134308.323000", "134308.325000", "134308.328000", "134308.330000", "134308.333000", "134308.335000", "134308.338000", "134308.340000", "134308.343000", "134308.345000", "134308.348000", "134308.350000", "134308.353000", "134308.355000", "134308.358000", "134308.360000", "134308.363000", "134308.365000", "134308.368000", "134308.370000", "134328.118000", "134328.120000", "134328.123000", "134328.125000", "134328.128000", "134328.141000", "134328.143000", "134328.146000", "134328.148000", "134328.151000", "134328.153000", "134328.156000", "134328.158000", "134328.161000", "134328.163000", "134328.165000", "134328.168000", "134328.170000", "134328.173000", "134328.175000", "134348.106000", "134348.108000", "134348.111000", "134348.113000", "134348.116000", "134348.118000", "134348.121000", "134348.123000", "134348.125000", "134348.128000", "134348.130000", "134348.133000", "134348.135000", "134348.138000", "134348.140000", "134348.143000", "134348.145000", "134348.148000", "134348.150000", "134348.153000", "134408.110000", "134408.113000", "134408.115000", "134408.118000", "134408.120000", "134408.123000", "134408.125000", "134408.128000", "134408.130000", "134408.133000", "134408.135000", "134408.138000", "134408.140000", "134408.143000", "134408.145000", "134408.148000", "134408.150000", "134408.153000", "134408.155000", "134408.158000", "134448.170000", "134448.172000", "134448.175000", "134448.177000", "134448.180000", "134448.182000", "134448.185000", "134448.187000", "134448.190000", "134448.192000", "134448.195000", "134448.197000", "134448.200000", "134448.202000", "134448.205000", "134448.207000", "134448.210000", "134448.212000", "134448.215000", "134448.223000", "134448.225000", "134448.228000", "134448.230000", "134448.233000", "134448.235000", "134448.238000", "134448.240000", "134448.243000", "134448.245000", "134528.155000", "134528.158000", "134528.160000", "134528.163000", "134528.167000", "134528.169000", "134528.172000", "134528.174000", "134528.177000", "134528.179000", "134528.182000", "134528.184000", "134528.187000", "134528.190000", "134528.192000", "134528.194000", "134528.197000", "134528.200000", "134528.206000", "134528.208000", "134528.211000", "134528.213000", "134528.215000", "134528.218000", "134528.221000", "134528.223000", "134528.225000", "134608.152000", "134608.155000", "134608.158000", "134608.160000", "134608.162000", "134608.165000", "134608.167000", "134608.170000", "134608.172000", "134608.175000", "134608.177000", "134608.180000", "134608.182000", "134608.185000", "134608.187000", "134608.190000", "134608.192000", "134608.195000", "134608.197000", "134608.200000", "134608.202000", "134608.205000", "134608.207000", "134608.209000", "134608.212000", "134608.214000", "134620.193000", "134620.195000", "134620.198000", "134620.200000", "134620.210000", "134620.213000", "134620.215000", "134620.218000", "134620.220000"],
      "InstanceNumber": [1, 2, 3, 4, 5, 6, 7, 8, 9, 10, 11, 12, 13, 14, 15, 16, 17, 18, 19, 20, 21, 22, 23, 24, 25, 26, 27, 28, 29, 30, 31, 32, 33, 34, 35, 36, 37, 38, 39, 40, 41, 42, 43, 44, 45, 46, 47, 48, 49, 50, 51, 52, 53, 54, 55, 56, 57, 58, 59, 60, 61, 62, 63, 64, 65, 66, 67, 68, 69, 70, 71, 72, 73, 74, 75, 76, 77, 78, 79, 80, 81, 82, 83, 84, 85, 86, 87, 88, 89, 90, 91, 92, 93, 94, 95, 96, 97, 98, 99, 100, 101, 102, 103, 104, 105, 106, 107, 108, 109, 110, 111, 112, 113, 114, 115, 116, 117, 118, 119, 120, 121, 122, 123, 124, 125, 126, 127, 128, 129, 130, 131, 132, 133, 134, 135, 136, 137, 138, 139, 140, 141, 142, 143, 144, 145, 146, 147, 148, 149, 150, 151, 152, 153, 154, 155, 156, 157, 158, 159, 160, 161, 162, 163, 164, 165, 166, 167, 168, 169, 170, 171, 172, 173, 174, 175, 176, 177, 178, 179, 180, 181, 182, 183, 184, 185, 186, 187, 188, 189, 190],
      "WindowCenter": [4800.0, 4804.0, 4800.0, 4800.0, 4802.0, 4800.0, 4800.0, 4800.0, 4796.0, 4798.0, 4800.0, 4800.0, 4798.0, 4802.0, 4800.0, 4800.0, 4800.0, 4800.0, 4800.0, 4802.0, 4798.0, 4804.0, 4798.0, 4800.0, 4800.0, 4798.0, 4802.0, 4802.0, 4798.0, 4798.0, 4804.0, 4800.0, 4800.0, 4800.0, 4802.0, 4774.0, 4798.0, 4800.0, 4800.0, 4800.0, 4800.0, 4800.0, 4804.0, 4798.0, 4804.0, 4800.0, 4800.0, 4798.0, 4802.0, 4798.0, 4804.0, 4802.0, 4798.0, 4800.0, 4796.0, 4796.0, 4800.0, 4800.0, 4802.0, 4800.0, 4800.0, 4800.0, 4798.0, 4808.0, 4802.0, 4804.0, 4798.0, 4800.0, 4804.0, 4804.0, 4800.0, 4802.0, 4798.0, 4800.0, 4804.0, 4800.0, 4800.0, 4798.0, 4800.0, 4798.0, 4802.0, 4796.0, 4800.0, 4802.0, 4800.0, 4804.0, 4798.0, 4800.0, 4802.0, 4798.0, 4800.0, 4800.0, 4804.0, 4806.0, 4802.0, 4802.0, 4798.0, 4800.0, 4806.0, 4800.0, 4804.0, 4802.0, 4802.0, 4804.0, 4800.0, 4800.0, 4802.0, 4798.0, 4804.0, 4802.0, 4802.0, 4802.0, 4800.0, 4804.0, 4800.0, 4802.0, 4804.0, 4806.0, 4808.0, 4800.0, 4798.0, 4798.0, 4804.0, 4802.0, 4800.0, 4800.0, 4802.0, 4800.0, 4802.0, 4802.0, 4802.0, 4804.0, 4804.0, 4798.0, 4806.0, 4800.0, 4804.0, 4800.0, 4806.0, 4798.0, 4800.0, 4798.0, 4802.0, 4798.0, 4802.0, 4798.0, 4802.0, 4806.0, 4800.0, 4800.0, 4806.0, 4800.0, 4804.0, 4802.0, 4800.0, 4804.0, 4800.0, 4804.0, 4804.0, 4804.0, 4802.0, 4804.0, 4802.0, 4806.0, 4802.0, 4798.0, 4802.0, 4804.0, 4804.0, 4798.0, 4800.0, 4798.0, 4802.0, 4804.0, 4804.0, 4802.0, 4800.0, 4802.0, 4804.0, 4798.0, 4802.0, 4808.0, 4800.0, 4800.0, 4804.0, 4802.0, 4806.0, 4802.0, 4804.0, 4798.0],
      "WindowWidth": [18558.0, 18556.0, 18558.0, 18554.0, 18556.0, 18560.0, 18566.0, 18558.0, 18552.0, 18558.0, 18562.0, 18552.0, 18552.0, 18556.0, 18558.0, 18554.0, 18562.0, 18558.0, 18562.0, 18558.0, 18558.0, 18558.0, 18554.0, 18562.0, 18556.0, 18558.0, 18558.0, 18562.0, 18550.0, 18556.0, 18562.0, 18558.0, 18554.0, 18560.0, 18556.0, 18524.0, 18558.0, 18556.0, 18558.0, 18560.0, 18558.0, 18558.0, 18564.0, 18554.0, 18554.0, 18556.0, 18556.0, 18558.0, 18558.0, 18556.0, 18564.0, 18562.0, 18558.0, 18558.0, 18556.0, 18554.0, 18558.0, 18556.0, 18562.0, 18554.0, 18558.0, 18558.0, 18552.0, 18562.0, 18562.0, 18556.0, 18562.0, 18552.0, 18558.0, 18556.0, 18558.0, 18558.0, 18550.0, 18560.0, 18558.0, 18558.0, 18558.0, 18558.0, 18552.0, 18552.0, 18560.0, 18552.0, 18552.0, 18562.0, 18556.0, 18562.0, 18550.0, 18554.0, 18554.0, 18556.0, 18554.0, 18554.0, 18556.0, 18558.0, 18554.0, 18558.0, 18558.0, 18554.0, 18568.0, 18558.0, 18560.0, 18554.0, 18556.0, 18562.0, 18558.0, 18558.0, 18554.0, 18554.0, 18556.0, 18556.0, 18558.0, 18560.0, 18554.0, 18558.0, 18558.0, 18554.0, 18558.0, 18564.0, 18566.0, 18548.0, 18556.0, 18558.0, 18560.0, 18558.0, 18556.0, 18552.0, 18560.0, 18556.0, 18554.0, 18552.0, 18556.0, 18554.0, 18560.0, 18554.0, 18558.0, 18558.0, 18556.0, 18556.0, 18558.0, 18556.0, 18554.0, 18554.0, 18558.0, 18558.0, 18552.0, 18562.0, 18560.0, 18562.0, 18556.0, 18556.0, 18558.0, 18554.0, 18558.0, 18554.0, 18556.0, 18554.0, 18556.0, 18560.0, 18562.0, 18556.0, 18554.0, 18562.0, 18558.0, 18554.0, 18558.0, 18556.0, 18556.0, 18560.0, 18560.0, 18554.0, 18554.0, 18554.0, 18556.0, 18562.0, 18558.0, 18558.0, 18554.0, 18554.0, 18562.0, 18556.0, 18562.0, 18562.0, 18554.0, 18558.0, 18558.0, 18556.0, 18558.0, 18564.0, 18562.0, 18556.0]
    },
    "slices": {}
  }
}