{
  "AcquisitionMatrixPE": 104,
  "AcquisitionNumber": 1,
  "AcquisitionTime": "14:00:45.625000",
  "BandwidthPerPixelPhaseEncode": 17.17,
  "BaseResolution": 104,
  "BodyPartExamined": "BRAIN",
  "CoilString": "HC1-7;NC1_2",
  "ConsistencyInfo": "N4_VE11C_LATEST_20160120",
  "ConversionSoftware": "dcm2niix",
  "ConversionSoftwareVersion": "v1.0.20190902",
  "DerivedVendorReportedEchoSpacing": 0.000560011,
  "DeviceSerialNumber": "167006",
  "DwellTime": 2.1e-06,
  "EchoTime": 0.037,
  "EchoTrainLength": 104,
  "EffectiveEchoSpacing": 0.000560011,
  "FlipAngle": 52,
  "ImageComments": "Unaliased_MB4_PE3_LB",
  "ImageOrientationPatientDICOM": [0.99967, 0.00668759, 0.0248164, -3.74449e-08, 0.965555, -0.260199],
  "ImageType": [
    "ORIGINAL",
    "PRIMARY",
    "P",
    "MB",
    "ND",
    "MOSAIC"
],
  "ImagingFrequency": 123.259,
  "InPlanePhaseEncodingDirectionDICOM": "COL",
  "InstitutionAddress": "Chemin_Queen-Mary_4565_Montreal_District_CA_H3W_1W5",
  "InstitutionName": "IUGM",
  "InstitutionalDepartmentName": "Department",
  "MRAcquisitionType": "2D",
  "MagneticFieldStrength": 3,
  "Manufacturer": "Siemens",
  "ManufacturersModelName": "Prisma_fit",
  "Modality": "MR",
  "MultibandAccelerationFactor": 4,
  "PartialFourier": 1,
  "PatientPosition": "HFS",
  "PercentPhaseFOV": 100,
  "PhaseEncodingDirection": "j",
  "PhaseEncodingSteps": 104,
  "PhaseResolution": 1,
  "PixelBandwidth": 2290,
  "ProcedureStepDescription": "memory_things",
  "ProtocolName": "func_task-things_run-6",
  "PulseSequenceDetails": "%CustomerSeq%_cmrr_mbep2d_bold",
  "ReceiveCoilActiveElements": "HC1-7;NC1,2",
  "ReceiveCoilName": "HeadNeck_64",
  "ReconMatrixPE": 104,
  "RepetitionTime": 1.49,
  "SAR": 0.0521416,
  "ScanOptions": "FS",
  "ScanningSequence": "EP",
  "SequenceName": "epfid2d1_104",
  "SequenceVariant": "SK_SS",
  "SeriesDescription": "func_task-things_run-6",
  "SeriesNumber": 26,
  "ShimSetting": [639, -7199, -8758, 712, 28, 47, 37, -5],
  "SliceThickness": 2,
  "SliceTiming": [0, 0.7825, 0.0975, 0.8825, 0.195, 0.98, 0.295, 1.0775, 0.3925, 1.175, 0.49, 1.2725, 0.5875, 1.3725, 0.685, 0, 0.7825, 0.0975, 0.8825, 0.195, 0.98, 0.295, 1.0775, 0.3925, 1.175, 0.49, 1.2725, 0.5875, 1.3725, 0.685, 0, 0.7825, 0.0975, 0.8825, 0.195, 0.98, 0.295, 1.0775, 0.3925, 1.175, 0.49, 1.2725, 0.5875, 1.3725, 0.685, 0, 0.7825, 0.0975, 0.8825, 0.195, 0.98, 0.295, 1.0775, 0.3925, 1.175, 0.49, 1.2725, 0.5875, 1.3725, 0.685],
  "SoftwareVersions": "syngo_MR_E11",
  "SpacingBetweenSlices": 2,
  "StationName": "MRC35049",
  "TaskName": "things",
  "TotalReadoutTime": 0.0576811,
  "TxRefAmp": 238.486,
  "WipMemBlock": "5749e3bd-a8fd-4e2a-ae1f-42ee4f8183de||Sequence: R016 ve11c/master r/e634e98; Dec 19 2017 11:00:25 by eja",
  "dcmmeta_affine": [
    [-1.9993393421173096, -7.488981168535247e-08, 0.0514034740626812, 107.57239532470703],
    [-0.013375184498727322, 1.9311102628707886, -0.5202252864837646, -73.82735443115234],
    [0.04963286966085434, 0.5203971862792969, 1.9304722547531128, -55.59439468383789],
    [0.0, 0.0, 0.0, 1.0]
],
  "dcmmeta_reorient_transform": [
    [0.0, -1.0, 0.0, 103.0],
    [1.0, 0.0, 0.0, 0.0],
    [0.0, 0.0, 1.0, 0.0],
    [0.0, 0.0, 0.0, 1.0]
],
  "dcmmeta_shape": [104, 104, 60, 190],
  "dcmmeta_slice_dim": 2,
  "dcmmeta_version": 0.6,
  "global": {
    "const": {
      "AcquisitionMatrix": [104, 0, 0, 104],
      "AngioFlag": "N",
      "BitsAllocated": 16,
      "BitsStored": 16,
      "BodyPartExamined": "BRAIN",
      "Columns": 832,
      "EchoNumbers": 1,
      "EchoTime": 37.0,
      "EchoTrainLength": 104,
      "FlipAngle": 52.0,
      "HighBit": 15,
      "ImageOrientationPatient": [0.99966965578675, 0.00668759226853, 0.02481643424953, -3.7444906e-08, 0.96555511867049, -0.2601986026273],
      "ImagePositionPatient": [-835.33187104135, -832.86969587724, 169.36473563573],
      "ImageType": [
        "ORIGINAL",
        "PRIMARY",
        "P",
        "MB",
        "ND",
        "MOSAIC"
],
      "ImagedNucleus": "1H",
      "ImagingFrequency": 123.258952,
      "InPlanePhaseEncodingDirection": "COL",
      "LargestImagePixelValue": 4095,
      "MRAcquisitionType": "2D",
      "MagneticFieldStrength": 3.0,
      "Manufacturer": "SIEMENS",
      "ManufacturerModelName": "Prisma_fit",
      "Modality": "MR",
      "NumberOfAverages": 1.0,
      "NumberOfPhaseEncodingSteps": 104,
      "PercentPhaseFieldOfView": 100.0,
      "PercentSampling": 100.0,
      "PerformedProcedureStepStartTime": "130215.826000",
      "PhotometricInterpretation": "MONOCHROME2",
      "PixelBandwidth": 2290.0,
      "PixelRepresentation": 0,
      "PixelSpacing": [2.0, 2.0],
      "ProtocolName": "func_task-things_run-6",
      "RepetitionTime": 1490.0,
      "RescaleIntercept": -4096.0,
      "RescaleSlope": 2.0,
      "RescaleType": "US",
      "Rows": 832,
      "SAR": 0.05214164190123,
      "SamplesPerPixel": 1,
      "ScanOptions": "FS",
      "ScanningSequence": "EP",
      "SequenceName": "epfid2d1_104",
      "SequenceVariant": [
        "SK",
        "SS"
],
      "SeriesDescription": "func_task-things_run-6",
      "SeriesNumber": 26,
      "SeriesTime": "140143.172000",
      "SliceLocation": -31.693494630234,
      "SliceThickness": 2.0,
      "SmallestImagePixelValue": 0,
      "SoftwareVersions": "syngo MR E11",
      "SpacingBetweenSlices": 1.9999999901547,
      "SpecificCharacterSet": "ISO_IR 100",
      "StudyID": "1",
      "StudyTime": "130215.736000",
      "TransmitCoilName": "Body",
      "VariableFlipAngleFlag": "N",
      "WindowCenterWidthExplanation": "Algo1",
      "dBdt": 0.0},
    "slices": {}
  },
  "time": {
    "samples": {
      "AcquisitionNumber": [1, 2, 3, 4, 5, 6, 7, 8, 9, 10, 11, 12, 13, 14, 15, 16, 17, 18, 19, 20, 21, 22, 23, 24, 25, 26, 27, 28, 29, 30, 31, 32, 33, 34, 35, 36, 37, 38, 39, 40, 41, 42, 43, 44, 45, 46, 47, 48, 49, 50, 51, 52, 53, 54, 55, 56, 57, 58, 59, 60, 61, 62, 63, 64, 65, 66, 67, 68, 69, 70, 71, 72, 73, 74, 75, 76, 77, 78, 79, 80, 81, 82, 83, 84, 85, 86, 87, 88, 89, 90, 91, 92, 93, 94, 95, 96, 97, 98, 99, 100, 101, 102, 103, 104, 105, 106, 107, 108, 109, 110, 111, 112, 113, 114, 115, 116, 117, 118, 119, 120, 121, 122, 123, 124, 125, 126, 127, 128, 129, 130, 131, 132, 133, 134, 135, 136, 137, 138, 139, 140, 141, 142, 143, 144, 145, 146, 147, 148, 149, 150, 151, 152, 153, 154, 155, 156, 157, 158, 159, 160, 161, 162, 163, 164, 165, 166, 167, 168, 169, 170, 171, 172, 173, 174, 175, 176, 177, 178, 179, 180, 181, 182, 183, 184, 185, 186, 187, 188, 189, 190],
      "AcquisitionTime": ["140045.625000", "140047.115000", "140048.605000", "140050.095000", "140051.585000", "140053.075000", "140054.565000", "140056.055000", "140057.545000", "140059.035000", "140100.525000", "140102.015000", "140103.505000", "140104.995000", "140106.485000", "140107.975000", "140109.465000", "140110.955000", "140112.445000", "140113.935000", "140115.425000", "140116.915000", "140118.405000", "140119.895000", "140121.385000", "140122.875000", "140124.365000", "140125.855000", "140127.345000", "140128.835000", "140130.325000", "140131.815000", "140133.305000", "140134.795000", "140136.285000", "140137.775000", "140139.265000", "140140.755000", "140142.245000", "140143.735000", "140145.225000", "140146.715000", "140148.205000", "140149.695000", "140151.185000", "140152.675000", "140154.165000", "140155.655000", "140157.145000", "140158.635000", "140200.125000", "140201.615000", "140203.105000", "140204.595000", "140206.085000", "140207.575000", "140209.065000", "140210.555000", "140212.045000", "140213.535000", "140215.025000", "140216.515000", "140218.005000", "140219.495000", "140220.985000", "140222.475000", "140223.965000", "140225.455000", "140226.945000", "140228.435000", "140229.925000", "140231.415000", "140232.905000", "140234.395000", "140235.885000", "140237.375000", "140238.865000", "140240.355000", "140241.845000", "140243.335000", "140244.825000", "140246.315000", "140247.805000", "140249.295000", "140250.785000", "140252.275000", "140253.765000", "140255.255000", "140256.745000", "140258.235000", "140259.725000", "140301.215000", "140302.705000", "140304.195000", "140305.685000", "140307.175000", "140308.665000", "140310.155000", "140311.645000", "140313.135000", "140314.625000", "140316.115000", "140317.605000", "140319.095000", "140320.585000", "140322.075000", "140323.565000", "140325.055000", "140326.545000", "140328.035000", "140329.525000", "140331.015000", "140332.505000", "140333.995000", "140335.485000", "140336.975000", "140338.465000", "140339.955000", "140341.445000", "140342.935000", "140344.425000", "140345.915000", "140347.405000", "140348.895000", "140350.385000", "140351.875000", "140353.365000", "140354.855000", "140356.345000", "140357.835000", "140359.325000", "140400.815000", "140402.305000", "140403.795000", "140405.285000", "140406.775000", "140408.265000", "140409.755000", "140411.245000", "140412.735000", "140414.225000", "140415.715000", "140417.205000", "140418.695000", "140420.185000", "140421.675000", "140423.165000", "140424.655000", "140426.145000", "140427.635000", "140429.125000", "140430.615000", "140432.105000", "140433.595000", "140435.085000", "140436.575000", "140438.065000", "140439.555000", "140441.045000", "140442.535000", "140444.025000", "140445.515000", "140447.005000", "140448.495000", "140449.985000", "140451.475000", "140452.965000", "140454.455000", "140455.945000", "140457.435000", "140458.925000", "140500.415000", "140501.905000", "140503.395000", "140504.885000", "140506.375000", "140507.865000", "140509.355000", "140510.845000", "140512.335000", "140513.825000", "140515.315000", "140516.805000", "140518.295000", "140519.785000", "140521.275000", "140522.765000", "140524.255000", "140525.745000", "140527.235000"],
      "ContentTime": ["140143.174000", "140143.177000", "140143.180000", "140203.213000", "140203.215000", "140203.218000", "140203.222000", "140203.224000", "140203.227000", "140203.229000", "140203.232000", "140203.234000", "140203.237000", "140203.239000", "140203.242000", "140203.244000", "140203.247000", "140203.249000", "140203.252000", "140203.255000", "140203.257000", "140203.259000", "140203.262000", "140203.265000", "140223.201000", "140223.204000", "140223.206000", "140223.209000", "140223.211000", "140223.214000", "140223.217000", "140223.219000", "140223.222000", "140223.224000", "140223.227000", "140223.229000", "140223.232000", "140223.234000", "140223.237000", "140223.240000", "140223.242000", "140223.245000", "140223.247000", "140223.250000", "140243.234000", "140243.237000", "140243.240000", "140243.242000", "140243.245000", "140243.255000", "140243.258000", "140243.260000", "140243.263000", "140243.266000", "140243.268000", "140243.271000", "140243.273000", "140243.276000", "140243.278000", "140243.281000", "140243.283000", "140243.286000", "140243.288000", "140243.291000", "140303.621000", "140303.624000", "140303.626000", "140303.629000", "140303.631000", "140303.634000", "140303.637000", "140303.639000", "140303.642000", "140303.644000", "140303.647000", "140303.649000", "140303.659000", "140303.663000", "140303.666000", "140303.668000", "140303.671000", "140303.673000", "140303.676000", "140303.678000", "140303.681000", "140323.214000", "140323.217000", "140323.219000", "140323.222000", "140323.224000", "140323.227000", "140323.229000", "140323.232000", "140323.235000", "140323.237000", "140323.240000", "140323.242000", "140323.245000", "140323.247000", "140323.250000", "140323.252000", "140323.255000", "140323.257000", "140323.260000", "140323.262000", "140403.233000", "140403.236000", "140403.238000", "140403.241000", "140403.244000", "140403.246000", "140403.249000", "140403.251000", "140403.254000", "140403.256000", "140403.259000", "140403.261000", "140403.264000", "140403.267000", "140403.269000", "140403.272000", "140403.274000", "140403.277000", "140403.279000", "140403.282000", "140403.284000", "140403.287000", "140403.290000", "140403.296000", "140403.299000", "140403.301000", "140403.304000", "140443.230000", "140443.233000", "140443.236000", "140443.238000", "140443.241000", "140443.243000", "140443.246000", "140443.249000", "140443.251000", "140443.254000", "140443.256000", "140443.259000", "140443.261000", "140443.264000", "140443.266000", "140443.269000", "140443.272000", "140443.274000", "140443.277000", "140443.279000", "140443.282000", "140443.284000", "140443.287000", "140443.289000", "140443.292000", "140443.294000", "140443.297000", "140523.254000", "140523.257000", "140523.264000", "140523.267000", "140523.269000", "140523.272000", "140523.275000", "140523.277000", "140523.280000", "140523.282000", "140523.285000", "140523.287000", "140523.290000", "140523.292000", "140523.295000", "140523.298000", "140523.300000", "140523.303000", "140523.305000", "140523.308000", "140523.310000", "140523.313000", "140523.316000", "140523.318000", "140523.321000", "140523.323000", "140529.242000", "140529.245000", "140529.248000", "140529.250000", "140529.253000"],
      "InstanceCreationTime": ["140143.174000", "140143.177000", "140143.180000", "140203.213000", "140203.215000", "140203.218000", "140203.222000", "140203.224000", "140203.227000", "140203.229000", "140203.232000", "140203.234000", "140203.237000", "140203.239000", "140203.242000", "140203.244000", "140203.247000", "140203.249000", "140203.252000", "140203.255000", "140203.257000", "140203.259000", "140203.262000", "140203.265000", "140223.201000", "140223.204000", "140223.206000", "140223.209000", "140223.211000", "140223.214000", "140223.217000", "140223.219000", "140223.222000", "140223.224000", "140223.227000", "140223.229000", "140223.232000", "140223.234000", "140223.237000", "140223.240000", "140223.242000", "140223.245000", "140223.247000", "140223.250000", "140243.234000", "140243.237000", "140243.240000", "140243.242000", "140243.245000", "140243.255000", "140243.258000", "140243.260000", "140243.263000", "140243.266000", "140243.268000", "140243.271000", "140243.273000", "140243.276000", "140243.278000", "140243.281000", "140243.283000", "140243.286000", "140243.288000", "140243.291000", "140303.621000", "140303.624000", "140303.626000", "140303.629000", "140303.631000", "140303.634000", "140303.637000", "140303.639000", "140303.642000", "140303.644000", "140303.647000", "140303.649000", "140303.659000", "140303.663000", "140303.666000", "140303.668000", "140303.671000", "140303.673000", "140303.676000", "140303.678000", "140303.681000", "140323.214000", "140323.217000", "140323.219000", "140323.222000", "140323.224000", "140323.227000", "140323.229000", "140323.232000", "140323.235000", "140323.237000", "140323.240000", "140323.242000", "140323.245000", "140323.247000", "140323.250000", "140323.252000", "140323.255000", "140323.257000", "140323.260000", "140323.262000", "140403.233000", "140403.236000", "140403.238000", "140403.241000", "140403.244000", "140403.246000", "140403.249000", "140403.251000", "140403.254000", "140403.256000", "140403.259000", "140403.261000", "140403.264000", "140403.267000", "140403.269000", "140403.272000", "140403.274000", "140403.277000", "140403.279000", "140403.282000", "140403.284000", "140403.287000", "140403.290000", "140403.296000", "140403.299000", "140403.301000", "140403.304000", "140443.230000", "140443.233000", "140443.236000", "140443.238000", "140443.241000", "140443.243000", "140443.246000", "140443.249000", "140443.251000", "140443.254000", "140443.256000", "140443.259000", "140443.261000", "140443.264000", "140443.266000", "140443.269000", "140443.272000", "140443.274000", "140443.277000", "140443.279000", "140443.282000", "140443.284000", "140443.287000", "140443.289000", "140443.292000", "140443.294000", "140443.297000", "140523.254000", "140523.257000", "140523.264000", "140523.267000", "140523.269000", "140523.272000", "140523.275000", "140523.277000", "140523.280000", "140523.282000", "140523.285000", "140523.287000", "140523.290000", "140523.292000", "140523.295000", "140523.298000", "140523.300000", "140523.303000", "140523.305000", "140523.308000", "140523.310000", "140523.313000", "140523.316000", "140523.318000", "140523.321000", "140523.323000", "140529.242000", "140529.245000", "140529.248000", "140529.250000", "140529.253000"],
      "InstanceNumber": [1, 2, 3, 4, 5, 6, 7, 8, 9, 10, 11, 12, 13, 14, 15, 16, 17, 18, 19, 20, 21, 22, 23, 24, 25, 26, 27, 28, 29, 30, 31, 32, 33, 34, 35, 36, 37, 38, 39, 40, 41, 42, 43, 44, 45, 46, 47, 48, 49, 50, 51, 52, 53, 54, 55, 56, 57, 58, 59, 60, 61, 62, 63, 64, 65, 66, 67, 68, 69, 70, 71, 72, 73, 74, 75, 76, 77, 78, 79, 80, 81, 82, 83, 84, 85, 86, 87, 88, 89, 90, 91, 92, 93, 94, 95, 96, 97, 98, 99, 100, 101, 102, 103, 104, 105, 106, 107, 108, 109, 110, 111, 112, 113, 114, 115, 116, 117, 118, 119, 120, 121, 122, 123, 124, 125, 126, 127, 128, 129, 130, 131, 132, 133, 134, 135, 136, 137, 138, 139, 140, 141, 142, 143, 144, 145, 146, 147, 148, 149, 150, 151, 152, 153, 154, 155, 156, 157, 158, 159, 160, 161, 162, 163, 164, 165, 166, 167, 168, 169, 170, 171, 172, 173, 174, 175, 176, 177, 178, 179, 180, 181, 182, 183, 184, 185, 186, 187, 188, 189, 190],
      "WindowCenter": [4854.0, 4850.0, 4852.0, 4850.0, 4850.0, 4848.0, 4850.0, 4850.0, 4850.0, 4850.0, 4852.0, 4852.0, 4828.0, 4828.0, 4828.0, 4850.0, 4828.0, 4850.0, 4850.0, 4848.0, 4852.0, 4850.0, 4850.0, 4852.0, 4852.0, 4828.0, 4850.0, 4828.0, 4852.0, 4828.0, 4848.0, 4850.0, 4850.0, 4852.0, 4850.0, 4850.0, 4852.0, 4852.0, 4852.0, 4852.0, 4852.0, 4852.0, 4850.0, 4854.0, 4852.0, 4830.0, 4852.0, 4828.0, 4852.0, 4852.0, 4830.0, 4850.0, 4852.0, 4848.0, 4850.0, 4850.0, 4852.0, 4850.0, 4854.0, 4856.0, 4850.0, 4852.0, 4826.0, 4852.0, 4848.0, 4852.0, 4826.0, 4850.0, 4826.0, 4852.0, 4852.0, 4850.0, 4852.0, 4850.0, 4852.0, 4850.0, 4850.0, 4850.0, 4850.0, 4852.0, 4848.0, 4826.0, 4850.0, 4854.0, 4850.0, 4850.0, 4852.0, 4856.0, 4850.0, 4848.0, 4852.0, 4850.0, 4848.0, 4848.0, 4852.0, 4848.0, 4854.0, 4852.0, 4850.0, 4850.0, 4850.0, 4850.0, 4828.0, 4852.0, 4852.0, 4826.0, 4852.0, 4852.0, 4854.0, 4852.0, 4848.0, 4850.0, 4852.0, 4850.0, 4854.0, 4852.0, 4852.0, 4848.0, 4852.0, 4850.0, 4848.0, 4850.0, 4852.0, 4846.0, 4852.0, 4852.0, 4852.0, 4850.0, 4850.0, 4828.0, 4852.0, 4852.0, 4852.0, 4852.0, 4852.0, 4850.0, 4852.0, 4850.0, 4850.0, 4848.0, 4850.0, 4854.0, 4850.0, 4850.0, 4848.0, 4850.0, 4852.0, 4852.0, 4854.0, 4850.0, 4850.0, 4850.0, 4850.0, 4852.0, 4828.0, 4848.0, 4850.0, 4850.0, 4850.0, 4848.0, 4850.0, 4852.0, 4854.0, 4850.0, 4852.0, 4852.0, 4850.0, 4848.0, 4826.0, 4828.0, 4850.0, 4828.0, 4848.0, 4848.0, 4848.0, 4852.0, 4850.0, 4852.0, 4850.0, 4828.0, 4852.0, 4848.0, 4850.0, 4848.0, 4852.0, 4850.0, 4850.0, 4826.0, 4848.0, 4848.0],
      "WindowWidth": [18616.0, 18610.0, 18614.0, 18608.0, 18608.0, 18610.0, 18608.0, 18610.0, 18610.0, 18606.0, 18616.0, 18612.0, 18586.0, 18582.0, 18578.0, 18614.0, 18580.0, 18612.0, 18610.0, 18610.0, 18614.0, 18608.0, 18608.0, 18610.0, 18612.0, 18582.0, 18610.0, 18582.0, 18610.0, 18578.0, 18614.0, 18610.0, 18610.0, 18612.0, 18612.0, 18612.0, 18610.0, 18614.0, 18614.0, 18614.0, 18616.0, 18616.0, 18610.0, 18612.0, 18614.0, 18580.0, 18606.0, 18580.0, 18614.0, 18610.0, 18582.0, 18614.0, 18612.0, 18614.0, 18612.0, 18612.0, 18618.0, 18612.0, 18614.0, 18616.0, 18612.0, 18612.0, 18582.0, 18614.0, 18608.0, 18614.0, 18586.0, 18610.0, 18582.0, 18608.0, 18614.0, 18610.0, 18612.0, 18616.0, 18612.0, 18610.0, 18616.0, 18612.0, 18608.0, 18610.0, 18608.0, 18580.0, 18612.0, 18620.0, 18614.0, 18614.0, 18612.0, 18610.0, 18612.0, 18612.0, 18616.0, 18616.0, 18612.0, 18610.0, 18608.0, 18610.0, 18614.0, 18612.0, 18612.0, 18608.0, 18612.0, 18616.0, 18580.0, 18616.0, 18608.0, 18582.0, 18610.0, 18608.0, 18616.0, 18614.0, 18606.0, 18616.0, 18612.0, 18612.0, 18614.0, 18614.0, 18610.0, 18612.0, 18616.0, 18616.0, 18612.0, 18612.0, 18614.0, 18610.0, 18612.0, 18606.0, 18610.0, 18610.0, 18610.0, 18582.0, 18614.0, 18610.0, 18616.0, 18612.0, 18610.0, 18610.0, 18612.0, 18614.0, 18612.0, 18610.0, 18610.0, 18612.0, 18614.0, 18610.0, 18612.0, 18610.0, 18610.0, 18612.0, 18610.0, 18614.0, 18606.0, 18614.0, 18616.0, 18608.0, 18582.0, 18608.0, 18614.0, 18608.0, 18612.0, 18612.0, 18616.0, 18610.0, 18608.0, 18614.0, 18616.0, 18612.0, 18612.0, 18606.0, 18584.0, 18580.0, 18612.0, 18582.0, 18612.0, 18614.0, 18612.0, 18618.0, 18612.0, 18610.0, 18616.0, 18584.0, 18614.0, 18610.0, 18610.0, 18616.0, 18610.0, 18612.0, 18614.0, 18574.0, 18614.0, 18612.0]
    },
    "slices": {}
  }
}