{
  "AcquisitionMatrixPE": 104,
  "AcquisitionNumber": 1,
  "AcquisitionTime": "13:53:41.320000",
  "BandwidthPerPixelPhaseEncode": 17.17,
  "BaseResolution": 104,
  "BodyPartExamined": "BRAIN",
  "CoilString": "HC1-7;NC1_2",
  "ConsistencyInfo": "N4_VE11C_LATEST_20160120",
  "ConversionSoftware": "dcm2niix",
  "ConversionSoftwareVersion": "v1.0.20190902",
  "DerivedVendorReportedEchoSpacing": 0.000560011,
  "DeviceSerialNumber": "167006",
  "DwellTime": 2.1e-06,
  "EchoTime": 0.037,
  "EchoTrainLength": 104,
  "EffectiveEchoSpacing": 0.000560011,
  "FlipAngle": 52,
  "ImageComments": "Unaliased_MB4_PE3_LB",
  "ImageOrientationPatientDICOM": [0.99967, 0.00668759, 0.0248164, -3.74449e-08, 0.965555, -0.260199],
  "ImageType": [
    "ORIGINAL",
    "PRIMARY",
    "M",
    "MB",
    "ND",
    "MOSAIC"
],
  "ImagingFrequency": 123.259,
  "InPlanePhaseEncodingDirectionDICOM": "COL",
  "InstitutionAddress": "Chemin_Queen-Mary_4565_Montreal_District_CA_H3W_1W5",
  "InstitutionName": "IUGM",
  "InstitutionalDepartmentName": "Department",
  "MRAcquisitionType": "2D",
  "MagneticFieldStrength": 3,
  "Manufacturer": "Siemens",
  "ManufacturersModelName": "Prisma_fit",
  "Modality": "MR",
  "MultibandAccelerationFactor": 4,
  "PartialFourier": 1,
  "PatientPosition": "HFS",
  "PercentPhaseFOV": 100,
  "PhaseEncodingDirection": "j",
  "PhaseEncodingSteps": 104,
  "PhaseResolution": 1,
  "PixelBandwidth": 2290,
  "ProcedureStepDescription": "memory_things",
  "ProtocolName": "func_task-things_run-5",
  "PulseSequenceDetails": "%CustomerSeq%_cmrr_mbep2d_bold",
  "ReceiveCoilActiveElements": "HC1-7;NC1,2",
  "ReceiveCoilName": "HeadNeck_64",
  "ReconMatrixPE": 104,
  "RepetitionTime": 1.49,
  "SAR": 0.0521416,
  "ScanOptions": "FS",
  "ScanningSequence": "EP",
  "SequenceName": "epfid2d1_104",
  "SequenceVariant": "SK_SS",
  "SeriesDescription": "func_task-things_run-5",
  "SeriesNumber": 22,
  "ShimSetting": [639, -7199, -8758, 712, 28, 47, 37, -5],
  "SliceThickness": 2,
  "SliceTiming": [0, 0.785, 0.1, 0.8825, 0.1975, 0.98, 0.295, 1.08, 0.3925, 1.1775, 0.49, 1.275, 0.59, 1.3725, 0.6875, 0, 0.785, 0.1, 0.8825, 0.1975, 0.98, 0.295, 1.08, 0.3925, 1.1775, 0.49, 1.275, 0.59, 1.3725, 0.6875, 0, 0.785, 0.1, 0.8825, 0.1975, 0.98, 0.295, 1.08, 0.3925, 1.1775, 0.49, 1.275, 0.59, 1.3725, 0.6875, 0, 0.785, 0.1, 0.8825, 0.1975, 0.98, 0.295, 1.08, 0.3925, 1.1775, 0.49, 1.275, 0.59, 1.3725, 0.6875],
  "SoftwareVersions": "syngo_MR_E11",
  "SpacingBetweenSlices": 2,
  "StationName": "MRC35049",
  "TaskName": "things",
  "TotalReadoutTime": 0.0576811,
  "TxRefAmp": 238.486,
  "WipMemBlock": "415d4958-d450-4c7d-a87a-73969cd7efb0||Sequence: R016 ve11c/master r/e634e98; Dec 19 2017 11:00:25 by eja",
  "dcmmeta_affine": [
    [-1.9993393421173096, -7.488981168535247e-08, 0.0514034740626812, 107.57239532470703],
    [-0.013375184498727322, 1.9311102628707886, -0.5202252864837646, -73.82735443115234],
    [0.04963286966085434, 0.5203971862792969, 1.9304722547531128, -55.59439468383789],
    [0.0, 0.0, 0.0, 1.0]
],
  "dcmmeta_reorient_transform": [
    [0.0, -1.0, 0.0, 103.0],
    [1.0, 0.0, 0.0, 0.0],
    [0.0, 0.0, 1.0, 0.0],
    [0.0, 0.0, 0.0, 1.0]
],
  "dcmmeta_shape": [104, 104, 60, 190],
  "dcmmeta_slice_dim": 2,
  "dcmmeta_version": 0.6,
  "global": {
    "const": {
      "AcquisitionMatrix": [104, 0, 0, 104],
      "AngioFlag": "N",
      "BitsAllocated": 16,
      "BitsStored": 16,
      "BodyPartExamined": "BRAIN",
      "Columns": 832,
      "EchoNumbers": 1,
      "EchoTime": 37.0,
      "EchoTrainLength": 104,
      "FlipAngle": 52.0,
      "HighBit": 15,
      "ImageOrientationPatient": [0.99966965578675, 0.00668759226853, 0.02481643424953, -3.7444906e-08, 0.96555511867049, -0.2601986026273],
      "ImagePositionPatient": [-835.33187104135, -832.86969587724, 169.36473563573],
      "ImageType": [
        "ORIGINAL",
        "PRIMARY",
        "M",
        "MB",
        "ND",
        "MOSAIC"
],
      "ImagedNucleus": "1H",
      "ImagingFrequency": 123.25895,
      "InPlanePhaseEncodingDirection": "COL",
      "MRAcquisitionType": "2D",
      "MagneticFieldStrength": 3.0,
      "Manufacturer": "SIEMENS",
      "ManufacturerModelName": "Prisma_fit",
      "Modality": "MR",
      "NumberOfAverages": 1.0,
      "NumberOfPhaseEncodingSteps": 104,
      "PercentPhaseFieldOfView": 100.0,
      "PercentSampling": 100.0,
      "PerformedProcedureStepStartTime": "130215.826000",
      "PhotometricInterpretation": "MONOCHROME2",
      "PixelBandwidth": 2290.0,
      "PixelRepresentation": 0,
      "PixelSpacing": [2.0, 2.0],
      "ProtocolName": "func_task-things_run-5",
      "RepetitionTime": 1490.0,
      "Rows": 832,
      "SAR": 0.05214164190123,
      "SamplesPerPixel": 1,
      "ScanOptions": "FS",
      "ScanningSequence": "EP",
      "SequenceName": "epfid2d1_104",
      "SequenceVariant": [
        "SK",
        "SS"
],
      "SeriesDescription": "func_task-things_run-5",
      "SeriesNumber": 22,
      "SeriesTime": "135506.982000",
      "SliceLocation": -31.693494630234,
      "SliceThickness": 2.0,
      "SmallestImagePixelValue": 0,
      "SoftwareVersions": "syngo MR E11",
      "SpacingBetweenSlices": 1.9999999901547,
      "SpecificCharacterSet": "ISO_IR 100",
      "StudyID": "1",
      "StudyTime": "130215.736000",
      "TransmitCoilName": "Body",
      "VariableFlipAngleFlag": "N",
      "WindowCenterWidthExplanation": "Algo1",
      "dBdt": 0.0},
    "slices": {}
  },
  "time": {
    "samples": {
      "AcquisitionNumber": [1, 2, 3, 4, 5, 6, 7, 8, 9, 10, 11, 12, 13, 14, 15, 16, 17, 18, 19, 20, 21, 22, 23, 24, 25, 26, 27, 28, 29, 30, 31, 32, 33, 34, 35, 36, 37, 38, 39, 40, 41, 42, 43, 44, 45, 46, 47, 48, 49, 50, 51, 52, 53, 54, 55, 56, 57, 58, 59, 60, 61, 62, 63, 64, 65, 66, 67, 68, 69, 70, 71, 72, 73, 74, 75, 76, 77, 78, 79, 80, 81, 82, 83, 84, 85, 86, 87, 88, 89, 90, 91, 92, 93, 94, 95, 96, 97, 98, 99, 100, 101, 102, 103, 104, 105, 106, 107, 108, 109, 110, 111, 112, 113, 114, 115, 116, 117, 118, 119, 120, 121, 122, 123, 124, 125, 126, 127, 128, 129, 130, 131, 132, 133, 134, 135, 136, 137, 138, 139, 140, 141, 142, 143, 144, 145, 146, 147, 148, 149, 150, 151, 152, 153, 154, 155, 156, 157, 158, 159, 160, 161, 162, 163, 164, 165, 166, 167, 168, 169, 170, 171, 172, 173, 174, 175, 176, 177, 178, 179, 180, 181, 182, 183, 184, 185, 186, 187, 188, 189, 190],
      "AcquisitionTime": ["135341.320000", "135342.810000", "135344.300000", "135345.790000", "135347.280000", "135348.770000", "135350.260000", "135351.750000", "135353.240000", "135354.730000", "135356.220000", "135357.710000", "135359.200000", "135400.690000", "135402.180000", "135403.670000", "135405.160000", "135406.650000", "135408.140000", "135409.630000", "135411.120000", "135412.610000", "135414.100000", "135415.590000", "135417.080000", "135418.570000", "135420.060000", "135421.550000", "135423.040000", "135424.530000", "135426.020000", "135427.510000", "135429.000000", "135430.490000", "135431.980000", "135433.470000", "135434.960000", "135436.450000", "135437.940000", "135439.430000", "135440.920000", "135442.410000", "135443.900000", "135445.390000", "135446.880000", "135448.370000", "135449.860000", "135451.350000", "135452.840000", "135454.330000", "135455.820000", "135457.310000", "135458.800000", "135500.290000", "135501.780000", "135503.270000", "135504.760000", "135506.250000", "135507.740000", "135509.230000", "135510.720000", "135512.210000", "135513.700000", "135515.190000", "135516.680000", "135518.170000", "135519.660000", "135521.150000", "135522.640000", "135524.130000", "135525.620000", "135527.110000", "135528.600000", "135530.090000", "135531.580000", "135533.070000", "135534.560000", "135536.050000", "135537.540000", "135539.030000", "135540.520000", "135542.010000", "135543.500000", "135544.990000", "135546.480000", "135547.970000", "135549.460000", "135550.950000", "135552.440000", "135553.930000", "135555.420000", "135556.910000", "135558.400000", "135559.890000", "135601.380000", "135602.870000", "135604.360000", "135605.850000", "135607.340000", "135608.830000", "135610.320000", "135611.810000", "135613.300000", "135614.790000", "135616.280000", "135617.770000", "135619.260000", "135620.750000", "135622.240000", "135623.730000", "135625.220000", "135626.710000", "135628.200000", "135629.690000", "135631.180000", "135632.670000", "135634.160000", "135635.650000", "135637.140000", "135638.630000", "135640.120000", "135641.610000", "135643.100000", "135644.590000", "135646.080000", "135647.570000", "135649.060000", "135650.550000", "135652.040000", "135653.530000", "135655.020000", "135656.510000", "135658.000000", "135659.490000", "135700.980000", "135702.470000", "135703.960000", "135705.450000", "135706.940000", "135708.430000", "135709.920000", "135711.410000", "135712.900000", "135714.390000", "135715.880000", "135717.370000", "135718.860000", "135720.350000", "135721.840000", "135723.330000", "135724.820000", "135726.310000", "135727.800000", "135729.290000", "135730.780000", "135732.270000", "135733.760000", "135735.250000", "135736.740000", "135738.230000", "135739.720000", "135741.210000", "135742.700000", "135744.190000", "135745.680000", "135747.170000", "135748.660000", "135750.150000", "135751.640000", "135753.130000", "135754.620000", "135756.110000", "135757.600000", "135759.090000", "135800.580000", "135802.070000", "135803.560000", "135805.050000", "135806.540000", "135808.030000", "135809.520000", "135811.010000", "135812.500000", "135813.990000", "135815.480000", "135816.970000", "135818.460000", "135819.950000", "135821.440000", "135822.930000"],
      "ContentTime": ["135506.986000", "135506.989000", "135506.993000", "135506.996000", "135507.000000", "135507.004000", "135507.007000", "135507.011000", "135507.014000", "135507.017000", "135507.020000", "135507.024000", "135507.027000", "135507.030000", "135507.034000", "135507.037000", "135507.040000", "135507.044000", "135507.047000", "135507.050000", "135507.054000", "135507.057000", "135507.060000", "135507.064000", "135507.067000", "135507.070000", "135507.074000", "135507.077000", "135507.080000", "135507.084000", "135507.088000", "135507.091000", "135526.942000", "135526.946000", "135526.949000", "135526.952000", "135526.956000", "135526.959000", "135526.963000", "135526.966000", "135526.969000", "135526.973000", "135526.976000", "135526.979000", "135526.983000", "135526.986000", "135526.990000", "135526.993000", "135526.996000", "135527.001000", "135527.004000", "135527.007000", "135546.941000", "135546.945000", "135546.948000", "135546.951000", "135546.955000", "135546.958000", "135546.961000", "135546.965000", "135546.968000", "135546.972000", "135546.975000", "135546.978000", "135546.982000", "135546.985000", "135546.988000", "135546.992000", "135546.995000", "135546.998000", "135547.003000", "135547.006000", "135547.010000", "135606.941000", "135606.945000", "135606.948000", "135606.951000", "135606.955000", "135606.958000", "135606.962000", "135606.965000", "135606.968000", "135606.971000", "135606.975000", "135606.978000", "135606.982000", "135606.985000", "135606.988000", "135606.992000", "135606.995000", "135606.998000", "135607.003000", "135607.006000", "135646.941000", "135646.945000", "135646.948000", "135646.967000", "135646.970000", "135646.974000", "135646.977000", "135646.980000", "135646.984000", "135646.987000", "135646.991000", "135646.994000", "135646.997000", "135647.002000", "135647.005000", "135647.009000", "135647.012000", "135647.015000", "135647.019000", "135647.022000", "135647.026000", "135647.029000", "135647.033000", "135647.036000", "135647.039000", "135647.042000", "135647.046000", "135647.049000", "135647.053000", "135647.056000", "135726.942000", "135726.946000", "135726.949000", "135726.953000", "135726.956000", "135726.959000", "135726.963000", "135726.966000", "135726.969000", "135726.973000", "135726.976000", "135726.980000", "135726.983000", "135726.986000", "135726.990000", "135726.993000", "135726.996000", "135727.001000", "135727.004000", "135727.007000", "135727.011000", "135727.014000", "135727.018000", "135727.021000", "135727.025000", "135727.028000", "135727.031000", "135806.941000", "135806.945000", "135806.948000", "135806.952000", "135806.955000", "135806.959000", "135806.962000", "135806.965000", "135806.969000", "135806.972000", "135806.975000", "135806.979000", "135806.982000", "135806.986000", "135806.989000", "135806.992000", "135806.996000", "135807.000000", "135807.003000", "135807.007000", "135807.010000", "135807.014000", "135807.017000", "135807.020000", "135807.024000", "135807.027000", "135807.030000", "135825.430000", "135825.433000", "135825.437000", "135825.440000", "135825.444000", "135825.447000", "135825.450000", "135825.454000", "135825.457000", "135825.460000", "135825.464000", "135825.467000", "135825.471000"],
      "InstanceCreationTime": ["135506.986000", "135506.989000", "135506.993000", "135506.996000", "135507.000000", "135507.004000", "135507.007000", "135507.011000", "135507.014000", "135507.017000", "135507.020000", "135507.024000", "135507.027000", "135507.030000", "135507.034000", "135507.037000", "135507.040000", "135507.044000", "135507.047000", "135507.050000", "135507.054000", "135507.057000", "135507.060000", "135507.064000", "135507.067000", "135507.070000", "135507.074000", "135507.077000", "135507.080000", "135507.084000", "135507.088000", "135507.091000", "135526.942000", "135526.946000", "135526.949000", "135526.952000", "135526.956000", "135526.959000", "135526.963000", "135526.966000", "135526.969000", "135526.973000", "135526.976000", "135526.979000", "135526.983000", "135526.986000", "135526.990000", "135526.993000", "135526.996000", "135527.001000", "135527.004000", "135527.007000", "135546.941000", "135546.945000", "135546.948000", "135546.951000", "135546.955000", "135546.958000", "135546.961000", "135546.965000", "135546.968000", "135546.972000", "135546.975000", "135546.978000", "135546.982000", "135546.985000", "135546.988000", "135546.992000", "135546.995000", "135546.998000", "135547.003000", "135547.006000", "135547.010000", "135606.941000", "135606.945000", "135606.948000", "135606.951000", "135606.955000", "135606.958000", "135606.962000", "135606.965000", "135606.968000", "135606.971000", "135606.975000", "135606.978000", "135606.982000", "135606.985000", "135606.988000", "135606.992000", "135606.995000", "135606.998000", "135607.003000", "135607.006000", "135646.941000", "135646.945000", "135646.948000", "135646.967000", "135646.970000", "135646.974000", "135646.977000", "135646.980000", "135646.984000", "135646.987000", "135646.991000", "135646.994000", "135646.997000", "135647.002000", "135647.005000", "135647.009000", "135647.012000", "135647.015000", "135647.019000", "135647.022000", "135647.026000", "135647.029000", "135647.033000", "135647.036000", "135647.039000", "135647.042000", "135647.046000", "135647.049000", "135647.053000", "135647.056000", "135726.942000", "135726.946000", "135726.949000", "135726.953000", "135726.956000", "135726.959000", "135726.963000", "135726.966000", "135726.969000", "135726.973000", "135726.976000", "135726.980000", "135726.983000", "135726.986000", "135726.990000", "135726.993000", "135726.996000", "135727.001000", "135727.004000", "135727.007000", "135727.011000", "135727.014000", "135727.018000", "135727.021000", "135727.025000", "135727.028000", "135727.031000", "135806.941000", "135806.945000", "135806.948000", "135806.952000", "135806.955000", "135806.959000", "135806.962000", "135806.965000", "135806.969000", "135806.972000", "135806.975000", "135806.979000", "135806.982000", "135806.986000", "135806.989000", "135806.992000", "135806.996000", "135807.000000", "135807.003000", "135807.007000", "135807.010000", "135807.014000", "135807.017000", "135807.020000", "135807.024000", "135807.027000", "135807.030000", "135825.430000", "135825.433000", "135825.437000", "135825.440000", "135825.444000", "135825.447000", "135825.450000", "135825.454000", "135825.457000", "135825.460000", "135825.464000", "135825.467000", "135825.471000"],
      "InstanceNumber": [1, 2, 3, 4, 5, 6, 7, 8, 9, 10, 11, 12, 13, 14, 15, 16, 17, 18, 19, 20, 21, 22, 23, 24, 25, 26, 27, 28, 29, 30, 31, 32, 33, 34, 35, 36, 37, 38, 39, 40, 41, 42, 43, 44, 45, 46, 47, 48, 49, 50, 51, 52, 53, 54, 55, 56, 57, 58, 59, 60, 61, 62, 63, 64, 65, 66, 67, 68, 69, 70, 71, 72, 73, 74, 75, 76, 77, 78, 79, 80, 81, 82, 83, 84, 85, 86, 87, 88, 89, 90, 91, 92, 93, 94, 95, 96, 97, 98, 99, 100, 101, 102, 103, 104, 105, 106, 107, 108, 109, 110, 111, 112, 113, 114, 115, 116, 117, 118, 119, 120, 121, 122, 123, 124, 125, 126, 127, 128, 129, 130, 131, 132, 133, 134, 135, 136, 137, 138, 139, 140, 141, 142, 143, 144, 145, 146, 147, 148, 149, 150, 151, 152, 153, 154, 155, 156, 157, 158, 159, 160, 161, 162, 163, 164, 165, 166, 167, 168, 169, 170, 171, 172, 173, 174, 175, 176, 177, 178, 179, 180, 181, 182, 183, 184, 185, 186, 187, 188, 189, 190],
      "LargestImagePixelValue": [40210, 39599, 39474, 39322, 38782, 38463, 38359, 38053, 38135, 38356, 37990, 37915, 38447, 38218, 38655, 38084, 37801, 38310, 38323, 38086, 38392, 37713, 38161, 38115, 38438, 38420, 38237, 38113, 38044, 38066, 38048, 37685, 37732, 38169, 38061, 37966, 38062, 38193, 38286, 38337, 38142, 38265, 38338, 38214, 38314, 38397, 38526, 38300, 38433, 38265, 38132, 38168, 38282, 38371, 38088, 38179, 38125, 37813, 38584, 38184, 38498, 38035, 37916, 38340, 38353, 37974, 38207, 38307, 38071, 38301, 38207, 37598, 38175, 38014, 37907, 38092, 38405, 38677, 37888, 38314, 38068, 38049, 37848, 37753, 38032, 37818, 38119, 37834, 37978, 37836, 37860, 38090, 38156, 37660, 37800, 37762, 38330, 38308, 37773, 38091, 37816, 38052, 37426, 37386, 36661, 37548, 36941, 37143, 37144, 37347, 38101, 37191, 37435, 36926, 37573, 36796, 36939, 37414, 37112, 37393, 36712, 37600, 37049, 36924, 36593, 37984, 37243, 37233, 37018, 36826, 37790, 36965, 37252, 36611, 37413, 36835, 37473, 37245, 37368, 37215, 37645, 37191, 37676, 37265, 36952, 37240, 37032, 37096, 37857, 37300, 37507, 36747, 37393, 36771, 37037, 37152, 37637, 36963, 37332, 37123, 37593, 36852, 37612, 36779, 37106, 36614, 36758, 36922, 36982, 36821, 36936, 36714, 36608, 37022, 37084, 36905, 36678, 36575, 37134, 37098, 36490, 36827, 36825, 37033, 36847, 37322, 36808, 36905, 36837, 36871],
      "WindowCenter": [10200.0, 10142.0, 10113.0, 10109.0, 10116.0, 10134.0, 10147.0, 10159.0, 10158.0, 10141.0, 10134.0, 10135.0, 10154.0, 10158.0, 10171.0, 10166.0, 10159.0, 10162.0, 10166.0, 10174.0, 10174.0, 10168.0, 10167.0, 10165.0, 10163.0, 10157.0, 10155.0, 10156.0, 10157.0, 10149.0, 10155.0, 10158.0, 10159.0, 10155.0, 10147.0, 10148.0, 10148.0, 10148.0, 10146.0, 10129.0, 10128.0, 10128.0, 10135.0, 10131.0, 10137.0, 10128.0, 10126.0, 10134.0, 10143.0, 10145.0, 10138.0, 10121.0, 10127.0, 10142.0, 10145.0, 10138.0, 10121.0, 10120.0, 10124.0, 10128.0, 10144.0, 10146.0, 10126.0, 10121.0, 10124.0, 10127.0, 10136.0, 10143.0, 10139.0, 10152.0, 10147.0, 10134.0, 10129.0, 10121.0, 10130.0, 10139.0, 10138.0, 10127.0, 10120.0, 10142.0, 10155.0, 10157.0, 10142.0, 10125.0, 10118.0, 10120.0, 10138.0, 10141.0, 10154.0, 10150.0, 10156.0, 10157.0, 10164.0, 10151.0, 10152.0, 10150.0, 10153.0, 10162.0, 10174.0, 10166.0, 10158.0, 10165.0, 10190.0, 10189.0, 10175.0, 10157.0, 10131.0, 10111.0, 10102.0, 10116.0, 10130.0, 10137.0, 10136.0, 10130.0, 10134.0, 10129.0, 10127.0, 10128.0, 10127.0, 10134.0, 10129.0, 10148.0, 10146.0, 10155.0, 10147.0, 10147.0, 10137.0, 10129.0, 10126.0, 10128.0, 10156.0, 10154.0, 10139.0, 10122.0, 10116.0, 10101.0, 10104.0, 10105.0, 10113.0, 10116.0, 10121.0, 10121.0, 10121.0, 10123.0, 10119.0, 10118.0, 10117.0, 10117.0, 10121.0, 10121.0, 10129.0, 10135.0, 10134.0, 10111.0, 10099.0, 10097.0, 10099.0, 10104.0, 10120.0, 10117.0, 10123.0, 10135.0, 10156.0, 10144.0, 10120.0, 10095.0, 10100.0, 10117.0, 10133.0, 10135.0, 10120.0, 10110.0, 10110.0, 10117.0, 10130.0, 10135.0, 10136.0, 10121.0, 10110.0, 10100.0, 10100.0, 10110.0, 10124.0, 10125.0, 10120.0, 10125.0, 10132.0, 10134.0, 10134.0, 10119.0],
      "WindowWidth": [21700.0, 21546.0, 21471.0, 21456.0, 21468.0, 21508.0, 21541.0, 21568.0, 21564.0, 21525.0, 21510.0, 21515.0, 21552.0, 21564.0, 21592.0, 21583.0, 21567.0, 21571.0, 21582.0, 21600.0, 21601.0, 21587.0, 21584.0, 21579.0, 21573.0, 21560.0, 21557.0, 21558.0, 21561.0, 21542.0, 21555.0, 21564.0, 21567.0, 21553.0, 21539.0, 21539.0, 21540.0, 21542.0, 21535.0, 21497.0, 21493.0, 21495.0, 21510.0, 21503.0, 21512.0, 21491.0, 21488.0, 21506.0, 21527.0, 21534.0, 21518.0, 21476.0, 21489.0, 21524.0, 21533.0, 21518.0, 21479.0, 21475.0, 21483.0, 21496.0, 21529.0, 21533.0, 21491.0, 21479.0, 21483.0, 21494.0, 21513.0, 21530.0, 21524.0, 21548.0, 21539.0, 21513.0, 21496.0, 21479.0, 21501.0, 21520.0, 21516.0, 21489.0, 21476.0, 21523.0, 21556.0, 21558.0, 21525.0, 21488.0, 21469.0, 21476.0, 21519.0, 21529.0, 21554.0, 21550.0, 21562.0, 21563.0, 21576.0, 21548.0, 21550.0, 21545.0, 21549.0, 21571.0, 21601.0, 21582.0, 21563.0, 21580.0, 21639.0, 21637.0, 21606.0, 21562.0, 21506.0, 21456.0, 21438.0, 21467.0, 21500.0, 21520.0, 21514.0, 21502.0, 21510.0, 21501.0, 21497.0, 21498.0, 21496.0, 21509.0, 21504.0, 21541.0, 21543.0, 21561.0, 21542.0, 21535.0, 21519.0, 21502.0, 21492.0, 21501.0, 21560.0, 21559.0, 21525.0, 21485.0, 21465.0, 21435.0, 21440.0, 21444.0, 21463.0, 21471.0, 21480.0, 21478.0, 21480.0, 21487.0, 21480.0, 21479.0, 21474.0, 21473.0, 21479.0, 21480.0, 21499.0, 21517.0, 21510.0, 21460.0, 21431.0, 21424.0, 21427.0, 21443.0, 21477.0, 21474.0, 21484.0, 21516.0, 21560.0, 21536.0, 21479.0, 21424.0, 21436.0, 21476.0, 21509.0, 21514.0, 21479.0, 21456.0, 21459.0, 21475.0, 21503.0, 21517.0, 21515.0, 21484.0, 21455.0, 21434.0, 21434.0, 21458.0, 21489.0, 21490.0, 21480.0, 21487.0, 21503.0, 21511.0, 21508.0, 21474.0]
    },
    "slices": {}
  }
}