{
  "AcquisitionMatrixPE": 104,
  "AcquisitionNumber": 1,
  "AcquisitionTime": "13:47:44.327500",
  "BandwidthPerPixelPhaseEncode": 17.17,
  "BaseResolution": 104,
  "BodyPartExamined": "BRAIN",
  "CoilString": "HC1-7;NC1_2",
  "ConsistencyInfo": "N4_VE11C_LATEST_20160120",
  "ConversionSoftware": "dcm2niix",
  "ConversionSoftwareVersion": "v1.0.20190902",
  "DerivedVendorReportedEchoSpacing": 0.000560011,
  "DeviceSerialNumber": "167006",
  "DwellTime": 2.1e-06,
  "EchoTime": 0.037,
  "EchoTrainLength": 104,
  "EffectiveEchoSpacing": 0.000560011,
  "FlipAngle": 52,
  "ImageComments": "Unaliased_MB4_PE3_LB",
  "ImageOrientationPatientDICOM": [0.99967, 0.00668759, 0.0248164, -3.74449e-08, 0.965555, -0.260199],
  "ImageType": [
    "ORIGINAL",
    "PRIMARY",
    "M",
    "MB",
    "ND",
    "MOSAIC"
],
  "ImagingFrequency": 123.259,
  "InPlanePhaseEncodingDirectionDICOM": "COL",
  "InstitutionAddress": "Chemin_Queen-Mary_4565_Montreal_District_CA_H3W_1W5",
  "InstitutionName": "IUGM",
  "InstitutionalDepartmentName": "Department",
  "MRAcquisitionType": "2D",
  "MagneticFieldStrength": 3,
  "Manufacturer": "Siemens",
  "ManufacturersModelName": "Prisma_fit",
  "Modality": "MR",
  "MultibandAccelerationFactor": 4,
  "PartialFourier": 1,
  "PatientPosition": "HFS",
  "PercentPhaseFOV": 100,
  "PhaseEncodingDirection": "j",
  "PhaseEncodingSteps": 104,
  "PhaseResolution": 1,
  "PixelBandwidth": 2290,
  "ProcedureStepDescription": "memory_things",
  "ProtocolName": "func_task-things_run-4",
  "PulseSequenceDetails": "%CustomerSeq%_cmrr_mbep2d_bold",
  "ReceiveCoilActiveElements": "HC1-7;NC1,2",
  "ReceiveCoilName": "HeadNeck_64",
  "ReconMatrixPE": 104,
  "RepetitionTime": 1.49,
  "SAR": 0.0521416,
  "ScanOptions": "FS",
  "ScanningSequence": "EP",
  "SequenceName": "epfid2d1_104",
  "SequenceVariant": "SK_SS",
  "SeriesDescription": "func_task-things_run-4",
  "SeriesNumber": 19,
  "ShimSetting": [639, -7199, -8758, 712, 28, 47, 37, -5],
  "SliceThickness": 2,
  "SliceTiming": [0, 0.7825, 0.0975, 0.88, 0.195, 0.98, 0.2925, 1.0775, 0.39, 1.175, 0.49, 1.2725, 0.5875, 1.37, 0.685, 0, 0.7825, 0.0975, 0.88, 0.195, 0.98, 0.2925, 1.0775, 0.39, 1.175, 0.49, 1.2725, 0.5875, 1.37, 0.685, 0, 0.7825, 0.0975, 0.88, 0.195, 0.98, 0.2925, 1.0775, 0.39, 1.175, 0.49, 1.2725, 0.5875, 1.37, 0.685, 0, 0.7825, 0.0975, 0.88, 0.195, 0.98, 0.2925, 1.0775, 0.39, 1.175, 0.49, 1.2725, 0.5875, 1.37, 0.685],
  "SoftwareVersions": "syngo_MR_E11",
  "SpacingBetweenSlices": 2,
  "StationName": "MRC35049",
  "TaskName": "things",
  "TotalReadoutTime": 0.0576811,
  "TxRefAmp": 238.486,
  "WipMemBlock": "d43ace6d-a3e9-4777-ac3d-1d0b92f5aab0||Sequence: R016 ve11c/master r/e634e98; Dec 19 2017 11:00:25 by eja",
  "dcmmeta_affine": [
    [-1.9993393421173096, -7.488981168535247e-08, 0.0514034740626812, 107.57239532470703],
    [-0.013375184498727322, 1.9311102628707886, -0.5202252864837646, -73.82735443115234],
    [0.04963286966085434, 0.5203971862792969, 1.9304722547531128, -55.59439468383789],
    [0.0, 0.0, 0.0, 1.0]
],
  "dcmmeta_reorient_transform": [
    [0.0, -1.0, 0.0, 103.0],
    [1.0, 0.0, 0.0, 0.0],
    [0.0, 0.0, 1.0, 0.0],
    [0.0, 0.0, 0.0, 1.0]
],
  "dcmmeta_shape": [104, 104, 60, 190],
  "dcmmeta_slice_dim": 2,
  "dcmmeta_version": 0.6,
  "global": {
    "const": {
      "AcquisitionMatrix": [104, 0, 0, 104],
      "AngioFlag": "N",
      "BitsAllocated": 16,
      "BitsStored": 16,
      "BodyPartExamined": "BRAIN",
      "Columns": 832,
      "EchoNumbers": 1,
      "EchoTime": 37.0,
      "EchoTrainLength": 104,
      "FlipAngle": 52.0,
      "HighBit": 15,
      "ImageOrientationPatient": [0.99966965578675, 0.00668759226853, 0.02481643424953, -3.7444906e-08, 0.96555511867049, -0.2601986026273],
      "ImagePositionPatient": [-835.33187104135, -832.86969587724, 169.36473563573],
      "ImageType": [
        "ORIGINAL",
        "PRIMARY",
        "M",
        "MB",
        "ND",
        "MOSAIC"
],
      "ImagedNucleus": "1H",
      "ImagingFrequency": 123.258948,
      "InPlanePhaseEncodingDirection": "COL",
      "MRAcquisitionType": "2D",
      "MagneticFieldStrength": 3.0,
      "Manufacturer": "SIEMENS",
      "ManufacturerModelName": "Prisma_fit",
      "Modality": "MR",
      "NumberOfAverages": 1.0,
      "NumberOfPhaseEncodingSteps": 104,
      "PercentPhaseFieldOfView": 100.0,
      "PercentSampling": 100.0,
      "PerformedProcedureStepStartTime": "130215.826000",
      "PhotometricInterpretation": "MONOCHROME2",
      "PixelBandwidth": 2290.0,
      "PixelRepresentation": 0,
      "PixelSpacing": [2.0, 2.0],
      "ProtocolName": "func_task-things_run-4",
      "RepetitionTime": 1490.0,
      "Rows": 832,
      "SAR": 0.05214164190123,
      "SamplesPerPixel": 1,
      "ScanOptions": "FS",
      "ScanningSequence": "EP",
      "SequenceName": "epfid2d1_104",
      "SequenceVariant": [
        "SK",
        "SS"
],
      "SeriesDescription": "func_task-things_run-4",
      "SeriesNumber": 19,
      "SeriesTime": "134911.620000",
      "SliceLocation": -31.693494630234,
      "SliceThickness": 2.0,
      "SmallestImagePixelValue": 0,
      "SoftwareVersions": "syngo MR E11",
      "SpacingBetweenSlices": 1.9999999901547,
      "SpecificCharacterSet": "ISO_IR 100",
      "StudyID": "1",
      "StudyTime": "130215.736000",
      "TransmitCoilName": "Body",
      "VariableFlipAngleFlag": "N",
      "WindowCenterWidthExplanation": "Algo1",
      "dBdt": 0.0},
    "slices": {}
  },
  "time": {
    "samples": {
      "AcquisitionNumber": [1, 2, 3, 4, 5, 6, 7, 8, 9, 10, 11, 12, 13, 14, 15, 16, 17, 18, 19, 20, 21, 22, 23, 24, 25, 26, 27, 28, 29, 30, 31, 32, 33, 34, 35, 36, 37, 38, 39, 40, 41, 42, 43, 44, 45, 46, 47, 48, 49, 50, 51, 52, 53, 54, 55, 56, 57, 58, 59, 60, 61, 62, 63, 64, 65, 66, 67, 68, 69, 70, 71, 72, 73, 74, 75, 76, 77, 78, 79, 80, 81, 82, 83, 84, 85, 86, 87, 88, 89, 90, 91, 92, 93, 94, 95, 96, 97, 98, 99, 100, 101, 102, 103, 104, 105, 106, 107, 108, 109, 110, 111, 112, 113, 114, 115, 116, 117, 118, 119, 120, 121, 122, 123, 124, 125, 126, 127, 128, 129, 130, 131, 132, 133, 134, 135, 136, 137, 138, 139, 140, 141, 142, 143, 144, 145, 146, 147, 148, 149, 150, 151, 152, 153, 154, 155, 156, 157, 158, 159, 160, 161, 162, 163, 164, 165, 166, 167, 168, 169, 170, 171, 172, 173, 174, 175, 176, 177, 178, 179, 180, 181, 182, 183, 184, 185, 186, 187, 188, 189, 190],
      "AcquisitionTime": ["134744.327500", "134745.817500", "134747.307500", "134748.797500", "134750.287500", "134751.777500", "134753.267500", "134754.757500", "134756.247500", "134757.737500", "134759.227500", "134800.717500", "134802.207500", "134803.697500", "134805.187500", "134806.677500", "134808.167500", "134809.657500", "134811.147500", "134812.637500", "134814.127500", "134815.617500", "134817.107500", "134818.597500", "134820.087500", "134821.577500", "134823.067500", "134824.557500", "134826.047500", "134827.537500", "134829.027500", "134830.517500", "134832.007500", "134833.497500", "134834.987500", "134836.477500", "134837.967500", "134839.457500", "134840.947500", "134842.437500", "134843.927500", "134845.417500", "134846.907500", "134848.397500", "134849.887500", "134851.377500", "134852.867500", "134854.357500", "134855.847500", "134857.337500", "134858.827500", "134900.317500", "134901.807500", "134903.297500", "134904.787500", "134906.277500", "134907.767500", "134909.257500", "134910.747500", "134912.237500", "134913.727500", "134915.217500", "134916.707500", "134918.197500", "134919.687500", "134921.177500", "134922.667500", "134924.157500", "134925.647500", "134927.137500", "134928.627500", "134930.117500", "134931.607500", "134933.097500", "134934.587500", "134936.077500", "134937.567500", "134939.057500", "134940.547500", "134942.037500", "134943.527500", "134945.017500", "134946.507500", "134947.997500", "134949.487500", "134950.977500", "134952.467500", "134953.957500", "134955.447500", "134956.937500", "134958.427500", "134959.917500", "135001.407500", "135002.897500", "135004.387500", "135005.877500", "135007.367500", "135008.857500", "135010.347500", "135011.837500", "135013.327500", "135014.817500", "135016.307500", "135017.797500", "135019.287500", "135020.777500", "135022.267500", "135023.757500", "135025.247500", "135026.737500", "135028.227500", "135029.717500", "135031.207500", "135032.697500", "135034.187500", "135035.677500", "135037.167500", "135038.657500", "135040.147500", "135041.637500", "135043.127500", "135044.617500", "135046.107500", "135047.597500", "135049.087500", "135050.577500", "135052.067500", "135053.557500", "135055.047500", "135056.537500", "135058.027500", "135059.517500", "135101.007500", "135102.497500", "135103.987500", "135105.477500", "135106.967500", "135108.457500", "135109.947500", "135111.437500", "135112.927500", "135114.417500", "135115.907500", "135117.397500", "135118.887500", "135120.377500", "135121.867500", "135123.357500", "135124.847500", "135126.337500", "135127.827500", "135129.317500", "135130.807500", "135132.297500", "135133.787500", "135135.277500", "135136.767500", "135138.257500", "135139.747500", "135141.237500", "135142.727500", "135144.217500", "135145.707500", "135147.197500", "135148.687500", "135150.177500", "135151.667500", "135153.157500", "135154.647500", "135156.137500", "135157.627500", "135159.117500", "135200.607500", "135202.097500", "135203.587500", "135205.077500", "135206.567500", "135208.057500", "135209.547500", "135211.037500", "135212.527500", "135214.017500", "135215.507500", "135216.997500", "135218.487500", "135219.977500", "135221.467500", "135222.957500", "135224.447500", "135225.937500"],
      "ContentTime": ["134911.624000", "134911.627000", "134911.631000", "134911.634000", "134911.637000", "134911.641000", "134911.644000", "134911.647000", "134911.651000", "134911.654000", "134911.657000", "134911.661000", "134911.664000", "134911.668000", "134911.671000", "134911.674000", "134911.677000", "134911.681000", "134911.684000", "134911.687000", "134911.691000", "134911.694000", "134911.697000", "134911.701000", "134911.704000", "134911.707000", "134911.711000", "134911.714000", "134911.717000", "134911.721000", "134911.724000", "134911.727000", "134931.563000", "134931.567000", "134931.570000", "134931.582000", "134931.585000", "134931.589000", "134931.592000", "134931.596000", "134931.599000", "134931.602000", "134931.605000", "134931.609000", "134931.612000", "134931.615000", "134931.619000", "134931.622000", "134931.625000", "134931.629000", "134931.632000", "134931.636000", "134931.639000", "134951.564000", "134951.568000", "134951.571000", "134951.575000", "134951.578000", "134951.581000", "134951.585000", "134951.588000", "134951.591000", "134951.595000", "134951.598000", "134951.602000", "134951.605000", "134951.608000", "134951.612000", "134951.615000", "134951.618000", "134951.622000", "134951.625000", "134951.628000", "135011.563000", "135011.567000", "135011.571000", "135011.574000", "135011.577000", "135011.581000", "135011.584000", "135011.587000", "135011.591000", "135011.594000", "135011.598000", "135011.601000", "135011.604000", "135011.608000", "135011.611000", "135011.614000", "135011.618000", "135011.621000", "135011.625000", "135011.628000", "135051.563000", "135051.567000", "135051.571000", "135051.583000", "135051.586000", "135051.590000", "135051.593000", "135051.597000", "135051.600000", "135051.603000", "135051.606000", "135051.610000", "135051.613000", "135051.617000", "135051.620000", "135051.623000", "135051.626000", "135051.630000", "135051.633000", "135051.637000", "135051.640000", "135051.643000", "135051.647000", "135051.650000", "135051.653000", "135051.657000", "135051.660000", "135051.663000", "135051.667000", "135051.670000", "135051.674000", "135051.677000", "135131.563000", "135131.567000", "135131.571000", "135131.574000", "135131.577000", "135131.581000", "135131.584000", "135131.587000", "135131.591000", "135131.594000", "135131.598000", "135131.601000", "135131.604000", "135131.608000", "135131.611000", "135131.614000", "135131.618000", "135131.621000", "135131.624000", "135131.628000", "135131.631000", "135131.635000", "135131.638000", "135131.641000", "135131.645000", "135131.648000", "135131.652000", "135211.564000", "135211.568000", "135211.571000", "135211.575000", "135211.578000", "135211.582000", "135211.585000", "135211.588000", "135211.592000", "135211.595000", "135211.598000", "135211.602000", "135211.606000", "135211.609000", "135211.612000", "135211.616000", "135211.620000", "135211.624000", "135211.629000", "135211.634000", "135211.638000", "135211.641000", "135211.645000", "135211.648000", "135211.651000", "135211.655000", "135228.066000", "135228.070000", "135228.073000", "135228.077000", "135228.081000", "135228.084000", "135228.088000", "135228.092000", "135228.096000", "135228.100000", "135228.103000", "135228.107000"],
      "InstanceCreationTime": ["134911.624000", "134911.627000", "134911.631000", "134911.634000", "134911.637000", "134911.641000", "134911.644000", "134911.647000", "134911.651000", "134911.654000", "134911.657000", "134911.661000", "134911.664000", "134911.668000", "134911.671000", "134911.674000", "134911.677000", "134911.681000", "134911.684000", "134911.687000", "134911.691000", "134911.694000", "134911.697000", "134911.701000", "134911.704000", "134911.707000", "134911.711000", "134911.714000", "134911.717000", "134911.721000", "134911.724000", "134911.727000", "134931.563000", "134931.567000", "134931.570000", "134931.582000", "134931.585000", "134931.589000", "134931.592000", "134931.596000", "134931.599000", "134931.602000", "134931.605000", "134931.609000", "134931.612000", "134931.615000", "134931.619000", "134931.622000", "134931.625000", "134931.629000", "134931.632000", "134931.636000", "134931.639000", "134951.564000", "134951.568000", "134951.571000", "134951.575000", "134951.578000", "134951.581000", "134951.585000", "134951.588000", "134951.591000", "134951.595000", "134951.598000", "134951.602000", "134951.605000", "134951.608000", "134951.612000", "134951.615000", "134951.618000", "134951.622000", "134951.625000", "134951.628000", "135011.563000", "135011.567000", "135011.571000", "135011.574000", "135011.577000", "135011.581000", "135011.584000", "135011.587000", "135011.591000", "135011.594000", "135011.598000", "135011.601000", "135011.604000", "135011.608000", "135011.611000", "135011.614000", "135011.618000", "135011.621000", "135011.625000", "135011.628000", "135051.563000", "135051.567000", "135051.571000", "135051.583000", "135051.586000", "135051.590000", "135051.593000", "135051.597000", "135051.600000", "135051.603000", "135051.606000", "135051.610000", "135051.613000", "135051.617000", "135051.620000", "135051.623000", "135051.626000", "135051.630000", "135051.633000", "135051.637000", "135051.640000", "135051.643000", "135051.647000", "135051.650000", "135051.653000", "135051.657000", "135051.660000", "135051.663000", "135051.667000", "135051.670000", "135051.674000", "135051.677000", "135131.563000", "135131.567000", "135131.571000", "135131.574000", "135131.577000", "135131.581000", "135131.584000", "135131.587000", "135131.591000", "135131.594000", "135131.598000", "135131.601000", "135131.604000", "135131.608000", "135131.611000", "135131.614000", "135131.618000", "135131.621000", "135131.624000", "135131.628000", "135131.631000", "135131.635000", "135131.638000", "135131.641000", "135131.645000", "135131.648000", "135131.652000", "135211.564000", "135211.568000", "135211.571000", "135211.575000", "135211.578000", "135211.582000", "135211.585000", "135211.588000", "135211.592000", "135211.595000", "135211.598000", "135211.602000", "135211.606000", "135211.609000", "135211.612000", "135211.616000", "135211.620000", "135211.624000", "135211.629000", "135211.634000", "135211.638000", "135211.641000", "135211.645000", "135211.648000", "135211.651000", "135211.655000", "135228.066000", "135228.070000", "135228.073000", "135228.077000", "135228.081000", "135228.084000", "135228.088000", "135228.092000", "135228.096000", "135228.100000", "135228.103000", "135228.107000"],
      "InstanceNumber": [1, 2, 3, 4, 5, 6, 7, 8, 9, 10, 11, 12, 13, 14, 15, 16, 17, 18, 19, 20, 21, 22, 23, 24, 25, 26, 27, 28, 29, 30, 31, 32, 33, 34, 35, 36, 37, 38, 39, 40, 41, 42, 43, 44, 45, 46, 47, 48, 49, 50, 51, 52, 53, 54, 55, 56, 57, 58, 59, 60, 61, 62, 63, 64, 65, 66, 67, 68, 69, 70, 71, 72, 73, 74, 75, 76, 77, 78, 79, 80, 81, 82, 83, 84, 85, 86, 87, 88, 89, 90, 91, 92, 93, 94, 95, 96, 97, 98, 99, 100, 101, 102, 103, 104, 105, 106, 107, 108, 109, 110, 111, 112, 113, 114, 115, 116, 117, 118, 119, 120, 121, 122, 123, 124, 125, 126, 127, 128, 129, 130, 131, 132, 133, 134, 135, 136, 137, 138, 139, 140, 141, 142, 143, 144, 145, 146, 147, 148, 149, 150, 151, 152, 153, 154, 155, 156, 157, 158, 159, 160, 161, 162, 163, 164, 165, 166, 167, 168, 169, 170, 171, 172, 173, 174, 175, 176, 177, 178, 179, 180, 181, 182, 183, 184, 185, 186, 187, 188, 189, 190],
      "LargestImagePixelValue": [41511, 39548, 38778, 38518, 38176, 37943, 37671, 38006, 37957, 37886, 38153, 38087, 38264, 37579, 38348, 37899, 37984, 37735, 37520, 37906, 38280, 38087, 37875, 37631, 37692, 38071, 38069, 37975, 37631, 38472, 38223, 38279, 37296, 37940, 37726, 37663, 37493, 38276, 37714, 38361, 37771, 38325, 38163, 37764, 38016, 38368, 37920, 37829, 38113, 38092, 38056, 37744, 37969, 37534, 37746, 37761, 38337, 37989, 38468, 37750, 38450, 38225, 38161, 38266, 38255, 38302, 38355, 37933, 37747, 37989, 38099, 38163, 38049, 38310, 38015, 37638, 38154, 37752, 38273, 37784, 37862, 37210, 37762, 37687, 37555, 38001, 38002, 37826, 37999, 37607, 38027, 38275, 37811, 37782, 38381, 37829, 38071, 38091, 37797, 37822, 37736, 37930, 38075, 38031, 37699, 38160, 37823, 37645, 37701, 37719, 38146, 38235, 38077, 37589, 37849, 38125, 37834, 38006, 37647, 37841, 37744, 37848, 38080, 37778, 38087, 38259, 37462, 37539, 37841, 37652, 37435, 37515, 38222, 37677, 37634, 37795, 37731, 37393, 37157, 37558, 37770, 37787, 37492, 37384, 37942, 37492, 38270, 37790, 38406, 37990, 38295, 37664, 37778, 38112, 37917, 37856, 37892, 38099, 38315, 38060, 37734, 38047, 37760, 37701, 37816, 37574, 37606, 37817, 38007, 37681, 38005, 37738, 37644, 37538, 37931, 37776, 38080, 38205, 37963, 37942, 37989, 37584, 37815, 37570, 37594, 37665, 38079, 37809, 37128, 37334],
      "WindowCenter": [10250.0, 10162.0, 10161.0, 10173.0, 10165.0, 10166.0, 10159.0, 10164.0, 10164.0, 10157.0, 10148.0, 10146.0, 10146.0, 10140.0, 10151.0, 10149.0, 10145.0, 10131.0, 10122.0, 10128.0, 10134.0, 10130.0, 10129.0, 10136.0, 10137.0, 10137.0, 10136.0, 10120.0, 10119.0, 10143.0, 10156.0, 10164.0, 10143.0, 10130.0, 10115.0, 10112.0, 10115.0, 10142.0, 10147.0, 10155.0, 10150.0, 10146.0, 10140.0, 10146.0, 10147.0, 10138.0, 10136.0, 10123.0, 10126.0, 10128.0, 10137.0, 10131.0, 10131.0, 10117.0, 10113.0, 10113.0, 10124.0, 10127.0, 10142.0, 10133.0, 10129.0, 10121.0, 10122.0, 10134.0, 10137.0, 10146.0, 10144.0, 10137.0, 10123.0, 10112.0, 10109.0, 10110.0, 10116.0, 10124.0, 10125.0, 10128.0, 10136.0, 10138.0, 10142.0, 10137.0, 10138.0, 10133.0, 10138.0, 10138.0, 10123.0, 10121.0, 10127.0, 10137.0, 10153.0, 10149.0, 10133.0, 10127.0, 10112.0, 10111.0, 10119.0, 10130.0, 10145.0, 10156.0, 10150.0, 10133.0, 10123.0, 10128.0, 10130.0, 10137.0, 10146.0, 10156.0, 10150.0, 10140.0, 10123.0, 10111.0, 10111.0, 10126.0, 10145.0, 10140.0, 10145.0, 10146.0, 10141.0, 10130.0, 10121.0, 10114.0, 10119.0, 10128.0, 10139.0, 10141.0, 10146.0, 10145.0, 10134.0, 10149.0, 10157.0, 10150.0, 10142.0, 10133.0, 10130.0, 10133.0, 10141.0, 10156.0, 10158.0, 10152.0, 10136.0, 10133.0, 10132.0, 10131.0, 10126.0, 10139.0, 10139.0, 10125.0, 10121.0, 10113.0, 10126.0, 10137.0, 10143.0, 10124.0, 10120.0, 10120.0, 10130.0, 10137.0, 10130.0, 10137.0, 10138.0, 10132.0, 10130.0, 10122.0, 10114.0, 10122.0, 10130.0, 10125.0, 10116.0, 10105.0, 10103.0, 10110.0, 10120.0, 10124.0, 10133.0, 10125.0, 10113.0, 10112.0, 10119.0, 10121.0, 10138.0, 10147.0, 10154.0, 10157.0, 10152.0, 10143.0, 10127.0, 10136.0, 10152.0, 10172.0, 10163.0, 10151.0],
      "WindowWidth": [21831.0, 21600.0, 21589.0, 21613.0, 21593.0, 21593.0, 21576.0, 21586.0, 21585.0, 21572.0, 21550.0, 21545.0, 21542.0, 21529.0, 21550.0, 21550.0, 21539.0, 21507.0, 21488.0, 21499.0, 21510.0, 21505.0, 21503.0, 21518.0, 21521.0, 21524.0, 21518.0, 21483.0, 21479.0, 21529.0, 21562.0, 21577.0, 21534.0, 21499.0, 21468.0, 21462.0, 21470.0, 21526.0, 21541.0, 21559.0, 21551.0, 21539.0, 21525.0, 21537.0, 21539.0, 21519.0, 21514.0, 21487.0, 21490.0, 21495.0, 21517.0, 21507.0, 21504.0, 21475.0, 21463.0, 21462.0, 21483.0, 21492.0, 21525.0, 21509.0, 21497.0, 21480.0, 21481.0, 21506.0, 21517.0, 21534.0, 21529.0, 21513.0, 21483.0, 21457.0, 21450.0, 21455.0, 21466.0, 21485.0, 21488.0, 21496.0, 21514.0, 21520.0, 21525.0, 21519.0, 21520.0, 21512.0, 21520.0, 21518.0, 21486.0, 21478.0, 21491.0, 21517.0, 21551.0, 21543.0, 21507.0, 21491.0, 21459.0, 21458.0, 21476.0, 21505.0, 21537.0, 21560.0, 21547.0, 21511.0, 21486.0, 21496.0, 21501.0, 21517.0, 21538.0, 21558.0, 21546.0, 21521.0, 21481.0, 21455.0, 21456.0, 21490.0, 21532.0, 21525.0, 21532.0, 21535.0, 21527.0, 21498.0, 21480.0, 21464.0, 21476.0, 21498.0, 21524.0, 21530.0, 21538.0, 21535.0, 21514.0, 21549.0, 21565.0, 21547.0, 21530.0, 21506.0, 21501.0, 21511.0, 21531.0, 21563.0, 21567.0, 21554.0, 21519.0, 21508.0, 21505.0, 21503.0, 21497.0, 21522.0, 21520.0, 21489.0, 21477.0, 21460.0, 21488.0, 21515.0, 21529.0, 21489.0, 21475.0, 21474.0, 21499.0, 21515.0, 21502.0, 21514.0, 21518.0, 21504.0, 21500.0, 21482.0, 21464.0, 21481.0, 21500.0, 21492.0, 21468.0, 21442.0, 21438.0, 21456.0, 21478.0, 21491.0, 21508.0, 21490.0, 21459.0, 21457.0, 21473.0, 21481.0, 21518.0, 21541.0, 21554.0, 21565.0, 21554.0, 21532.0, 21497.0, 21511.0, 21549.0, 21594.0, 21576.0, 21545.0]
    },
    "slices": {}
  }
}