{
  "AcquisitionMatrixPE": 104,
  "AcquisitionNumber": 1,
  "AcquisitionTime": "13:53:41.320000",
  "BandwidthPerPixelPhaseEncode": 17.17,
  "BaseResolution": 104,
  "BodyPartExamined": "BRAIN",
  "CoilString": "HC1-7;NC1_2",
  "ConsistencyInfo": "N4_VE11C_LATEST_20160120",
  "ConversionSoftware": "dcm2niix",
  "ConversionSoftwareVersion": "v1.0.20190902",
  "DerivedVendorReportedEchoSpacing": 0.000560011,
  "DeviceSerialNumber": "167006",
  "DwellTime": 2.1e-06,
  "EchoTime": 0.037,
  "EchoTrainLength": 104,
  "EffectiveEchoSpacing": 0.000560011,
  "FlipAngle": 52,
  "ImageComments": "Unaliased_MB4_PE3_LB",
  "ImageOrientationPatientDICOM": [0.99967, 0.00668759, 0.0248164, -3.74449e-08, 0.965555, -0.260199],
  "ImageType": [
    "ORIGINAL",
    "PRIMARY",
    "P",
    "MB",
    "ND",
    "MOSAIC"
],
  "ImagingFrequency": 123.259,
  "InPlanePhaseEncodingDirectionDICOM": "COL",
  "InstitutionAddress": "Chemin_Queen-Mary_4565_Montreal_District_CA_H3W_1W5",
  "InstitutionName": "IUGM",
  "InstitutionalDepartmentName": "Department",
  "MRAcquisitionType": "2D",
  "MagneticFieldStrength": 3,
  "Manufacturer": "Siemens",
  "ManufacturersModelName": "Prisma_fit",
  "Modality": "MR",
  "MultibandAccelerationFactor": 4,
  "PartialFourier": 1,
  "PatientPosition": "HFS",
  "PercentPhaseFOV": 100,
  "PhaseEncodingDirection": "j",
  "PhaseEncodingSteps": 104,
  "PhaseResolution": 1,
  "PixelBandwidth": 2290,
  "ProcedureStepDescription": "memory_things",
  "ProtocolName": "func_task-things_run-5",
  "PulseSequenceDetails": "%CustomerSeq%_cmrr_mbep2d_bold",
  "ReceiveCoilActiveElements": "HC1-7;NC1,2",
  "ReceiveCoilName": "HeadNeck_64",
  "ReconMatrixPE": 104,
  "RepetitionTime": 1.49,
  "SAR": 0.0521416,
  "ScanOptions": "FS",
  "ScanningSequence": "EP",
  "SequenceName": "epfid2d1_104",
  "SequenceVariant": "SK_SS",
  "SeriesDescription": "func_task-things_run-5",
  "SeriesNumber": 23,
  "ShimSetting": [639, -7199, -8758, 712, 28, 47, 37, -5],
  "SliceThickness": 2,
  "SliceTiming": [0, 0.785, 0.1, 0.8825, 0.1975, 0.98, 0.295, 1.08, 0.3925, 1.1775, 0.49, 1.275, 0.59, 1.3725, 0.6875, 0, 0.785, 0.1, 0.8825, 0.1975, 0.98, 0.295, 1.08, 0.3925, 1.1775, 0.49, 1.275, 0.59, 1.3725, 0.6875, 0, 0.785, 0.1, 0.8825, 0.1975, 0.98, 0.295, 1.08, 0.3925, 1.1775, 0.49, 1.275, 0.59, 1.3725, 0.6875, 0, 0.785, 0.1, 0.8825, 0.1975, 0.98, 0.295, 1.08, 0.3925, 1.1775, 0.49, 1.275, 0.59, 1.3725, 0.6875],
  "SoftwareVersions": "syngo_MR_E11",
  "SpacingBetweenSlices": 2,
  "StationName": "MRC35049",
  "TaskName": "things",
  "TotalReadoutTime": 0.0576811,
  "TxRefAmp": 238.486,
  "WipMemBlock": "415d4958-d450-4c7d-a87a-73969cd7efb0||Sequence: R016 ve11c/master r/e634e98; Dec 19 2017 11:00:25 by eja",
  "dcmmeta_affine": [
    [-1.9993393421173096, -7.488981168535247e-08, 0.0514034740626812, 107.57239532470703],
    [-0.013375184498727322, 1.9311102628707886, -0.5202252864837646, -73.82735443115234],
    [0.04963286966085434, 0.5203971862792969, 1.9304722547531128, -55.59439468383789],
    [0.0, 0.0, 0.0, 1.0]
],
  "dcmmeta_reorient_transform": [
    [0.0, -1.0, 0.0, 103.0],
    [1.0, 0.0, 0.0, 0.0],
    [0.0, 0.0, 1.0, 0.0],
    [0.0, 0.0, 0.0, 1.0]
],
  "dcmmeta_shape": [104, 104, 60, 190],
  "dcmmeta_slice_dim": 2,
  "dcmmeta_version": 0.6,
  "global": {
    "const": {
      "AcquisitionMatrix": [104, 0, 0, 104],
      "AngioFlag": "N",
      "BitsAllocated": 16,
      "BitsStored": 16,
      "BodyPartExamined": "BRAIN",
      "Columns": 832,
      "EchoNumbers": 1,
      "EchoTime": 37.0,
      "EchoTrainLength": 104,
      "FlipAngle": 52.0,
      "HighBit": 15,
      "ImageOrientationPatient": [0.99966965578675, 0.00668759226853, 0.02481643424953, -3.7444906e-08, 0.96555511867049, -0.2601986026273],
      "ImagePositionPatient": [-835.33187104135, -832.86969587724, 169.36473563573],
      "ImageType": [
        "ORIGINAL",
        "PRIMARY",
        "P",
        "MB",
        "ND",
        "MOSAIC"
],
      "ImagedNucleus": "1H",
      "ImagingFrequency": 123.25895,
      "InPlanePhaseEncodingDirection": "COL",
      "LargestImagePixelValue": 4095,
      "MRAcquisitionType": "2D",
      "MagneticFieldStrength": 3.0,
      "Manufacturer": "SIEMENS",
      "ManufacturerModelName": "Prisma_fit",
      "Modality": "MR",
      "NumberOfAverages": 1.0,
      "NumberOfPhaseEncodingSteps": 104,
      "PercentPhaseFieldOfView": 100.0,
      "PercentSampling": 100.0,
      "PerformedProcedureStepStartTime": "130215.826000",
      "PhotometricInterpretation": "MONOCHROME2",
      "PixelBandwidth": 2290.0,
      "PixelRepresentation": 0,
      "PixelSpacing": [2.0, 2.0],
      "ProtocolName": "func_task-things_run-5",
      "RepetitionTime": 1490.0,
      "RescaleIntercept": -4096.0,
      "RescaleSlope": 2.0,
      "RescaleType": "US",
      "Rows": 832,
      "SAR": 0.05214164190123,
      "SamplesPerPixel": 1,
      "ScanOptions": "FS",
      "ScanningSequence": "EP",
      "SequenceName": "epfid2d1_104",
      "SequenceVariant": [
        "SK",
        "SS"
],
      "SeriesDescription": "func_task-things_run-5",
      "SeriesNumber": 23,
      "SeriesTime": "135507.135000",
      "SliceLocation": -31.693494630234,
      "SliceThickness": 2.0,
      "SmallestImagePixelValue": 0,
      "SoftwareVersions": "syngo MR E11",
      "SpacingBetweenSlices": 1.9999999901547,
      "SpecificCharacterSet": "ISO_IR 100",
      "StudyID": "1",
      "StudyTime": "130215.736000",
      "TransmitCoilName": "Body",
      "VariableFlipAngleFlag": "N",
      "WindowCenterWidthExplanation": "Algo1",
      "dBdt": 0.0},
    "slices": {}
  },
  "time": {
    "samples": {
      "AcquisitionNumber": [1, 2, 3, 4, 5, 6, 7, 8, 9, 10, 11, 12, 13, 14, 15, 16, 17, 18, 19, 20, 21, 22, 23, 24, 25, 26, 27, 28, 29, 30, 31, 32, 33, 34, 35, 36, 37, 38, 39, 40, 41, 42, 43, 44, 45, 46, 47, 48, 49, 50, 51, 52, 53, 54, 55, 56, 57, 58, 59, 60, 61, 62, 63, 64, 65, 66, 67, 68, 69, 70, 71, 72, 73, 74, 75, 76, 77, 78, 79, 80, 81, 82, 83, 84, 85, 86, 87, 88, 89, 90, 91, 92, 93, 94, 95, 96, 97, 98, 99, 100, 101, 102, 103, 104, 105, 106, 107, 108, 109, 110, 111, 112, 113, 114, 115, 116, 117, 118, 119, 120, 121, 122, 123, 124, 125, 126, 127, 128, 129, 130, 131, 132, 133, 134, 135, 136, 137, 138, 139, 140, 141, 142, 143, 144, 145, 146, 147, 148, 149, 150, 151, 152, 153, 154, 155, 156, 157, 158, 159, 160, 161, 162, 163, 164, 165, 166, 167, 168, 169, 170, 171, 172, 173, 174, 175, 176, 177, 178, 179, 180, 181, 182, 183, 184, 185, 186, 187, 188, 189, 190],
      "AcquisitionTime": ["135341.320000", "135342.810000", "135344.300000", "135345.790000", "135347.280000", "135348.770000", "135350.260000", "135351.750000", "135353.240000", "135354.730000", "135356.220000", "135357.710000", "135359.200000", "135400.690000", "135402.180000", "135403.670000", "135405.160000", "135406.650000", "135408.140000", "135409.630000", "135411.120000", "135412.610000", "135414.100000", "135415.590000", "135417.080000", "135418.570000", "135420.060000", "135421.550000", "135423.040000", "135424.530000", "135426.020000", "135427.510000", "135429.000000", "135430.490000", "135431.980000", "135433.470000", "135434.960000", "135436.450000", "135437.940000", "135439.430000", "135440.920000", "135442.410000", "135443.900000", "135445.390000", "135446.880000", "135448.370000", "135449.860000", "135451.350000", "135452.840000", "135454.330000", "135455.820000", "135457.310000", "135458.800000", "135500.290000", "135501.780000", "135503.270000", "135504.760000", "135506.250000", "135507.740000", "135509.230000", "135510.720000", "135512.210000", "135513.700000", "135515.190000", "135516.680000", "135518.170000", "135519.660000", "135521.150000", "135522.640000", "135524.130000", "135525.620000", "135527.110000", "135528.600000", "135530.090000", "135531.580000", "135533.070000", "135534.560000", "135536.050000", "135537.540000", "135539.030000", "135540.520000", "135542.010000", "135543.500000", "135544.990000", "135546.480000", "135547.970000", "135549.460000", "135550.950000", "135552.440000", "135553.930000", "135555.420000", "135556.910000", "135558.400000", "135559.890000", "135601.380000", "135602.870000", "135604.360000", "135605.850000", "135607.340000", "135608.830000", "135610.320000", "135611.810000", "135613.300000", "135614.790000", "135616.280000", "135617.770000", "135619.260000", "135620.750000", "135622.240000", "135623.730000", "135625.220000", "135626.710000", "135628.200000", "135629.690000", "135631.180000", "135632.670000", "135634.160000", "135635.650000", "135637.140000", "135638.630000", "135640.120000", "135641.610000", "135643.100000", "135644.590000", "135646.080000", "135647.570000", "135649.060000", "135650.550000", "135652.040000", "135653.530000", "135655.020000", "135656.510000", "135658.000000", "135659.490000", "135700.980000", "135702.470000", "135703.960000", "135705.450000", "135706.940000", "135708.430000", "135709.920000", "135711.410000", "135712.900000", "135714.390000", "135715.880000", "135717.370000", "135718.860000", "135720.350000", "135721.840000", "135723.330000", "135724.820000", "135726.310000", "135727.800000", "135729.290000", "135730.780000", "135732.270000", "135733.760000", "135735.250000", "135736.740000", "135738.230000", "135739.720000", "135741.210000", "135742.700000", "135744.190000", "135745.680000", "135747.170000", "135748.660000", "135750.150000", "135751.640000", "135753.130000", "135754.620000", "135756.110000", "135757.600000", "135759.090000", "135800.580000", "135802.070000", "135803.560000", "135805.050000", "135806.540000", "135808.030000", "135809.520000", "135811.010000", "135812.500000", "135813.990000", "135815.480000", "135816.970000", "135818.460000", "135819.950000", "135821.440000", "135822.930000"],
      "ContentTime": ["135507.137000", "135507.146000", "135507.148000", "135507.151000", "135507.153000", "135507.156000", "135507.158000", "135507.161000", "135507.163000", "135507.166000", "135507.168000", "135507.171000", "135507.173000", "135507.176000", "135507.179000", "135507.181000", "135507.184000", "135507.186000", "135507.189000", "135507.191000", "135507.194000", "135507.196000", "135507.199000", "135507.201000", "135507.204000", "135507.206000", "135507.209000", "135507.211000", "135507.214000", "135507.216000", "135507.219000", "135507.221000", "135527.054000", "135527.057000", "135527.060000", "135527.062000", "135527.065000", "135527.067000", "135527.070000", "135527.072000", "135527.075000", "135527.077000", "135527.080000", "135527.082000", "135527.085000", "135527.087000", "135527.090000", "135527.092000", "135527.095000", "135527.097000", "135527.100000", "135527.102000", "135547.059000", "135547.062000", "135547.065000", "135547.067000", "135547.070000", "135547.072000", "135547.075000", "135547.078000", "135547.080000", "135547.083000", "135547.085000", "135547.088000", "135547.090000", "135547.093000", "135547.095000", "135547.098000", "135547.101000", "135547.103000", "135547.106000", "135547.108000", "135547.111000", "135607.047000", "135607.049000", "135607.052000", "135607.055000", "135607.057000", "135607.060000", "135607.062000", "135607.065000", "135607.067000", "135607.070000", "135607.072000", "135607.075000", "135607.077000", "135607.080000", "135607.082000", "135607.085000", "135607.087000", "135607.090000", "135607.092000", "135607.095000", "135647.146000", "135647.149000", "135647.151000", "135647.154000", "135647.156000", "135647.159000", "135647.161000", "135647.164000", "135647.167000", "135647.169000", "135647.172000", "135647.174000", "135647.177000", "135647.179000", "135647.182000", "135647.184000", "135647.187000", "135647.190000", "135647.192000", "135647.195000", "135647.197000", "135647.200000", "135647.203000", "135647.205000", "135647.208000", "135647.210000", "135647.213000", "135647.215000", "135647.218000", "135647.221000", "135727.097000", "135727.100000", "135727.103000", "135727.105000", "135727.108000", "135727.110000", "135727.113000", "135727.116000", "135727.118000", "135727.121000", "135727.123000", "135727.126000", "135727.128000", "135727.131000", "135727.133000", "135727.136000", "135727.139000", "135727.141000", "135727.144000", "135727.147000", "135727.149000", "135727.152000", "135727.154000", "135727.157000", "135727.160000", "135727.162000", "135727.165000", "135807.088000", "135807.090000", "135807.093000", "135807.095000", "135807.098000", "135807.101000", "135807.103000", "135807.106000", "135807.108000", "135807.111000", "135807.113000", "135807.116000", "135807.118000", "135807.121000", "135807.123000", "135807.126000", "135807.128000", "135807.131000", "135807.134000", "135807.136000", "135807.139000", "135807.149000", "135807.152000", "135807.154000", "135807.157000", "135807.159000", "135807.162000", "135825.523000", "135825.526000", "135825.528000", "135825.531000", "135825.533000", "135825.536000", "135825.539000", "135825.541000", "135825.544000", "135825.547000", "135825.549000", "135825.552000", "135825.554000"],
      "InstanceCreationTime": ["135507.137000", "135507.146000", "135507.148000", "135507.151000", "135507.153000", "135507.156000", "135507.158000", "135507.161000", "135507.163000", "135507.166000", "135507.168000", "135507.171000", "135507.173000", "135507.176000", "135507.179000", "135507.181000", "135507.184000", "135507.186000", "135507.189000", "135507.191000", "135507.194000", "135507.196000", "135507.199000", "135507.201000", "135507.204000", "135507.206000", "135507.209000", "135507.211000", "135507.214000", "135507.216000", "135507.219000", "135507.221000", "135527.054000", "135527.057000", "135527.060000", "135527.062000", "135527.065000", "135527.067000", "135527.070000", "135527.072000", "135527.075000", "135527.077000", "135527.080000", "135527.082000", "135527.085000", "135527.087000", "135527.090000", "135527.092000", "135527.095000", "135527.097000", "135527.100000", "135527.102000", "135547.059000", "135547.062000", "135547.065000", "135547.067000", "135547.070000", "135547.072000", "135547.075000", "135547.078000", "135547.080000", "135547.083000", "135547.085000", "135547.088000", "135547.090000", "135547.093000", "135547.095000", "135547.098000", "135547.101000", "135547.103000", "135547.106000", "135547.108000", "135547.111000", "135607.047000", "135607.049000", "135607.052000", "135607.055000", "135607.057000", "135607.060000", "135607.062000", "135607.065000", "135607.067000", "135607.070000", "135607.072000", "135607.075000", "135607.077000", "135607.080000", "135607.082000", "135607.085000", "135607.087000", "135607.090000", "135607.092000", "135607.095000", "135647.146000", "135647.149000", "135647.151000", "135647.154000", "135647.156000", "135647.159000", "135647.161000", "135647.164000", "135647.167000", "135647.169000", "135647.172000", "135647.174000", "135647.177000", "135647.179000", "135647.182000", "135647.184000", "135647.187000", "135647.190000", "135647.192000", "135647.195000", "135647.197000", "135647.200000", "135647.203000", "135647.205000", "135647.208000", "135647.210000", "135647.213000", "135647.215000", "135647.218000", "135647.221000", "135727.097000", "135727.100000", "135727.103000", "135727.105000", "135727.108000", "135727.110000", "135727.113000", "135727.116000", "135727.118000", "135727.121000", "135727.123000", "135727.126000", "135727.128000", "135727.131000", "135727.133000", "135727.136000", "135727.139000", "135727.141000", "135727.144000", "135727.147000", "135727.149000", "135727.152000", "135727.154000", "135727.157000", "135727.160000", "135727.162000", "135727.165000", "135807.088000", "135807.090000", "135807.093000", "135807.095000", "135807.098000", "135807.101000", "135807.103000", "135807.106000", "135807.108000", "135807.111000", "135807.113000", "135807.116000", "135807.118000", "135807.121000", "135807.123000", "135807.126000", "135807.128000", "135807.131000", "135807.134000", "135807.136000", "135807.139000", "135807.149000", "135807.152000", "135807.154000", "135807.157000", "135807.159000", "135807.162000", "135825.523000", "135825.526000", "135825.528000", "135825.531000", "135825.533000", "135825.536000", "135825.539000", "135825.541000", "135825.544000", "135825.547000", "135825.549000", "135825.552000", "135825.554000"],
      "InstanceNumber": [1, 2, 3, 4, 5, 6, 7, 8, 9, 10, 11, 12, 13, 14, 15, 16, 17, 18, 19, 20, 21, 22, 23, 24, 25, 26, 27, 28, 29, 30, 31, 32, 33, 34, 35, 36, 37, 38, 39, 40, 41, 42, 43, 44, 45, 46, 47, 48, 49, 50, 51, 52, 53, 54, 55, 56, 57, 58, 59, 60, 61, 62, 63, 64, 65, 66, 67, 68, 69, 70, 71, 72, 73, 74, 75, 76, 77, 78, 79, 80, 81, 82, 83, 84, 85, 86, 87, 88, 89, 90, 91, 92, 93, 94, 95, 96, 97, 98, 99, 100, 101, 102, 103, 104, 105, 106, 107, 108, 109, 110, 111, 112, 113, 114, 115, 116, 117, 118, 119, 120, 121, 122, 123, 124, 125, 126, 127, 128, 129, 130, 131, 132, 133, 134, 135, 136, 137, 138, 139, 140, 141, 142, 143, 144, 145, 146, 147, 148, 149, 150, 151, 152, 153, 154, 155, 156, 157, 158, 159, 160, 161, 162, 163, 164, 165, 166, 167, 168, 169, 170, 171, 172, 173, 174, 175, 176, 177, 178, 179, 180, 181, 182, 183, 184, 185, 186, 187, 188, 189, 190],
      "WindowCenter": [4848.0, 4850.0, 4852.0, 4850.0, 4824.0, 4850.0, 4848.0, 4852.0, 4852.0, 4848.0, 4848.0, 4850.0, 4850.0, 4828.0, 4848.0, 4852.0, 4826.0, 4850.0, 4850.0, 4850.0, 4852.0, 4850.0, 4848.0, 4850.0, 4850.0, 4850.0, 4854.0, 4826.0, 4850.0, 4852.0, 4850.0, 4826.0, 4852.0, 4852.0, 4850.0, 4852.0, 4852.0, 4850.0, 4852.0, 4850.0, 4828.0, 4852.0, 4850.0, 4852.0, 4852.0, 4852.0, 4854.0, 4852.0, 4830.0, 4850.0, 4828.0, 4852.0, 4850.0, 4826.0, 4826.0, 4828.0, 4852.0, 4850.0, 4850.0, 4854.0, 4848.0, 4852.0, 4850.0, 4850.0, 4826.0, 4850.0, 4854.0, 4848.0, 4854.0, 4850.0, 4850.0, 4850.0, 4850.0, 4850.0, 4828.0, 4848.0, 4850.0, 4850.0, 4826.0, 4850.0, 4848.0, 4850.0, 4850.0, 4848.0, 4852.0, 4850.0, 4826.0, 4848.0, 4852.0, 4850.0, 4852.0, 4852.0, 4854.0, 4850.0, 4850.0, 4850.0, 4850.0, 4850.0, 4850.0, 4852.0, 4852.0, 4848.0, 4852.0, 4850.0, 4848.0, 4852.0, 4850.0, 4848.0, 4848.0, 4850.0, 4850.0, 4850.0, 4854.0, 4850.0, 4852.0, 4848.0, 4850.0, 4852.0, 4852.0, 4852.0, 4852.0, 4850.0, 4850.0, 4852.0, 4848.0, 4852.0, 4854.0, 4852.0, 4850.0, 4848.0, 4848.0, 4850.0, 4852.0, 4850.0, 4850.0, 4848.0, 4828.0, 4850.0, 4852.0, 4828.0, 4850.0, 4850.0, 4850.0, 4850.0, 4852.0, 4850.0, 4848.0, 4852.0, 4852.0, 4848.0, 4852.0, 4852.0, 4846.0, 4852.0, 4854.0, 4850.0, 4850.0, 4850.0, 4850.0, 4854.0, 4826.0, 4852.0, 4848.0, 4850.0, 4850.0, 4830.0, 4830.0, 4850.0, 4854.0, 4848.0, 4828.0, 4852.0, 4848.0, 4848.0, 4850.0, 4826.0, 4830.0, 4850.0, 4854.0, 4850.0, 4852.0, 4848.0, 4852.0, 4826.0, 4850.0, 4852.0, 4852.0, 4850.0, 4850.0, 4850.0],
      "WindowWidth": [18610.0, 18612.0, 18616.0, 18616.0, 18584.0, 18616.0, 18614.0, 18618.0, 18618.0, 18616.0, 18614.0, 18612.0, 18612.0, 18580.0, 18616.0, 18616.0, 18582.0, 18610.0, 18612.0, 18614.0, 18620.0, 18612.0, 18614.0, 18616.0, 18610.0, 18616.0, 18616.0, 18582.0, 18616.0, 18618.0, 18616.0, 18580.0, 18618.0, 18618.0, 18614.0, 18616.0, 18614.0, 18612.0, 18618.0, 18614.0, 18578.0, 18612.0, 18618.0, 18614.0, 18614.0, 18610.0, 18620.0, 18616.0, 18584.0, 18614.0, 18584.0, 18614.0, 18614.0, 18584.0, 18578.0, 18586.0, 18616.0, 18612.0, 18614.0, 18616.0, 18610.0, 18616.0, 18610.0, 18612.0, 18580.0, 18616.0, 18618.0, 18610.0, 18614.0, 18614.0, 18616.0, 18616.0, 18612.0, 18614.0, 18580.0, 18612.0, 18614.0, 18612.0, 18582.0, 18616.0, 18612.0, 18614.0, 18616.0, 18616.0, 18618.0, 18616.0, 18584.0, 18610.0, 18614.0, 18610.0, 18614.0, 18616.0, 18622.0, 18612.0, 18620.0, 18620.0, 18614.0, 18612.0, 18614.0, 18614.0, 18616.0, 18612.0, 18616.0, 18614.0, 18614.0, 18616.0, 18612.0, 18616.0, 18616.0, 18614.0, 18610.0, 18614.0, 18618.0, 18610.0, 18610.0, 18616.0, 18614.0, 18618.0, 18618.0, 18616.0, 18614.0, 18610.0, 18614.0, 18612.0, 18614.0, 18614.0, 18616.0, 18608.0, 18608.0, 18614.0, 18610.0, 18606.0, 18618.0, 18610.0, 18614.0, 18616.0, 18586.0, 18616.0, 18614.0, 18584.0, 18614.0, 18614.0, 18616.0, 18614.0, 18612.0, 18612.0, 18616.0, 18614.0, 18614.0, 18614.0, 18614.0, 18616.0, 18608.0, 18614.0, 18616.0, 18610.0, 18618.0, 18610.0, 18610.0, 18614.0, 18584.0, 18614.0, 18616.0, 18616.0, 18612.0, 18582.0, 18582.0, 18616.0, 18616.0, 18612.0, 18586.0, 18612.0, 18612.0, 18612.0, 18610.0, 18584.0, 18582.0, 18610.0, 18616.0, 18612.0, 18616.0, 18614.0, 18620.0, 18586.0, 18612.0, 18614.0, 18616.0, 18614.0, 18614.0, 18612.0]
    },
    "slices": {}
  }
}