{
  "AcquisitionMatrixPE": 104,
  "AcquisitionNumber": 1,
  "AcquisitionTime": "13:34:55.132500",
  "BandwidthPerPixelPhaseEncode": 17.17,
  "BaseResolution": 104,
  "BodyPartExamined": "BRAIN",
  "CoilString": "HC1-7;NC1_2",
  "ConsistencyInfo": "N4_VE11C_LATEST_20160120",
  "ConversionSoftware": "dcm2niix",
  "ConversionSoftwareVersion": "v1.0.20190902",
  "DerivedVendorReportedEchoSpacing": 0.000560011,
  "DeviceSerialNumber": "167006",
  "DwellTime": 2.1e-06,
  "EchoTime": 0.037,
  "EchoTrainLength": 104,
  "EffectiveEchoSpacing": 0.000560011,
  "FlipAngle": 52,
  "ImageComments": "Unaliased_MB4_PE3_LB",
  "ImageOrientationPatientDICOM": [0.99967, 0.00668759, 0.0248164, -3.74449e-08, 0.965555, -0.260199],
  "ImageType": [
    "ORIGINAL",
    "PRIMARY",
    "P",
    "MB",
    "ND",
    "MOSAIC"
],
  "ImagingFrequency": 123.259,
  "InPlanePhaseEncodingDirectionDICOM": "COL",
  "InstitutionAddress": "Chemin_Queen-Mary_4565_Montreal_District_CA_H3W_1W5",
  "InstitutionName": "IUGM",
  "InstitutionalDepartmentName": "Department",
  "MRAcquisitionType": "2D",
  "MagneticFieldStrength": 3,
  "Manufacturer": "Siemens",
  "ManufacturersModelName": "Prisma_fit",
  "Modality": "MR",
  "MultibandAccelerationFactor": 4,
  "PartialFourier": 1,
  "PatientPosition": "HFS",
  "PercentPhaseFOV": 100,
  "PhaseEncodingDirection": "j",
  "PhaseEncodingSteps": 104,
  "PhaseResolution": 1,
  "PixelBandwidth": 2290,
  "ProcedureStepDescription": "memory_things",
  "ProtocolName": "func_task-things_run-2",
  "PulseSequenceDetails": "%CustomerSeq%_cmrr_mbep2d_bold",
  "ReceiveCoilActiveElements": "HC1-7;NC1,2",
  "ReceiveCoilName": "HeadNeck_64",
  "ReconMatrixPE": 104,
  "RepetitionTime": 1.49,
  "SAR": 0.0521416,
  "ScanOptions": "FS",
  "ScanningSequence": "EP",
  "SequenceName": "epfid2d1_104",
  "SequenceVariant": "SK_SS",
  "SeriesDescription": "func_task-things_run-2",
  "SeriesNumber": 14,
  "ShimSetting": [639, -7199, -8758, 712, 28, 47, 37, -5],
  "SliceThickness": 2,
  "SliceTiming": [0, 0.7825, 0.0975, 0.88, 0.195, 0.98, 0.2925, 1.0775, 0.39, 1.175, 0.49, 1.2725, 0.5875, 1.37, 0.685, 0, 0.7825, 0.0975, 0.88, 0.195, 0.98, 0.2925, 1.0775, 0.39, 1.175, 0.49, 1.2725, 0.5875, 1.37, 0.685, 0, 0.7825, 0.0975, 0.88, 0.195, 0.98, 0.2925, 1.0775, 0.39, 1.175, 0.49, 1.2725, 0.5875, 1.37, 0.685, 0, 0.7825, 0.0975, 0.88, 0.195, 0.98, 0.2925, 1.0775, 0.39, 1.175, 0.49, 1.2725, 0.5875, 1.37, 0.685],
  "SoftwareVersions": "syngo_MR_E11",
  "SpacingBetweenSlices": 2,
  "StationName": "MRC35049",
  "TaskName": "things",
  "TotalReadoutTime": 0.0576811,
  "TxRefAmp": 238.486,
  "WipMemBlock": "1fe30550-cbea-4ae6-933a-3f9a0924e6d3||Sequence: R016 ve11c/master r/e634e98; Dec 19 2017 11:00:25 by eja",
  "dcmmeta_affine": [
    [-1.9993393421173096, -7.488981168535247e-08, 0.0514034740626812, 107.57239532470703],
    [-0.013375184498727322, 1.9311102628707886, -0.5202252864837646, -73.82735443115234],
    [0.04963286966085434, 0.5203971862792969, 1.9304722547531128, -55.59439468383789],
    [0.0, 0.0, 0.0, 1.0]
],
  "dcmmeta_reorient_transform": [
    [0.0, -1.0, 0.0, 103.0],
    [1.0, 0.0, 0.0, 0.0],
    [0.0, 0.0, 1.0, 0.0],
    [0.0, 0.0, 0.0, 1.0]
],
  "dcmmeta_shape": [104, 104, 60, 190],
  "dcmmeta_slice_dim": 2,
  "dcmmeta_version": 0.6,
  "global": {
    "const": {
      "AcquisitionMatrix": [104, 0, 0, 104],
      "AngioFlag": "N",
      "BitsAllocated": 16,
      "BitsStored": 16,
      "BodyPartExamined": "BRAIN",
      "Columns": 832,
      "EchoNumbers": 1,
      "EchoTime": 37.0,
      "EchoTrainLength": 104,
      "FlipAngle": 52.0,
      "HighBit": 15,
      "ImageOrientationPatient": [0.99966965578675, 0.00668759226853, 0.02481643424953, -3.7444906e-08, 0.96555511867049, -0.2601986026273],
      "ImagePositionPatient": [-835.33187104135, -832.86969587724, 169.36473563573],
      "ImageType": [
        "ORIGINAL",
        "PRIMARY",
        "P",
        "MB",
        "ND",
        "MOSAIC"
],
      "ImagedNucleus": "1H",
      "ImagingFrequency": 123.258941,
      "InPlanePhaseEncodingDirection": "COL",
      "LargestImagePixelValue": 4095,
      "MRAcquisitionType": "2D",
      "MagneticFieldStrength": 3.0,
      "Manufacturer": "SIEMENS",
      "ManufacturerModelName": "Prisma_fit",
      "Modality": "MR",
      "NumberOfAverages": 1.0,
      "NumberOfPhaseEncodingSteps": 104,
      "PercentPhaseFieldOfView": 100.0,
      "PercentSampling": 100.0,
      "PerformedProcedureStepStartTime": "130215.826000",
      "PhotometricInterpretation": "MONOCHROME2",
      "PixelBandwidth": 2290.0,
      "PixelRepresentation": 0,
      "PixelSpacing": [2.0, 2.0],
      "ProtocolName": "func_task-things_run-2",
      "RepetitionTime": 1490.0,
      "RescaleIntercept": -4096.0,
      "RescaleSlope": 2.0,
      "RescaleType": "US",
      "Rows": 832,
      "SAR": 0.05214164190123,
      "SamplesPerPixel": 1,
      "ScanOptions": "FS",
      "ScanningSequence": "EP",
      "SequenceName": "epfid2d1_104",
      "SequenceVariant": [
        "SK",
        "SS"
],
      "SeriesDescription": "func_task-things_run-2",
      "SeriesNumber": 14,
      "SeriesTime": "133627.191000",
      "SliceLocation": -31.693494630234,
      "SliceThickness": 2.0,
      "SmallestImagePixelValue": 0,
      "SoftwareVersions": "syngo MR E11",
      "SpacingBetweenSlices": 1.9999999901547,
      "SpecificCharacterSet": "ISO_IR 100",
      "StudyID": "1",
      "StudyTime": "130215.736000",
      "TransmitCoilName": "Body",
      "VariableFlipAngleFlag": "N",
      "WindowCenterWidthExplanation": "Algo1",
      "dBdt": 0.0},
    "slices": {}
  },
  "time": {
    "samples": {
      "AcquisitionNumber": [1, 2, 3, 4, 5, 6, 7, 8, 9, 10, 11, 12, 13, 14, 15, 16, 17, 18, 19, 20, 21, 22, 23, 24, 25, 26, 27, 28, 29, 30, 31, 32, 33, 34, 35, 36, 37, 38, 39, 40, 41, 42, 43, 44, 45, 46, 47, 48, 49, 50, 51, 52, 53, 54, 55, 56, 57, 58, 59, 60, 61, 62, 63, 64, 65, 66, 67, 68, 69, 70, 71, 72, 73, 74, 75, 76, 77, 78, 79, 80, 81, 82, 83, 84, 85, 86, 87, 88, 89, 90, 91, 92, 93, 94, 95, 96, 97, 98, 99, 100, 101, 102, 103, 104, 105, 106, 107, 108, 109, 110, 111, 112, 113, 114, 115, 116, 117, 118, 119, 120, 121, 122, 123, 124, 125, 126, 127, 128, 129, 130, 131, 132, 133, 134, 135, 136, 137, 138, 139, 140, 141, 142, 143, 144, 145, 146, 147, 148, 149, 150, 151, 152, 153, 154, 155, 156, 157, 158, 159, 160, 161, 162, 163, 164, 165, 166, 167, 168, 169, 170, 171, 172, 173, 174, 175, 176, 177, 178, 179, 180, 181, 182, 183, 184, 185, 186, 187, 188, 189, 190],
      "AcquisitionTime": ["133455.132500", "133456.622500", "133458.112500", "133459.602500", "133501.092500", "133502.582500", "133504.072500", "133505.562500", "133507.052500", "133508.542500", "133510.032500", "133511.522500", "133513.012500", "133514.502500", "133515.992500", "133517.482500", "133518.972500", "133520.462500", "133521.952500", "133523.442500", "133524.932500", "133526.422500", "133527.912500", "133529.402500", "133530.892500", "133532.382500", "133533.872500", "133535.362500", "133536.852500", "133538.342500", "133539.832500", "133541.322500", "133542.812500", "133544.302500", "133545.792500", "133547.282500", "133548.772500", "133550.262500", "133551.752500", "133553.242500", "133554.732500", "133556.222500", "133557.712500", "133559.202500", "133600.692500", "133602.182500", "133603.672500", "133605.162500", "133606.652500", "133608.142500", "133609.632500", "133611.122500", "133612.612500", "133614.102500", "133615.592500", "133617.082500", "133618.572500", "133620.062500", "133621.552500", "133623.042500", "133624.532500", "133626.022500", "133627.512500", "133629.002500", "133630.492500", "133631.982500", "133633.472500", "133634.962500", "133636.452500", "133637.942500", "133639.432500", "133640.922500", "133642.412500", "133643.902500", "133645.392500", "133646.882500", "133648.372500", "133649.862500", "133651.352500", "133652.842500", "133654.332500", "133655.822500", "133657.312500", "133658.802500", "133700.292500", "133701.782500", "133703.272500", "133704.762500", "133706.252500", "133707.742500", "133709.232500", "133710.722500", "133712.212500", "133713.702500", "133715.192500", "133716.682500", "133718.172500", "133719.662500", "133721.152500", "133722.642500", "133724.132500", "133725.622500", "133727.112500", "133728.602500", "133730.092500", "133731.582500", "133733.072500", "133734.562500", "133736.052500", "133737.542500", "133739.032500", "133740.522500", "133742.012500", "133743.502500", "133744.992500", "133746.482500", "133747.972500", "133749.462500", "133750.952500", "133752.442500", "133753.932500", "133755.422500", "133756.912500", "133758.402500", "133759.892500", "133801.382500", "133802.872500", "133804.362500", "133805.852500", "133807.342500", "133808.832500", "133810.322500", "133811.812500", "133813.302500", "133814.792500", "133816.282500", "133817.772500", "133819.262500", "133820.752500", "133822.242500", "133823.732500", "133825.222500", "133826.712500", "133828.202500", "133829.692500", "133831.182500", "133832.672500", "133834.162500", "133835.652500", "133837.142500", "133838.632500", "133840.122500", "133841.612500", "133843.102500", "133844.592500", "133846.082500", "133847.572500", "133849.062500", "133850.552500", "133852.042500", "133853.532500", "133855.022500", "133856.512500", "133858.002500", "133859.492500", "133900.982500", "133902.472500", "133903.962500", "133905.452500", "133906.942500", "133908.432500", "133909.922500", "133911.412500", "133912.902500", "133914.392500", "133915.882500", "133917.372500", "133918.862500", "133920.352500", "133921.842500", "133923.332500", "133924.822500", "133926.312500", "133927.802500", "133929.292500", "133930.782500", "133932.272500", "133933.762500", "133935.252500", "133936.742500"],
      "ContentTime": ["133627.193000", "133627.200000", "133627.203000", "133627.205000", "133627.208000", "133627.210000", "133627.213000", "133627.215000", "133627.218000", "133627.221000", "133627.223000", "133627.226000", "133627.228000", "133627.231000", "133627.233000", "133627.236000", "133627.238000", "133627.241000", "133627.243000", "133627.246000", "133627.248000", "133627.251000", "133627.253000", "133627.256000", "133627.258000", "133627.261000", "133627.263000", "133627.266000", "133627.268000", "133627.271000", "133627.273000", "133627.276000", "133627.278000", "133627.281000", "133627.284000", "133627.286000", "133627.288000", "133627.291000", "133627.294000", "133647.053000", "133647.056000", "133647.058000", "133647.061000", "133647.063000", "133647.066000", "133647.068000", "133647.071000", "133647.073000", "133647.076000", "133647.079000", "133647.081000", "133647.084000", "133647.086000", "133647.089000", "133647.091000", "133647.094000", "133647.096000", "133647.099000", "133647.101000", "133707.046000", "133707.049000", "133707.051000", "133707.054000", "133707.056000", "133707.059000", "133707.062000", "133707.064000", "133707.067000", "133707.069000", "133707.072000", "133707.074000", "133707.077000", "133707.080000", "133707.082000", "133707.085000", "133707.087000", "133707.090000", "133707.092000", "133707.095000", "133727.051000", "133727.054000", "133727.056000", "133727.059000", "133727.062000", "133727.064000", "133727.067000", "133727.069000", "133727.072000", "133727.074000", "133727.077000", "133727.079000", "133727.082000", "133727.084000", "133727.087000", "133727.089000", "133727.092000", "133727.094000", "133727.097000", "133727.099000", "133727.102000", "133807.093000", "133807.095000", "133807.104000", "133807.106000", "133807.109000", "133807.111000", "133807.114000", "133807.116000", "133807.119000", "133807.122000", "133807.124000", "133807.127000", "133807.129000", "133807.132000", "133807.134000", "133807.137000", "133807.139000", "133807.142000", "133807.144000", "133807.147000", "133807.150000", "133807.152000", "133807.155000", "133807.157000", "133807.160000", "133807.162000", "133807.165000", "133847.079000", "133847.081000", "133847.084000", "133847.087000", "133847.090000", "133847.092000", "133847.095000", "133847.098000", "133847.100000", "133847.103000", "133847.106000", "133847.108000", "133847.111000", "133847.113000", "133847.116000", "133847.119000", "133847.121000", "133847.124000", "133847.126000", "133847.129000", "133847.131000", "133847.134000", "133847.137000", "133847.139000", "133847.142000", "133847.144000", "133847.147000", "133927.086000", "133927.089000", "133927.091000", "133927.093000", "133927.096000", "133927.099000", "133927.101000", "133927.104000", "133927.106000", "133927.109000", "133927.111000", "133927.114000", "133927.116000", "133927.119000", "133927.121000", "133927.124000", "133927.127000", "133927.129000", "133927.132000", "133927.134000", "133927.137000", "133927.139000", "133927.142000", "133927.144000", "133927.147000", "133927.150000", "133927.152000", "133939.452000", "133939.455000", "133939.458000", "133939.461000", "133939.473000", "133939.476000", "133939.478000", "133939.481000", "133939.484000"],
      "InstanceCreationTime": ["133627.193000", "133627.200000", "133627.203000", "133627.205000", "133627.208000", "133627.210000", "133627.213000", "133627.215000", "133627.218000", "133627.221000", "133627.223000", "133627.226000", "133627.228000", "133627.231000", "133627.233000", "133627.236000", "133627.238000", "133627.241000", "133627.243000", "133627.246000", "133627.248000", "133627.251000", "133627.253000", "133627.256000", "133627.258000", "133627.261000", "133627.263000", "133627.266000", "133627.268000", "133627.271000", "133627.273000", "133627.276000", "133627.278000", "133627.281000", "133627.284000", "133627.286000", "133627.288000", "133627.291000", "133627.294000", "133647.053000", "133647.056000", "133647.058000", "133647.061000", "133647.063000", "133647.066000", "133647.068000", "133647.071000", "133647.073000", "133647.076000", "133647.079000", "133647.081000", "133647.084000", "133647.086000", "133647.089000", "133647.091000", "133647.094000", "133647.096000", "133647.099000", "133647.101000", "133707.046000", "133707.049000", "133707.051000", "133707.054000", "133707.056000", "133707.059000", "133707.062000", "133707.064000", "133707.067000", "133707.069000", "133707.072000", "133707.074000", "133707.077000", "133707.080000", "133707.082000", "133707.085000", "133707.087000", "133707.090000", "133707.092000", "133707.095000", "133727.051000", "133727.054000", "133727.056000", "133727.059000", "133727.062000", "133727.064000", "133727.067000", "133727.069000", "133727.072000", "133727.074000", "133727.077000", "133727.079000", "133727.082000", "133727.084000", "133727.087000", "133727.089000", "133727.092000", "133727.094000", "133727.097000", "133727.099000", "133727.102000", "133807.093000", "133807.095000", "133807.104000", "133807.106000", "133807.109000", "133807.111000", "133807.114000", "133807.116000", "133807.119000", "133807.122000", "133807.124000", "133807.127000", "133807.129000", "133807.132000", "133807.134000", "133807.137000", "133807.139000", "133807.142000", "133807.144000", "133807.147000", "133807.150000", "133807.152000", "133807.155000", "133807.157000", "133807.160000", "133807.162000", "133807.165000", "133847.079000", "133847.081000", "133847.084000", "133847.087000", "133847.090000", "133847.092000", "133847.095000", "133847.098000", "133847.100000", "133847.103000", "133847.106000", "133847.108000", "133847.111000", "133847.113000", "133847.116000", "133847.119000", "133847.121000", "133847.124000", "133847.126000", "133847.129000", "133847.131000", "133847.134000", "133847.137000", "133847.139000", "133847.142000", "133847.144000", "133847.147000", "133927.086000", "133927.089000", "133927.091000", "133927.093000", "133927.096000", "133927.099000", "133927.101000", "133927.104000", "133927.106000", "133927.109000", "133927.111000", "133927.114000", "133927.116000", "133927.119000", "133927.121000", "133927.124000", "133927.127000", "133927.129000", "133927.132000", "133927.134000", "133927.137000", "133927.139000", "133927.142000", "133927.144000", "133927.147000", "133927.150000", "133927.152000", "133939.452000", "133939.455000", "133939.458000", "133939.461000", "133939.473000", "133939.476000", "133939.478000", "133939.481000", "133939.484000"],
      "InstanceNumber": [1, 2, 3, 4, 5, 6, 7, 8, 9, 10, 11, 12, 13, 14, 15, 16, 17, 18, 19, 20, 21, 22, 23, 24, 25, 26, 27, 28, 29, 30, 31, 32, 33, 34, 35, 36, 37, 38, 39, 40, 41, 42, 43, 44, 45, 46, 47, 48, 49, 50, 51, 52, 53, 54, 55, 56, 57, 58, 59, 60, 61, 62, 63, 64, 65, 66, 67, 68, 69, 70, 71, 72, 73, 74, 75, 76, 77, 78, 79, 80, 81, 82, 83, 84, 85, 86, 87, 88, 89, 90, 91, 92, 93, 94, 95, 96, 97, 98, 99, 100, 101, 102, 103, 104, 105, 106, 107, 108, 109, 110, 111, 112, 113, 114, 115, 116, 117, 118, 119, 120, 121, 122, 123, 124, 125, 126, 127, 128, 129, 130, 131, 132, 133, 134, 135, 136, 137, 138, 139, 140, 141, 142, 143, 144, 145, 146, 147, 148, 149, 150, 151, 152, 153, 154, 155, 156, 157, 158, 159, 160, 161, 162, 163, 164, 165, 166, 167, 168, 169, 170, 171, 172, 173, 174, 175, 176, 177, 178, 179, 180, 181, 182, 183, 184, 185, 186, 187, 188, 189, 190],
      "WindowCenter": [4854.0, 4854.0, 4852.0, 4854.0, 4854.0, 4852.0, 4854.0, 4858.0, 4856.0, 4854.0, 4854.0, 4854.0, 4852.0, 4856.0, 4852.0, 4854.0, 4852.0, 4854.0, 4852.0, 4856.0, 4852.0, 4854.0, 4854.0, 4852.0, 4856.0, 4854.0, 4854.0, 4850.0, 4854.0, 4852.0, 4854.0, 4850.0, 4850.0, 4854.0, 4850.0, 4854.0, 4850.0, 4856.0, 4852.0, 4856.0, 4858.0, 4854.0, 4854.0, 4852.0, 4852.0, 4856.0, 4854.0, 4854.0, 4852.0, 4850.0, 4854.0, 4856.0, 4856.0, 4854.0, 4854.0, 4852.0, 4856.0, 4856.0, 4854.0, 4854.0, 4852.0, 4856.0, 4854.0, 4854.0, 4854.0, 4852.0, 4856.0, 4854.0, 4856.0, 4856.0, 4854.0, 4854.0, 4856.0, 4854.0, 4854.0, 4852.0, 4854.0, 4858.0, 4860.0, 4854.0, 4856.0, 4854.0, 4852.0, 4852.0, 4854.0, 4852.0, 4856.0, 4854.0, 4854.0, 4854.0, 4856.0, 4852.0, 4854.0, 4852.0, 4854.0, 4854.0, 4856.0, 4856.0, 4854.0, 4854.0, 4856.0, 4858.0, 4854.0, 4856.0, 4854.0, 4854.0, 4856.0, 4852.0, 4850.0, 4852.0, 4854.0, 4854.0, 4854.0, 4852.0, 4854.0, 4856.0, 4852.0, 4854.0, 4852.0, 4856.0, 4856.0, 4852.0, 4852.0, 4854.0, 4856.0, 4852.0, 4854.0, 4852.0, 4856.0, 4852.0, 4854.0, 4856.0, 4854.0, 4852.0, 4856.0, 4852.0, 4852.0, 4852.0, 4854.0, 4854.0, 4852.0, 4852.0, 4852.0, 4856.0, 4852.0, 4852.0, 4854.0, 4854.0, 4852.0, 4852.0, 4850.0, 4852.0, 4854.0, 4850.0, 4852.0, 4852.0, 4852.0, 4856.0, 4852.0, 4848.0, 4852.0, 4854.0, 4854.0, 4854.0, 4852.0, 4854.0, 4852.0, 4854.0, 4854.0, 4856.0, 4854.0, 4856.0, 4854.0, 4852.0, 4852.0, 4856.0, 4854.0, 4856.0, 4854.0, 4850.0, 4854.0, 4854.0, 4858.0, 4856.0, 4852.0, 4854.0, 4854.0, 4852.0, 4854.0, 4854.0],
      "WindowWidth": [18616.0, 18614.0, 18618.0, 18614.0, 18618.0, 18610.0, 18618.0, 18612.0, 18616.0, 18616.0, 18616.0, 18614.0, 18616.0, 18616.0, 18610.0, 18618.0, 18620.0, 18614.0, 18612.0, 18614.0, 18614.0, 18614.0, 18614.0, 18610.0, 18614.0, 18614.0, 18608.0, 18614.0, 18618.0, 18616.0, 18614.0, 18610.0, 18614.0, 18616.0, 18616.0, 18612.0, 18616.0, 18614.0, 18616.0, 18614.0, 18618.0, 18614.0, 18616.0, 18612.0, 18612.0, 18616.0, 18614.0, 18616.0, 18614.0, 18616.0, 18616.0, 18616.0, 18618.0, 18612.0, 18616.0, 18614.0, 18620.0, 18618.0, 18618.0, 18618.0, 18614.0, 18620.0, 18618.0, 18622.0, 18610.0, 18618.0, 18618.0, 18612.0, 18620.0, 18612.0, 18618.0, 18618.0, 18618.0, 18612.0, 18616.0, 18616.0, 18616.0, 18622.0, 18622.0, 18612.0, 18616.0, 18618.0, 18612.0, 18612.0, 18616.0, 18616.0, 18620.0, 18614.0, 18618.0, 18610.0, 18614.0, 18616.0, 18616.0, 18608.0, 18614.0, 18614.0, 18612.0, 18620.0, 18616.0, 18616.0, 18616.0, 18618.0, 18614.0, 18620.0, 18616.0, 18616.0, 18620.0, 18614.0, 18612.0, 18610.0, 18616.0, 18616.0, 18616.0, 18614.0, 18614.0, 18618.0, 18612.0, 18620.0, 18610.0, 18618.0, 18616.0, 18614.0, 18620.0, 18618.0, 18612.0, 18616.0, 18614.0, 18616.0, 18616.0, 18616.0, 18614.0, 18624.0, 18612.0, 18616.0, 18612.0, 18616.0, 18616.0, 18616.0, 18614.0, 18616.0, 18612.0, 18610.0, 18612.0, 18614.0, 18614.0, 18616.0, 18618.0, 18618.0, 18614.0, 18616.0, 18614.0, 18614.0, 18612.0, 18612.0, 18616.0, 18616.0, 18614.0, 18614.0, 18612.0, 18612.0, 18614.0, 18616.0, 18616.0, 18616.0, 18616.0, 18614.0, 18614.0, 18614.0, 18618.0, 18612.0, 18612.0, 18616.0, 18612.0, 18616.0, 18620.0, 18618.0, 18616.0, 18616.0, 18614.0, 18618.0, 18618.0, 18612.0, 18614.0, 18624.0, 18610.0, 18616.0, 18614.0, 18612.0, 18618.0, 18614.0]
    },
    "slices": {}
  }
}