{
  "AcquisitionMatrixPE": 104,
  "AcquisitionNumber": 1,
  "AcquisitionTime": "13:34:55.132500",
  "BandwidthPerPixelPhaseEncode": 17.17,
  "BaseResolution": 104,
  "BodyPartExamined": "BRAIN",
  "CoilString": "HC1-7;NC1_2",
  "ConsistencyInfo": "N4_VE11C_LATEST_20160120",
  "ConversionSoftware": "dcm2niix",
  "ConversionSoftwareVersion": "v1.0.20190902",
  "DerivedVendorReportedEchoSpacing": 0.000560011,
  "DeviceSerialNumber": "167006",
  "DwellTime": 2.1e-06,
  "EchoTime": 0.037,
  "EchoTrainLength": 104,
  "EffectiveEchoSpacing": 0.000560011,
  "FlipAngle": 52,
  "ImageComments": "Unaliased_MB4_PE3_LB",
  "ImageOrientationPatientDICOM": [0.99967, 0.00668759, 0.0248164, -3.74449e-08, 0.965555, -0.260199],
  "ImageType": [
    "ORIGINAL",
    "PRIMARY",
    "M",
    "MB",
    "ND",
    "MOSAIC"
],
  "ImagingFrequency": 123.259,
  "InPlanePhaseEncodingDirectionDICOM": "COL",
  "InstitutionAddress": "Chemin_Queen-Mary_4565_Montreal_District_CA_H3W_1W5",
  "InstitutionName": "IUGM",
  "InstitutionalDepartmentName": "Department",
  "MRAcquisitionType": "2D",
  "MagneticFieldStrength": 3,
  "Manufacturer": "Siemens",
  "ManufacturersModelName": "Prisma_fit",
  "Modality": "MR",
  "MultibandAccelerationFactor": 4,
  "PartialFourier": 1,
  "PatientPosition": "HFS",
  "PercentPhaseFOV": 100,
  "PhaseEncodingDirection": "j",
  "PhaseEncodingSteps": 104,
  "PhaseResolution": 1,
  "PixelBandwidth": 2290,
  "ProcedureStepDescription": "memory_things",
  "ProtocolName": "func_task-things_run-2",
  "PulseSequenceDetails": "%CustomerSeq%_cmrr_mbep2d_bold",
  "ReceiveCoilActiveElements": "HC1-7;NC1,2",
  "ReceiveCoilName": "HeadNeck_64",
  "ReconMatrixPE": 104,
  "RepetitionTime": 1.49,
  "SAR": 0.0521416,
  "ScanOptions": "FS",
  "ScanningSequence": "EP",
  "SequenceName": "epfid2d1_104",
  "SequenceVariant": "SK_SS",
  "SeriesDescription": "func_task-things_run-2",
  "SeriesNumber": 13,
  "ShimSetting": [639, -7199, -8758, 712, 28, 47, 37, -5],
  "SliceThickness": 2,
  "SliceTiming": [0, 0.7825, 0.0975, 0.88, 0.195, 0.98, 0.2925, 1.0775, 0.39, 1.175, 0.49, 1.2725, 0.5875, 1.37, 0.685, 0, 0.7825, 0.0975, 0.88, 0.195, 0.98, 0.2925, 1.0775, 0.39, 1.175, 0.49, 1.2725, 0.5875, 1.37, 0.685, 0, 0.7825, 0.0975, 0.88, 0.195, 0.98, 0.2925, 1.0775, 0.39, 1.175, 0.49, 1.2725, 0.5875, 1.37, 0.685, 0, 0.7825, 0.0975, 0.88, 0.195, 0.98, 0.2925, 1.0775, 0.39, 1.175, 0.49, 1.2725, 0.5875, 1.37, 0.685],
  "SoftwareVersions": "syngo_MR_E11",
  "SpacingBetweenSlices": 2,
  "StationName": "MRC35049",
  "TaskName": "things",
  "TotalReadoutTime": 0.0576811,
  "TxRefAmp": 238.486,
  "WipMemBlock": "1fe30550-cbea-4ae6-933a-3f9a0924e6d3||Sequence: R016 ve11c/master r/e634e98; Dec 19 2017 11:00:25 by eja",
  "dcmmeta_affine": [
    [-1.9993393421173096, -7.488981168535247e-08, 0.0514034740626812, 107.57239532470703],
    [-0.013375184498727322, 1.9311102628707886, -0.5202252864837646, -73.82735443115234],
    [0.04963286966085434, 0.5203971862792969, 1.9304722547531128, -55.59439468383789],
    [0.0, 0.0, 0.0, 1.0]
],
  "dcmmeta_reorient_transform": [
    [0.0, -1.0, 0.0, 103.0],
    [1.0, 0.0, 0.0, 0.0],
    [0.0, 0.0, 1.0, 0.0],
    [0.0, 0.0, 0.0, 1.0]
],
  "dcmmeta_shape": [104, 104, 60, 190],
  "dcmmeta_slice_dim": 2,
  "dcmmeta_version": 0.6,
  "global": {
    "const": {
      "AcquisitionMatrix": [104, 0, 0, 104],
      "AngioFlag": "N",
      "BitsAllocated": 16,
      "BitsStored": 16,
      "BodyPartExamined": "BRAIN",
      "Columns": 832,
      "EchoNumbers": 1,
      "EchoTime": 37.0,
      "EchoTrainLength": 104,
      "FlipAngle": 52.0,
      "HighBit": 15,
      "ImageOrientationPatient": [0.99966965578675, 0.00668759226853, 0.02481643424953, -3.7444906e-08, 0.96555511867049, -0.2601986026273],
      "ImagePositionPatient": [-835.33187104135, -832.86969587724, 169.36473563573],
      "ImageType": [
        "ORIGINAL",
        "PRIMARY",
        "M",
        "MB",
        "ND",
        "MOSAIC"
],
      "ImagedNucleus": "1H",
      "ImagingFrequency": 123.258941,
      "InPlanePhaseEncodingDirection": "COL",
      "MRAcquisitionType": "2D",
      "MagneticFieldStrength": 3.0,
      "Manufacturer": "SIEMENS",
      "ManufacturerModelName": "Prisma_fit",
      "Modality": "MR",
      "NumberOfAverages": 1.0,
      "NumberOfPhaseEncodingSteps": 104,
      "PercentPhaseFieldOfView": 100.0,
      "PercentSampling": 100.0,
      "PerformedProcedureStepStartTime": "130215.826000",
      "PhotometricInterpretation": "MONOCHROME2",
      "PixelBandwidth": 2290.0,
      "PixelRepresentation": 0,
      "PixelSpacing": [2.0, 2.0],
      "ProtocolName": "func_task-things_run-2",
      "RepetitionTime": 1490.0,
      "Rows": 832,
      "SAR": 0.05214164190123,
      "SamplesPerPixel": 1,
      "ScanOptions": "FS",
      "ScanningSequence": "EP",
      "SequenceName": "epfid2d1_104",
      "SequenceVariant": [
        "SK",
        "SS"
],
      "SeriesDescription": "func_task-things_run-2",
      "SeriesNumber": 13,
      "SeriesTime": "133626.969000",
      "SliceLocation": -31.693494630234,
      "SliceThickness": 2.0,
      "SmallestImagePixelValue": 0,
      "SoftwareVersions": "syngo MR E11",
      "SpacingBetweenSlices": 1.9999999901547,
      "SpecificCharacterSet": "ISO_IR 100",
      "StudyID": "1",
      "StudyTime": "130215.736000",
      "TransmitCoilName": "Body",
      "VariableFlipAngleFlag": "N",
      "WindowCenterWidthExplanation": "Algo1",
      "dBdt": 0.0},
    "slices": {}
  },
  "time": {
    "samples": {
      "AcquisitionNumber": [1, 2, 3, 4, 5, 6, 7, 8, 9, 10, 11, 12, 13, 14, 15, 16, 17, 18, 19, 20, 21, 22, 23, 24, 25, 26, 27, 28, 29, 30, 31, 32, 33, 34, 35, 36, 37, 38, 39, 40, 41, 42, 43, 44, 45, 46, 47, 48, 49, 50, 51, 52, 53, 54, 55, 56, 57, 58, 59, 60, 61, 62, 63, 64, 65, 66, 67, 68, 69, 70, 71, 72, 73, 74, 75, 76, 77, 78, 79, 80, 81, 82, 83, 84, 85, 86, 87, 88, 89, 90, 91, 92, 93, 94, 95, 96, 97, 98, 99, 100, 101, 102, 103, 104, 105, 106, 107, 108, 109, 110, 111, 112, 113, 114, 115, 116, 117, 118, 119, 120, 121, 122, 123, 124, 125, 126, 127, 128, 129, 130, 131, 132, 133, 134, 135, 136, 137, 138, 139, 140, 141, 142, 143, 144, 145, 146, 147, 148, 149, 150, 151, 152, 153, 154, 155, 156, 157, 158, 159, 160, 161, 162, 163, 164, 165, 166, 167, 168, 169, 170, 171, 172, 173, 174, 175, 176, 177, 178, 179, 180, 181, 182, 183, 184, 185, 186, 187, 188, 189, 190],
      "AcquisitionTime": ["133455.132500", "133456.622500", "133458.112500", "133459.602500", "133501.092500", "133502.582500", "133504.072500", "133505.562500", "133507.052500", "133508.542500", "133510.032500", "133511.522500", "133513.012500", "133514.502500", "133515.992500", "133517.482500", "133518.972500", "133520.462500", "133521.952500", "133523.442500", "133524.932500", "133526.422500", "133527.912500", "133529.402500", "133530.892500", "133532.382500", "133533.872500", "133535.362500", "133536.852500", "133538.342500", "133539.832500", "133541.322500", "133542.812500", "133544.302500", "133545.792500", "133547.282500", "133548.772500", "133550.262500", "133551.752500", "133553.242500", "133554.732500", "133556.222500", "133557.712500", "133559.202500", "133600.692500", "133602.182500", "133603.672500", "133605.162500", "133606.652500", "133608.142500", "133609.632500", "133611.122500", "133612.612500", "133614.102500", "133615.592500", "133617.082500", "133618.572500", "133620.062500", "133621.552500", "133623.042500", "133624.532500", "133626.022500", "133627.512500", "133629.002500", "133630.492500", "133631.982500", "133633.472500", "133634.962500", "133636.452500", "133637.942500", "133639.432500", "133640.922500", "133642.412500", "133643.902500", "133645.392500", "133646.882500", "133648.372500", "133649.862500", "133651.352500", "133652.842500", "133654.332500", "133655.822500", "133657.312500", "133658.802500", "133700.292500", "133701.782500", "133703.272500", "133704.762500", "133706.252500", "133707.742500", "133709.232500", "133710.722500", "133712.212500", "133713.702500", "133715.192500", "133716.682500", "133718.172500", "133719.662500", "133721.152500", "133722.642500", "133724.132500", "133725.622500", "133727.112500", "133728.602500", "133730.092500", "133731.582500", "133733.072500", "133734.562500", "133736.052500", "133737.542500", "133739.032500", "133740.522500", "133742.012500", "133743.502500", "133744.992500", "133746.482500", "133747.972500", "133749.462500", "133750.952500", "133752.442500", "133753.932500", "133755.422500", "133756.912500", "133758.402500", "133759.892500", "133801.382500", "133802.872500", "133804.362500", "133805.852500", "133807.342500", "133808.832500", "133810.322500", "133811.812500", "133813.302500", "133814.792500", "133816.282500", "133817.772500", "133819.262500", "133820.752500", "133822.242500", "133823.732500", "133825.222500", "133826.712500", "133828.202500", "133829.692500", "133831.182500", "133832.672500", "133834.162500", "133835.652500", "133837.142500", "133838.632500", "133840.122500", "133841.612500", "133843.102500", "133844.592500", "133846.082500", "133847.572500", "133849.062500", "133850.552500", "133852.042500", "133853.532500", "133855.022500", "133856.512500", "133858.002500", "133859.492500", "133900.982500", "133902.472500", "133903.962500", "133905.452500", "133906.942500", "133908.432500", "133909.922500", "133911.412500", "133912.902500", "133914.392500", "133915.882500", "133917.372500", "133918.862500", "133920.352500", "133921.842500", "133923.332500", "133924.822500", "133926.312500", "133927.802500", "133929.292500", "133930.782500", "133932.272500", "133933.762500", "133935.252500", "133936.742500"],
      "ContentTime": ["133626.972000", "133626.976000", "133626.979000", "133626.983000", "133626.987000", "133626.990000", "133626.993000", "133626.997000", "133627.000000", "133627.003000", "133627.007000", "133627.010000", "133627.013000", "133627.034000", "133627.037000", "133627.041000", "133627.044000", "133627.052000", "133627.056000", "133627.059000", "133627.062000", "133627.066000", "133627.069000", "133627.072000", "133627.075000", "133627.079000", "133627.082000", "133627.106000", "133627.110000", "133627.113000", "133627.116000", "133627.120000", "133627.123000", "133627.126000", "133627.130000", "133627.133000", "133627.136000", "133627.140000", "133627.143000", "133646.942000", "133646.946000", "133646.949000", "133646.953000", "133646.956000", "133646.959000", "133646.963000", "133646.970000", "133646.973000", "133646.977000", "133646.980000", "133646.984000", "133646.987000", "133646.991000", "133646.994000", "133646.997000", "133647.001000", "133647.005000", "133647.008000", "133647.012000", "133706.942000", "133706.946000", "133706.949000", "133706.952000", "133706.956000", "133706.959000", "133706.963000", "133706.966000", "133706.969000", "133706.973000", "133706.976000", "133706.980000", "133706.983000", "133706.987000", "133706.990000", "133706.993000", "133706.997000", "133707.001000", "133707.004000", "133707.008000", "133726.941000", "133726.945000", "133726.948000", "133726.952000", "133726.955000", "133726.959000", "133726.962000", "133726.965000", "133726.968000", "133726.972000", "133726.975000", "133726.979000", "133726.982000", "133726.985000", "133726.989000", "133726.992000", "133726.995000", "133727.000000", "133727.003000", "133727.006000", "133727.010000", "133806.942000", "133806.946000", "133806.950000", "133806.953000", "133806.957000", "133806.961000", "133806.964000", "133806.968000", "133806.971000", "133806.974000", "133806.978000", "133806.981000", "133806.985000", "133806.988000", "133806.991000", "133806.995000", "133806.998000", "133807.002000", "133807.017000", "133807.028000", "133807.031000", "133807.034000", "133807.038000", "133807.041000", "133807.044000", "133807.048000", "133807.051000", "133846.942000", "133846.947000", "133846.951000", "133846.955000", "133846.958000", "133846.962000", "133846.965000", "133846.968000", "133846.972000", "133846.975000", "133846.979000", "133846.982000", "133846.986000", "133846.989000", "133846.993000", "133846.996000", "133846.999000", "133847.003000", "133847.006000", "133847.010000", "133847.013000", "133847.016000", "133847.020000", "133847.023000", "133847.027000", "133847.030000", "133847.033000", "133926.942000", "133926.946000", "133926.949000", "133926.953000", "133926.956000", "133926.959000", "133926.963000", "133926.966000", "133926.970000", "133926.973000", "133926.976000", "133926.980000", "133926.983000", "133926.986000", "133926.990000", "133926.993000", "133926.996000", "133927.001000", "133927.004000", "133927.007000", "133927.011000", "133927.014000", "133927.017000", "133927.021000", "133927.024000", "133927.027000", "133927.031000", "133939.394000", "133939.398000", "133939.402000", "133939.405000", "133939.409000", "133939.413000", "133939.416000", "133939.420000", "133939.423000"],
      "InstanceCreationTime": ["133626.972000", "133626.976000", "133626.979000", "133626.983000", "133626.987000", "133626.990000", "133626.993000", "133626.997000", "133627.000000", "133627.003000", "133627.007000", "133627.010000", "133627.013000", "133627.034000", "133627.037000", "133627.041000", "133627.044000", "133627.052000", "133627.056000", "133627.059000", "133627.062000", "133627.066000", "133627.069000", "133627.072000", "133627.075000", "133627.079000", "133627.082000", "133627.106000", "133627.110000", "133627.113000", "133627.116000", "133627.120000", "133627.123000", "133627.126000", "133627.130000", "133627.133000", "133627.136000", "133627.140000", "133627.143000", "133646.942000", "133646.946000", "133646.949000", "133646.953000", "133646.956000", "133646.959000", "133646.963000", "133646.970000", "133646.973000", "133646.977000", "133646.980000", "133646.984000", "133646.987000", "133646.991000", "133646.994000", "133646.997000", "133647.001000", "133647.005000", "133647.008000", "133647.012000", "133706.942000", "133706.946000", "133706.949000", "133706.952000", "133706.956000", "133706.959000", "133706.963000", "133706.966000", "133706.969000", "133706.973000", "133706.976000", "133706.980000", "133706.983000", "133706.987000", "133706.990000", "133706.993000", "133706.997000", "133707.001000", "133707.004000", "133707.008000", "133726.941000", "133726.945000", "133726.948000", "133726.952000", "133726.955000", "133726.959000", "133726.962000", "133726.965000", "133726.968000", "133726.972000", "133726.975000", "133726.979000", "133726.982000", "133726.985000", "133726.989000", "133726.992000", "133726.995000", "133727.000000", "133727.003000", "133727.006000", "133727.010000", "133806.942000", "133806.946000", "133806.950000", "133806.953000", "133806.957000", "133806.961000", "133806.964000", "133806.968000", "133806.971000", "133806.974000", "133806.978000", "133806.981000", "133806.985000", "133806.988000", "133806.991000", "133806.995000", "133806.998000", "133807.002000", "133807.017000", "133807.028000", "133807.031000", "133807.034000", "133807.038000", "133807.041000", "133807.044000", "133807.048000", "133807.051000", "133846.942000", "133846.947000", "133846.951000", "133846.955000", "133846.958000", "133846.962000", "133846.965000", "133846.968000", "133846.972000", "133846.975000", "133846.979000", "133846.982000", "133846.986000", "133846.989000", "133846.993000", "133846.996000", "133846.999000", "133847.003000", "133847.006000", "133847.010000", "133847.013000", "133847.016000", "133847.020000", "133847.023000", "133847.027000", "133847.030000", "133847.033000", "133926.942000", "133926.946000", "133926.949000", "133926.953000", "133926.956000", "133926.959000", "133926.963000", "133926.966000", "133926.970000", "133926.973000", "133926.976000", "133926.980000", "133926.983000", "133926.986000", "133926.990000", "133926.993000", "133926.996000", "133927.001000", "133927.004000", "133927.007000", "133927.011000", "133927.014000", "133927.017000", "133927.021000", "133927.024000", "133927.027000", "133927.031000", "133939.394000", "133939.398000", "133939.402000", "133939.405000", "133939.409000", "133939.413000", "133939.416000", "133939.420000", "133939.423000"],
      "InstanceNumber": [1, 2, 3, 4, 5, 6, 7, 8, 9, 10, 11, 12, 13, 14, 15, 16, 17, 18, 19, 20, 21, 22, 23, 24, 25, 26, 27, 28, 29, 30, 31, 32, 33, 34, 35, 36, 37, 38, 39, 40, 41, 42, 43, 44, 45, 46, 47, 48, 49, 50, 51, 52, 53, 54, 55, 56, 57, 58, 59, 60, 61, 62, 63, 64, 65, 66, 67, 68, 69, 70, 71, 72, 73, 74, 75, 76, 77, 78, 79, 80, 81, 82, 83, 84, 85, 86, 87, 88, 89, 90, 91, 92, 93, 94, 95, 96, 97, 98, 99, 100, 101, 102, 103, 104, 105, 106, 107, 108, 109, 110, 111, 112, 113, 114, 115, 116, 117, 118, 119, 120, 121, 122, 123, 124, 125, 126, 127, 128, 129, 130, 131, 132, 133, 134, 135, 136, 137, 138, 139, 140, 141, 142, 143, 144, 145, 146, 147, 148, 149, 150, 151, 152, 153, 154, 155, 156, 157, 158, 159, 160, 161, 162, 163, 164, 165, 166, 167, 168, 169, 170, 171, 172, 173, 174, 175, 176, 177, 178, 179, 180, 181, 182, 183, 184, 185, 186, 187, 188, 189, 190],
      "LargestImagePixelValue": [41158, 40370, 39297, 38532, 38904, 38545, 38884, 38040, 38535, 38013, 37915, 38036, 37922, 37964, 38292, 38178, 38039, 38361, 38645, 38373, 38909, 38575, 38112, 38484, 38164, 38148, 38555, 38782, 38061, 38293, 38568, 38140, 37861, 38399, 38106, 37896, 38570, 37710, 37615, 37533, 37875, 38129, 37993, 37807, 38325, 38035, 38087, 38723, 38589, 38562, 38573, 38320, 38580, 38162, 38029, 38261, 38376, 38170, 38047, 38240, 38371, 38305, 38074, 38059, 38140, 37576, 37810, 38340, 37873, 37750, 38452, 38207, 37938, 37654, 38168, 38364, 37946, 37870, 38077, 38327, 37784, 38130, 38469, 38173, 37944, 38401, 38066, 37832, 37535, 38106, 38141, 37653, 37958, 38165, 38416, 38067, 38718, 38032, 38229, 37867, 38381, 37695, 38087, 38192, 38003, 37938, 38025, 37961, 38162, 38053, 38575, 38269, 37930, 37980, 38590, 38184, 38094, 37797, 38075, 38421, 38249, 38172, 38444, 38517, 38268, 37915, 38531, 37667, 38298, 37689, 37336, 38261, 37978, 37575, 37717, 37401, 37981, 37787, 37751, 37338, 37959, 37612, 37469, 37429, 38293, 37870, 37994, 37818, 38229, 38060, 38041, 37783, 37943, 37908, 38091, 37972, 37951, 37505, 37872, 37811, 38066, 37956, 38288, 38230, 37898, 38066, 37737, 37742, 37969, 38145, 37872, 37569, 38005, 38069, 37254, 38006, 37894, 37691, 37757, 37559, 37700, 38075, 38075, 37961, 37860, 37900, 37213, 37682, 37736, 37951],
      "WindowCenter": [10228.0, 10188.0, 10165.0, 10157.0, 10161.0, 10172.0, 10164.0, 10168.0, 10175.0, 10178.0, 10169.0, 10167.0, 10167.0, 10159.0, 10157.0, 10149.0, 10140.0, 10132.0, 10137.0, 10128.0, 10134.0, 10135.0, 10127.0, 10135.0, 10136.0, 10136.0, 10137.0, 10144.0, 10145.0, 10137.0, 10136.0, 10139.0, 10141.0, 10145.0, 10132.0, 10131.0, 10151.0, 10150.0, 10156.0, 10151.0, 10151.0, 10157.0, 10156.0, 10140.0, 10124.0, 10128.0, 10142.0, 10151.0, 10144.0, 10127.0, 10116.0, 10117.0, 10134.0, 10138.0, 10132.0, 10128.0, 10134.0, 10137.0, 10137.0, 10138.0, 10137.0, 10145.0, 10149.0, 10157.0, 10151.0, 10143.0, 10148.0, 10156.0, 10152.0, 10158.0, 10171.0, 10169.0, 10174.0, 10162.0, 10167.0, 10174.0, 10191.0, 10178.0, 10170.0, 10165.0, 10150.0, 10148.0, 10154.0, 10150.0, 10157.0, 10166.0, 10160.0, 10151.0, 10143.0, 10142.0, 10141.0, 10134.0, 10125.0, 10117.0, 10122.0, 10130.0, 10139.0, 10147.0, 10140.0, 10127.0, 10136.0, 10148.0, 10157.0, 10159.0, 10150.0, 10139.0, 10132.0, 10130.0, 10131.0, 10137.0, 10139.0, 10147.0, 10149.0, 10149.0, 10146.0, 10141.0, 10143.0, 10143.0, 10149.0, 10149.0, 10140.0, 10133.0, 10131.0, 10122.0, 10120.0, 10116.0, 10137.0, 10156.0, 10159.0, 10153.0, 10144.0, 10147.0, 10146.0, 10151.0, 10154.0, 10160.0, 10158.0, 10150.0, 10136.0, 10135.0, 10156.0, 10160.0, 10155.0, 10138.0, 10130.0, 10115.0, 10105.0, 10112.0, 10129.0, 10142.0, 10145.0, 10144.0, 10135.0, 10126.0, 10132.0, 10155.0, 10174.0, 10165.0, 10154.0, 10126.0, 10115.0, 10120.0, 10129.0, 10139.0, 10149.0, 10156.0, 10145.0, 10142.0, 10134.0, 10140.0, 10144.0, 10153.0, 10159.0, 10149.0, 10129.0, 10141.0, 10153.0, 10167.0, 10162.0, 10146.0, 10135.0, 10140.0, 10156.0, 10161.0, 10161.0, 10145.0, 10119.0, 10114.0, 10107.0, 10120.0],
      "WindowWidth": [21773.0, 21661.0, 21599.0, 21577.0, 21579.0, 21605.0, 21586.0, 21597.0, 21612.0, 21622.0, 21602.0, 21594.0, 21593.0, 21577.0, 21569.0, 21549.0, 21530.0, 21512.0, 21522.0, 21501.0, 21511.0, 21515.0, 21499.0, 21514.0, 21518.0, 21516.0, 21521.0, 21537.0, 21540.0, 21522.0, 21518.0, 21526.0, 21535.0, 21540.0, 21512.0, 21511.0, 21553.0, 21557.0, 21567.0, 21556.0, 21557.0, 21569.0, 21563.0, 21527.0, 21492.0, 21497.0, 21531.0, 21551.0, 21536.0, 21496.0, 21469.0, 21472.0, 21515.0, 21526.0, 21511.0, 21500.0, 21511.0, 21524.0, 21524.0, 21524.0, 21523.0, 21540.0, 21551.0, 21569.0, 21555.0, 21539.0, 21547.0, 21564.0, 21558.0, 21570.0, 21598.0, 21599.0, 21606.0, 21582.0, 21592.0, 21606.0, 21647.0, 21619.0, 21598.0, 21582.0, 21551.0, 21544.0, 21558.0, 21554.0, 21570.0, 21591.0, 21579.0, 21559.0, 21539.0, 21534.0, 21532.0, 21516.0, 21496.0, 21476.0, 21486.0, 21504.0, 21523.0, 21543.0, 21528.0, 21502.0, 21516.0, 21547.0, 21569.0, 21571.0, 21551.0, 21525.0, 21508.0, 21505.0, 21507.0, 21520.0, 21524.0, 21544.0, 21549.0, 21548.0, 21536.0, 21528.0, 21535.0, 21534.0, 21547.0, 21546.0, 21526.0, 21510.0, 21504.0, 21486.0, 21479.0, 21475.0, 21518.0, 21564.0, 21573.0, 21560.0, 21539.0, 21542.0, 21542.0, 21557.0, 21566.0, 21578.0, 21567.0, 21550.0, 21520.0, 21519.0, 21563.0, 21575.0, 21564.0, 21523.0, 21500.0, 21468.0, 21446.0, 21462.0, 21500.0, 21533.0, 21543.0, 21540.0, 21516.0, 21496.0, 21510.0, 21564.0, 21607.0, 21587.0, 21558.0, 21495.0, 21468.0, 21478.0, 21499.0, 21523.0, 21549.0, 21563.0, 21544.0, 21532.0, 21515.0, 21528.0, 21541.0, 21561.0, 21570.0, 21546.0, 21504.0, 21529.0, 21561.0, 21591.0, 21579.0, 21543.0, 21516.0, 21526.0, 21564.0, 21577.0, 21575.0, 21536.0, 21479.0, 21462.0, 21450.0, 21480.0]
    },
    "slices": {}
  }
}