{
  "AcquisitionMatrixPE": 104,
  "AcquisitionNumber": 1,
  "AcquisitionTime": "18:00:55.840000",
  "BandwidthPerPixelPhaseEncode": 17.17,
  "BaseResolution": 104,
  "BodyPartExamined": "BRAIN",
  "CoilCombinationMethod": "Sum of Squares",
  "ConsistencyInfo": "N4_VE11C_LATEST_20160120",
  "ConversionSoftware": "dcm2niix",
  "ConversionSoftwareVersion": "v1.0.20211006",
  "DerivedVendorReportedEchoSpacing": 0.000560011,
  "DeviceSerialNumber": "167006",
  "DwellTime": 2.1e-06,
  "EchoTime": 0.037,
  "EchoTime1": 0.037,
  "EchoTime2": 0.001,
  "EchoTrainLength": 104,
  "EffectiveEchoSpacing": 0.000560011,
  "FlipAngle": 52,
  "HeudiconvVersion": "0.10.0",
  "ImageComments": "Unaliased MB4/PE3/LB",
  "ImageOrientationPatientDICOM": [0.996829, 0.0703848, 0.037133, -0.0520671, 0.929728, -0.364548],
  "ImageOrientationText": "Tra>Cor(-21.2)>Sag(3.5)",
  "ImageType": [
    "ORIGINAL",
    "PRIMARY",
    "P",
    "MB",
    "ND",
    "MOSAIC",
    "PHASE"
],
  "ImagingFrequency": 123.259,
  "InPlanePhaseEncodingDirectionDICOM": "COL",
  "InstitutionAddress": "Chemin Queen-Mary 4565,Montreal,District,CA,H3W 1W5",
  "InstitutionName": "IUGM",
  "InstitutionalDepartmentName": "Department",
  "MRAcquisitionType": "2D",
  "MagneticFieldStrength": 3,
  "Manufacturer": "Siemens",
  "ManufacturersModelName": "Prisma_fit",
  "MatrixCoilMode": "SENSE",
  "Modality": "MR",
  "MultibandAccelerationFactor": 4,
  "PartialFourier": 1,
  "PatientPosition": "HFS",
  "PercentPhaseFOV": 100,
  "PercentSampling": 100,
  "PhaseEncodingDirection": "j",
  "PhaseEncodingSteps": 104,
  "PhaseResolution": 1,
  "PixelBandwidth": 2290,
  "ProcedureStepDescription": "memory^things",
  "ProtocolName": "func_task-things_run-4",
  "PulseSequenceDetails": "%CustomerSeq%\\cmrr_mbep2d_bold",
  "ReceiveCoilActiveElements": "HC1-7;NC1,2",
  "ReceiveCoilName": "HeadNeck_64",
  "ReconMatrixPE": 104,
  "RepetitionTime": 1.49,
  "SAR": 0.0522362,
  "ScanOptions": "FS",
  "ScanningSequence": "EP",
  "SequenceName": "epfid2d1_104",
  "SequenceVariant": "SK\\SS",
  "SeriesDescription": "func_task-things_run-4",
  "SeriesNumber": 28,
  "ShimSetting": [629, -7174, -8817, 628, 72, 71, -81, -3],
  "SliceThickness": 2,
  "SliceTiming": [0, 0.7825, 0.0975, 0.8825, 0.195, 0.98, 0.295, 1.0775, 0.3925, 1.175, 0.49, 1.2725, 0.5875, 1.3725, 0.685, 0, 0.7825, 0.0975, 0.8825, 0.195, 0.98, 0.295, 1.0775, 0.3925, 1.175, 0.49, 1.2725, 0.5875, 1.3725, 0.685, 0, 0.7825, 0.0975, 0.8825, 0.195, 0.98, 0.295, 1.0775, 0.3925, 1.175, 0.49, 1.2725, 0.5875, 1.3725, 0.685, 0, 0.7825, 0.0975, 0.8825, 0.195, 0.98, 0.295, 1.0775, 0.3925, 1.175, 0.49, 1.2725, 0.5875, 1.3725, 0.685],
  "SoftwareVersions": "syngo MR E11",
  "SpacingBetweenSlices": 2,
  "StationName": "MRC35049",
  "TaskName": "things",
  "TotalReadoutTime": 0.0576811,
  "TxRefAmp": 276.951,
  "WipMemBlock": "8bec0bca-b0a0-4844-91c7-e7a54705eb45||Sequence: R016 ve11c/master r/e634e98; Dec 19 2017 11:00:25 by eja",
  "dcmmeta_affine": [
    [-1.993657112121582, -0.1041342169046402, 0.12036435306072235, 108.84756469726562],
    [-0.1407696157693863, 1.8594557046890259, -0.7229164838790894, -51.91585922241211],
    [0.07426591962575912, 0.7290955781936646, 1.860888123512268, -62.78157424926758],
    [0.0, 0.0, 0.0, 1.0]
],
  "dcmmeta_reorient_transform": [
    [0.0, -1.0, 0.0, 103.0],
    [1.0, 0.0, 0.0, 0.0],
    [0.0, 0.0, 1.0, 0.0],
    [0.0, 0.0, 0.0, 1.0]
],
  "dcmmeta_shape": [104, 104, 60, 190],
  "dcmmeta_slice_dim": 2,
  "dcmmeta_version": 0.6,
  "global": {
    "const": {
      "AcquisitionMatrix": [104, 0, 0, 104],
      "AngioFlag": "N",
      "BitsAllocated": 16,
      "BitsStored": 16,
      "BodyPartExamined": "BRAIN",
      "Columns": 832,
      "EchoNumbers": 1,
      "EchoTime": 37.0,
      "EchoTrainLength": 104,
      "FlipAngle": 52.0,
      "HighBit": 15,
      "ImageOrientationPatient": [0.99682853193813, 0.07038480849189, 0.03713295904761, -0.0520671091078, 0.92972787398845, -0.3645477972476],
      "ImagePositionPatient": [-785.90805546231, -867.69011489127, 250.67327502108],
      "ImageType": [
        "ORIGINAL",
        "PRIMARY",
        "P",
        "MB",
        "ND",
        "MOSAIC"
],
      "ImagedNucleus": "1H",
      "ImagingFrequency": 123.25888,
      "InPlanePhaseEncodingDirection": "COL",
      "LargestImagePixelValue": 4095,
      "MRAcquisitionType": "2D",
      "MagneticFieldStrength": 3.0,
      "Manufacturer": "SIEMENS",
      "ManufacturerModelName": "Prisma_fit",
      "Modality": "MR",
      "NumberOfAverages": 1.0,
      "NumberOfPhaseEncodingSteps": 104,
      "PercentPhaseFieldOfView": 100.0,
      "PercentSampling": 100.0,
      "PerformedProcedureStepStartTime": "170711.187000",
      "PhotometricInterpretation": "MONOCHROME2",
      "PixelBandwidth": 2290.0,
      "PixelRepresentation": 0,
      "PixelSpacing": [2.0, 2.0],
      "ProtocolName": "func_task-things_run-4",
      "RepetitionTime": 1490.0,
      "RescaleIntercept": -4096.0,
      "RescaleSlope": 2.0,
      "RescaleType": "US",
      "Rows": 832,
      "SAR": 0.05223621312985,
      "SamplesPerPixel": 1,
      "ScanOptions": "FS",
      "ScanningSequence": "EP",
      "SequenceName": "epfid2d1_104",
      "SequenceVariant": [
        "SK",
        "SS"
],
      "SeriesDescription": "func_task-things_run-4",
      "SeriesNumber": 28,
      "SeriesTime": "180213.138000",
      "SliceLocation": -33.098640221895,
      "SliceThickness": 2.0,
      "SmallestImagePixelValue": 0,
      "SoftwareVersions": "syngo MR E11",
      "SpacingBetweenSlices": 2.0000000593077,
      "SpecificCharacterSet": "ISO_IR 100",
      "StudyID": "1",
      "StudyTime": "170711.072000",
      "TransmitCoilName": "Body",
      "VariableFlipAngleFlag": "N",
      "WindowCenterWidthExplanation": "Algo1",
      "dBdt": 0.0},
    "slices": {}
  },
  "time": {
    "samples": {
      "AcquisitionNumber": [1, 2, 3, 4, 5, 6, 7, 8, 9, 10, 11, 12, 13, 14, 15, 16, 17, 18, 19, 20, 21, 22, 23, 24, 25, 26, 27, 28, 29, 30, 31, 32, 33, 34, 35, 36, 37, 38, 39, 40, 41, 42, 43, 44, 45, 46, 47, 48, 49, 50, 51, 52, 53, 54, 55, 56, 57, 58, 59, 60, 61, 62, 63, 64, 65, 66, 67, 68, 69, 70, 71, 72, 73, 74, 75, 76, 77, 78, 79, 80, 81, 82, 83, 84, 85, 86, 87, 88, 89, 90, 91, 92, 93, 94, 95, 96, 97, 98, 99, 100, 101, 102, 103, 104, 105, 106, 107, 108, 109, 110, 111, 112, 113, 114, 115, 116, 117, 118, 119, 120, 121, 122, 123, 124, 125, 126, 127, 128, 129, 130, 131, 132, 133, 134, 135, 136, 137, 138, 139, 140, 141, 142, 143, 144, 145, 146, 147, 148, 149, 150, 151, 152, 153, 154, 155, 156, 157, 158, 159, 160, 161, 162, 163, 164, 165, 166, 167, 168, 169, 170, 171, 172, 173, 174, 175, 176, 177, 178, 179, 180, 181, 182, 183, 184, 185, 186, 187, 188, 189, 190],
      "AcquisitionTime": ["180055.840000", "180057.330000", "180058.820000", "180100.310000", "180101.800000", "180103.290000", "180104.780000", "180106.270000", "180107.760000", "180109.250000", "180110.740000", "180112.230000", "180113.720000", "180115.210000", "180116.700000", "180118.190000", "180119.680000", "180121.170000", "180122.660000", "180124.150000", "180125.640000", "180127.130000", "180128.620000", "180130.110000", "180131.600000", "180133.090000", "180134.580000", "180136.070000", "180137.560000", "180139.050000", "180140.540000", "180142.030000", "180143.520000", "180145.010000", "180146.500000", "180147.990000", "180149.480000", "180150.970000", "180152.460000", "180153.950000", "180155.440000", "180156.930000", "180158.420000", "180159.910000", "180201.400000", "180202.890000", "180204.380000", "180205.870000", "180207.360000", "180208.850000", "180210.340000", "180211.830000", "180213.320000", "180214.810000", "180216.300000", "180217.790000", "180219.280000", "180220.770000", "180222.260000", "180223.750000", "180225.240000", "180226.730000", "180228.220000", "180229.710000", "180231.200000", "180232.690000", "180234.180000", "180235.670000", "180237.160000", "180238.650000", "180240.140000", "180241.630000", "180243.120000", "180244.610000", "180246.100000", "180247.590000", "180249.080000", "180250.570000", "180252.060000", "180253.550000", "180255.040000", "180256.530000", "180258.020000", "180259.510000", "180301.000000", "180302.490000", "180303.980000", "180305.470000", "180306.960000", "180308.450000", "180309.940000", "180311.430000", "180312.920000", "180314.410000", "180315.900000", "180317.390000", "180318.880000", "180320.370000", "180321.860000", "180323.350000", "180324.840000", "180326.330000", "180327.820000", "180329.310000", "180330.800000", "180332.290000", "180333.780000", "180335.270000", "180336.760000", "180338.250000", "180339.740000", "180341.230000", "180342.720000", "180344.210000", "180345.700000", "180347.190000", "180348.680000", "180350.170000", "180351.660000", "180353.150000", "180354.640000", "180356.130000", "180357.620000", "180359.110000", "180400.600000", "180402.090000", "180403.580000", "180405.070000", "180406.560000", "180408.050000", "180409.540000", "180411.030000", "180412.520000", "180414.010000", "180415.500000", "180416.990000", "180418.480000", "180419.970000", "180421.460000", "180422.950000", "180424.440000", "180425.930000", "180427.420000", "180428.910000", "180430.400000", "180431.890000", "180433.380000", "180434.870000", "180436.360000", "180437.850000", "180439.340000", "180440.830000", "180442.320000", "180443.810000", "180445.300000", "180446.790000", "180448.280000", "180449.770000", "180451.260000", "180452.750000", "180454.240000", "180455.730000", "180457.220000", "180458.710000", "180500.200000", "180501.690000", "180503.180000", "180504.670000", "180506.160000", "180507.650000", "180509.140000", "180510.630000", "180512.120000", "180513.610000", "180515.100000", "180516.590000", "180518.080000", "180519.570000", "180521.060000", "180522.550000", "180524.040000", "180525.530000", "180527.020000", "180528.510000", "180530.000000", "180531.490000", "180532.980000", "180534.470000", "180535.960000", "180537.450000"],
      "ContentTime": ["180213.140000", "180213.160000", "180213.162000", "180213.165000", "180213.167000", "180213.170000", "180213.173000", "180213.175000", "180213.178000", "180213.180000", "180213.183000", "180213.185000", "180213.188000", "180213.190000", "180213.193000", "180213.195000", "180213.198000", "180213.209000", "180213.212000", "180213.214000", "180213.217000", "180213.219000", "180213.222000", "180233.074000", "180233.077000", "180233.080000", "180233.082000", "180233.085000", "180233.087000", "180233.090000", "180233.092000", "180233.095000", "180233.097000", "180233.100000", "180233.102000", "180233.105000", "180233.107000", "180233.110000", "180233.112000", "180233.115000", "180233.117000", "180233.120000", "180233.122000", "180253.102000", "180253.105000", "180253.107000", "180253.110000", "180253.112000", "180253.125000", "180253.127000", "180253.130000", "180253.140000", "180253.143000", "180253.145000", "180253.148000", "180253.150000", "180253.153000", "180253.155000", "180253.158000", "180253.160000", "180253.163000", "180253.166000", "180253.168000", "180313.091000", "180313.094000", "180313.096000", "180313.099000", "180313.102000", "180313.104000", "180313.107000", "180313.109000", "180313.112000", "180313.114000", "180313.117000", "180313.119000", "180313.122000", "180313.124000", "180313.127000", "180313.129000", "180313.132000", "180313.134000", "180313.137000", "180313.139000", "180313.142000", "180333.078000", "180333.081000", "180333.084000", "180333.086000", "180333.095000", "180333.097000", "180333.100000", "180333.102000", "180333.105000", "180333.107000", "180333.110000", "180333.120000", "180333.123000", "180333.125000", "180333.128000", "180333.130000", "180333.133000", "180333.135000", "180333.138000", "180333.140000", "180413.109000", "180413.111000", "180413.114000", "180413.116000", "180413.119000", "180413.122000", "180413.124000", "180413.127000", "180413.130000", "180413.132000", "180413.135000", "180413.137000", "180413.140000", "180413.142000", "180413.145000", "180413.147000", "180413.150000", "180413.153000", "180413.155000", "180413.158000", "180413.160000", "180413.171000", "180413.173000", "180413.176000", "180413.178000", "180413.181000", "180413.183000", "180453.088000", "180453.090000", "180453.093000", "180453.096000", "180453.098000", "180453.101000", "180453.103000", "180453.106000", "180453.108000", "180453.111000", "180453.113000", "180453.116000", "180453.118000", "180453.121000", "180453.124000", "180453.126000", "180453.129000", "180453.131000", "180453.134000", "180453.136000", "180453.139000", "180453.141000", "180453.144000", "180453.146000", "180453.149000", "180453.151000", "180453.154000", "180513.040000", "180513.044000", "180513.054000", "180513.057000", "180513.059000", "180513.062000", "180513.064000", "180513.067000", "180513.069000", "180513.072000", "180513.075000", "180513.077000", "180513.080000", "180540.574000", "180540.577000", "180540.580000", "180540.584000", "180540.587000", "180540.590000", "180540.592000", "180540.595000", "180540.597000", "180540.600000", "180540.604000", "180540.607000", "180540.610000", "180540.612000", "180540.616000", "180540.618000", "180540.621000", "180540.623000", "180540.626000"],
      "InstanceCreationTime": ["180213.140000", "180213.160000", "180213.162000", "180213.165000", "180213.167000", "180213.170000", "180213.173000", "180213.175000", "180213.178000", "180213.180000", "180213.183000", "180213.185000", "180213.188000", "180213.190000", "180213.193000", "180213.195000", "180213.198000", "180213.209000", "180213.212000", "180213.214000", "180213.217000", "180213.219000", "180213.222000", "180233.074000", "180233.077000", "180233.080000", "180233.082000", "180233.085000", "180233.087000", "180233.090000", "180233.092000", "180233.095000", "180233.097000", "180233.100000", "180233.102000", "180233.105000", "180233.107000", "180233.110000", "180233.112000", "180233.115000", "180233.117000", "180233.120000", "180233.122000", "180253.102000", "180253.105000", "180253.107000", "180253.110000", "180253.112000", "180253.125000", "180253.127000", "180253.130000", "180253.140000", "180253.143000", "180253.145000", "180253.148000", "180253.150000", "180253.153000", "180253.155000", "180253.158000", "180253.160000", "180253.163000", "180253.166000", "180253.168000", "180313.091000", "180313.094000", "180313.096000", "180313.099000", "180313.102000", "180313.104000", "180313.107000", "180313.109000", "180313.112000", "180313.114000", "180313.117000", "180313.119000", "180313.122000", "180313.124000", "180313.127000", "180313.129000", "180313.132000", "180313.134000", "180313.137000", "180313.139000", "180313.142000", "180333.078000", "180333.081000", "180333.084000", "180333.086000", "180333.095000", "180333.097000", "180333.100000", "180333.102000", "180333.105000", "180333.107000", "180333.110000", "180333.120000", "180333.123000", "180333.125000", "180333.128000", "180333.130000", "180333.133000", "180333.135000", "180333.138000", "180333.140000", "180413.109000", "180413.111000", "180413.114000", "180413.116000", "180413.119000", "180413.122000", "180413.124000", "180413.127000", "180413.130000", "180413.132000", "180413.135000", "180413.137000", "180413.140000", "180413.142000", "180413.145000", "180413.147000", "180413.150000", "180413.153000", "180413.155000", "180413.158000", "180413.160000", "180413.171000", "180413.173000", "180413.176000", "180413.178000", "180413.181000", "180413.183000", "180453.088000", "180453.090000", "180453.093000", "180453.096000", "180453.098000", "180453.101000", "180453.103000", "180453.106000", "180453.108000", "180453.111000", "180453.113000", "180453.116000", "180453.118000", "180453.121000", "180453.124000", "180453.126000", "180453.129000", "180453.131000", "180453.134000", "180453.136000", "180453.139000", "180453.141000", "180453.144000", "180453.146000", "180453.149000", "180453.151000", "180453.154000", "180513.040000", "180513.044000", "180513.054000", "180513.057000", "180513.059000", "180513.062000", "180513.064000", "180513.067000", "180513.069000", "180513.072000", "180513.075000", "180513.077000", "180513.080000", "180540.574000", "180540.577000", "180540.580000", "180540.584000", "180540.587000", "180540.590000", "180540.592000", "180540.595000", "180540.597000", "180540.600000", "180540.604000", "180540.607000", "180540.610000", "180540.612000", "180540.616000", "180540.618000", "180540.621000", "180540.623000", "180540.626000"],
      "InstanceNumber": [1, 2, 3, 4, 5, 6, 7, 8, 9, 10, 11, 12, 13, 14, 15, 16, 17, 18, 19, 20, 21, 22, 23, 24, 25, 26, 27, 28, 29, 30, 31, 32, 33, 34, 35, 36, 37, 38, 39, 40, 41, 42, 43, 44, 45, 46, 47, 48, 49, 50, 51, 52, 53, 54, 55, 56, 57, 58, 59, 60, 61, 62, 63, 64, 65, 66, 67, 68, 69, 70, 71, 72, 73, 74, 75, 76, 77, 78, 79, 80, 81, 82, 83, 84, 85, 86, 87, 88, 89, 90, 91, 92, 93, 94, 95, 96, 97, 98, 99, 100, 101, 102, 103, 104, 105, 106, 107, 108, 109, 110, 111, 112, 113, 114, 115, 116, 117, 118, 119, 120, 121, 122, 123, 124, 125, 126, 127, 128, 129, 130, 131, 132, 133, 134, 135, 136, 137, 138, 139, 140, 141, 142, 143, 144, 145, 146, 147, 148, 149, 150, 151, 152, 153, 154, 155, 156, 157, 158, 159, 160, 161, 162, 163, 164, 165, 166, 167, 168, 169, 170, 171, 172, 173, 174, 175, 176, 177, 178, 179, 180, 181, 182, 183, 184, 185, 186, 187, 188, 189, 190],
      "WindowCenter": [4814.0, 4788.0, 4792.0, 4816.0, 4818.0, 4820.0, 4816.0, 4820.0, 4822.0, 4794.0, 4788.0, 4790.0, 4788.0, 4788.0, 4792.0, 4822.0, 4824.0, 4818.0, 4818.0, 4818.0, 4818.0, 4818.0, 4814.0, 4784.0, 4786.0, 4786.0, 4818.0, 4824.0, 4822.0, 4818.0, 4818.0, 4824.0, 4820.0, 4792.0, 4790.0, 4790.0, 4816.0, 4814.0, 4818.0, 4792.0, 4824.0, 4824.0, 4820.0, 4792.0, 4790.0, 4788.0, 4788.0, 4792.0, 4824.0, 4822.0, 4818.0, 4820.0, 4816.0, 4822.0, 4794.0, 4792.0, 4794.0, 4792.0, 4794.0, 4818.0, 4818.0, 4822.0, 4820.0, 4792.0, 4792.0, 4818.0, 4824.0, 4822.0, 4818.0, 4790.0, 4786.0, 4790.0, 4818.0, 4818.0, 4820.0, 4828.0, 4822.0, 4820.0, 4826.0, 4822.0, 4818.0, 4784.0, 4788.0, 4818.0, 4824.0, 4820.0, 4790.0, 4816.0, 4790.0, 4792.0, 4794.0, 4818.0, 4820.0, 4824.0, 4824.0, 4820.0, 4794.0, 4814.0, 4850.0, 4826.0, 4816.0, 4788.0, 4784.0, 4786.0, 4788.0, 4794.0, 4820.0, 4848.0, 4854.0, 4824.0, 4792.0, 4792.0, 4790.0, 4796.0, 4822.0, 4818.0, 4816.0, 4794.0, 4788.0, 4790.0, 4818.0, 4848.0, 4826.0, 4822.0, 4820.0, 4848.0, 4854.0, 4824.0, 4792.0, 4784.0, 4782.0, 4780.0, 4788.0, 4794.0, 4822.0, 4826.0, 4854.0, 4854.0, 4848.0, 4794.0, 4788.0, 4784.0, 4784.0, 4788.0, 4822.0, 4850.0, 4826.0, 4828.0, 4850.0, 4852.0, 4848.0, 4788.0, 4784.0, 4786.0, 4786.0, 4790.0, 4822.0, 4830.0, 4854.0, 4854.0, 4848.0, 4818.0, 4796.0, 4792.0, 4784.0, 4790.0, 4820.0, 4824.0, 4820.0, 4820.0, 4820.0, 4826.0, 4824.0, 4818.0, 4820.0, 4794.0, 4818.0, 4796.0, 4794.0, 4820.0, 4822.0, 4848.0, 4852.0, 4822.0, 4794.0, 4792.0, 4788.0, 4790.0, 4820.0, 4850.0],
      "WindowWidth": [18592.0, 18564.0, 18564.0, 18596.0, 18596.0, 18600.0, 18598.0, 18604.0, 18604.0, 18564.0, 18560.0, 18562.0, 18562.0, 18566.0, 18568.0, 18602.0, 18602.0, 18600.0, 18598.0, 18598.0, 18598.0, 18596.0, 18594.0, 18556.0, 18560.0, 18564.0, 18596.0, 18602.0, 18602.0, 18602.0, 18602.0, 18604.0, 18604.0, 18564.0, 18562.0, 18562.0, 18596.0, 18596.0, 18596.0, 18566.0, 18604.0, 18600.0, 18592.0, 18558.0, 18562.0, 18564.0, 18562.0, 18566.0, 18600.0, 18602.0, 18596.0, 18598.0, 18594.0, 18600.0, 18568.0, 18564.0, 18560.0, 18562.0, 18566.0, 18596.0, 18598.0, 18598.0, 18600.0, 18564.0, 18568.0, 18598.0, 18600.0, 18600.0, 18596.0, 18564.0, 18558.0, 18560.0, 18598.0, 18600.0, 18600.0, 18602.0, 18596.0, 18598.0, 18602.0, 18602.0, 18594.0, 18554.0, 18562.0, 18596.0, 18602.0, 18596.0, 18562.0, 18600.0, 18560.0, 18568.0, 18568.0, 18596.0, 18604.0, 18602.0, 18602.0, 18602.0, 18568.0, 18594.0, 18638.0, 18600.0, 18592.0, 18564.0, 18556.0, 18564.0, 18564.0, 18568.0, 18598.0, 18636.0, 18636.0, 18598.0, 18554.0, 18558.0, 18554.0, 18560.0, 18600.0, 18590.0, 18592.0, 18566.0, 18560.0, 18558.0, 18592.0, 18632.0, 18596.0, 18596.0, 18594.0, 18634.0, 18640.0, 18600.0, 18560.0, 18554.0, 18560.0, 18566.0, 18564.0, 18562.0, 18598.0, 18598.0, 18636.0, 18640.0, 18632.0, 18564.0, 18560.0, 18566.0, 18566.0, 18562.0, 18598.0, 18632.0, 18598.0, 18596.0, 18638.0, 18642.0, 18632.0, 18558.0, 18564.0, 18566.0, 18568.0, 18564.0, 18596.0, 18602.0, 18632.0, 18640.0, 18632.0, 18594.0, 18560.0, 18564.0, 18554.0, 18562.0, 18596.0, 18602.0, 18594.0, 18592.0, 18596.0, 18598.0, 18592.0, 18590.0, 18598.0, 18566.0, 18598.0, 18566.0, 18562.0, 18596.0, 18598.0, 18630.0, 18632.0, 18600.0, 18564.0, 18560.0, 18560.0, 18560.0, 18594.0, 18636.0]
    },
    "slices": {}
  }
}