{
  "AcquisitionMatrixPE": 104,
  "AcquisitionNumber": 1,
  "AcquisitionTime": "18:13:24.740000",
  "BandwidthPerPixelPhaseEncode": 17.17,
  "BaseResolution": 104,
  "BodyPartExamined": "BRAIN",
  "CoilCombinationMethod": "Sum of Squares",
  "ConsistencyInfo": "N4_VE11C_LATEST_20160120",
  "ConversionSoftware": "dcm2niix",
  "ConversionSoftwareVersion": "v1.0.20211006",
  "DerivedVendorReportedEchoSpacing": 0.000560011,
  "DeviceSerialNumber": "167006",
  "DwellTime": 2.1e-06,
  "EchoTime": 0.037,
  "EchoTime1": 0.037,
  "EchoTime2": 0.001,
  "EchoTrainLength": 104,
  "EffectiveEchoSpacing": 0.000560011,
  "FlipAngle": 52,
  "HeudiconvVersion": "0.10.0",
  "ImageComments": "Unaliased MB4/PE3/LB",
  "ImageOrientationPatientDICOM": [0.996829, 0.0703848, 0.037133, -0.0520671, 0.929728, -0.364548],
  "ImageOrientationText": "Tra>Cor(-21.2)>Sag(3.5)",
  "ImageType": [
    "ORIGINAL",
    "PRIMARY",
    "P",
    "MB",
    "ND",
    "MOSAIC",
    "PHASE"
],
  "ImagingFrequency": 123.259,
  "InPlanePhaseEncodingDirectionDICOM": "COL",
  "InstitutionAddress": "Chemin Queen-Mary 4565,Montreal,District,CA,H3W 1W5",
  "InstitutionName": "IUGM",
  "InstitutionalDepartmentName": "Department",
  "MRAcquisitionType": "2D",
  "MagneticFieldStrength": 3,
  "Manufacturer": "Siemens",
  "ManufacturersModelName": "Prisma_fit",
  "MatrixCoilMode": "SENSE",
  "Modality": "MR",
  "MultibandAccelerationFactor": 4,
  "PartialFourier": 1,
  "PatientPosition": "HFS",
  "PercentPhaseFOV": 100,
  "PercentSampling": 100,
  "PhaseEncodingDirection": "j",
  "PhaseEncodingSteps": 104,
  "PhaseResolution": 1,
  "PixelBandwidth": 2290,
  "ProcedureStepDescription": "memory^things",
  "ProtocolName": "func_task-things_run-6",
  "PulseSequenceDetails": "%CustomerSeq%\\cmrr_mbep2d_bold",
  "ReceiveCoilActiveElements": "HC1-7;NC1,2",
  "ReceiveCoilName": "HeadNeck_64",
  "ReconMatrixPE": 104,
  "RepetitionTime": 1.49,
  "SAR": 0.0522362,
  "ScanOptions": "FS",
  "ScanningSequence": "EP",
  "SequenceName": "epfid2d1_104",
  "SequenceVariant": "SK\\SS",
  "SeriesDescription": "func_task-things_run-6",
  "SeriesNumber": 34,
  "ShimSetting": [629, -7174, -8817, 628, 72, 71, -81, -3],
  "SliceThickness": 2,
  "SliceTiming": [0, 0.7825, 0.0975, 0.88, 0.195, 0.9775, 0.2925, 1.0775, 0.39, 1.175, 0.49, 1.2725, 0.5875, 1.37, 0.685, 0, 0.7825, 0.0975, 0.88, 0.195, 0.9775, 0.2925, 1.0775, 0.39, 1.175, 0.49, 1.2725, 0.5875, 1.37, 0.685, 0, 0.7825, 0.0975, 0.88, 0.195, 0.9775, 0.2925, 1.0775, 0.39, 1.175, 0.49, 1.2725, 0.5875, 1.37, 0.685, 0, 0.7825, 0.0975, 0.88, 0.195, 0.9775, 0.2925, 1.0775, 0.39, 1.175, 0.49, 1.2725, 0.5875, 1.37, 0.685],
  "SoftwareVersions": "syngo MR E11",
  "SpacingBetweenSlices": 2,
  "StationName": "MRC35049",
  "TaskName": "things",
  "TotalReadoutTime": 0.0576811,
  "TxRefAmp": 276.951,
  "WipMemBlock": "3bf06737-e3a5-4425-a968-4c243c569efc||Sequence: R016 ve11c/master r/e634e98; Dec 19 2017 11:00:25 by eja",
  "dcmmeta_affine": [
    [-1.993657112121582, -0.1041342169046402, 0.12036435306072235, 108.84756469726562],
    [-0.1407696157693863, 1.8594557046890259, -0.7229164838790894, -51.91585922241211],
    [0.07426591962575912, 0.7290955781936646, 1.860888123512268, -62.78157424926758],
    [0.0, 0.0, 0.0, 1.0]
],
  "dcmmeta_reorient_transform": [
    [0.0, -1.0, 0.0, 103.0],
    [1.0, 0.0, 0.0, 0.0],
    [0.0, 0.0, 1.0, 0.0],
    [0.0, 0.0, 0.0, 1.0]
],
  "dcmmeta_shape": [104, 104, 60, 190],
  "dcmmeta_slice_dim": 2,
  "dcmmeta_version": 0.6,
  "global": {
    "const": {
      "AcquisitionMatrix": [104, 0, 0, 104],
      "AngioFlag": "N",
      "BitsAllocated": 16,
      "BitsStored": 16,
      "BodyPartExamined": "BRAIN",
      "Columns": 832,
      "EchoNumbers": 1,
      "EchoTime": 37.0,
      "EchoTrainLength": 104,
      "FlipAngle": 52.0,
      "HighBit": 15,
      "ImageOrientationPatient": [0.99682853193813, 0.07038480849189, 0.03713295904761, -0.0520671091078, 0.92972787398845, -0.3645477972476],
      "ImagePositionPatient": [-785.90805546231, -867.69011489127, 250.67327502108],
      "ImageType": [
        "ORIGINAL",
        "PRIMARY",
        "P",
        "MB",
        "ND",
        "MOSAIC"
],
      "ImagedNucleus": "1H",
      "ImagingFrequency": 123.258887,
      "InPlanePhaseEncodingDirection": "COL",
      "LargestImagePixelValue": 4095,
      "MRAcquisitionType": "2D",
      "MagneticFieldStrength": 3.0,
      "Manufacturer": "SIEMENS",
      "ManufacturerModelName": "Prisma_fit",
      "Modality": "MR",
      "NumberOfAverages": 1.0,
      "NumberOfPhaseEncodingSteps": 104,
      "PercentPhaseFieldOfView": 100.0,
      "PercentSampling": 100.0,
      "PerformedProcedureStepStartTime": "170711.187000",
      "PhotometricInterpretation": "MONOCHROME2",
      "PixelBandwidth": 2290.0,
      "PixelRepresentation": 0,
      "PixelSpacing": [2.0, 2.0],
      "ProtocolName": "func_task-things_run-6",
      "RepetitionTime": 1490.0,
      "RescaleIntercept": -4096.0,
      "RescaleSlope": 2.0,
      "RescaleType": "US",
      "Rows": 832,
      "SAR": 0.05223621312985,
      "SamplesPerPixel": 1,
      "ScanOptions": "FS",
      "ScanningSequence": "EP",
      "SequenceName": "epfid2d1_104",
      "SequenceVariant": [
        "SK",
        "SS"
],
      "SeriesDescription": "func_task-things_run-6",
      "SeriesNumber": 34,
      "SeriesTime": "181440.835000",
      "SliceLocation": -33.098640221895,
      "SliceThickness": 2.0,
      "SmallestImagePixelValue": 0,
      "SoftwareVersions": "syngo MR E11",
      "SpacingBetweenSlices": 2.0000000593077,
      "SpecificCharacterSet": "ISO_IR 100",
      "StudyID": "1",
      "StudyTime": "170711.072000",
      "TransmitCoilName": "Body",
      "VariableFlipAngleFlag": "N",
      "WindowCenterWidthExplanation": "Algo1",
      "dBdt": 0.0},
    "slices": {}
  },
  "time": {
    "samples": {
      "AcquisitionNumber": [1, 2, 3, 4, 5, 6, 7, 8, 9, 10, 11, 12, 13, 14, 15, 16, 17, 18, 19, 20, 21, 22, 23, 24, 25, 26, 27, 28, 29, 30, 31, 32, 33, 34, 35, 36, 37, 38, 39, 40, 41, 42, 43, 44, 45, 46, 47, 48, 49, 50, 51, 52, 53, 54, 55, 56, 57, 58, 59, 60, 61, 62, 63, 64, 65, 66, 67, 68, 69, 70, 71, 72, 73, 74, 75, 76, 77, 78, 79, 80, 81, 82, 83, 84, 85, 86, 87, 88, 89, 90, 91, 92, 93, 94, 95, 96, 97, 98, 99, 100, 101, 102, 103, 104, 105, 106, 107, 108, 109, 110, 111, 112, 113, 114, 115, 116, 117, 118, 119, 120, 121, 122, 123, 124, 125, 126, 127, 128, 129, 130, 131, 132, 133, 134, 135, 136, 137, 138, 139, 140, 141, 142, 143, 144, 145, 146, 147, 148, 149, 150, 151, 152, 153, 154, 155, 156, 157, 158, 159, 160, 161, 162, 163, 164, 165, 166, 167, 168, 169, 170, 171, 172, 173, 174, 175, 176, 177, 178, 179, 180, 181, 182, 183, 184, 185, 186, 187, 188, 189, 190],
      "AcquisitionTime": ["181324.740000", "181326.230000", "181327.720000", "181329.210000", "181330.700000", "181332.190000", "181333.680000", "181335.170000", "181336.660000", "181338.150000", "181339.640000", "181341.130000", "181342.620000", "181344.110000", "181345.600000", "181347.090000", "181348.580000", "181350.070000", "181351.560000", "181353.050000", "181354.540000", "181356.030000", "181357.520000", "181359.010000", "181400.500000", "181401.990000", "181403.480000", "181404.970000", "181406.460000", "181407.950000", "181409.440000", "181410.930000", "181412.420000", "181413.910000", "181415.400000", "181416.890000", "181418.380000", "181419.870000", "181421.360000", "181422.850000", "181424.340000", "181425.830000", "181427.320000", "181428.810000", "181430.300000", "181431.790000", "181433.280000", "181434.770000", "181436.260000", "181437.750000", "181439.240000", "181440.730000", "181442.220000", "181443.710000", "181445.200000", "181446.690000", "181448.180000", "181449.670000", "181451.160000", "181452.650000", "181454.140000", "181455.630000", "181457.120000", "181458.610000", "181500.100000", "181501.590000", "181503.080000", "181504.570000", "181506.060000", "181507.550000", "181509.040000", "181510.530000", "181512.020000", "181513.510000", "181515.000000", "181516.490000", "181517.980000", "181519.470000", "181520.960000", "181522.450000", "181523.940000", "181525.430000", "181526.920000", "181528.410000", "181529.900000", "181531.390000", "181532.880000", "181534.370000", "181535.860000", "181537.350000", "181538.840000", "181540.330000", "181541.820000", "181543.310000", "181544.800000", "181546.290000", "181547.780000", "181549.270000", "181550.760000", "181552.250000", "181553.740000", "181555.230000", "181556.720000", "181558.210000", "181559.700000", "181601.190000", "181602.680000", "181604.170000", "181605.660000", "181607.150000", "181608.640000", "181610.130000", "181611.620000", "181613.110000", "181614.600000", "181616.090000", "181617.580000", "181619.070000", "181620.560000", "181622.050000", "181623.540000", "181625.030000", "181626.520000", "181628.010000", "181629.500000", "181630.990000", "181632.480000", "181633.970000", "181635.460000", "181636.950000", "181638.440000", "181639.930000", "181641.420000", "181642.910000", "181644.400000", "181645.890000", "181647.380000", "181648.870000", "181650.360000", "181651.850000", "181653.340000", "181654.830000", "181656.320000", "181657.810000", "181659.300000", "181700.790000", "181702.280000", "181703.770000", "181705.260000", "181706.750000", "181708.240000", "181709.730000", "181711.220000", "181712.710000", "181714.200000", "181715.690000", "181717.180000", "181718.670000", "181720.160000", "181721.650000", "181723.140000", "181724.630000", "181726.120000", "181727.610000", "181729.100000", "181730.590000", "181732.080000", "181733.570000", "181735.060000", "181736.550000", "181738.040000", "181739.530000", "181741.020000", "181742.510000", "181744.000000", "181745.490000", "181746.980000", "181748.470000", "181749.960000", "181751.450000", "181752.940000", "181754.430000", "181755.920000", "181757.410000", "181758.900000", "181800.390000", "181801.880000", "181803.370000", "181804.860000", "181806.350000"],
      "ContentTime": ["181440.837000", "181440.840000", "181440.842000", "181440.845000", "181440.847000", "181440.850000", "181440.852000", "181440.855000", "181440.857000", "181440.860000", "181440.862000", "181440.865000", "181440.867000", "181440.870000", "181440.872000", "181440.875000", "181440.877000", "181440.880000", "181440.882000", "181440.885000", "181440.887000", "181440.890000", "181500.789000", "181500.791000", "181500.794000", "181500.796000", "181500.799000", "181500.801000", "181500.804000", "181500.806000", "181500.809000", "181500.812000", "181500.814000", "181500.816000", "181500.819000", "181500.822000", "181500.824000", "181500.827000", "181500.829000", "181500.832000", "181500.834000", "181500.837000", "181520.793000", "181520.796000", "181520.798000", "181520.801000", "181520.803000", "181520.806000", "181520.809000", "181520.811000", "181520.813000", "181520.816000", "181520.819000", "181520.821000", "181520.824000", "181520.826000", "181520.829000", "181520.831000", "181520.834000", "181520.836000", "181520.839000", "181520.841000", "181540.787000", "181540.789000", "181540.792000", "181540.794000", "181540.797000", "181540.799000", "181540.802000", "181540.804000", "181540.807000", "181540.810000", "181540.812000", "181540.815000", "181540.817000", "181540.820000", "181540.822000", "181540.825000", "181540.827000", "181540.830000", "181540.832000", "181540.835000", "181600.803000", "181600.805000", "181600.808000", "181600.810000", "181600.813000", "181600.816000", "181600.818000", "181600.821000", "181600.823000", "181600.826000", "181600.828000", "181600.831000", "181600.833000", "181600.836000", "181600.838000", "181600.841000", "181600.843000", "181600.846000", "181600.848000", "181600.851000", "181640.829000", "181640.832000", "181640.835000", "181640.837000", "181640.839000", "181640.842000", "181640.845000", "181640.847000", "181640.850000", "181640.853000", "181640.855000", "181640.858000", "181640.860000", "181640.863000", "181640.865000", "181640.868000", "181640.870000", "181640.873000", "181640.875000", "181640.878000", "181640.880000", "181640.883000", "181640.885000", "181640.888000", "181640.890000", "181640.893000", "181640.895000", "181640.898000", "181720.836000", "181720.839000", "181720.841000", "181720.844000", "181720.847000", "181720.849000", "181720.852000", "181720.854000", "181720.857000", "181720.859000", "181720.862000", "181720.864000", "181720.867000", "181720.869000", "181720.872000", "181720.874000", "181720.877000", "181720.879000", "181720.882000", "181720.884000", "181720.887000", "181720.889000", "181720.892000", "181720.895000", "181720.897000", "181720.901000", "181720.904000", "181800.827000", "181800.829000", "181800.832000", "181800.834000", "181800.837000", "181800.839000", "181800.842000", "181800.844000", "181800.847000", "181800.849000", "181800.852000", "181800.854000", "181800.857000", "181800.860000", "181800.862000", "181800.865000", "181800.867000", "181800.870000", "181800.872000", "181800.875000", "181800.877000", "181800.880000", "181800.882000", "181800.885000", "181800.888000", "181800.890000", "181800.893000", "181808.829000", "181808.832000", "181808.835000", "181808.848000", "181808.851000", "181808.853000"],
      "InstanceCreationTime": ["181440.837000", "181440.840000", "181440.842000", "181440.845000", "181440.847000", "181440.850000", "181440.852000", "181440.855000", "181440.857000", "181440.860000", "181440.862000", "181440.865000", "181440.867000", "181440.870000", "181440.872000", "181440.875000", "181440.877000", "181440.880000", "181440.882000", "181440.885000", "181440.887000", "181440.890000", "181500.789000", "181500.791000", "181500.794000", "181500.796000", "181500.799000", "181500.801000", "181500.804000", "181500.806000", "181500.809000", "181500.812000", "181500.814000", "181500.816000", "181500.819000", "181500.822000", "181500.824000", "181500.827000", "181500.829000", "181500.832000", "181500.834000", "181500.837000", "181520.793000", "181520.796000", "181520.798000", "181520.801000", "181520.803000", "181520.806000", "181520.809000", "181520.811000", "181520.813000", "181520.816000", "181520.819000", "181520.821000", "181520.824000", "181520.826000", "181520.829000", "181520.831000", "181520.834000", "181520.836000", "181520.839000", "181520.841000", "181540.787000", "181540.789000", "181540.792000", "181540.794000", "181540.797000", "181540.799000", "181540.802000", "181540.804000", "181540.807000", "181540.810000", "181540.812000", "181540.815000", "181540.817000", "181540.820000", "181540.822000", "181540.825000", "181540.827000", "181540.830000", "181540.832000", "181540.835000", "181600.803000", "181600.805000", "181600.808000", "181600.810000", "181600.813000", "181600.816000", "181600.818000", "181600.821000", "181600.823000", "181600.826000", "181600.828000", "181600.831000", "181600.833000", "181600.836000", "181600.838000", "181600.841000", "181600.843000", "181600.846000", "181600.848000", "181600.851000", "181640.829000", "181640.832000", "181640.835000", "181640.837000", "181640.839000", "181640.842000", "181640.845000", "181640.847000", "181640.850000", "181640.853000", "181640.855000", "181640.858000", "181640.860000", "181640.863000", "181640.865000", "181640.868000", "181640.870000", "181640.873000", "181640.875000", "181640.878000", "181640.880000", "181640.883000", "181640.885000", "181640.888000", "181640.890000", "181640.893000", "181640.895000", "181640.898000", "181720.836000", "181720.839000", "181720.841000", "181720.844000", "181720.847000", "181720.849000", "181720.852000", "181720.854000", "181720.857000", "181720.859000", "181720.862000", "181720.864000", "181720.867000", "181720.869000", "181720.872000", "181720.874000", "181720.877000", "181720.879000", "181720.882000", "181720.884000", "181720.887000", "181720.889000", "181720.892000", "181720.895000", "181720.897000", "181720.901000", "181720.904000", "181800.827000", "181800.829000", "181800.832000", "181800.834000", "181800.837000", "181800.839000", "181800.842000", "181800.844000", "181800.847000", "181800.849000", "181800.852000", "181800.854000", "181800.857000", "181800.860000", "181800.862000", "181800.865000", "181800.867000", "181800.870000", "181800.872000", "181800.875000", "181800.877000", "181800.880000", "181800.882000", "181800.885000", "181800.888000", "181800.890000", "181800.893000", "181808.829000", "181808.832000", "181808.835000", "181808.848000", "181808.851000", "181808.853000"],
      "InstanceNumber": [1, 2, 3, 4, 5, 6, 7, 8, 9, 10, 11, 12, 13, 14, 15, 16, 17, 18, 19, 20, 21, 22, 23, 24, 25, 26, 27, 28, 29, 30, 31, 32, 33, 34, 35, 36, 37, 38, 39, 40, 41, 42, 43, 44, 45, 46, 47, 48, 49, 50, 51, 52, 53, 54, 55, 56, 57, 58, 59, 60, 61, 62, 63, 64, 65, 66, 67, 68, 69, 70, 71, 72, 73, 74, 75, 76, 77, 78, 79, 80, 81, 82, 83, 84, 85, 86, 87, 88, 89, 90, 91, 92, 93, 94, 95, 96, 97, 98, 99, 100, 101, 102, 103, 104, 105, 106, 107, 108, 109, 110, 111, 112, 113, 114, 115, 116, 117, 118, 119, 120, 121, 122, 123, 124, 125, 126, 127, 128, 129, 130, 131, 132, 133, 134, 135, 136, 137, 138, 139, 140, 141, 142, 143, 144, 145, 146, 147, 148, 149, 150, 151, 152, 153, 154, 155, 156, 157, 158, 159, 160, 161, 162, 163, 164, 165, 166, 167, 168, 169, 170, 171, 172, 173, 174, 175, 176, 177, 178, 179, 180, 181, 182, 183, 184, 185, 186, 187, 188, 189, 190],
      "WindowCenter": [4786.0, 4792.0, 4820.0, 4794.0, 4786.0, 4788.0, 4780.0, 4784.0, 4792.0, 4846.0, 4852.0, 4850.0, 4814.0, 4812.0, 4812.0, 4814.0, 4804.0, 4782.0, 4786.0, 4822.0, 4850.0, 4852.0, 4848.0, 4788.0, 4782.0, 4782.0, 4806.0, 4782.0, 4786.0, 4788.0, 4792.0, 4820.0, 4826.0, 4826.0, 4818.0, 4788.0, 4790.0, 4784.0, 4786.0, 4786.0, 4786.0, 4796.0, 4822.0, 4820.0, 4820.0, 4816.0, 4792.0, 4786.0, 4784.0, 4786.0, 4788.0, 4790.0, 4784.0, 4790.0, 4794.0, 4820.0, 4824.0, 4792.0, 4788.0, 4782.0, 4788.0, 4792.0, 4824.0, 4846.0, 4816.0, 4788.0, 4786.0, 4786.0, 4788.0, 4792.0, 4822.0, 4826.0, 4824.0, 4846.0, 4846.0, 4824.0, 4816.0, 4812.0, 4810.0, 4836.0, 4806.0, 4788.0, 4822.0, 4850.0, 4854.0, 4828.0, 4788.0, 4784.0, 4804.0, 4806.0, 4784.0, 4790.0, 4794.0, 4818.0, 4824.0, 4844.0, 4848.0, 4794.0, 4786.0, 4808.0, 4810.0, 4808.0, 4790.0, 4820.0, 4822.0, 4824.0, 4822.0, 4794.0, 4792.0, 4790.0, 4786.0, 4788.0, 4786.0, 4816.0, 4820.0, 4820.0, 4818.0, 4794.0, 4790.0, 4796.0, 4790.0, 4788.0, 4788.0, 4786.0, 4790.0, 4818.0, 4824.0, 4848.0, 4852.0, 4822.0, 4812.0, 4816.0, 4818.0, 4812.0, 4810.0, 4818.0, 4850.0, 4856.0, 4848.0, 4790.0, 4788.0, 4784.0, 4786.0, 4812.0, 4794.0, 4792.0, 4794.0, 4794.0, 4796.0, 4816.0, 4794.0, 4790.0, 4792.0, 4786.0, 4788.0, 4792.0, 4794.0, 4792.0, 4792.0, 4816.0, 4814.0, 4792.0, 4794.0, 4794.0, 4790.0, 4792.0, 4792.0, 4790.0, 4792.0, 4796.0, 4814.0, 4790.0, 4794.0, 4794.0, 4792.0, 4816.0, 4792.0, 4790.0, 4818.0, 4792.0, 4794.0, 4814.0, 4816.0, 4790.0, 4816.0, 4820.0, 4820.0, 4816.0, 4816.0, 4818.0],
      "WindowWidth": [18560.0, 18564.0, 18596.0, 18564.0, 18558.0, 18568.0, 18564.0, 18562.0, 18560.0, 18636.0, 18640.0, 18632.0, 18596.0, 18590.0, 18606.0, 18616.0, 18602.0, 18564.0, 18556.0, 18598.0, 18628.0, 18636.0, 18634.0, 18554.0, 18560.0, 18562.0, 18598.0, 18566.0, 18564.0, 18564.0, 18566.0, 18594.0, 18598.0, 18598.0, 18588.0, 18560.0, 18564.0, 18566.0, 18568.0, 18566.0, 18562.0, 18566.0, 18594.0, 18592.0, 18594.0, 18590.0, 18558.0, 18562.0, 18556.0, 18558.0, 18560.0, 18562.0, 18558.0, 18556.0, 18560.0, 18598.0, 18600.0, 18554.0, 18562.0, 18558.0, 18566.0, 18558.0, 18602.0, 18632.0, 18590.0, 18558.0, 18566.0, 18562.0, 18558.0, 18554.0, 18594.0, 18600.0, 18598.0, 18634.0, 18638.0, 18600.0, 18592.0, 18594.0, 18614.0, 18654.0, 18604.0, 18570.0, 18594.0, 18638.0, 18640.0, 18598.0, 18554.0, 18568.0, 18598.0, 18598.0, 18564.0, 18556.0, 18564.0, 18590.0, 18592.0, 18634.0, 18630.0, 18560.0, 18560.0, 18596.0, 18598.0, 18596.0, 18556.0, 18596.0, 18590.0, 18596.0, 18594.0, 18560.0, 18562.0, 18558.0, 18560.0, 18560.0, 18560.0, 18588.0, 18588.0, 18600.0, 18588.0, 18554.0, 18556.0, 18560.0, 18558.0, 18558.0, 18560.0, 18556.0, 18558.0, 18594.0, 18600.0, 18634.0, 18640.0, 18592.0, 18588.0, 18602.0, 18610.0, 18602.0, 18592.0, 18594.0, 18634.0, 18646.0, 18630.0, 18562.0, 18554.0, 18556.0, 18562.0, 18590.0, 18558.0, 18560.0, 18558.0, 18556.0, 18562.0, 18588.0, 18558.0, 18558.0, 18558.0, 18560.0, 18554.0, 18558.0, 18564.0, 18558.0, 18558.0, 18588.0, 18592.0, 18556.0, 18562.0, 18562.0, 18552.0, 18558.0, 18562.0, 18554.0, 18560.0, 18560.0, 18588.0, 18558.0, 18560.0, 18560.0, 18562.0, 18590.0, 18562.0, 18550.0, 18588.0, 18556.0, 18560.0, 18586.0, 18588.0, 18554.0, 18586.0, 18594.0, 18594.0, 18586.0, 18582.0, 18586.0]
    },
    "slices": {}
  }
}