{
  "AcquisitionMatrixPE": 104,
  "AcquisitionNumber": 1,
  "AcquisitionTime": "18:07:10.765000",
  "BandwidthPerPixelPhaseEncode": 17.17,
  "BaseResolution": 104,
  "BodyPartExamined": "BRAIN",
  "CoilCombinationMethod": "Sum of Squares",
  "ConsistencyInfo": "N4_VE11C_LATEST_20160120",
  "ConversionSoftware": "dcm2niix",
  "ConversionSoftwareVersion": "v1.0.20211006",
  "DerivedVendorReportedEchoSpacing": 0.000560011,
  "DeviceSerialNumber": "167006",
  "DwellTime": 2.1e-06,
  "EchoTime": 0.037,
  "EchoTime1": 0.037,
  "EchoTime2": 0.001,
  "EchoTrainLength": 104,
  "EffectiveEchoSpacing": 0.000560011,
  "FlipAngle": 52,
  "HeudiconvVersion": "0.10.0",
  "ImageComments": "Unaliased MB4/PE3/LB",
  "ImageOrientationPatientDICOM": [0.996829, 0.0703848, 0.037133, -0.0520671, 0.929728, -0.364548],
  "ImageOrientationText": "Tra>Cor(-21.2)>Sag(3.5)",
  "ImageType": [
    "ORIGINAL",
    "PRIMARY",
    "P",
    "MB",
    "ND",
    "MOSAIC",
    "PHASE"
],
  "ImagingFrequency": 123.259,
  "InPlanePhaseEncodingDirectionDICOM": "COL",
  "InstitutionAddress": "Chemin Queen-Mary 4565,Montreal,District,CA,H3W 1W5",
  "InstitutionName": "IUGM",
  "InstitutionalDepartmentName": "Department",
  "MRAcquisitionType": "2D",
  "MagneticFieldStrength": 3,
  "Manufacturer": "Siemens",
  "ManufacturersModelName": "Prisma_fit",
  "MatrixCoilMode": "SENSE",
  "Modality": "MR",
  "MultibandAccelerationFactor": 4,
  "PartialFourier": 1,
  "PatientPosition": "HFS",
  "PercentPhaseFOV": 100,
  "PercentSampling": 100,
  "PhaseEncodingDirection": "j",
  "PhaseEncodingSteps": 104,
  "PhaseResolution": 1,
  "PixelBandwidth": 2290,
  "ProcedureStepDescription": "memory^things",
  "ProtocolName": "func_task-things_run-5",
  "PulseSequenceDetails": "%CustomerSeq%\\cmrr_mbep2d_bold",
  "ReceiveCoilActiveElements": "HC1-7;NC1,2",
  "ReceiveCoilName": "HeadNeck_64",
  "ReconMatrixPE": 104,
  "RepetitionTime": 1.49,
  "SAR": 0.0522362,
  "ScanOptions": "FS",
  "ScanningSequence": "EP",
  "SequenceName": "epfid2d1_104",
  "SequenceVariant": "SK\\SS",
  "SeriesDescription": "func_task-things_run-5",
  "SeriesNumber": 31,
  "ShimSetting": [629, -7174, -8817, 628, 72, 71, -81, -3],
  "SliceThickness": 2,
  "SliceTiming": [0, 0.785, 0.0975, 0.8825, 0.1975, 0.98, 0.295, 1.0775, 0.3925, 1.1775, 0.49, 1.275, 0.5875, 1.3725, 0.6875, 0, 0.785, 0.0975, 0.8825, 0.1975, 0.98, 0.295, 1.0775, 0.3925, 1.1775, 0.49, 1.275, 0.5875, 1.3725, 0.6875, 0, 0.785, 0.0975, 0.8825, 0.1975, 0.98, 0.295, 1.0775, 0.3925, 1.1775, 0.49, 1.275, 0.5875, 1.3725, 0.6875, 0, 0.785, 0.0975, 0.8825, 0.1975, 0.98, 0.295, 1.0775, 0.3925, 1.1775, 0.49, 1.275, 0.5875, 1.3725, 0.6875],
  "SoftwareVersions": "syngo MR E11",
  "SpacingBetweenSlices": 2,
  "StationName": "MRC35049",
  "TaskName": "things",
  "TotalReadoutTime": 0.0576811,
  "TxRefAmp": 276.951,
  "WipMemBlock": "c156f1cf-e489-499b-89f7-28da26436540||Sequence: R016 ve11c/master r/e634e98; Dec 19 2017 11:00:25 by eja",
  "dcmmeta_affine": [
    [-1.993657112121582, -0.1041342169046402, 0.12036435306072235, 108.84756469726562],
    [-0.1407696157693863, 1.8594557046890259, -0.7229164838790894, -51.91585922241211],
    [0.07426591962575912, 0.7290955781936646, 1.860888123512268, -62.78157424926758],
    [0.0, 0.0, 0.0, 1.0]
],
  "dcmmeta_reorient_transform": [
    [0.0, -1.0, 0.0, 103.0],
    [1.0, 0.0, 0.0, 0.0],
    [0.0, 0.0, 1.0, 0.0],
    [0.0, 0.0, 0.0, 1.0]
],
  "dcmmeta_shape": [104, 104, 60, 190],
  "dcmmeta_slice_dim": 2,
  "dcmmeta_version": 0.6,
  "global": {
    "const": {
      "AcquisitionMatrix": [104, 0, 0, 104],
      "AngioFlag": "N",
      "BitsAllocated": 16,
      "BitsStored": 16,
      "BodyPartExamined": "BRAIN",
      "Columns": 832,
      "EchoNumbers": 1,
      "EchoTime": 37.0,
      "EchoTrainLength": 104,
      "FlipAngle": 52.0,
      "HighBit": 15,
      "ImageOrientationPatient": [0.99682853193813, 0.07038480849189, 0.03713295904761, -0.0520671091078, 0.92972787398845, -0.3645477972476],
      "ImagePositionPatient": [-785.90805546231, -867.69011489127, 250.67327502108],
      "ImageType": [
        "ORIGINAL",
        "PRIMARY",
        "P",
        "MB",
        "ND",
        "MOSAIC"
],
      "ImagedNucleus": "1H",
      "ImagingFrequency": 123.258887,
      "InPlanePhaseEncodingDirection": "COL",
      "LargestImagePixelValue": 4095,
      "MRAcquisitionType": "2D",
      "MagneticFieldStrength": 3.0,
      "Manufacturer": "SIEMENS",
      "ManufacturerModelName": "Prisma_fit",
      "Modality": "MR",
      "NumberOfAverages": 1.0,
      "NumberOfPhaseEncodingSteps": 104,
      "PercentPhaseFieldOfView": 100.0,
      "PercentSampling": 100.0,
      "PerformedProcedureStepStartTime": "170711.187000",
      "PhotometricInterpretation": "MONOCHROME2",
      "PixelBandwidth": 2290.0,
      "PixelRepresentation": 0,
      "PixelSpacing": [2.0, 2.0],
      "ProtocolName": "func_task-things_run-5",
      "RepetitionTime": 1490.0,
      "RescaleIntercept": -4096.0,
      "RescaleSlope": 2.0,
      "RescaleType": "US",
      "Rows": 832,
      "SAR": 0.05223621312985,
      "SamplesPerPixel": 1,
      "ScanOptions": "FS",
      "ScanningSequence": "EP",
      "SequenceName": "epfid2d1_104",
      "SequenceVariant": [
        "SK",
        "SS"
],
      "SeriesDescription": "func_task-things_run-5",
      "SeriesNumber": 31,
      "SeriesTime": "180838.564000",
      "SliceLocation": -33.098640221895,
      "SliceThickness": 2.0,
      "SmallestImagePixelValue": 0,
      "SoftwareVersions": "syngo MR E11",
      "SpacingBetweenSlices": 2.0000000593077,
      "SpecificCharacterSet": "ISO_IR 100",
      "StudyID": "1",
      "StudyTime": "170711.072000",
      "TransmitCoilName": "Body",
      "VariableFlipAngleFlag": "N",
      "WindowCenterWidthExplanation": "Algo1",
      "dBdt": 0.0},
    "slices": {}
  },
  "time": {
    "samples": {
      "AcquisitionNumber": [1, 2, 3, 4, 5, 6, 7, 8, 9, 10, 11, 12, 13, 14, 15, 16, 17, 18, 19, 20, 21, 22, 23, 24, 25, 26, 27, 28, 29, 30, 31, 32, 33, 34, 35, 36, 37, 38, 39, 40, 41, 42, 43, 44, 45, 46, 47, 48, 49, 50, 51, 52, 53, 54, 55, 56, 57, 58, 59, 60, 61, 62, 63, 64, 65, 66, 67, 68, 69, 70, 71, 72, 73, 74, 75, 76, 77, 78, 79, 80, 81, 82, 83, 84, 85, 86, 87, 88, 89, 90, 91, 92, 93, 94, 95, 96, 97, 98, 99, 100, 101, 102, 103, 104, 105, 106, 107, 108, 109, 110, 111, 112, 113, 114, 115, 116, 117, 118, 119, 120, 121, 122, 123, 124, 125, 126, 127, 128, 129, 130, 131, 132, 133, 134, 135, 136, 137, 138, 139, 140, 141, 142, 143, 144, 145, 146, 147, 148, 149, 150, 151, 152, 153, 154, 155, 156, 157, 158, 159, 160, 161, 162, 163, 164, 165, 166, 167, 168, 169, 170, 171, 172, 173, 174, 175, 176, 177, 178, 179, 180, 181, 182, 183, 184, 185, 186, 187, 188, 189, 190],
      "AcquisitionTime": ["180710.765000", "180712.255000", "180713.745000", "180715.235000", "180716.725000", "180718.215000", "180719.705000", "180721.195000", "180722.685000", "180724.175000", "180725.665000", "180727.155000", "180728.645000", "180730.135000", "180731.625000", "180733.115000", "180734.605000", "180736.095000", "180737.585000", "180739.075000", "180740.565000", "180742.055000", "180743.545000", "180745.035000", "180746.525000", "180748.015000", "180749.505000", "180750.995000", "180752.485000", "180753.975000", "180755.465000", "180756.955000", "180758.445000", "180759.935000", "180801.425000", "180802.915000", "180804.405000", "180805.895000", "180807.385000", "180808.875000", "180810.365000", "180811.855000", "180813.345000", "180814.835000", "180816.325000", "180817.815000", "180819.305000", "180820.795000", "180822.285000", "180823.775000", "180825.265000", "180826.755000", "180828.245000", "180829.735000", "180831.225000", "180832.715000", "180834.205000", "180835.695000", "180837.185000", "180838.675000", "180840.165000", "180841.655000", "180843.145000", "180844.635000", "180846.125000", "180847.615000", "180849.105000", "180850.595000", "180852.085000", "180853.575000", "180855.065000", "180856.555000", "180858.045000", "180859.535000", "180901.025000", "180902.515000", "180904.005000", "180905.495000", "180906.985000", "180908.475000", "180909.965000", "180911.455000", "180912.945000", "180914.435000", "180915.925000", "180917.415000", "180918.905000", "180920.395000", "180921.885000", "180923.375000", "180924.865000", "180926.355000", "180927.845000", "180929.335000", "180930.825000", "180932.315000", "180933.805000", "180935.295000", "180936.785000", "180938.275000", "180939.765000", "180941.255000", "180942.745000", "180944.235000", "180945.725000", "180947.215000", "180948.705000", "180950.195000", "180951.685000", "180953.175000", "180954.665000", "180956.155000", "180957.645000", "180959.135000", "181000.625000", "181002.115000", "181003.605000", "181005.095000", "181006.585000", "181008.075000", "181009.565000", "181011.055000", "181012.545000", "181014.035000", "181015.525000", "181017.015000", "181018.505000", "181019.995000", "181021.485000", "181022.975000", "181024.465000", "181025.955000", "181027.445000", "181028.935000", "181030.425000", "181031.915000", "181033.405000", "181034.895000", "181036.385000", "181037.875000", "181039.365000", "181040.855000", "181042.345000", "181043.835000", "181045.325000", "181046.815000", "181048.305000", "181049.795000", "181051.285000", "181052.775000", "181054.265000", "181055.755000", "181057.245000", "181058.735000", "181100.225000", "181101.715000", "181103.205000", "181104.695000", "181106.185000", "181107.675000", "181109.165000", "181110.655000", "181112.145000", "181113.635000", "181115.125000", "181116.615000", "181118.105000", "181119.595000", "181121.085000", "181122.575000", "181124.065000", "181125.555000", "181127.045000", "181128.535000", "181130.025000", "181131.515000", "181133.005000", "181134.495000", "181135.985000", "181137.475000", "181138.965000", "181140.455000", "181141.945000", "181143.435000", "181144.925000", "181146.415000", "181147.905000", "181149.395000", "181150.885000", "181152.375000"],
      "ContentTime": ["180838.566000", "180838.569000", "180838.571000", "180838.574000", "180838.577000", "180838.579000", "180838.581000", "180838.584000", "180838.587000", "180838.589000", "180838.591000", "180838.594000", "180838.597000", "180838.599000", "180838.602000", "180838.604000", "180838.607000", "180838.609000", "180838.612000", "180838.614000", "180838.617000", "180838.619000", "180838.622000", "180838.624000", "180838.627000", "180838.629000", "180838.632000", "180838.634000", "180838.637000", "180838.639000", "180838.642000", "180838.644000", "180858.460000", "180858.463000", "180858.466000", "180858.468000", "180858.471000", "180858.473000", "180858.476000", "180858.478000", "180858.481000", "180858.483000", "180858.486000", "180858.489000", "180858.491000", "180858.493000", "180858.496000", "180858.499000", "180858.501000", "180858.504000", "180858.506000", "180858.509000", "180918.459000", "180918.462000", "180918.470000", "180918.473000", "180918.475000", "180918.478000", "180918.480000", "180918.483000", "180918.485000", "180918.488000", "180918.490000", "180918.493000", "180918.495000", "180918.498000", "180918.500000", "180918.503000", "180918.505000", "180918.508000", "180918.510000", "180918.513000", "180938.471000", "180938.474000", "180938.476000", "180938.478000", "180938.481000", "180938.484000", "180938.486000", "180938.489000", "180938.491000", "180938.494000", "180938.496000", "180938.499000", "180938.501000", "180938.504000", "180938.506000", "180938.509000", "180938.511000", "180938.514000", "180938.517000", "180938.519000", "180938.522000", "181018.519000", "181018.521000", "181018.524000", "181018.526000", "181018.529000", "181018.532000", "181018.534000", "181018.537000", "181018.539000", "181018.542000", "181018.544000", "181018.547000", "181018.549000", "181018.552000", "181018.554000", "181018.557000", "181018.559000", "181018.562000", "181018.564000", "181018.567000", "181018.570000", "181018.572000", "181018.574000", "181018.577000", "181018.580000", "181018.582000", "181018.585000", "181018.587000", "181018.590000", "181018.592000", "181018.595000", "181018.597000", "181058.491000", "181058.494000", "181058.496000", "181058.499000", "181058.501000", "181058.504000", "181058.507000", "181058.509000", "181058.511000", "181058.514000", "181058.517000", "181058.519000", "181058.522000", "181058.525000", "181058.527000", "181058.529000", "181058.532000", "181058.535000", "181058.537000", "181058.540000", "181058.542000", "181058.545000", "181058.547000", "181058.550000", "181058.552000", "181058.555000", "181058.557000", "181138.475000", "181138.478000", "181138.481000", "181138.483000", "181138.486000", "181138.488000", "181138.491000", "181138.493000", "181138.496000", "181138.499000", "181138.501000", "181138.504000", "181138.506000", "181138.509000", "181138.512000", "181138.515000", "181138.517000", "181138.520000", "181138.523000", "181138.526000", "181138.528000", "181138.531000", "181138.534000", "181138.536000", "181138.539000", "181138.542000", "181155.052000", "181155.054000", "181155.062000", "181155.065000", "181155.067000", "181155.070000", "181155.073000", "181155.075000", "181155.078000", "181155.080000", "181155.083000", "181155.086000"],
      "InstanceCreationTime": ["180838.566000", "180838.569000", "180838.571000", "180838.574000", "180838.577000", "180838.579000", "180838.581000", "180838.584000", "180838.587000", "180838.589000", "180838.591000", "180838.594000", "180838.597000", "180838.599000", "180838.602000", "180838.604000", "180838.607000", "180838.609000", "180838.612000", "180838.614000", "180838.617000", "180838.619000", "180838.622000", "180838.624000", "180838.627000", "180838.629000", "180838.632000", "180838.634000", "180838.637000", "180838.639000", "180838.642000", "180838.644000", "180858.460000", "180858.463000", "180858.466000", "180858.468000", "180858.471000", "180858.473000", "180858.476000", "180858.478000", "180858.481000", "180858.483000", "180858.486000", "180858.489000", "180858.491000", "180858.493000", "180858.496000", "180858.499000", "180858.501000", "180858.504000", "180858.506000", "180858.509000", "180918.459000", "180918.462000", "180918.470000", "180918.473000", "180918.475000", "180918.478000", "180918.480000", "180918.483000", "180918.485000", "180918.488000", "180918.490000", "180918.493000", "180918.495000", "180918.498000", "180918.500000", "180918.503000", "180918.505000", "180918.508000", "180918.510000", "180918.513000", "180938.471000", "180938.474000", "180938.476000", "180938.478000", "180938.481000", "180938.484000", "180938.486000", "180938.489000", "180938.491000", "180938.494000", "180938.496000", "180938.499000", "180938.501000", "180938.504000", "180938.506000", "180938.509000", "180938.511000", "180938.514000", "180938.517000", "180938.519000", "180938.522000", "181018.519000", "181018.521000", "181018.524000", "181018.526000", "181018.529000", "181018.532000", "181018.534000", "181018.537000", "181018.539000", "181018.542000", "181018.544000", "181018.547000", "181018.549000", "181018.552000", "181018.554000", "181018.557000", "181018.559000", "181018.562000", "181018.564000", "181018.567000", "181018.570000", "181018.572000", "181018.574000", "181018.577000", "181018.580000", "181018.582000", "181018.585000", "181018.587000", "181018.590000", "181018.592000", "181018.595000", "181018.597000", "181058.491000", "181058.494000", "181058.496000", "181058.499000", "181058.501000", "181058.504000", "181058.507000", "181058.509000", "181058.511000", "181058.514000", "181058.517000", "181058.519000", "181058.522000", "181058.525000", "181058.527000", "181058.529000", "181058.532000", "181058.535000", "181058.537000", "181058.540000", "181058.542000", "181058.545000", "181058.547000", "181058.550000", "181058.552000", "181058.555000", "181058.557000", "181138.475000", "181138.478000", "181138.481000", "181138.483000", "181138.486000", "181138.488000", "181138.491000", "181138.493000", "181138.496000", "181138.499000", "181138.501000", "181138.504000", "181138.506000", "181138.509000", "181138.512000", "181138.515000", "181138.517000", "181138.520000", "181138.523000", "181138.526000", "181138.528000", "181138.531000", "181138.534000", "181138.536000", "181138.539000", "181138.542000", "181155.052000", "181155.054000", "181155.062000", "181155.065000", "181155.067000", "181155.070000", "181155.073000", "181155.075000", "181155.078000", "181155.080000", "181155.083000", "181155.086000"],
      "InstanceNumber": [1, 2, 3, 4, 5, 6, 7, 8, 9, 10, 11, 12, 13, 14, 15, 16, 17, 18, 19, 20, 21, 22, 23, 24, 25, 26, 27, 28, 29, 30, 31, 32, 33, 34, 35, 36, 37, 38, 39, 40, 41, 42, 43, 44, 45, 46, 47, 48, 49, 50, 51, 52, 53, 54, 55, 56, 57, 58, 59, 60, 61, 62, 63, 64, 65, 66, 67, 68, 69, 70, 71, 72, 73, 74, 75, 76, 77, 78, 79, 80, 81, 82, 83, 84, 85, 86, 87, 88, 89, 90, 91, 92, 93, 94, 95, 96, 97, 98, 99, 100, 101, 102, 103, 104, 105, 106, 107, 108, 109, 110, 111, 112, 113, 114, 115, 116, 117, 118, 119, 120, 121, 122, 123, 124, 125, 126, 127, 128, 129, 130, 131, 132, 133, 134, 135, 136, 137, 138, 139, 140, 141, 142, 143, 144, 145, 146, 147, 148, 149, 150, 151, 152, 153, 154, 155, 156, 157, 158, 159, 160, 161, 162, 163, 164, 165, 166, 167, 168, 169, 170, 171, 172, 173, 174, 175, 176, 177, 178, 179, 180, 181, 182, 183, 184, 185, 186, 187, 188, 189, 190],
      "WindowCenter": [4782.0, 4784.0, 4786.0, 4816.0, 4842.0, 4818.0, 4812.0, 4840.0, 4838.0, 4836.0, 4804.0, 4784.0, 4794.0, 4824.0, 4790.0, 4788.0, 4784.0, 4808.0, 4806.0, 4808.0, 4806.0, 4784.0, 4784.0, 4786.0, 4786.0, 4792.0, 4784.0, 4782.0, 4782.0, 4806.0, 4806.0, 4806.0, 4808.0, 4786.0, 4782.0, 4784.0, 4788.0, 4784.0, 4786.0, 4786.0, 4788.0, 4786.0, 4784.0, 4806.0, 4780.0, 4788.0, 4816.0, 4792.0, 4808.0, 4808.0, 4810.0, 4812.0, 4810.0, 4788.0, 4784.0, 4808.0, 4806.0, 4786.0, 4784.0, 4786.0, 4790.0, 4788.0, 4782.0, 4784.0, 4806.0, 4786.0, 4810.0, 4814.0, 4820.0, 4816.0, 4810.0, 4816.0, 4838.0, 4836.0, 4808.0, 4786.0, 4788.0, 4796.0, 4824.0, 4820.0, 4784.0, 4806.0, 4808.0, 4810.0, 4786.0, 4790.0, 4820.0, 4820.0, 4820.0, 4786.0, 4816.0, 4840.0, 4840.0, 4810.0, 4804.0, 4784.0, 4850.0, 4850.0, 4822.0, 4786.0, 4808.0, 4812.0, 4812.0, 4786.0, 4784.0, 4808.0, 4784.0, 4786.0, 4788.0, 4788.0, 4786.0, 4786.0, 4782.0, 4786.0, 4788.0, 4788.0, 4806.0, 4786.0, 4784.0, 4786.0, 4788.0, 4788.0, 4786.0, 4788.0, 4818.0, 4818.0, 4812.0, 4814.0, 4840.0, 4816.0, 4814.0, 4784.0, 4788.0, 4790.0, 4792.0, 4792.0, 4792.0, 4784.0, 4784.0, 4806.0, 4808.0, 4806.0, 4786.0, 4782.0, 4786.0, 4786.0, 4788.0, 4784.0, 4784.0, 4784.0, 4786.0, 4788.0, 4782.0, 4808.0, 4786.0, 4788.0, 4788.0, 4786.0, 4788.0, 4784.0, 4784.0, 4784.0, 4784.0, 4786.0, 4786.0, 4788.0, 4784.0, 4784.0, 4782.0, 4784.0, 4786.0, 4786.0, 4786.0, 4784.0, 4786.0, 4782.0, 4784.0, 4810.0, 4786.0, 4788.0, 4786.0, 4784.0, 4786.0, 4786.0, 4784.0, 4788.0, 4788.0, 4788.0, 4808.0, 4808.0],
      "WindowWidth": [18564.0, 18566.0, 18558.0, 18586.0, 18622.0, 18590.0, 18598.0, 18652.0, 18656.0, 18652.0, 18604.0, 18564.0, 18560.0, 18596.0, 18558.0, 18560.0, 18564.0, 18606.0, 18600.0, 18602.0, 18608.0, 18568.0, 18568.0, 18564.0, 18556.0, 18560.0, 18552.0, 18558.0, 18570.0, 18596.0, 18598.0, 18602.0, 18594.0, 18558.0, 18562.0, 18564.0, 18564.0, 18566.0, 18564.0, 18564.0, 18562.0, 18564.0, 18564.0, 18600.0, 18558.0, 18558.0, 18590.0, 18552.0, 18594.0, 18598.0, 18600.0, 18596.0, 18582.0, 18562.0, 18566.0, 18600.0, 18598.0, 18564.0, 18562.0, 18560.0, 18556.0, 18556.0, 18556.0, 18566.0, 18596.0, 18566.0, 18584.0, 18584.0, 18590.0, 18586.0, 18592.0, 18610.0, 18654.0, 18646.0, 18600.0, 18564.0, 18560.0, 18562.0, 18592.0, 18596.0, 18554.0, 18602.0, 18614.0, 18608.0, 18570.0, 18556.0, 18594.0, 18598.0, 18592.0, 18562.0, 18618.0, 18656.0, 18658.0, 18608.0, 18600.0, 18558.0, 18632.0, 18636.0, 18592.0, 18562.0, 18606.0, 18614.0, 18608.0, 18564.0, 18566.0, 18594.0, 18556.0, 18560.0, 18562.0, 18556.0, 18558.0, 18564.0, 18560.0, 18566.0, 18564.0, 18560.0, 18594.0, 18566.0, 18564.0, 18562.0, 18552.0, 18558.0, 18556.0, 18558.0, 18588.0, 18586.0, 18586.0, 18602.0, 18648.0, 18618.0, 18612.0, 18566.0, 18560.0, 18558.0, 18558.0, 18558.0, 18558.0, 18554.0, 18560.0, 18598.0, 18596.0, 18596.0, 18566.0, 18564.0, 18558.0, 18560.0, 18558.0, 18552.0, 18556.0, 18558.0, 18560.0, 18564.0, 18564.0, 18596.0, 18564.0, 18558.0, 18558.0, 18560.0, 18562.0, 18556.0, 18562.0, 18564.0, 18564.0, 18566.0, 18560.0, 18556.0, 18562.0, 18564.0, 18554.0, 18562.0, 18558.0, 18560.0, 18560.0, 18558.0, 18562.0, 18558.0, 18564.0, 18598.0, 18566.0, 18564.0, 18564.0, 18564.0, 18560.0, 18560.0, 18562.0, 18556.0, 18552.0, 18560.0, 18596.0, 18604.0]
    },
    "slices": {}
  }
}