{
  "AcquisitionMatrixPE": 104,
  "AcquisitionNumber": 1,
  "AcquisitionTime": "17:38:12.027500",
  "BandwidthPerPixelPhaseEncode": 17.17,
  "BaseResolution": 104,
  "BodyPartExamined": "BRAIN",
  "CoilCombinationMethod": "Sum of Squares",
  "ConsistencyInfo": "N4_VE11C_LATEST_20160120",
  "ConversionSoftware": "dcm2niix",
  "ConversionSoftwareVersion": "v1.0.20211006",
  "DerivedVendorReportedEchoSpacing": 0.000560011,
  "DeviceSerialNumber": "167006",
  "DwellTime": 2.1e-06,
  "EchoTime": 0.037,
  "EchoTime1": 0.037,
  "EchoTime2": 0.001,
  "EchoTrainLength": 104,
  "EffectiveEchoSpacing": 0.000560011,
  "FlipAngle": 52,
  "HeudiconvVersion": "0.10.0",
  "ImageComments": "Unaliased MB4/PE3/LB",
  "ImageOrientationPatientDICOM": [0.996483, 0.0815893, 0.0191137, -0.0700304, 0.936075, -0.34476],
  "ImageOrientationText": "Tra>Cor(-20.0)>Sag(2.6)",
  "ImageType": [
    "ORIGINAL",
    "PRIMARY",
    "P",
    "MB",
    "ND",
    "MOSAIC",
    "PHASE"
],
  "ImagingFrequency": 123.259,
  "InPlanePhaseEncodingDirectionDICOM": "COL",
  "InstitutionAddress": "Chemin Queen-Mary 4565,Montreal,District,CA,H3W 1W5",
  "InstitutionName": "IUGM",
  "InstitutionalDepartmentName": "Department",
  "MRAcquisitionType": "2D",
  "MagneticFieldStrength": 3,
  "Manufacturer": "Siemens",
  "ManufacturersModelName": "Prisma_fit",
  "MatrixCoilMode": "SENSE",
  "Modality": "MR",
  "MultibandAccelerationFactor": 4,
  "PartialFourier": 1,
  "PatientPosition": "HFS",
  "PercentPhaseFOV": 100,
  "PercentSampling": 100,
  "PhaseEncodingDirection": "j",
  "PhaseEncodingSteps": 104,
  "PhaseResolution": 1,
  "PixelBandwidth": 2290,
  "ProcedureStepDescription": "memory^things",
  "ProtocolName": "func_task-things_run-2",
  "PulseSequenceDetails": "%CustomerSeq%\\cmrr_mbep2d_bold",
  "ReceiveCoilActiveElements": "HC1-7;NC1,2",
  "ReceiveCoilName": "HeadNeck_64",
  "ReconMatrixPE": 104,
  "RepetitionTime": 1.49,
  "SAR": 0.0385898,
  "ScanOptions": "FS",
  "ScanningSequence": "EP",
  "SequenceName": "epfid2d1_104",
  "SequenceVariant": "SK\\SS",
  "SeriesDescription": "func_task-things_run-2",
  "SeriesNumber": 14,
  "ShimSetting": [629, -7186, -8813, 658, 84, 49, -25, -14],
  "SliceThickness": 2,
  "SliceTiming": [0, 0.785, 0.0975, 0.8825, 0.1975, 0.98, 0.295, 1.0775, 0.3925, 1.1775, 0.49, 1.275, 0.5875, 1.3725, 0.6875, 0, 0.785, 0.0975, 0.8825, 0.1975, 0.98, 0.295, 1.0775, 0.3925, 1.1775, 0.49, 1.275, 0.5875, 1.3725, 0.6875, 0, 0.785, 0.0975, 0.8825, 0.1975, 0.98, 0.295, 1.0775, 0.3925, 1.1775, 0.49, 1.275, 0.5875, 1.3725, 0.6875, 0, 0.785, 0.0975, 0.8825, 0.1975, 0.98, 0.295, 1.0775, 0.3925, 1.1775, 0.49, 1.275, 0.5875, 1.3725, 0.6875],
  "SoftwareVersions": "syngo MR E11",
  "SpacingBetweenSlices": 2,
  "StationName": "MRC35049",
  "TaskName": "things",
  "TotalReadoutTime": 0.0576811,
  "TxRefAmp": 252.646,
  "WipMemBlock": "6ee3945d-bea9-4430-8cdd-1a3f3d07bcdb||Sequence: R016 ve11c/master r/e634e98; Dec 19 2017 11:00:25 by eja",
  "dcmmeta_affine": [
    [-1.9929654598236084, -0.14006076753139496, 0.0920412540435791, 110.93643951416016],
    [-0.16317865252494812, 1.8721495866775513, -0.6844183206558228, -52.074771881103516],
    [0.038227420300245285, 0.6895206570625305, 1.8769922256469727, -60.339088439941406],
    [0.0, 0.0, 0.0, 1.0]
],
  "dcmmeta_reorient_transform": [
    [0.0, -1.0, 0.0, 103.0],
    [1.0, 0.0, 0.0, 0.0],
    [0.0, 0.0, 1.0, 0.0],
    [0.0, 0.0, 0.0, 1.0]
],
  "dcmmeta_shape": [104, 104, 60, 190],
  "dcmmeta_slice_dim": 2,
  "dcmmeta_version": 0.6,
  "global": {
    "const": {
      "AcquisitionMatrix": [104, 0, 0, 104],
      "AngioFlag": "N",
      "BitsAllocated": 16,
      "BitsStored": 16,
      "BodyPartExamined": "BRAIN",
      "Columns": 832,
      "EchoNumbers": 1,
      "EchoTime": 37.0,
      "EchoTrainLength": 104,
      "FlipAngle": 52.0,
      "HighBit": 15,
      "ImageOrientationPatient": [0.99648273816351, 0.0815893290133, 0.01911371061097, -0.0700303826247, 0.93607481933298, -0.3447603198168],
      "ImagePositionPatient": [-770.96749255713, -881.61614234696, 247.7522698596],
      "ImageType": [
        "ORIGINAL",
        "PRIMARY",
        "P",
        "MB",
        "ND",
        "MOSAIC"
],
      "ImagedNucleus": "1H",
      "ImagingFrequency": 123.258876,
      "InPlanePhaseEncodingDirection": "COL",
      "LargestImagePixelValue": 4095,
      "MRAcquisitionType": "2D",
      "MagneticFieldStrength": 3.0,
      "Manufacturer": "SIEMENS",
      "ManufacturerModelName": "Prisma_fit",
      "Modality": "MR",
      "NumberOfAverages": 1.0,
      "NumberOfPhaseEncodingSteps": 104,
      "PercentPhaseFieldOfView": 100.0,
      "PercentSampling": 100.0,
      "PerformedProcedureStepStartTime": "170711.187000",
      "PhotometricInterpretation": "MONOCHROME2",
      "PixelBandwidth": 2290.0,
      "PixelRepresentation": 0,
      "PixelSpacing": [2.0, 2.0],
      "ProtocolName": "func_task-things_run-2",
      "RepetitionTime": 1490.0,
      "RescaleIntercept": -4096.0,
      "RescaleSlope": 2.0,
      "RescaleType": "US",
      "Rows": 832,
      "SAR": 0.03858979666129,
      "SamplesPerPixel": 1,
      "ScanOptions": "FS",
      "ScanningSequence": "EP",
      "SequenceName": "epfid2d1_104",
      "SequenceVariant": [
        "SK",
        "SS"
],
      "SeriesDescription": "func_task-things_run-2",
      "SeriesNumber": 14,
      "SeriesTime": "173933.126000",
      "SliceLocation": -33.702172081103,
      "SliceThickness": 2.0,
      "SmallestImagePixelValue": 0,
      "SoftwareVersions": "syngo MR E11",
      "SpacingBetweenSlices": 1.9999999617514,
      "SpecificCharacterSet": "ISO_IR 100",
      "StudyID": "1",
      "StudyTime": "170711.072000",
      "TransmitCoilName": "Body",
      "VariableFlipAngleFlag": "N",
      "WindowCenterWidthExplanation": "Algo1",
      "dBdt": 0.0},
    "slices": {}
  },
  "time": {
    "samples": {
      "AcquisitionNumber": [1, 2, 3, 4, 5, 6, 7, 8, 9, 10, 11, 12, 13, 14, 15, 16, 17, 18, 19, 20, 21, 22, 23, 24, 25, 26, 27, 28, 29, 30, 31, 32, 33, 34, 35, 36, 37, 38, 39, 40, 41, 42, 43, 44, 45, 46, 47, 48, 49, 50, 51, 52, 53, 54, 55, 56, 57, 58, 59, 60, 61, 62, 63, 64, 65, 66, 67, 68, 69, 70, 71, 72, 73, 74, 75, 76, 77, 78, 79, 80, 81, 82, 83, 84, 85, 86, 87, 88, 89, 90, 91, 92, 93, 94, 95, 96, 97, 98, 99, 100, 101, 102, 103, 104, 105, 106, 107, 108, 109, 110, 111, 112, 113, 114, 115, 116, 117, 118, 119, 120, 121, 122, 123, 124, 125, 126, 127, 128, 129, 130, 131, 132, 133, 134, 135, 136, 137, 138, 139, 140, 141, 142, 143, 144, 145, 146, 147, 148, 149, 150, 151, 152, 153, 154, 155, 156, 157, 158, 159, 160, 161, 162, 163, 164, 165, 166, 167, 168, 169, 170, 171, 172, 173, 174, 175, 176, 177, 178, 179, 180, 181, 182, 183, 184, 185, 186, 187, 188, 189, 190],
      "AcquisitionTime": ["173812.027500", "173813.517500", "173815.007500", "173816.497500", "173817.987500", "173819.477500", "173820.967500", "173822.457500", "173823.947500", "173825.437500", "173826.927500", "173828.417500", "173829.907500", "173831.397500", "173832.887500", "173834.377500", "173835.867500", "173837.357500", "173838.847500", "173840.337500", "173841.827500", "173843.317500", "173844.807500", "173846.297500", "173847.787500", "173849.277500", "173850.767500", "173852.257500", "173853.747500", "173855.237500", "173856.727500", "173858.217500", "173859.707500", "173901.197500", "173902.687500", "173904.177500", "173905.667500", "173907.157500", "173908.647500", "173910.137500", "173911.627500", "173913.117500", "173914.607500", "173916.097500", "173917.587500", "173919.077500", "173920.567500", "173922.057500", "173923.547500", "173925.037500", "173926.527500", "173928.017500", "173929.507500", "173930.997500", "173932.487500", "173933.977500", "173935.467500", "173936.957500", "173938.447500", "173939.937500", "173941.427500", "173942.917500", "173944.407500", "173945.897500", "173947.387500", "173948.877500", "173950.367500", "173951.857500", "173953.347500", "173954.837500", "173956.327500", "173957.817500", "173959.307500", "174000.797500", "174002.287500", "174003.777500", "174005.267500", "174006.757500", "174008.247500", "174009.737500", "174011.227500", "174012.717500", "174014.207500", "174015.697500", "174017.187500", "174018.677500", "174020.167500", "174021.657500", "174023.147500", "174024.637500", "174026.127500", "174027.617500", "174029.107500", "174030.597500", "174032.087500", "174033.577500", "174035.067500", "174036.557500", "174038.047500", "174039.537500", "174041.027500", "174042.517500", "174044.007500", "174045.497500", "174046.987500", "174048.477500", "174049.967500", "174051.457500", "174052.947500", "174054.437500", "174055.927500", "174057.417500", "174058.907500", "174100.397500", "174101.887500", "174103.377500", "174104.867500", "174106.357500", "174107.847500", "174109.337500", "174110.827500", "174112.317500", "174113.807500", "174115.297500", "174116.787500", "174118.277500", "174119.767500", "174121.257500", "174122.747500", "174124.237500", "174125.727500", "174127.217500", "174128.707500", "174130.197500", "174131.687500", "174133.177500", "174134.667500", "174136.157500", "174137.647500", "174139.137500", "174140.627500", "174142.117500", "174143.607500", "174145.097500", "174146.587500", "174148.077500", "174149.567500", "174151.057500", "174152.547500", "174154.037500", "174155.527500", "174157.017500", "174158.507500", "174159.997500", "174201.487500", "174202.977500", "174204.467500", "174205.957500", "174207.447500", "174208.937500", "174210.427500", "174211.917500", "174213.407500", "174214.897500", "174216.387500", "174217.877500", "174219.367500", "174220.857500", "174222.347500", "174223.837500", "174225.327500", "174226.817500", "174228.307500", "174229.797500", "174231.287500", "174232.777500", "174234.267500", "174235.757500", "174237.247500", "174238.737500", "174240.227500", "174241.717500", "174243.207500", "174244.697500", "174246.187500", "174247.677500", "174249.167500", "174250.657500", "174252.147500", "174253.637500"],
      "ContentTime": ["173933.128000", "173933.131000", "173933.133000", "173933.136000", "173933.138000", "173933.141000", "173933.143000", "173933.146000", "173933.148000", "173933.151000", "173933.153000", "173933.156000", "173933.158000", "173933.161000", "173933.163000", "173933.166000", "173933.168000", "173933.171000", "173933.173000", "173933.176000", "173933.178000", "173933.181000", "173933.183000", "173933.186000", "173933.188000", "173933.191000", "173933.193000", "173933.196000", "173953.085000", "173953.088000", "173953.090000", "173953.093000", "173953.095000", "173953.103000", "173953.105000", "173953.108000", "173953.110000", "173953.113000", "173953.115000", "173953.118000", "173953.120000", "173953.123000", "173953.125000", "173953.128000", "173953.130000", "173953.133000", "173953.135000", "173953.138000", "174013.074000", "174013.077000", "174013.079000", "174013.082000", "174013.091000", "174013.093000", "174013.096000", "174013.098000", "174013.101000", "174013.103000", "174013.106000", "174013.108000", "174013.111000", "174013.113000", "174013.116000", "174013.118000", "174013.121000", "174013.123000", "174013.126000", "174013.128000", "174013.131000", "174033.095000", "174033.098000", "174033.101000", "174033.103000", "174033.106000", "174033.108000", "174033.111000", "174033.113000", "174033.115000", "174033.118000", "174033.120000", "174033.123000", "174033.125000", "174033.128000", "174033.130000", "174033.133000", "174033.135000", "174033.138000", "174033.140000", "174033.143000", "174113.121000", "174113.124000", "174113.126000", "174113.129000", "174113.131000", "174113.134000", "174113.136000", "174113.139000", "174113.141000", "174113.144000", "174113.146000", "174113.149000", "174113.151000", "174113.154000", "174113.156000", "174113.159000", "174113.161000", "174113.164000", "174113.166000", "174113.169000", "174113.171000", "174113.174000", "174113.176000", "174113.179000", "174113.181000", "174113.184000", "174113.186000", "174113.189000", "174113.191000", "174113.194000", "174113.196000", "174153.522000", "174153.525000", "174153.528000", "174153.530000", "174153.532000", "174153.535000", "174153.538000", "174153.540000", "174153.542000", "174153.545000", "174153.548000", "174153.550000", "174153.552000", "174153.555000", "174153.558000", "174153.560000", "174153.563000", "174153.565000", "174153.568000", "174153.570000", "174153.573000", "174153.575000", "174153.578000", "174153.580000", "174153.583000", "174153.585000", "174153.588000", "174233.119000", "174233.122000", "174233.125000", "174233.127000", "174233.130000", "174233.132000", "174233.135000", "174233.137000", "174233.140000", "174233.142000", "174233.145000", "174233.147000", "174233.150000", "174233.152000", "174233.155000", "174233.158000", "174233.160000", "174233.163000", "174233.165000", "174233.168000", "174233.174000", "174233.177000", "174233.179000", "174233.182000", "174233.184000", "174233.187000", "174233.189000", "174255.998000", "174256.002000", "174256.005000", "174256.007000", "174256.010000", "174256.020000", "174256.022000", "174256.025000", "174256.027000", "174256.030000", "174256.032000", "174256.035000", "174256.037000", "174256.040000", "174256.042000", "174256.045000"],
      "InstanceCreationTime": ["173933.128000", "173933.131000", "173933.133000", "173933.136000", "173933.138000", "173933.141000", "173933.143000", "173933.146000", "173933.148000", "173933.151000", "173933.153000", "173933.156000", "173933.158000", "173933.161000", "173933.163000", "173933.166000", "173933.168000", "173933.171000", "173933.173000", "173933.176000", "173933.178000", "173933.181000", "173933.183000", "173933.186000", "173933.188000", "173933.191000", "173933.193000", "173933.196000", "173953.085000", "173953.088000", "173953.090000", "173953.093000", "173953.095000", "173953.103000", "173953.105000", "173953.108000", "173953.110000", "173953.113000", "173953.115000", "173953.118000", "173953.120000", "173953.123000", "173953.125000", "173953.128000", "173953.130000", "173953.133000", "173953.135000", "173953.138000", "174013.074000", "174013.077000", "174013.079000", "174013.082000", "174013.091000", "174013.093000", "174013.096000", "174013.098000", "174013.101000", "174013.103000", "174013.106000", "174013.108000", "174013.111000", "174013.113000", "174013.116000", "174013.118000", "174013.121000", "174013.123000", "174013.126000", "174013.128000", "174013.131000", "174033.095000", "174033.098000", "174033.101000", "174033.103000", "174033.106000", "174033.108000", "174033.111000", "174033.113000", "174033.115000", "174033.118000", "174033.120000", "174033.123000", "174033.125000", "174033.128000", "174033.130000", "174033.133000", "174033.135000", "174033.138000", "174033.140000", "174033.143000", "174113.121000", "174113.124000", "174113.126000", "174113.129000", "174113.131000", "174113.134000", "174113.136000", "174113.139000", "174113.141000", "174113.144000", "174113.146000", "174113.149000", "174113.151000", "174113.154000", "174113.156000", "174113.159000", "174113.161000", "174113.164000", "174113.166000", "174113.169000", "174113.171000", "174113.174000", "174113.176000", "174113.179000", "174113.181000", "174113.184000", "174113.186000", "174113.189000", "174113.191000", "174113.194000", "174113.196000", "174153.522000", "174153.525000", "174153.528000", "174153.530000", "174153.532000", "174153.535000", "174153.538000", "174153.540000", "174153.542000", "174153.545000", "174153.548000", "174153.550000", "174153.552000", "174153.555000", "174153.558000", "174153.560000", "174153.563000", "174153.565000", "174153.568000", "174153.570000", "174153.573000", "174153.575000", "174153.578000", "174153.580000", "174153.583000", "174153.585000", "174153.588000", "174233.119000", "174233.122000", "174233.125000", "174233.127000", "174233.130000", "174233.132000", "174233.135000", "174233.137000", "174233.140000", "174233.142000", "174233.145000", "174233.147000", "174233.150000", "174233.152000", "174233.155000", "174233.158000", "174233.160000", "174233.163000", "174233.165000", "174233.168000", "174233.174000", "174233.177000", "174233.179000", "174233.182000", "174233.184000", "174233.187000", "174233.189000", "174255.998000", "174256.002000", "174256.005000", "174256.007000", "174256.010000", "174256.020000", "174256.022000", "174256.025000", "174256.027000", "174256.030000", "174256.032000", "174256.035000", "174256.037000", "174256.040000", "174256.042000", "174256.045000"],
      "InstanceNumber": [1, 2, 3, 4, 5, 6, 7, 8, 9, 10, 11, 12, 13, 14, 15, 16, 17, 18, 19, 20, 21, 22, 23, 24, 25, 26, 27, 28, 29, 30, 31, 32, 33, 34, 35, 36, 37, 38, 39, 40, 41, 42, 43, 44, 45, 46, 47, 48, 49, 50, 51, 52, 53, 54, 55, 56, 57, 58, 59, 60, 61, 62, 63, 64, 65, 66, 67, 68, 69, 70, 71, 72, 73, 74, 75, 76, 77, 78, 79, 80, 81, 82, 83, 84, 85, 86, 87, 88, 89, 90, 91, 92, 93, 94, 95, 96, 97, 98, 99, 100, 101, 102, 103, 104, 105, 106, 107, 108, 109, 110, 111, 112, 113, 114, 115, 116, 117, 118, 119, 120, 121, 122, 123, 124, 125, 126, 127, 128, 129, 130, 131, 132, 133, 134, 135, 136, 137, 138, 139, 140, 141, 142, 143, 144, 145, 146, 147, 148, 149, 150, 151, 152, 153, 154, 155, 156, 157, 158, 159, 160, 161, 162, 163, 164, 165, 166, 167, 168, 169, 170, 171, 172, 173, 174, 175, 176, 177, 178, 179, 180, 181, 182, 183, 184, 185, 186, 187, 188, 189, 190],
      "WindowCenter": [4850.0, 4824.0, 4824.0, 4846.0, 4850.0, 4846.0, 4824.0, 4822.0, 4850.0, 4852.0, 4850.0, 4824.0, 4818.0, 4822.0, 4828.0, 4824.0, 4824.0, 4852.0, 4850.0, 4824.0, 4824.0, 4826.0, 4820.0, 4822.0, 4846.0, 4848.0, 4850.0, 4826.0, 4822.0, 4822.0, 4822.0, 4822.0, 4826.0, 4824.0, 4826.0, 4846.0, 4856.0, 4848.0, 4824.0, 4822.0, 4822.0, 4824.0, 4848.0, 4848.0, 4826.0, 4826.0, 4850.0, 4848.0, 4848.0, 4822.0, 4826.0, 4822.0, 4822.0, 4822.0, 4824.0, 4850.0, 4876.0, 4848.0, 4824.0, 4822.0, 4822.0, 4822.0, 4850.0, 4846.0, 4826.0, 4826.0, 4826.0, 4824.0, 4826.0, 4850.0, 4844.0, 4824.0, 4824.0, 4824.0, 4846.0, 4822.0, 4826.0, 4828.0, 4824.0, 4850.0, 4852.0, 4854.0, 4848.0, 4822.0, 4826.0, 4822.0, 4826.0, 4828.0, 4824.0, 4850.0, 4874.0, 4848.0, 4826.0, 4824.0, 4824.0, 4824.0, 4824.0, 4850.0, 4822.0, 4848.0, 4824.0, 4850.0, 4850.0, 4826.0, 4822.0, 4824.0, 4824.0, 4824.0, 4846.0, 4826.0, 4824.0, 4850.0, 4850.0, 4824.0, 4824.0, 4846.0, 4824.0, 4822.0, 4826.0, 4848.0, 4826.0, 4826.0, 4850.0, 4826.0, 4822.0, 4848.0, 4826.0, 4848.0, 4824.0, 4828.0, 4848.0, 4848.0, 4846.0, 4852.0, 4850.0, 4826.0, 4826.0, 4852.0, 4850.0, 4828.0, 4824.0, 4850.0, 4852.0, 4852.0, 4826.0, 4826.0, 4826.0, 4824.0, 4848.0, 4846.0, 4822.0, 4826.0, 4822.0, 4850.0, 4822.0, 4824.0, 4824.0, 4824.0, 4846.0, 4826.0, 4848.0, 4852.0, 4846.0, 4848.0, 4824.0, 4826.0, 4848.0, 4846.0, 4822.0, 4826.0, 4822.0, 4824.0, 4846.0, 4824.0, 4846.0, 4850.0, 4848.0, 4824.0, 4826.0, 4824.0, 4824.0, 4826.0, 4846.0, 4852.0, 4852.0, 4850.0, 4824.0, 4822.0, 4824.0, 4850.0],
      "WindowWidth": [18626.0, 18596.0, 18600.0, 18624.0, 18630.0, 18626.0, 18594.0, 18590.0, 18626.0, 18630.0, 18624.0, 18590.0, 18590.0, 18594.0, 18596.0, 18588.0, 18588.0, 18636.0, 18630.0, 18592.0, 18592.0, 18594.0, 18592.0, 18594.0, 18624.0, 18630.0, 18622.0, 18592.0, 18592.0, 18590.0, 18592.0, 18586.0, 18592.0, 18592.0, 18592.0, 18622.0, 18634.0, 18622.0, 18590.0, 18592.0, 18590.0, 18594.0, 18626.0, 18624.0, 18592.0, 18592.0, 18632.0, 18630.0, 18620.0, 18594.0, 18592.0, 18594.0, 18590.0, 18588.0, 18594.0, 18628.0, 18666.0, 18626.0, 18592.0, 18594.0, 18586.0, 18592.0, 18626.0, 18624.0, 18592.0, 18592.0, 18596.0, 18590.0, 18594.0, 18624.0, 18622.0, 18586.0, 18588.0, 18592.0, 18620.0, 18590.0, 18592.0, 18590.0, 18594.0, 18622.0, 18630.0, 18634.0, 18622.0, 18590.0, 18596.0, 18588.0, 18594.0, 18594.0, 18592.0, 18636.0, 18668.0, 18620.0, 18590.0, 18594.0, 18590.0, 18590.0, 18592.0, 18630.0, 18596.0, 18622.0, 18592.0, 18626.0, 18626.0, 18594.0, 18586.0, 18592.0, 18590.0, 18590.0, 18620.0, 18592.0, 18592.0, 18628.0, 18620.0, 18588.0, 18596.0, 18624.0, 18594.0, 18596.0, 18594.0, 18626.0, 18592.0, 18594.0, 18626.0, 18588.0, 18592.0, 18620.0, 18588.0, 18622.0, 18590.0, 18594.0, 18624.0, 18622.0, 18624.0, 18626.0, 18628.0, 18592.0, 18592.0, 18628.0, 18626.0, 18596.0, 18592.0, 18626.0, 18626.0, 18630.0, 18596.0, 18596.0, 18596.0, 18590.0, 18622.0, 18618.0, 18592.0, 18590.0, 18590.0, 18624.0, 18588.0, 18590.0, 18592.0, 18596.0, 18626.0, 18592.0, 18620.0, 18626.0, 18620.0, 18626.0, 18594.0, 18596.0, 18626.0, 18616.0, 18588.0, 18592.0, 18594.0, 18590.0, 18622.0, 18594.0, 18622.0, 18626.0, 18626.0, 18596.0, 18594.0, 18594.0, 18594.0, 18596.0, 18628.0, 18634.0, 18632.0, 18618.0, 18592.0, 18590.0, 18590.0, 18628.0]
    },
    "slices": {}
  }
}