{
  "AcquisitionMatrixPE": 104,
  "AcquisitionNumber": 1,
  "AcquisitionTime": "17:38:12.027500",
  "BandwidthPerPixelPhaseEncode": 17.17,
  "BaseResolution": 104,
  "BodyPartExamined": "BRAIN",
  "CoilCombinationMethod": "Sum of Squares",
  "ConsistencyInfo": "N4_VE11C_LATEST_20160120",
  "ConversionSoftware": "dcm2niix",
  "ConversionSoftwareVersion": "v1.0.20211006",
  "DerivedVendorReportedEchoSpacing": 0.000560011,
  "DeviceSerialNumber": "167006",
  "DwellTime": 2.1e-06,
  "EchoTime": 0.037,
  "EchoTrainLength": 104,
  "EffectiveEchoSpacing": 0.000560011,
  "FlipAngle": 52,
  "HeudiconvVersion": "0.10.0",
  "ImageComments": "Unaliased MB4/PE3/LB",
  "ImageOrientationPatientDICOM": [0.996483, 0.0815893, 0.0191137, -0.0700304, 0.936075, -0.34476],
  "ImageOrientationText": "Tra>Cor(-20.0)>Sag(2.6)",
  "ImageType": [
    "ORIGINAL",
    "PRIMARY",
    "M",
    "MB",
    "ND",
    "MOSAIC"
],
  "ImagingFrequency": 123.259,
  "InPlanePhaseEncodingDirectionDICOM": "COL",
  "InstitutionAddress": "Chemin Queen-Mary 4565,Montreal,District,CA,H3W 1W5",
  "InstitutionName": "IUGM",
  "InstitutionalDepartmentName": "Department",
  "MRAcquisitionType": "2D",
  "MagneticFieldStrength": 3,
  "Manufacturer": "Siemens",
  "ManufacturersModelName": "Prisma_fit",
  "MatrixCoilMode": "SENSE",
  "Modality": "MR",
  "MultibandAccelerationFactor": 4,
  "PartialFourier": 1,
  "PatientPosition": "HFS",
  "PercentPhaseFOV": 100,
  "PercentSampling": 100,
  "PhaseEncodingDirection": "j",
  "PhaseEncodingSteps": 104,
  "PhaseResolution": 1,
  "PixelBandwidth": 2290,
  "ProcedureStepDescription": "memory^things",
  "ProtocolName": "func_task-things_run-2",
  "PulseSequenceDetails": "%CustomerSeq%\\cmrr_mbep2d_bold",
  "ReceiveCoilActiveElements": "HC1-7;NC1,2",
  "ReceiveCoilName": "HeadNeck_64",
  "ReconMatrixPE": 104,
  "RepetitionTime": 1.49,
  "SAR": 0.0385898,
  "ScanOptions": "FS",
  "ScanningSequence": "EP",
  "SequenceName": "epfid2d1_104",
  "SequenceVariant": "SK\\SS",
  "SeriesDescription": "func_task-things_run-2",
  "SeriesNumber": 13,
  "ShimSetting": [629, -7186, -8813, 658, 84, 49, -25, -14],
  "SliceThickness": 2,
  "SliceTiming": [0, 0.785, 0.0975, 0.8825, 0.1975, 0.98, 0.295, 1.0775, 0.3925, 1.1775, 0.49, 1.275, 0.5875, 1.3725, 0.6875, 0, 0.785, 0.0975, 0.8825, 0.1975, 0.98, 0.295, 1.0775, 0.3925, 1.1775, 0.49, 1.275, 0.5875, 1.3725, 0.6875, 0, 0.785, 0.0975, 0.8825, 0.1975, 0.98, 0.295, 1.0775, 0.3925, 1.1775, 0.49, 1.275, 0.5875, 1.3725, 0.6875, 0, 0.785, 0.0975, 0.8825, 0.1975, 0.98, 0.295, 1.0775, 0.3925, 1.1775, 0.49, 1.275, 0.5875, 1.3725, 0.6875],
  "SoftwareVersions": "syngo MR E11",
  "SpacingBetweenSlices": 2,
  "StationName": "MRC35049",
  "TaskName": "things",
  "TotalReadoutTime": 0.0576811,
  "TxRefAmp": 252.646,
  "WipMemBlock": "6ee3945d-bea9-4430-8cdd-1a3f3d07bcdb||Sequence: R016 ve11c/master r/e634e98; Dec 19 2017 11:00:25 by eja",
  "dcmmeta_affine": [
    [-1.9929654598236084, -0.14006076753139496, 0.0920412540435791, 110.93643951416016],
    [-0.16317865252494812, 1.8721495866775513, -0.6844183206558228, -52.074771881103516],
    [0.038227420300245285, 0.6895206570625305, 1.8769922256469727, -60.339088439941406],
    [0.0, 0.0, 0.0, 1.0]
],
  "dcmmeta_reorient_transform": [
    [0.0, -1.0, 0.0, 103.0],
    [1.0, 0.0, 0.0, 0.0],
    [0.0, 0.0, 1.0, 0.0],
    [0.0, 0.0, 0.0, 1.0]
],
  "dcmmeta_shape": [104, 104, 60, 190],
  "dcmmeta_slice_dim": 2,
  "dcmmeta_version": 0.6,
  "global": {
    "const": {
      "AcquisitionMatrix": [104, 0, 0, 104],
      "AngioFlag": "N",
      "BitsAllocated": 16,
      "BitsStored": 16,
      "BodyPartExamined": "BRAIN",
      "Columns": 832,
      "EchoNumbers": 1,
      "EchoTime": 37.0,
      "EchoTrainLength": 104,
      "FlipAngle": 52.0,
      "HighBit": 15,
      "ImageOrientationPatient": [0.99648273816351, 0.0815893290133, 0.01911371061097, -0.0700303826247, 0.93607481933298, -0.3447603198168],
      "ImagePositionPatient": [-770.96749255713, -881.61614234696, 247.7522698596],
      "ImageType": [
        "ORIGINAL",
        "PRIMARY",
        "M",
        "MB",
        "ND",
        "MOSAIC"
],
      "ImagedNucleus": "1H",
      "ImagingFrequency": 123.258876,
      "InPlanePhaseEncodingDirection": "COL",
      "MRAcquisitionType": "2D",
      "MagneticFieldStrength": 3.0,
      "Manufacturer": "SIEMENS",
      "ManufacturerModelName": "Prisma_fit",
      "Modality": "MR",
      "NumberOfAverages": 1.0,
      "NumberOfPhaseEncodingSteps": 104,
      "PercentPhaseFieldOfView": 100.0,
      "PercentSampling": 100.0,
      "PerformedProcedureStepStartTime": "170711.187000",
      "PhotometricInterpretation": "MONOCHROME2",
      "PixelBandwidth": 2290.0,
      "PixelRepresentation": 0,
      "PixelSpacing": [2.0, 2.0],
      "ProtocolName": "func_task-things_run-2",
      "RepetitionTime": 1490.0,
      "Rows": 832,
      "SAR": 0.03858979666129,
      "SamplesPerPixel": 1,
      "ScanOptions": "FS",
      "ScanningSequence": "EP",
      "SequenceName": "epfid2d1_104",
      "SequenceVariant": [
        "SK",
        "SS"
],
      "SeriesDescription": "func_task-things_run-2",
      "SeriesNumber": 13,
      "SeriesTime": "173932.997000",
      "SliceLocation": -33.702172081103,
      "SliceThickness": 2.0,
      "SmallestImagePixelValue": 0,
      "SoftwareVersions": "syngo MR E11",
      "SpacingBetweenSlices": 1.9999999617514,
      "SpecificCharacterSet": "ISO_IR 100",
      "StudyID": "1",
      "StudyTime": "170711.072000",
      "TransmitCoilName": "Body",
      "VariableFlipAngleFlag": "N",
      "WindowCenterWidthExplanation": "Algo1",
      "dBdt": 0.0},
    "slices": {}
  },
  "time": {
    "samples": {
      "AcquisitionNumber": [1, 2, 3, 4, 5, 6, 7, 8, 9, 10, 11, 12, 13, 14, 15, 16, 17, 18, 19, 20, 21, 22, 23, 24, 25, 26, 27, 28, 29, 30, 31, 32, 33, 34, 35, 36, 37, 38, 39, 40, 41, 42, 43, 44, 45, 46, 47, 48, 49, 50, 51, 52, 53, 54, 55, 56, 57, 58, 59, 60, 61, 62, 63, 64, 65, 66, 67, 68, 69, 70, 71, 72, 73, 74, 75, 76, 77, 78, 79, 80, 81, 82, 83, 84, 85, 86, 87, 88, 89, 90, 91, 92, 93, 94, 95, 96, 97, 98, 99, 100, 101, 102, 103, 104, 105, 106, 107, 108, 109, 110, 111, 112, 113, 114, 115, 116, 117, 118, 119, 120, 121, 122, 123, 124, 125, 126, 127, 128, 129, 130, 131, 132, 133, 134, 135, 136, 137, 138, 139, 140, 141, 142, 143, 144, 145, 146, 147, 148, 149, 150, 151, 152, 153, 154, 155, 156, 157, 158, 159, 160, 161, 162, 163, 164, 165, 166, 167, 168, 169, 170, 171, 172, 173, 174, 175, 176, 177, 178, 179, 180, 181, 182, 183, 184, 185, 186, 187, 188, 189, 190],
      "AcquisitionTime": ["173812.027500", "173813.517500", "173815.007500", "173816.497500", "173817.987500", "173819.477500", "173820.967500", "173822.457500", "173823.947500", "173825.437500", "173826.927500", "173828.417500", "173829.907500", "173831.397500", "173832.887500", "173834.377500", "173835.867500", "173837.357500", "173838.847500", "173840.337500", "173841.827500", "173843.317500", "173844.807500", "173846.297500", "173847.787500", "173849.277500", "173850.767500", "173852.257500", "173853.747500", "173855.237500", "173856.727500", "173858.217500", "173859.707500", "173901.197500", "173902.687500", "173904.177500", "173905.667500", "173907.157500", "173908.647500", "173910.137500", "173911.627500", "173913.117500", "173914.607500", "173916.097500", "173917.587500", "173919.077500", "173920.567500", "173922.057500", "173923.547500", "173925.037500", "173926.527500", "173928.017500", "173929.507500", "173930.997500", "173932.487500", "173933.977500", "173935.467500", "173936.957500", "173938.447500", "173939.937500", "173941.427500", "173942.917500", "173944.407500", "173945.897500", "173947.387500", "173948.877500", "173950.367500", "173951.857500", "173953.347500", "173954.837500", "173956.327500", "173957.817500", "173959.307500", "174000.797500", "174002.287500", "174003.777500", "174005.267500", "174006.757500", "174008.247500", "174009.737500", "174011.227500", "174012.717500", "174014.207500", "174015.697500", "174017.187500", "174018.677500", "174020.167500", "174021.657500", "174023.147500", "174024.637500", "174026.127500", "174027.617500", "174029.107500", "174030.597500", "174032.087500", "174033.577500", "174035.067500", "174036.557500", "174038.047500", "174039.537500", "174041.027500", "174042.517500", "174044.007500", "174045.497500", "174046.987500", "174048.477500", "174049.967500", "174051.457500", "174052.947500", "174054.437500", "174055.927500", "174057.417500", "174058.907500", "174100.397500", "174101.887500", "174103.377500", "174104.867500", "174106.357500", "174107.847500", "174109.337500", "174110.827500", "174112.317500", "174113.807500", "174115.297500", "174116.787500", "174118.277500", "174119.767500", "174121.257500", "174122.747500", "174124.237500", "174125.727500", "174127.217500", "174128.707500", "174130.197500", "174131.687500", "174133.177500", "174134.667500", "174136.157500", "174137.647500", "174139.137500", "174140.627500", "174142.117500", "174143.607500", "174145.097500", "174146.587500", "174148.077500", "174149.567500", "174151.057500", "174152.547500", "174154.037500", "174155.527500", "174157.017500", "174158.507500", "174159.997500", "174201.487500", "174202.977500", "174204.467500", "174205.957500", "174207.447500", "174208.937500", "174210.427500", "174211.917500", "174213.407500", "174214.897500", "174216.387500", "174217.877500", "174219.367500", "174220.857500", "174222.347500", "174223.837500", "174225.327500", "174226.817500", "174228.307500", "174229.797500", "174231.287500", "174232.777500", "174234.267500", "174235.757500", "174237.247500", "174238.737500", "174240.227500", "174241.717500", "174243.207500", "174244.697500", "174246.187500", "174247.677500", "174249.167500", "174250.657500", "174252.147500", "174253.637500"],
      "ContentTime": ["173933.001000", "173933.004000", "173933.008000", "173933.011000", "173933.014000", "173933.017000", "173933.021000", "173933.024000", "173933.028000", "173933.031000", "173933.034000", "173933.037000", "173933.041000", "173933.045000", "173933.049000", "173933.052000", "173933.055000", "173933.059000", "173933.062000", "173933.065000", "173933.069000", "173933.072000", "173933.075000", "173933.078000", "173933.082000", "173933.085000", "173933.088000", "173933.091000", "173952.965000", "173952.969000", "173952.972000", "173952.975000", "173952.979000", "173952.982000", "173952.985000", "173952.989000", "173952.992000", "173952.995000", "173952.998000", "173953.003000", "173953.017000", "173953.020000", "173953.023000", "173953.027000", "173953.030000", "173953.033000", "173953.037000", "173953.040000", "174012.966000", "174012.970000", "174012.973000", "174012.976000", "174012.980000", "174012.983000", "174012.986000", "174012.989000", "174012.993000", "174012.996000", "174013.000000", "174013.003000", "174013.007000", "174013.010000", "174013.013000", "174013.017000", "174013.020000", "174013.023000", "174013.027000", "174013.030000", "174013.033000", "174032.966000", "174032.970000", "174032.973000", "174032.976000", "174032.980000", "174032.983000", "174032.986000", "174032.990000", "174032.993000", "174032.996000", "174033.000000", "174033.004000", "174033.007000", "174033.011000", "174033.042000", "174033.045000", "174033.048000", "174033.051000", "174033.055000", "174033.058000", "174112.965000", "174112.969000", "174112.972000", "174112.976000", "174112.979000", "174112.982000", "174112.985000", "174112.989000", "174112.992000", "174112.996000", "174112.999000", "174113.003000", "174113.006000", "174113.009000", "174113.013000", "174113.016000", "174113.019000", "174113.023000", "174113.026000", "174113.029000", "174113.033000", "174113.036000", "174113.039000", "174113.043000", "174113.046000", "174113.049000", "174113.052000", "174113.056000", "174113.059000", "174113.062000", "174113.066000", "174152.965000", "174152.969000", "174152.972000", "174152.975000", "174152.979000", "174152.982000", "174152.985000", "174152.989000", "174152.992000", "174152.995000", "174152.998000", "174153.003000", "174153.006000", "174153.010000", "174153.025000", "174153.028000", "174153.031000", "174153.035000", "174153.038000", "174153.041000", "174153.045000", "174153.048000", "174153.051000", "174153.055000", "174153.058000", "174153.061000", "174153.064000", "174232.966000", "174232.970000", "174232.973000", "174232.977000", "174232.980000", "174232.983000", "174232.987000", "174232.990000", "174232.993000", "174232.996000", "174233.001000", "174233.004000", "174233.008000", "174233.011000", "174233.014000", "174233.018000", "174233.032000", "174233.035000", "174233.039000", "174233.042000", "174233.045000", "174233.049000", "174233.052000", "174233.055000", "174233.059000", "174233.062000", "174233.065000", "174255.887000", "174255.891000", "174255.894000", "174255.898000", "174255.901000", "174255.904000", "174255.908000", "174255.911000", "174255.915000", "174255.918000", "174255.921000", "174255.925000", "174255.928000", "174255.931000", "174255.935000", "174255.938000"],
      "InstanceCreationTime": ["173933.001000", "173933.004000", "173933.008000", "173933.011000", "173933.014000", "173933.017000", "173933.021000", "173933.024000", "173933.028000", "173933.031000", "173933.034000", "173933.037000", "173933.041000", "173933.045000", "173933.049000", "173933.052000", "173933.055000", "173933.059000", "173933.062000", "173933.065000", "173933.069000", "173933.072000", "173933.075000", "173933.078000", "173933.082000", "173933.085000", "173933.088000", "173933.091000", "173952.965000", "173952.969000", "173952.972000", "173952.975000", "173952.979000", "173952.982000", "173952.985000", "173952.989000", "173952.992000", "173952.995000", "173952.998000", "173953.003000", "173953.017000", "173953.020000", "173953.023000", "173953.027000", "173953.030000", "173953.033000", "173953.037000", "173953.040000", "174012.966000", "174012.970000", "174012.973000", "174012.976000", "174012.980000", "174012.983000", "174012.986000", "174012.989000", "174012.993000", "174012.996000", "174013.000000", "174013.003000", "174013.007000", "174013.010000", "174013.013000", "174013.017000", "174013.020000", "174013.023000", "174013.027000", "174013.030000", "174013.033000", "174032.966000", "174032.970000", "174032.973000", "174032.976000", "174032.980000", "174032.983000", "174032.986000", "174032.990000", "174032.993000", "174032.996000", "174033.000000", "174033.004000", "174033.007000", "174033.011000", "174033.042000", "174033.045000", "174033.048000", "174033.051000", "174033.055000", "174033.058000", "174112.965000", "174112.969000", "174112.972000", "174112.976000", "174112.979000", "174112.982000", "174112.985000", "174112.989000", "174112.992000", "174112.996000", "174112.999000", "174113.003000", "174113.006000", "174113.009000", "174113.013000", "174113.016000", "174113.019000", "174113.023000", "174113.026000", "174113.029000", "174113.033000", "174113.036000", "174113.039000", "174113.043000", "174113.046000", "174113.049000", "174113.052000", "174113.056000", "174113.059000", "174113.062000", "174113.066000", "174152.965000", "174152.969000", "174152.972000", "174152.975000", "174152.979000", "174152.982000", "174152.985000", "174152.989000", "174152.992000", "174152.995000", "174152.998000", "174153.003000", "174153.006000", "174153.010000", "174153.025000", "174153.028000", "174153.031000", "174153.035000", "174153.038000", "174153.041000", "174153.045000", "174153.048000", "174153.051000", "174153.055000", "174153.058000", "174153.061000", "174153.064000", "174232.966000", "174232.970000", "174232.973000", "174232.977000", "174232.980000", "174232.983000", "174232.987000", "174232.990000", "174232.993000", "174232.996000", "174233.001000", "174233.004000", "174233.008000", "174233.011000", "174233.014000", "174233.018000", "174233.032000", "174233.035000", "174233.039000", "174233.042000", "174233.045000", "174233.049000", "174233.052000", "174233.055000", "174233.059000", "174233.062000", "174233.065000", "174255.887000", "174255.891000", "174255.894000", "174255.898000", "174255.901000", "174255.904000", "174255.908000", "174255.911000", "174255.915000", "174255.918000", "174255.921000", "174255.925000", "174255.928000", "174255.931000", "174255.935000", "174255.938000"],
      "InstanceNumber": [1, 2, 3, 4, 5, 6, 7, 8, 9, 10, 11, 12, 13, 14, 15, 16, 17, 18, 19, 20, 21, 22, 23, 24, 25, 26, 27, 28, 29, 30, 31, 32, 33, 34, 35, 36, 37, 38, 39, 40, 41, 42, 43, 44, 45, 46, 47, 48, 49, 50, 51, 52, 53, 54, 55, 56, 57, 58, 59, 60, 61, 62, 63, 64, 65, 66, 67, 68, 69, 70, 71, 72, 73, 74, 75, 76, 77, 78, 79, 80, 81, 82, 83, 84, 85, 86, 87, 88, 89, 90, 91, 92, 93, 94, 95, 96, 97, 98, 99, 100, 101, 102, 103, 104, 105, 106, 107, 108, 109, 110, 111, 112, 113, 114, 115, 116, 117, 118, 119, 120, 121, 122, 123, 124, 125, 126, 127, 128, 129, 130, 131, 132, 133, 134, 135, 136, 137, 138, 139, 140, 141, 142, 143, 144, 145, 146, 147, 148, 149, 150, 151, 152, 153, 154, 155, 156, 157, 158, 159, 160, 161, 162, 163, 164, 165, 166, 167, 168, 169, 170, 171, 172, 173, 174, 175, 176, 177, 178, 179, 180, 181, 182, 183, 184, 185, 186, 187, 188, 189, 190],
      "LargestImagePixelValue": [48566, 44069, 42227, 41100, 42418, 41569, 40181, 40706, 41855, 42428, 41249, 41524, 42899, 43177, 43112, 43313, 43433, 43445, 42305, 41488, 41874, 41877, 42063, 42625, 42648, 42662, 41613, 40871, 42113, 42548, 42287, 42610, 43091, 42717, 42267, 42496, 42367, 41533, 41697, 41956, 42351, 43377, 43285, 42462, 42469, 43004, 42831, 41899, 41032, 41404, 42222, 42585, 42610, 42521, 42059, 42613, 42252, 41355, 41107, 41492, 41802, 42379, 42926, 42446, 41561, 41794, 42242, 42390, 42471, 42122, 41362, 41270, 41242, 41959, 41168, 41896, 41912, 41809, 41110, 41940, 42028, 42030, 40924, 41459, 41607, 41906, 41431, 41408, 41754, 41954, 40825, 41305, 40964, 41184, 41509, 41618, 42148, 41598, 41173, 41755, 41210, 41541, 41185, 40955, 41269, 41209, 41355, 42348, 41872, 41844, 41892, 42374, 41205, 41444, 41655, 41767, 41581, 41680, 41699, 41629, 41316, 41657, 41396, 41087, 41246, 41657, 41613, 41404, 41241, 42728, 42238, 41313, 41184, 41984, 40790, 40838, 41071, 41702, 41075, 40852, 41472, 40858, 42148, 41276, 40695, 40634, 40664, 40894, 40862, 40305, 40482, 40526, 40417, 40781, 39847, 39976, 40176, 40323, 40431, 39523, 40434, 39695, 40445, 39783, 39873, 40319, 40088, 39597, 40137, 39896, 40130, 39990, 40361, 40269, 40155, 40781, 40368, 44702, 40924, 40492, 40413, 41199, 41620, 41982, 41102, 41292, 41577, 42642, 42219, 42710],
      "WindowCenter": [10595.0, 10495.0, 10419.0, 10383.0, 10405.0, 10422.0, 10422.0, 10397.0, 10396.0, 10410.0, 10424.0, 10424.0, 10414.0, 10395.0, 10392.0, 10387.0, 10383.0, 10387.0, 10370.0, 10366.0, 10363.0, 10351.0, 10352.0, 10374.0, 10386.0, 10396.0, 10405.0, 10394.0, 10382.0, 10371.0, 10380.0, 10396.0, 10409.0, 10397.0, 10383.0, 10386.0, 10381.0, 10382.0, 10391.0, 10390.0, 10396.0, 10424.0, 10437.0, 10451.0, 10447.0, 10426.0, 10406.0, 10396.0, 10433.0, 10443.0, 10430.0, 10410.0, 10388.0, 10372.0, 10366.0, 10377.0, 10381.0, 10381.0, 10376.0, 10370.0, 10372.0, 10388.0, 10414.0, 10436.0, 10434.0, 10414.0, 10401.0, 10401.0, 10424.0, 10436.0, 10420.0, 10402.0, 10367.0, 10363.0, 10368.0, 10407.0, 10410.0, 10403.0, 10391.0, 10392.0, 10377.0, 10392.0, 10418.0, 10424.0, 10407.0, 10393.0, 10377.0, 10361.0, 10359.0, 10365.0, 10364.0, 10387.0, 10387.0, 10379.0, 10376.0, 10376.0, 10388.0, 10386.0, 10396.0, 10390.0, 10382.0, 10394.0, 10408.0, 10427.0, 10419.0, 10392.0, 10379.0, 10397.0, 10411.0, 10431.0, 10426.0, 10426.0, 10408.0, 10412.0, 10415.0, 10411.0, 10404.0, 10407.0, 10413.0, 10414.0, 10409.0, 10406.0, 10396.0, 10407.0, 10426.0, 10426.0, 10417.0, 10403.0, 10418.0, 10453.0, 10442.0, 10429.0, 10421.0, 10421.0, 10404.0, 10419.0, 10427.0, 10432.0, 10428.0, 10437.0, 10428.0, 10404.0, 10407.0, 10398.0, 10419.0, 10421.0, 10414.0, 10410.0, 10394.0, 10387.0, 10394.0, 10385.0, 10376.0, 10382.0, 10388.0, 10398.0, 10388.0, 10372.0, 10376.0, 10380.0, 10397.0, 10384.0, 10385.0, 10374.0, 10395.0, 10403.0, 10407.0, 10409.0, 10424.0, 10418.0, 10402.0, 10398.0, 10389.0, 10377.0, 10380.0, 10412.0, 10414.0, 10451.0, 10401.0, 10385.0, 10387.0, 10408.0, 10415.0, 10414.0, 10404.0, 10403.0, 10383.0, 10383.0, 10385.0, 10393.0],
      "WindowWidth": [22562.0, 22314.0, 22117.0, 22032.0, 22071.0, 22118.0, 22124.0, 22058.0, 22046.0, 22079.0, 22119.0, 22121.0, 22088.0, 22044.0, 22035.0, 22029.0, 22012.0, 22017.0, 21989.0, 21982.0, 21972.0, 21944.0, 21950.0, 21998.0, 22028.0, 22046.0, 22073.0, 22056.0, 22014.0, 21988.0, 22010.0, 22048.0, 22071.0, 22046.0, 22014.0, 22019.0, 22014.0, 22020.0, 22044.0, 22041.0, 22056.0, 22112.0, 22145.0, 22180.0, 22172.0, 22117.0, 22066.0, 22046.0, 22143.0, 22165.0, 22128.0, 22078.0, 22027.0, 21990.0, 21988.0, 22006.0, 22014.0, 22025.0, 22015.0, 21996.0, 21997.0, 22034.0, 22094.0, 22151.0, 22151.0, 22100.0, 22064.0, 22065.0, 22116.0, 22145.0, 22114.0, 22067.0, 21987.0, 21971.0, 21987.0, 22077.0, 22084.0, 22066.0, 22043.0, 22042.0, 22005.0, 22040.0, 22109.0, 22121.0, 22079.0, 22042.0, 22003.0, 21968.0, 21963.0, 21974.0, 21978.0, 22030.0, 22032.0, 22013.0, 22003.0, 22004.0, 22027.0, 22029.0, 22054.0, 22043.0, 22022.0, 22049.0, 22087.0, 22133.0, 22112.0, 22046.0, 22009.0, 22047.0, 22089.0, 22136.0, 22124.0, 22138.0, 22081.0, 22097.0, 22101.0, 22087.0, 22070.0, 22077.0, 22088.0, 22089.0, 22082.0, 22073.0, 22048.0, 22080.0, 22125.0, 22122.0, 22102.0, 22074.0, 22109.0, 22193.0, 22161.0, 22131.0, 22112.0, 22107.0, 22076.0, 22113.0, 22127.0, 22134.0, 22133.0, 22155.0, 22132.0, 22075.0, 22071.0, 22056.0, 22112.0, 22117.0, 22097.0, 22086.0, 22048.0, 22036.0, 22052.0, 22029.0, 22009.0, 22023.0, 22044.0, 22066.0, 22040.0, 22006.0, 22009.0, 22024.0, 22060.0, 22031.0, 22029.0, 22008.0, 22053.0, 22074.0, 22085.0, 22092.0, 22125.0, 22111.0, 22073.0, 22063.0, 22041.0, 22010.0, 22023.0, 22098.0, 22102.0, 22179.0, 22068.0, 22026.0, 22035.0, 22078.0, 22091.0, 22087.0, 22071.0, 22068.0, 22020.0, 22014.0, 22022.0, 22040.0]
    },
    "slices": {}
  }
}