{
  "AcquisitionMatrixPE": 104,
  "AcquisitionNumber": 1,
  "AcquisitionTime": "18:13:24.740000",
  "BandwidthPerPixelPhaseEncode": 17.17,
  "BaseResolution": 104,
  "BodyPartExamined": "BRAIN",
  "CoilCombinationMethod": "Sum of Squares",
  "ConsistencyInfo": "N4_VE11C_LATEST_20160120",
  "ConversionSoftware": "dcm2niix",
  "ConversionSoftwareVersion": "v1.0.20211006",
  "DerivedVendorReportedEchoSpacing": 0.000560011,
  "DeviceSerialNumber": "167006",
  "DwellTime": 2.1e-06,
  "EchoTime": 0.037,
  "EchoTrainLength": 104,
  "EffectiveEchoSpacing": 0.000560011,
  "FlipAngle": 52,
  "HeudiconvVersion": "0.10.0",
  "ImageComments": "Unaliased MB4/PE3/LB",
  "ImageOrientationPatientDICOM": [0.996829, 0.0703848, 0.037133, -0.0520671, 0.929728, -0.364548],
  "ImageOrientationText": "Tra>Cor(-21.2)>Sag(3.5)",
  "ImageType": [
    "ORIGINAL",
    "PRIMARY",
    "M",
    "MB",
    "ND",
    "MOSAIC"
],
  "ImagingFrequency": 123.259,
  "InPlanePhaseEncodingDirectionDICOM": "COL",
  "InstitutionAddress": "Chemin Queen-Mary 4565,Montreal,District,CA,H3W 1W5",
  "InstitutionName": "IUGM",
  "InstitutionalDepartmentName": "Department",
  "MRAcquisitionType": "2D",
  "MagneticFieldStrength": 3,
  "Manufacturer": "Siemens",
  "ManufacturersModelName": "Prisma_fit",
  "MatrixCoilMode": "SENSE",
  "Modality": "MR",
  "MultibandAccelerationFactor": 4,
  "PartialFourier": 1,
  "PatientPosition": "HFS",
  "PercentPhaseFOV": 100,
  "PercentSampling": 100,
  "PhaseEncodingDirection": "j",
  "PhaseEncodingSteps": 104,
  "PhaseResolution": 1,
  "PixelBandwidth": 2290,
  "ProcedureStepDescription": "memory^things",
  "ProtocolName": "func_task-things_run-6",
  "PulseSequenceDetails": "%CustomerSeq%\\cmrr_mbep2d_bold",
  "ReceiveCoilActiveElements": "HC1-7;NC1,2",
  "ReceiveCoilName": "HeadNeck_64",
  "ReconMatrixPE": 104,
  "RepetitionTime": 1.49,
  "SAR": 0.0522362,
  "ScanOptions": "FS",
  "ScanningSequence": "EP",
  "SequenceName": "epfid2d1_104",
  "SequenceVariant": "SK\\SS",
  "SeriesDescription": "func_task-things_run-6",
  "SeriesNumber": 33,
  "ShimSetting": [629, -7174, -8817, 628, 72, 71, -81, -3],
  "SliceThickness": 2,
  "SliceTiming": [0, 0.7825, 0.0975, 0.88, 0.195, 0.9775, 0.2925, 1.0775, 0.39, 1.175, 0.49, 1.2725, 0.5875, 1.37, 0.685, 0, 0.7825, 0.0975, 0.88, 0.195, 0.9775, 0.2925, 1.0775, 0.39, 1.175, 0.49, 1.2725, 0.5875, 1.37, 0.685, 0, 0.7825, 0.0975, 0.88, 0.195, 0.9775, 0.2925, 1.0775, 0.39, 1.175, 0.49, 1.2725, 0.5875, 1.37, 0.685, 0, 0.7825, 0.0975, 0.88, 0.195, 0.9775, 0.2925, 1.0775, 0.39, 1.175, 0.49, 1.2725, 0.5875, 1.37, 0.685],
  "SoftwareVersions": "syngo MR E11",
  "SpacingBetweenSlices": 2,
  "StationName": "MRC35049",
  "TaskName": "things",
  "TotalReadoutTime": 0.0576811,
  "TxRefAmp": 276.951,
  "WipMemBlock": "3bf06737-e3a5-4425-a968-4c243c569efc||Sequence: R016 ve11c/master r/e634e98; Dec 19 2017 11:00:25 by eja",
  "dcmmeta_affine": [
    [-1.993657112121582, -0.1041342169046402, 0.12036435306072235, 108.84756469726562],
    [-0.1407696157693863, 1.8594557046890259, -0.7229164838790894, -51.91585922241211],
    [0.07426591962575912, 0.7290955781936646, 1.860888123512268, -62.78157424926758],
    [0.0, 0.0, 0.0, 1.0]
],
  "dcmmeta_reorient_transform": [
    [0.0, -1.0, 0.0, 103.0],
    [1.0, 0.0, 0.0, 0.0],
    [0.0, 0.0, 1.0, 0.0],
    [0.0, 0.0, 0.0, 1.0]
],
  "dcmmeta_shape": [104, 104, 60, 190],
  "dcmmeta_slice_dim": 2,
  "dcmmeta_version": 0.6,
  "global": {
    "const": {
      "AcquisitionMatrix": [104, 0, 0, 104],
      "AngioFlag": "N",
      "BitsAllocated": 16,
      "BitsStored": 16,
      "BodyPartExamined": "BRAIN",
      "Columns": 832,
      "EchoNumbers": 1,
      "EchoTime": 37.0,
      "EchoTrainLength": 104,
      "FlipAngle": 52.0,
      "HighBit": 15,
      "ImageOrientationPatient": [0.99682853193813, 0.07038480849189, 0.03713295904761, -0.0520671091078, 0.92972787398845, -0.3645477972476],
      "ImagePositionPatient": [-785.90805546231, -867.69011489127, 250.67327502108],
      "ImageType": [
        "ORIGINAL",
        "PRIMARY",
        "M",
        "MB",
        "ND",
        "MOSAIC"
],
      "ImagedNucleus": "1H",
      "ImagingFrequency": 123.258887,
      "InPlanePhaseEncodingDirection": "COL",
      "MRAcquisitionType": "2D",
      "MagneticFieldStrength": 3.0,
      "Manufacturer": "SIEMENS",
      "ManufacturerModelName": "Prisma_fit",
      "Modality": "MR",
      "NumberOfAverages": 1.0,
      "NumberOfPhaseEncodingSteps": 104,
      "PercentPhaseFieldOfView": 100.0,
      "PercentSampling": 100.0,
      "PerformedProcedureStepStartTime": "170711.187000",
      "PhotometricInterpretation": "MONOCHROME2",
      "PixelBandwidth": 2290.0,
      "PixelRepresentation": 0,
      "PixelSpacing": [2.0, 2.0],
      "ProtocolName": "func_task-things_run-6",
      "RepetitionTime": 1490.0,
      "Rows": 832,
      "SAR": 0.05223621312985,
      "SamplesPerPixel": 1,
      "ScanOptions": "FS",
      "ScanningSequence": "EP",
      "SequenceName": "epfid2d1_104",
      "SequenceVariant": [
        "SK",
        "SS"
],
      "SeriesDescription": "func_task-things_run-6",
      "SeriesNumber": 33,
      "SeriesTime": "181440.724000",
      "SliceLocation": -33.098640221895,
      "SliceThickness": 2.0,
      "SmallestImagePixelValue": 0,
      "SoftwareVersions": "syngo MR E11",
      "SpacingBetweenSlices": 2.0000000593077,
      "SpecificCharacterSet": "ISO_IR 100",
      "StudyID": "1",
      "StudyTime": "170711.072000",
      "TransmitCoilName": "Body",
      "VariableFlipAngleFlag": "N",
      "WindowCenterWidthExplanation": "Algo1",
      "dBdt": 0.0},
    "slices": {}
  },
  "time": {
    "samples": {
      "AcquisitionNumber": [1, 2, 3, 4, 5, 6, 7, 8, 9, 10, 11, 12, 13, 14, 15, 16, 17, 18, 19, 20, 21, 22, 23, 24, 25, 26, 27, 28, 29, 30, 31, 32, 33, 34, 35, 36, 37, 38, 39, 40, 41, 42, 43, 44, 45, 46, 47, 48, 49, 50, 51, 52, 53, 54, 55, 56, 57, 58, 59, 60, 61, 62, 63, 64, 65, 66, 67, 68, 69, 70, 71, 72, 73, 74, 75, 76, 77, 78, 79, 80, 81, 82, 83, 84, 85, 86, 87, 88, 89, 90, 91, 92, 93, 94, 95, 96, 97, 98, 99, 100, 101, 102, 103, 104, 105, 106, 107, 108, 109, 110, 111, 112, 113, 114, 115, 116, 117, 118, 119, 120, 121, 122, 123, 124, 125, 126, 127, 128, 129, 130, 131, 132, 133, 134, 135, 136, 137, 138, 139, 140, 141, 142, 143, 144, 145, 146, 147, 148, 149, 150, 151, 152, 153, 154, 155, 156, 157, 158, 159, 160, 161, 162, 163, 164, 165, 166, 167, 168, 169, 170, 171, 172, 173, 174, 175, 176, 177, 178, 179, 180, 181, 182, 183, 184, 185, 186, 187, 188, 189, 190],
      "AcquisitionTime": ["181324.740000", "181326.230000", "181327.720000", "181329.210000", "181330.700000", "181332.190000", "181333.680000", "181335.170000", "181336.660000", "181338.150000", "181339.640000", "181341.130000", "181342.620000", "181344.110000", "181345.600000", "181347.090000", "181348.580000", "181350.070000", "181351.560000", "181353.050000", "181354.540000", "181356.030000", "181357.520000", "181359.010000", "181400.500000", "181401.990000", "181403.480000", "181404.970000", "181406.460000", "181407.950000", "181409.440000", "181410.930000", "181412.420000", "181413.910000", "181415.400000", "181416.890000", "181418.380000", "181419.870000", "181421.360000", "181422.850000", "181424.340000", "181425.830000", "181427.320000", "181428.810000", "181430.300000", "181431.790000", "181433.280000", "181434.770000", "181436.260000", "181437.750000", "181439.240000", "181440.730000", "181442.220000", "181443.710000", "181445.200000", "181446.690000", "181448.180000", "181449.670000", "181451.160000", "181452.650000", "181454.140000", "181455.630000", "181457.120000", "181458.610000", "181500.100000", "181501.590000", "181503.080000", "181504.570000", "181506.060000", "181507.550000", "181509.040000", "181510.530000", "181512.020000", "181513.510000", "181515.000000", "181516.490000", "181517.980000", "181519.470000", "181520.960000", "181522.450000", "181523.940000", "181525.430000", "181526.920000", "181528.410000", "181529.900000", "181531.390000", "181532.880000", "181534.370000", "181535.860000", "181537.350000", "181538.840000", "181540.330000", "181541.820000", "181543.310000", "181544.800000", "181546.290000", "181547.780000", "181549.270000", "181550.760000", "181552.250000", "181553.740000", "181555.230000", "181556.720000", "181558.210000", "181559.700000", "181601.190000", "181602.680000", "181604.170000", "181605.660000", "181607.150000", "181608.640000", "181610.130000", "181611.620000", "181613.110000", "181614.600000", "181616.090000", "181617.580000", "181619.070000", "181620.560000", "181622.050000", "181623.540000", "181625.030000", "181626.520000", "181628.010000", "181629.500000", "181630.990000", "181632.480000", "181633.970000", "181635.460000", "181636.950000", "181638.440000", "181639.930000", "181641.420000", "181642.910000", "181644.400000", "181645.890000", "181647.380000", "181648.870000", "181650.360000", "181651.850000", "181653.340000", "181654.830000", "181656.320000", "181657.810000", "181659.300000", "181700.790000", "181702.280000", "181703.770000", "181705.260000", "181706.750000", "181708.240000", "181709.730000", "181711.220000", "181712.710000", "181714.200000", "181715.690000", "181717.180000", "181718.670000", "181720.160000", "181721.650000", "181723.140000", "181724.630000", "181726.120000", "181727.610000", "181729.100000", "181730.590000", "181732.080000", "181733.570000", "181735.060000", "181736.550000", "181738.040000", "181739.530000", "181741.020000", "181742.510000", "181744.000000", "181745.490000", "181746.980000", "181748.470000", "181749.960000", "181751.450000", "181752.940000", "181754.430000", "181755.920000", "181757.410000", "181758.900000", "181800.390000", "181801.880000", "181803.370000", "181804.860000", "181806.350000"],
      "ContentTime": ["181440.727000", "181440.731000", "181440.734000", "181440.737000", "181440.741000", "181440.744000", "181440.747000", "181440.750000", "181440.754000", "181440.757000", "181440.760000", "181440.764000", "181440.767000", "181440.770000", "181440.774000", "181440.777000", "181440.780000", "181440.784000", "181440.787000", "181440.790000", "181440.793000", "181440.797000", "181500.684000", "181500.688000", "181500.691000", "181500.695000", "181500.698000", "181500.701000", "181500.704000", "181500.708000", "181500.711000", "181500.714000", "181500.718000", "181500.721000", "181500.724000", "181500.728000", "181500.731000", "181500.734000", "181500.737000", "181500.741000", "181500.744000", "181500.747000", "181520.684000", "181520.688000", "181520.691000", "181520.695000", "181520.698000", "181520.701000", "181520.704000", "181520.708000", "181520.711000", "181520.714000", "181520.718000", "181520.721000", "181520.724000", "181520.728000", "181520.731000", "181520.734000", "181520.737000", "181520.741000", "181520.744000", "181520.747000", "181540.683000", "181540.687000", "181540.690000", "181540.693000", "181540.697000", "181540.700000", "181540.704000", "181540.707000", "181540.710000", "181540.713000", "181540.717000", "181540.720000", "181540.723000", "181540.727000", "181540.730000", "181540.733000", "181540.736000", "181540.740000", "181540.743000", "181540.746000", "181600.683000", "181600.687000", "181600.690000", "181600.694000", "181600.697000", "181600.700000", "181600.704000", "181600.707000", "181600.710000", "181600.714000", "181600.717000", "181600.720000", "181600.723000", "181600.727000", "181600.730000", "181600.733000", "181600.737000", "181600.753000", "181600.757000", "181600.760000", "181640.684000", "181640.697000", "181640.700000", "181640.704000", "181640.707000", "181640.710000", "181640.714000", "181640.717000", "181640.720000", "181640.724000", "181640.727000", "181640.730000", "181640.734000", "181640.737000", "181640.740000", "181640.744000", "181640.747000", "181640.750000", "181640.754000", "181640.757000", "181640.760000", "181640.764000", "181640.767000", "181640.770000", "181640.774000", "181640.777000", "181640.780000", "181640.784000", "181720.684000", "181720.688000", "181720.691000", "181720.695000", "181720.698000", "181720.701000", "181720.705000", "181720.708000", "181720.711000", "181720.715000", "181720.718000", "181720.721000", "181720.725000", "181720.728000", "181720.731000", "181720.735000", "181720.738000", "181720.741000", "181720.745000", "181720.748000", "181720.751000", "181720.755000", "181720.758000", "181720.761000", "181720.764000", "181720.768000", "181720.771000", "181800.683000", "181800.687000", "181800.690000", "181800.694000", "181800.698000", "181800.701000", "181800.704000", "181800.708000", "181800.711000", "181800.715000", "181800.718000", "181800.721000", "181800.725000", "181800.728000", "181800.731000", "181800.735000", "181800.738000", "181800.741000", "181800.745000", "181800.748000", "181800.751000", "181800.755000", "181800.758000", "181800.761000", "181800.764000", "181800.768000", "181800.771000", "181808.772000", "181808.776000", "181808.779000", "181808.782000", "181808.785000", "181808.789000"],
      "InstanceCreationTime": ["181440.727000", "181440.731000", "181440.734000", "181440.737000", "181440.741000", "181440.744000", "181440.747000", "181440.750000", "181440.754000", "181440.757000", "181440.760000", "181440.764000", "181440.767000", "181440.770000", "181440.774000", "181440.777000", "181440.780000", "181440.784000", "181440.787000", "181440.790000", "181440.793000", "181440.797000", "181500.684000", "181500.688000", "181500.691000", "181500.695000", "181500.698000", "181500.701000", "181500.704000", "181500.708000", "181500.711000", "181500.714000", "181500.718000", "181500.721000", "181500.724000", "181500.728000", "181500.731000", "181500.734000", "181500.737000", "181500.741000", "181500.744000", "181500.747000", "181520.684000", "181520.688000", "181520.691000", "181520.695000", "181520.698000", "181520.701000", "181520.704000", "181520.708000", "181520.711000", "181520.714000", "181520.718000", "181520.721000", "181520.724000", "181520.728000", "181520.731000", "181520.734000", "181520.737000", "181520.741000", "181520.744000", "181520.747000", "181540.683000", "181540.687000", "181540.690000", "181540.693000", "181540.697000", "181540.700000", "181540.704000", "181540.707000", "181540.710000", "181540.713000", "181540.717000", "181540.720000", "181540.723000", "181540.727000", "181540.730000", "181540.733000", "181540.736000", "181540.740000", "181540.743000", "181540.746000", "181600.683000", "181600.687000", "181600.690000", "181600.694000", "181600.697000", "181600.700000", "181600.704000", "181600.707000", "181600.710000", "181600.714000", "181600.717000", "181600.720000", "181600.723000", "181600.727000", "181600.730000", "181600.733000", "181600.737000", "181600.753000", "181600.757000", "181600.760000", "181640.684000", "181640.697000", "181640.700000", "181640.704000", "181640.707000", "181640.710000", "181640.714000", "181640.717000", "181640.720000", "181640.724000", "181640.727000", "181640.730000", "181640.734000", "181640.737000", "181640.740000", "181640.744000", "181640.747000", "181640.750000", "181640.754000", "181640.757000", "181640.760000", "181640.764000", "181640.767000", "181640.770000", "181640.774000", "181640.777000", "181640.780000", "181640.784000", "181720.684000", "181720.688000", "181720.691000", "181720.695000", "181720.698000", "181720.701000", "181720.705000", "181720.708000", "181720.711000", "181720.715000", "181720.718000", "181720.721000", "181720.725000", "181720.728000", "181720.731000", "181720.735000", "181720.738000", "181720.741000", "181720.745000", "181720.748000", "181720.751000", "181720.755000", "181720.758000", "181720.761000", "181720.764000", "181720.768000", "181720.771000", "181800.683000", "181800.687000", "181800.690000", "181800.694000", "181800.698000", "181800.701000", "181800.704000", "181800.708000", "181800.711000", "181800.715000", "181800.718000", "181800.721000", "181800.725000", "181800.728000", "181800.731000", "181800.735000", "181800.738000", "181800.741000", "181800.745000", "181800.748000", "181800.751000", "181800.755000", "181800.758000", "181800.761000", "181800.764000", "181800.768000", "181800.771000", "181808.772000", "181808.776000", "181808.779000", "181808.782000", "181808.785000", "181808.789000"],
      "InstanceNumber": [1, 2, 3, 4, 5, 6, 7, 8, 9, 10, 11, 12, 13, 14, 15, 16, 17, 18, 19, 20, 21, 22, 23, 24, 25, 26, 27, 28, 29, 30, 31, 32, 33, 34, 35, 36, 37, 38, 39, 40, 41, 42, 43, 44, 45, 46, 47, 48, 49, 50, 51, 52, 53, 54, 55, 56, 57, 58, 59, 60, 61, 62, 63, 64, 65, 66, 67, 68, 69, 70, 71, 72, 73, 74, 75, 76, 77, 78, 79, 80, 81, 82, 83, 84, 85, 86, 87, 88, 89, 90, 91, 92, 93, 94, 95, 96, 97, 98, 99, 100, 101, 102, 103, 104, 105, 106, 107, 108, 109, 110, 111, 112, 113, 114, 115, 116, 117, 118, 119, 120, 121, 122, 123, 124, 125, 126, 127, 128, 129, 130, 131, 132, 133, 134, 135, 136, 137, 138, 139, 140, 141, 142, 143, 144, 145, 146, 147, 148, 149, 150, 151, 152, 153, 154, 155, 156, 157, 158, 159, 160, 161, 162, 163, 164, 165, 166, 167, 168, 169, 170, 171, 172, 173, 174, 175, 176, 177, 178, 179, 180, 181, 182, 183, 184, 185, 186, 187, 188, 189, 190],
      "LargestImagePixelValue": [45056, 42808, 44079, 44214, 43121, 43768, 42435, 42456, 41361, 44769, 45089, 42308, 47597, 38870, 38938, 42261, 43289, 43633, 42949, 41920, 42741, 42476, 38031, 37728, 39797, 37281, 38352, 38556, 39044, 39274, 43694, 50440, 38885, 38539, 39742, 38582, 38488, 38589, 38167, 43648, 38405, 39088, 38784, 38667, 38789, 38510, 38256, 38368, 39253, 39312, 39222, 39081, 38869, 38700, 38657, 38576, 39161, 38914, 39100, 39096, 39237, 39932, 41630, 40233, 39453, 38512, 38898, 38594, 38779, 39797, 43000, 37953, 38000, 40525, 42132, 40522, 43601, 38775, 38794, 39917, 40146, 39215, 39455, 38727, 39781, 40185, 39543, 39920, 40503, 41832, 40420, 39266, 40892, 41748, 41413, 38301, 38033, 38554, 38655, 40392, 40965, 40511, 40774, 40062, 38899, 38418, 39104, 40186, 39092, 39364, 39695, 39734, 39305, 39461, 39561, 39698, 39499, 39601, 39485, 39491, 39899, 39677, 40396, 39969, 43219, 39479, 39613, 40809, 43144, 42115, 38216, 37991, 40940, 42780, 43590, 43142, 43049, 43261, 42034, 40865, 43001, 41533, 41944, 42283, 42501, 41764, 42413, 42242, 41775, 41318, 41071, 41583, 41093, 41165, 40369, 39914, 40041, 41368, 39105, 42000, 39093, 39193, 39707, 39489, 39443, 39568, 39593, 40203, 40082, 40671, 39909, 39931, 40615, 39991, 39655, 39688, 39540, 39387, 39846, 39420, 39826, 39618, 39838, 39983, 40505, 40345, 39949, 39541, 52708, 56011],
      "WindowCenter": [10335.0, 10259.0, 10268.0, 10304.0, 10306.0, 10294.0, 10273.0, 10260.0, 10251.0, 10319.0, 10363.0, 10334.0, 10372.0, 10257.0, 10249.0, 10252.0, 10265.0, 10248.0, 10261.0, 10262.0, 10269.0, 10265.0, 10214.0, 10214.0, 10237.0, 10195.0, 10205.0, 10223.0, 10273.0, 10286.0, 10327.0, 10360.0, 10252.0, 10253.0, 10293.0, 10273.0, 10244.0, 10240.0, 10219.0, 10285.0, 10261.0, 10271.0, 10265.0, 10255.0, 10253.0, 10250.0, 10242.0, 10257.0, 10359.0, 10336.0, 10365.0, 10345.0, 10324.0, 10309.0, 10320.0, 10311.0, 10308.0, 10307.0, 10304.0, 10297.0, 10319.0, 10347.0, 10390.0, 10381.0, 10358.0, 10310.0, 10302.0, 10283.0, 10290.0, 10316.0, 10361.0, 10291.0, 10279.0, 10299.0, 10303.0, 10293.0, 10340.0, 10297.0, 10286.0, 10259.0, 10252.0, 10258.0, 10262.0, 10265.0, 10275.0, 10281.0, 10265.0, 10251.0, 10255.0, 10282.0, 10277.0, 10262.0, 10273.0, 10287.0, 10270.0, 10239.0, 10251.0, 10266.0, 10288.0, 10274.0, 10257.0, 10246.0, 10254.0, 10260.0, 10265.0, 10247.0, 10231.0, 10238.0, 10218.0, 10222.0, 10237.0, 10248.0, 10237.0, 10225.0, 10230.0, 10231.0, 10241.0, 10239.0, 10255.0, 10260.0, 10264.0, 10271.0, 10287.0, 10281.0, 10306.0, 10254.0, 10266.0, 10323.0, 10365.0, 10348.0, 10283.0, 10270.0, 10286.0, 10300.0, 10308.0, 10319.0, 10321.0, 10327.0, 10338.0, 10308.0, 10305.0, 10294.0, 10288.0, 10286.0, 10289.0, 10306.0, 10306.0, 10299.0, 10281.0, 10280.0, 10290.0, 10306.0, 10302.0, 10303.0, 10290.0, 10282.0, 10271.0, 10297.0, 10295.0, 10335.0, 10307.0, 10305.0, 10306.0, 10278.0, 10268.0, 10279.0, 10287.0, 10303.0, 10314.0, 10317.0, 10312.0, 10314.0, 10319.0, 10312.0, 10321.0, 10323.0, 10331.0, 10325.0, 10330.0, 10324.0, 10327.0, 10303.0, 10301.0, 10305.0, 10312.0, 10284.0, 10314.0, 10335.0, 10408.0, 10419.0],
      "WindowWidth": [21912.0, 21705.0, 21711.0, 21793.0, 21799.0, 21765.0, 21718.0, 21686.0, 21675.0, 21819.0, 21929.0, 21883.0, 21954.0, 21712.0, 21691.0, 21680.0, 21705.0, 21659.0, 21689.0, 21697.0, 21708.0, 21702.0, 21608.0, 21616.0, 21669.0, 21577.0, 21596.0, 21638.0, 21753.0, 21781.0, 21864.0, 21914.0, 21695.0, 21705.0, 21801.0, 21755.0, 21686.0, 21674.0, 21631.0, 21773.0, 21727.0, 21745.0, 21731.0, 21709.0, 21703.0, 21696.0, 21682.0, 21713.0, 21953.0, 21896.0, 21964.0, 21921.0, 21862.0, 21828.0, 21855.0, 21834.0, 21827.0, 21832.0, 21822.0, 21808.0, 21857.0, 21921.0, 22012.0, 21999.0, 21947.0, 21839.0, 21822.0, 21770.0, 21787.0, 21844.0, 21944.0, 21791.0, 21763.0, 21798.0, 21801.0, 21800.0, 21892.0, 21800.0, 21775.0, 21707.0, 21689.0, 21707.0, 21715.0, 21719.0, 21743.0, 21758.0, 21723.0, 21690.0, 21702.0, 21751.0, 21753.0, 21713.0, 21732.0, 21769.0, 21726.0, 21668.0, 21699.0, 21734.0, 21782.0, 21745.0, 21700.0, 21674.0, 21694.0, 21713.0, 21729.0, 21693.0, 21649.0, 21668.0, 21617.0, 21628.0, 21660.0, 21687.0, 21662.0, 21633.0, 21647.0, 21646.0, 21674.0, 21664.0, 21712.0, 21713.0, 21719.0, 21743.0, 21775.0, 21765.0, 21819.0, 21703.0, 21726.0, 21856.0, 21944.0, 21911.0, 21777.0, 21745.0, 21769.0, 21790.0, 21806.0, 21833.0, 21836.0, 21852.0, 21885.0, 21818.0, 21802.0, 21787.0, 21767.0, 21761.0, 21776.0, 21816.0, 21810.0, 21798.0, 21754.0, 21751.0, 21775.0, 21814.0, 21805.0, 21812.0, 21787.0, 21765.0, 21737.0, 21801.0, 21802.0, 21894.0, 21823.0, 21819.0, 21832.0, 21759.0, 21738.0, 21761.0, 21779.0, 21820.0, 21844.0, 21845.0, 21833.0, 21844.0, 21847.0, 21833.0, 21854.0, 21863.0, 21879.0, 21867.0, 21870.0, 21858.0, 21870.0, 21811.0, 21805.0, 21814.0, 21831.0, 21765.0, 21840.0, 21896.0, 22036.0, 22098.0]
    },
    "slices": {}
  }
}