{
  "AcquisitionMatrixPE": 104,
  "AcquisitionNumber": 1,
  "AcquisitionTime": "11:17:45.092500",
  "BandwidthPerPixelPhaseEncode": 17.17,
  "BaseResolution": 104,
  "BodyPartExamined": "BRAIN",
  "CoilString": "HC1-7;NC1_2",
  "ConsistencyInfo": "N4_VE11C_LATEST_20160120",
  "ConversionSoftware": "dcm2niix",
  "ConversionSoftwareVersion": "v1.0.20190902",
  "DerivedVendorReportedEchoSpacing": 0.000560011,
  "DeviceSerialNumber": "167006",
  "DwellTime": 2.1e-06,
  "EchoTime": 0.037,
  "EchoTrainLength": 104,
  "EffectiveEchoSpacing": 0.000560011,
  "FlipAngle": 52,
  "HeudiconvVersion": "0.10.0",
  "ImageComments": "Unaliased_MB4_PE3_LB",
  "ImageOrientationPatientDICOM": [0.999701, 0.0179905, 0.0165682, -0.00750286, 0.870358, -0.492361],
  "ImageType": [
    "ORIGINAL",
    "PRIMARY",
    "M",
    "MB",
    "ND",
    "MOSAIC"
],
  "ImagingFrequency": 123.259,
  "InPlanePhaseEncodingDirectionDICOM": "COL",
  "InstitutionAddress": "Chemin_Queen-Mary_4565_Montreal_District_CA_H3W_1W5",
  "InstitutionName": "IUGM",
  "InstitutionalDepartmentName": "Department",
  "MRAcquisitionType": "2D",
  "MagneticFieldStrength": 3,
  "Manufacturer": "Siemens",
  "ManufacturersModelName": "Prisma_fit",
  "Modality": "MR",
  "MultibandAccelerationFactor": 4,
  "PartialFourier": 1,
  "PatientPosition": "HFS",
  "PercentPhaseFOV": 100,
  "PhaseEncodingDirection": "j",
  "PhaseEncodingSteps": 104,
  "PhaseResolution": 1,
  "PixelBandwidth": 2290,
  "ProcedureStepDescription": "memory_things",
  "ProtocolName": "func_task-things_run-5",
  "PulseSequenceDetails": "%CustomerSeq%_cmrr_mbep2d_bold",
  "ReceiveCoilActiveElements": "HC1-7;NC1,2",
  "ReceiveCoilName": "HeadNeck_64",
  "ReconMatrixPE": 104,
  "RepetitionTime": 1.49,
  "SAR": 0.0407893,
  "ScanOptions": "FS",
  "ScanningSequence": "EP",
  "SequenceName": "epfid2d1_104",
  "SequenceVariant": "SK_SS",
  "SeriesDescription": "func_task-things_run-5",
  "SeriesNumber": 22,
  "ShimSetting": [622, -7194, -8866, 309, -17, -167, -22, -22],
  "SliceThickness": 2,
  "SliceTiming": [0, 0.785, 0.0975, 0.8825, 0.1975, 0.98, 0.295, 1.0775, 0.3925, 1.1775, 0.49, 1.275, 0.5875, 1.3725, 0.6875, 0, 0.785, 0.0975, 0.8825, 0.1975, 0.98, 0.295, 1.0775, 0.3925, 1.1775, 0.49, 1.275, 0.5875, 1.3725, 0.6875, 0, 0.785, 0.0975, 0.8825, 0.1975, 0.98, 0.295, 1.0775, 0.3925, 1.1775, 0.49, 1.275, 0.5875, 1.3725, 0.6875, 0, 0.785, 0.0975, 0.8825, 0.1975, 0.98, 0.295, 1.0775, 0.3925, 1.1775, 0.49, 1.275, 0.5875, 1.3725, 0.6875],
  "SoftwareVersions": "syngo_MR_E11",
  "SpacingBetweenSlices": 2,
  "StationName": "MRC35049",
  "TaskName": "things",
  "TotalReadoutTime": 0.0576811,
  "TxRefAmp": 253.844,
  "WipMemBlock": "ad701a83-79f0-425f-be30-bb4206ad9e57||Sequence: R016 ve11c/master r/e634e98; Dec 19 2017 11:00:25 by eja",
  "dcmmeta_affine": [
    [-1.9994018077850342, -0.015005717985332012, 0.04655611887574196, 106.6156234741211],
    [-0.035980913788080215, 1.7407169342041016, -0.9841797947883606, -50.60097885131836],
    [0.03313634917140007, 0.9847229719161987, 1.7404661178588867, -94.73748779296875],
    [0.0, 0.0, 0.0, 1.0]
],
  "dcmmeta_reorient_transform": [
    [0.0, -1.0, 0.0, 103.0],
    [1.0, 0.0, 0.0, 0.0],
    [0.0, 0.0, 1.0, 0.0],
    [0.0, 0.0, 0.0, 1.0]
],
  "dcmmeta_shape": [104, 104, 60, 190],
  "dcmmeta_slice_dim": 2,
  "dcmmeta_version": 0.6,
  "global": {
    "const": {
      "AcquisitionMatrix": [104, 0, 0, 104],
      "AngioFlag": "N",
      "BitsAllocated": 16,
      "BitsStored": 16,
      "BodyPartExamined": "BRAIN",
      "Columns": 832,
      "EchoNumbers": 1,
      "EchoTime": 37.0,
      "EchoTrainLength": 104,
      "FlipAngle": 52.0,
      "HighBit": 15,
      "ImageOrientationPatient": [0.99970087479599, 0.01799045609944, 0.01656817495896, -0.0075028587662, 0.87035847006402, -0.4923614939231],
      "ImagePositionPatient": [-827.39019033387, -775.41088344178, 353.06651949703],
      "ImageType": [
        "ORIGINAL",
        "PRIMARY",
        "M",
        "MB",
        "ND",
        "MOSAIC"
],
      "ImagedNucleus": "1H",
      "ImagingFrequency": 123.258917,
      "InPlanePhaseEncodingDirection": "COL",
      "MRAcquisitionType": "2D",
      "MagneticFieldStrength": 3.0,
      "Manufacturer": "SIEMENS",
      "ManufacturerModelName": "Prisma_fit",
      "Modality": "MR",
      "NumberOfAverages": 1.0,
      "NumberOfPhaseEncodingSteps": 104,
      "PercentPhaseFieldOfView": 100.0,
      "PercentSampling": 100.0,
      "PerformedProcedureStepStartTime": "102403.486000",
      "PhotometricInterpretation": "MONOCHROME2",
      "PixelBandwidth": 2290.0,
      "PixelRepresentation": 0,
      "PixelSpacing": [2.0, 2.0],
      "ProtocolName": "func_task-things_run-5",
      "RepetitionTime": 1490.0,
      "Rows": 832,
      "SAR": 0.04078930109596,
      "SamplesPerPixel": 1,
      "ScanOptions": "FS",
      "ScanningSequence": "EP",
      "SequenceName": "epfid2d1_104",
      "SequenceVariant": [
        "SK",
        "SS"
],
      "SeriesDescription": "func_task-things_run-5",
      "SeriesNumber": 22,
      "SeriesTime": "111901.045000",
      "SliceLocation": -55.061658948575,
      "SliceThickness": 2.0,
      "SmallestImagePixelValue": 0,
      "SoftwareVersions": "syngo MR E11",
      "SpacingBetweenSlices": 1.9999999420423,
      "SpecificCharacterSet": "ISO_IR 100",
      "StudyID": "1",
      "StudyTime": "102403.330000",
      "TransmitCoilName": "Body",
      "VariableFlipAngleFlag": "N",
      "WindowCenterWidthExplanation": "Algo1",
      "dBdt": 0.0},
    "slices": {}
  },
  "time": {
    "samples": {
      "AcquisitionNumber": [1, 2, 3, 4, 5, 6, 7, 8, 9, 10, 11, 12, 13, 14, 15, 16, 17, 18, 19, 20, 21, 22, 23, 24, 25, 26, 27, 28, 29, 30, 31, 32, 33, 34, 35, 36, 37, 38, 39, 40, 41, 42, 43, 44, 45, 46, 47, 48, 49, 50, 51, 52, 53, 54, 55, 56, 57, 58, 59, 60, 61, 62, 63, 64, 65, 66, 67, 68, 69, 70, 71, 72, 73, 74, 75, 76, 77, 78, 79, 80, 81, 82, 83, 84, 85, 86, 87, 88, 89, 90, 91, 92, 93, 94, 95, 96, 97, 98, 99, 100, 101, 102, 103, 104, 105, 106, 107, 108, 109, 110, 111, 112, 113, 114, 115, 116, 117, 118, 119, 120, 121, 122, 123, 124, 125, 126, 127, 128, 129, 130, 131, 132, 133, 134, 135, 136, 137, 138, 139, 140, 141, 142, 143, 144, 145, 146, 147, 148, 149, 150, 151, 152, 153, 154, 155, 156, 157, 158, 159, 160, 161, 162, 163, 164, 165, 166, 167, 168, 169, 170, 171, 172, 173, 174, 175, 176, 177, 178, 179, 180, 181, 182, 183, 184, 185, 186, 187, 188, 189, 190],
      "AcquisitionTime": ["111745.092500", "111746.582500", "111748.072500", "111749.562500", "111751.052500", "111752.542500", "111754.032500", "111755.522500", "111757.012500", "111758.502500", "111759.992500", "111801.482500", "111802.972500", "111804.462500", "111805.952500", "111807.442500", "111808.932500", "111810.422500", "111811.912500", "111813.402500", "111814.892500", "111816.382500", "111817.872500", "111819.362500", "111820.852500", "111822.342500", "111823.832500", "111825.322500", "111826.812500", "111828.302500", "111829.792500", "111831.282500", "111832.772500", "111834.262500", "111835.752500", "111837.242500", "111838.732500", "111840.222500", "111841.712500", "111843.202500", "111844.692500", "111846.182500", "111847.672500", "111849.162500", "111850.652500", "111852.142500", "111853.632500", "111855.122500", "111856.612500", "111858.102500", "111859.592500", "111901.082500", "111902.572500", "111904.062500", "111905.552500", "111907.042500", "111908.532500", "111910.022500", "111911.512500", "111913.002500", "111914.492500", "111915.982500", "111917.472500", "111918.962500", "111920.452500", "111921.942500", "111923.432500", "111924.922500", "111926.412500", "111927.902500", "111929.392500", "111930.882500", "111932.372500", "111933.862500", "111935.352500", "111936.842500", "111938.332500", "111939.822500", "111941.312500", "111942.802500", "111944.292500", "111945.782500", "111947.272500", "111948.762500", "111950.252500", "111951.742500", "111953.232500", "111954.722500", "111956.212500", "111957.702500", "111959.192500", "112000.682500", "112002.172500", "112003.662500", "112005.152500", "112006.642500", "112008.132500", "112009.622500", "112011.112500", "112012.602500", "112014.092500", "112015.582500", "112017.072500", "112018.562500", "112020.052500", "112021.542500", "112023.032500", "112024.522500", "112026.012500", "112027.502500", "112028.992500", "112030.482500", "112031.972500", "112033.462500", "112034.952500", "112036.442500", "112037.932500", "112039.422500", "112040.912500", "112042.402500", "112043.892500", "112045.382500", "112046.872500", "112048.362500", "112049.852500", "112051.342500", "112052.832500", "112054.322500", "112055.812500", "112057.302500", "112058.792500", "112100.282500", "112101.772500", "112103.262500", "112104.752500", "112106.242500", "112107.732500", "112109.222500", "112110.712500", "112112.202500", "112113.692500", "112115.182500", "112116.672500", "112118.162500", "112119.652500", "112121.142500", "112122.632500", "112124.122500", "112125.612500", "112127.102500", "112128.592500", "112130.082500", "112131.572500", "112133.062500", "112134.552500", "112136.042500", "112137.532500", "112139.022500", "112140.512500", "112142.002500", "112143.492500", "112144.982500", "112146.472500", "112147.962500", "112149.452500", "112150.942500", "112152.432500", "112153.922500", "112155.412500", "112156.902500", "112158.392500", "112159.882500", "112201.372500", "112202.862500", "112204.352500", "112205.842500", "112207.332500", "112208.822500", "112210.312500", "112211.802500", "112213.292500", "112214.782500", "112216.272500", "112217.762500", "112219.252500", "112220.742500", "112222.232500", "112223.722500", "112225.212500", "112226.702500"],
      "ContentTime": ["111901.048000", "111901.051000", "111901.055000", "111901.058000", "111901.061000", "111901.064000", "111901.068000", "111901.071000", "111901.074000", "111901.077000", "111901.081000", "111901.084000", "111901.087000", "111901.090000", "111901.094000", "111901.097000", "111901.100000", "111901.103000", "111901.106000", "111901.110000", "111921.011000", "111921.015000", "111921.018000", "111921.021000", "111921.024000", "111921.028000", "111921.031000", "111921.034000", "111921.037000", "111921.041000", "111921.044000", "111921.047000", "111921.050000", "111921.054000", "111921.057000", "111921.060000", "111921.063000", "111921.067000", "111921.070000", "111921.073000", "111941.010000", "111941.014000", "111941.017000", "111941.020000", "111941.023000", "111941.027000", "111941.030000", "111941.033000", "111941.036000", "111941.040000", "111941.043000", "111941.046000", "111941.049000", "111941.053000", "111941.056000", "111941.059000", "111941.063000", "111941.066000", "111941.069000", "111941.072000", "111941.076000", "112001.010000", "112001.014000", "112001.017000", "112001.034000", "112001.037000", "112001.040000", "112001.044000", "112001.047000", "112001.050000", "112001.053000", "112001.057000", "112001.060000", "112001.063000", "112001.066000", "112001.070000", "112001.073000", "112001.076000", "112001.079000", "112001.083000", "112001.086000", "112021.010000", "112021.014000", "112021.017000", "112021.020000", "112021.024000", "112021.027000", "112021.030000", "112021.033000", "112021.037000", "112021.040000", "112021.043000", "112021.046000", "112021.050000", "112021.053000", "112021.056000", "112021.059000", "112021.063000", "112021.066000", "112021.069000", "112021.073000", "112101.011000", "112101.015000", "112101.018000", "112101.021000", "112101.025000", "112101.028000", "112101.031000", "112101.034000", "112101.038000", "112101.041000", "112101.044000", "112101.047000", "112101.051000", "112101.054000", "112101.057000", "112101.060000", "112101.064000", "112101.067000", "112101.070000", "112101.073000", "112101.077000", "112101.080000", "112101.083000", "112101.087000", "112101.090000", "112101.093000", "112101.096000", "112101.100000", "112101.103000", "112141.011000", "112141.015000", "112141.018000", "112141.021000", "112141.025000", "112141.028000", "112141.031000", "112141.034000", "112141.038000", "112141.041000", "112141.044000", "112141.048000", "112141.051000", "112141.054000", "112141.057000", "112141.061000", "112141.064000", "112141.067000", "112141.070000", "112141.074000", "112141.077000", "112141.080000", "112141.084000", "112141.087000", "112141.090000", "112141.093000", "112141.097000", "112221.010000", "112221.014000", "112221.017000", "112221.020000", "112221.024000", "112221.048000", "112221.052000", "112221.055000", "112221.058000", "112221.062000", "112221.065000", "112221.068000", "112221.072000", "112221.075000", "112221.078000", "112221.081000", "112221.085000", "112221.088000", "112221.091000", "112221.094000", "112221.098000", "112221.101000", "112221.104000", "112221.108000", "112221.111000", "112221.114000", "112221.117000", "112229.286000", "112229.290000", "112229.293000", "112229.297000", "112229.300000", "112229.304000"],
      "InstanceCreationTime": ["111901.048000", "111901.051000", "111901.055000", "111901.058000", "111901.061000", "111901.064000", "111901.068000", "111901.071000", "111901.074000", "111901.077000", "111901.081000", "111901.084000", "111901.087000", "111901.090000", "111901.094000", "111901.097000", "111901.100000", "111901.103000", "111901.106000", "111901.110000", "111921.011000", "111921.015000", "111921.018000", "111921.021000", "111921.024000", "111921.028000", "111921.031000", "111921.034000", "111921.037000", "111921.041000", "111921.044000", "111921.047000", "111921.050000", "111921.054000", "111921.057000", "111921.060000", "111921.063000", "111921.067000", "111921.070000", "111921.073000", "111941.010000", "111941.014000", "111941.017000", "111941.020000", "111941.023000", "111941.027000", "111941.030000", "111941.033000", "111941.036000", "111941.040000", "111941.043000", "111941.046000", "111941.049000", "111941.053000", "111941.056000", "111941.059000", "111941.063000", "111941.066000", "111941.069000", "111941.072000", "111941.076000", "112001.010000", "112001.014000", "112001.017000", "112001.034000", "112001.037000", "112001.040000", "112001.044000", "112001.047000", "112001.050000", "112001.053000", "112001.057000", "112001.060000", "112001.063000", "112001.066000", "112001.070000", "112001.073000", "112001.076000", "112001.079000", "112001.083000", "112001.086000", "112021.010000", "112021.014000", "112021.017000", "112021.020000", "112021.024000", "112021.027000", "112021.030000", "112021.033000", "112021.037000", "112021.040000", "112021.043000", "112021.046000", "112021.050000", "112021.053000", "112021.056000", "112021.059000", "112021.063000", "112021.066000", "112021.069000", "112021.073000", "112101.011000", "112101.015000", "112101.018000", "112101.021000", "112101.025000", "112101.028000", "112101.031000", "112101.034000", "112101.038000", "112101.041000", "112101.044000", "112101.047000", "112101.051000", "112101.054000", "112101.057000", "112101.060000", "112101.064000", "112101.067000", "112101.070000", "112101.073000", "112101.077000", "112101.080000", "112101.083000", "112101.087000", "112101.090000", "112101.093000", "112101.096000", "112101.100000", "112101.103000", "112141.011000", "112141.015000", "112141.018000", "112141.021000", "112141.025000", "112141.028000", "112141.031000", "112141.034000", "112141.038000", "112141.041000", "112141.044000", "112141.048000", "112141.051000", "112141.054000", "112141.057000", "112141.061000", "112141.064000", "112141.067000", "112141.070000", "112141.074000", "112141.077000", "112141.080000", "112141.084000", "112141.087000", "112141.090000", "112141.093000", "112141.097000", "112221.010000", "112221.014000", "112221.017000", "112221.020000", "112221.024000", "112221.048000", "112221.052000", "112221.055000", "112221.058000", "112221.062000", "112221.065000", "112221.068000", "112221.072000", "112221.075000", "112221.078000", "112221.081000", "112221.085000", "112221.088000", "112221.091000", "112221.094000", "112221.098000", "112221.101000", "112221.104000", "112221.108000", "112221.111000", "112221.114000", "112221.117000", "112229.286000", "112229.290000", "112229.293000", "112229.297000", "112229.300000", "112229.304000"],
      "InstanceNumber": [1, 2, 3, 4, 5, 6, 7, 8, 9, 10, 11, 12, 13, 14, 15, 16, 17, 18, 19, 20, 21, 22, 23, 24, 25, 26, 27, 28, 29, 30, 31, 32, 33, 34, 35, 36, 37, 38, 39, 40, 41, 42, 43, 44, 45, 46, 47, 48, 49, 50, 51, 52, 53, 54, 55, 56, 57, 58, 59, 60, 61, 62, 63, 64, 65, 66, 67, 68, 69, 70, 71, 72, 73, 74, 75, 76, 77, 78, 79, 80, 81, 82, 83, 84, 85, 86, 87, 88, 89, 90, 91, 92, 93, 94, 95, 96, 97, 98, 99, 100, 101, 102, 103, 104, 105, 106, 107, 108, 109, 110, 111, 112, 113, 114, 115, 116, 117, 118, 119, 120, 121, 122, 123, 124, 125, 126, 127, 128, 129, 130, 131, 132, 133, 134, 135, 136, 137, 138, 139, 140, 141, 142, 143, 144, 145, 146, 147, 148, 149, 150, 151, 152, 153, 154, 155, 156, 157, 158, 159, 160, 161, 162, 163, 164, 165, 166, 167, 168, 169, 170, 171, 172, 173, 174, 175, 176, 177, 178, 179, 180, 181, 182, 183, 184, 185, 186, 187, 188, 189, 190],
      "LargestImagePixelValue": [45160, 44326, 43672, 43289, 42734, 41887, 41948, 42358, 42446, 42007, 41031, 42452, 42454, 41511, 42561, 41833, 42217, 42587, 42133, 42268, 41412, 41964, 42611, 42298, 42235, 42468, 43261, 42957, 42213, 42356, 42390, 41399, 41633, 42749, 42658, 42685, 43011, 42471, 42209, 42520, 42295, 41527, 42654, 42247, 42461, 42012, 42400, 42955, 42255, 42215, 42728, 42671, 42211, 42763, 42746, 42421, 42587, 42313, 42399, 41861, 42503, 42507, 42525, 42316, 42184, 42492, 42776, 42180, 41387, 42696, 42285, 41957, 42304, 42481, 42309, 42361, 42968, 42666, 42269, 42460, 41824, 41423, 42462, 41738, 42247, 42632, 42040, 42533, 42893, 41848, 42241, 42589, 42716, 42063, 42521, 41069, 41848, 42182, 41791, 42016, 41880, 42541, 42774, 41914, 42180, 41906, 41563, 42056, 42087, 41854, 42443, 42501, 41698, 42274, 42094, 41751, 41595, 42501, 41750, 42010, 42543, 42397, 42525, 42088, 41871, 42602, 42634, 42474, 42327, 42100, 41783, 42574, 42531, 42579, 43157, 42469, 42332, 42046, 42145, 41913, 42070, 42074, 42093, 42164, 41868, 42346, 41940, 41932, 41710, 41485, 42098, 42001, 41618, 42068, 41844, 42634, 42401, 42137, 42238, 42740, 42681, 42315, 42496, 42173, 41550, 42461, 42613, 42456, 42479, 42186, 42637, 42398, 42269, 41796, 42475, 42372, 42218, 41951, 42527, 42555, 42412, 41958, 42049, 42499, 42330, 41989, 41561, 42385, 42468, 42544],
      "WindowCenter": [10979.0, 10947.0, 10921.0, 10896.0, 10863.0, 10852.0, 10861.0, 10869.0, 10907.0, 10913.0, 10890.0, 10858.0, 10837.0, 10824.0, 10816.0, 10826.0, 10835.0, 10860.0, 10842.0, 10861.0, 10864.0, 10843.0, 10818.0, 10827.0, 10844.0, 10863.0, 10865.0, 10822.0, 10770.0, 10792.0, 10856.0, 10882.0, 10882.0, 10855.0, 10813.0, 10787.0, 10808.0, 10827.0, 10857.0, 10864.0, 10856.0, 10841.0, 10853.0, 10848.0, 10841.0, 10847.0, 10843.0, 10838.0, 10853.0, 10848.0, 10833.0, 10817.0, 10799.0, 10827.0, 10848.0, 10850.0, 10823.0, 10791.0, 10785.0, 10814.0, 10834.0, 10841.0, 10815.0, 10832.0, 10841.0, 10866.0, 10902.0, 10900.0, 10874.0, 10846.0, 10834.0, 10811.0, 10799.0, 10809.0, 10837.0, 10852.0, 10857.0, 10852.0, 10858.0, 10896.0, 10906.0, 10883.0, 10849.0, 10834.0, 10830.0, 10809.0, 10796.0, 10811.0, 10846.0, 10871.0, 10868.0, 10865.0, 10834.0, 10845.0, 10844.0, 10855.0, 10861.0, 10831.0, 10785.0, 10783.0, 10798.0, 10838.0, 10855.0, 10832.0, 10803.0, 10792.0, 10794.0, 10810.0, 10806.0, 10816.0, 10878.0, 10904.0, 10883.0, 10841.0, 10811.0, 10811.0, 10833.0, 10857.0, 10841.0, 10849.0, 10843.0, 10824.0, 10841.0, 10862.0, 10870.0, 10875.0, 10856.0, 10817.0, 10756.0, 10745.0, 10786.0, 10836.0, 10860.0, 10856.0, 10847.0, 10833.0, 10843.0, 10846.0, 10837.0, 10816.0, 10826.0, 10827.0, 10855.0, 10866.0, 10832.0, 10805.0, 10808.0, 10811.0, 10810.0, 10838.0, 10879.0, 10878.0, 10874.0, 10840.0, 10833.0, 10835.0, 10818.0, 10805.0, 10821.0, 10845.0, 10837.0, 10859.0, 10863.0, 10855.0, 10852.0, 10855.0, 10843.0, 10836.0, 10832.0, 10806.0, 10838.0, 10865.0, 10858.0, 10822.0, 10814.0, 10792.0, 10790.0, 10823.0, 10850.0, 10879.0, 10859.0, 10846.0, 10842.0, 10855.0, 10837.0, 10848.0, 10841.0, 10842.0, 10835.0, 10854.0],
      "WindowWidth": [23596.0, 23491.0, 23419.0, 23364.0, 23269.0, 23244.0, 23266.0, 23275.0, 23360.0, 23374.0, 23327.0, 23248.0, 23196.0, 23175.0, 23151.0, 23181.0, 23197.0, 23250.0, 23209.0, 23251.0, 23264.0, 23213.0, 23152.0, 23176.0, 23213.0, 23257.0, 23258.0, 23167.0, 23047.0, 23095.0, 23240.0, 23305.0, 23303.0, 23237.0, 23146.0, 23085.0, 23131.0, 23175.0, 23245.0, 23265.0, 23248.0, 23211.0, 23233.0, 23228.0, 23206.0, 23222.0, 23213.0, 23198.0, 23231.0, 23224.0, 23185.0, 23151.0, 23116.0, 23169.0, 23221.0, 23226.0, 23168.0, 23102.0, 23081.0, 23148.0, 23194.0, 23208.0, 23147.0, 23187.0, 23209.0, 23265.0, 23343.0, 23342.0, 23286.0, 23217.0, 23190.0, 23144.0, 23117.0, 23134.0, 23200.0, 23237.0, 23245.0, 23235.0, 23248.0, 23331.0, 23358.0, 23312.0, 23224.0, 23195.0, 23182.0, 23137.0, 23107.0, 23138.0, 23217.0, 23278.0, 23278.0, 23264.0, 23194.0, 23220.0, 23218.0, 23246.0, 23256.0, 23187.0, 23083.0, 23080.0, 23113.0, 23200.0, 23236.0, 23190.0, 23119.0, 23092.0, 23101.0, 23138.0, 23131.0, 23155.0, 23289.0, 23356.0, 23313.0, 23210.0, 23142.0, 23144.0, 23196.0, 23244.0, 23215.0, 23232.0, 23216.0, 23172.0, 23210.0, 23258.0, 23278.0, 23283.0, 23240.0, 23155.0, 23018.0, 22990.0, 23087.0, 23196.0, 23253.0, 23250.0, 23219.0, 23190.0, 23213.0, 23222.0, 23202.0, 23153.0, 23176.0, 23173.0, 23239.0, 23263.0, 23188.0, 23123.0, 23132.0, 23141.0, 23141.0, 23204.0, 23293.0, 23291.0, 23284.0, 23202.0, 23196.0, 23193.0, 23160.0, 23125.0, 23161.0, 23215.0, 23197.0, 23246.0, 23256.0, 23242.0, 23236.0, 23240.0, 23209.0, 23197.0, 23188.0, 23131.0, 23196.0, 23262.0, 23248.0, 23166.0, 23141.0, 23099.0, 23093.0, 23170.0, 23227.0, 23292.0, 23248.0, 23219.0, 23213.0, 23238.0, 23198.0, 23228.0, 23213.0, 23218.0, 23197.0, 23240.0]
    },
    "slices": {}
  }
}