{
  "AcquisitionMatrixPE": 104,
  "AcquisitionNumber": 1,
  "AcquisitionTime": "11:11:42.817500",
  "BandwidthPerPixelPhaseEncode": 17.17,
  "BaseResolution": 104,
  "BodyPartExamined": "BRAIN",
  "CoilString": "HC1-7;NC1_2",
  "ConsistencyInfo": "N4_VE11C_LATEST_20160120",
  "ConversionSoftware": "dcm2niix",
  "ConversionSoftwareVersion": "v1.0.20190902",
  "DerivedVendorReportedEchoSpacing": 0.000560011,
  "DeviceSerialNumber": "167006",
  "DwellTime": 2.1e-06,
  "EchoTime": 0.037,
  "EchoTrainLength": 104,
  "EffectiveEchoSpacing": 0.000560011,
  "FlipAngle": 52,
  "HeudiconvVersion": "0.10.0",
  "ImageComments": "Unaliased_MB4_PE3_LB",
  "ImageOrientationPatientDICOM": [0.999701, 0.0179905, 0.0165682, -0.00750286, 0.870358, -0.492361],
  "ImageType": [
    "ORIGINAL",
    "PRIMARY",
    "P",
    "MB",
    "ND",
    "MOSAIC"
],
  "ImagingFrequency": 123.259,
  "InPlanePhaseEncodingDirectionDICOM": "COL",
  "InstitutionAddress": "Chemin_Queen-Mary_4565_Montreal_District_CA_H3W_1W5",
  "InstitutionName": "IUGM",
  "InstitutionalDepartmentName": "Department",
  "MRAcquisitionType": "2D",
  "MagneticFieldStrength": 3,
  "Manufacturer": "Siemens",
  "ManufacturersModelName": "Prisma_fit",
  "Modality": "MR",
  "MultibandAccelerationFactor": 4,
  "PartialFourier": 1,
  "PatientPosition": "HFS",
  "PercentPhaseFOV": 100,
  "PhaseEncodingDirection": "j",
  "PhaseEncodingSteps": 104,
  "PhaseResolution": 1,
  "PixelBandwidth": 2290,
  "ProcedureStepDescription": "memory_things",
  "ProtocolName": "func_task-things_run-4",
  "PulseSequenceDetails": "%CustomerSeq%_cmrr_mbep2d_bold",
  "ReceiveCoilActiveElements": "HC1-7;NC1,2",
  "ReceiveCoilName": "HeadNeck_64",
  "ReconMatrixPE": 104,
  "RepetitionTime": 1.49,
  "SAR": 0.0407893,
  "ScanOptions": "FS",
  "ScanningSequence": "EP",
  "SequenceName": "epfid2d1_104",
  "SequenceVariant": "SK_SS",
  "SeriesDescription": "func_task-things_run-4",
  "SeriesNumber": 20,
  "ShimSetting": [622, -7194, -8866, 309, -17, -167, -22, -22],
  "SliceThickness": 2,
  "SliceTiming": [0, 0.785, 0.0975, 0.8825, 0.195, 0.98, 0.295, 1.0775, 0.3925, 1.175, 0.49, 1.275, 0.5875, 1.3725, 0.685, 0, 0.785, 0.0975, 0.8825, 0.195, 0.98, 0.295, 1.0775, 0.3925, 1.175, 0.49, 1.275, 0.5875, 1.3725, 0.685, 0, 0.785, 0.0975, 0.8825, 0.195, 0.98, 0.295, 1.0775, 0.3925, 1.175, 0.49, 1.275, 0.5875, 1.3725, 0.685, 0, 0.785, 0.0975, 0.8825, 0.195, 0.98, 0.295, 1.0775, 0.3925, 1.175, 0.49, 1.275, 0.5875, 1.3725, 0.685],
  "SoftwareVersions": "syngo_MR_E11",
  "SpacingBetweenSlices": 2,
  "StationName": "MRC35049",
  "TaskName": "things",
  "TotalReadoutTime": 0.0576811,
  "TxRefAmp": 253.844,
  "WipMemBlock": "a5b0437a-3e0e-4e5c-831b-1194e0388bd5||Sequence: R016 ve11c/master r/e634e98; Dec 19 2017 11:00:25 by eja",
  "dcmmeta_affine": [
    [-1.9994018077850342, -0.015005717985332012, 0.04655611887574196, 106.6156234741211],
    [-0.035980913788080215, 1.7407169342041016, -0.9841797947883606, -50.60097885131836],
    [0.03313634917140007, 0.9847229719161987, 1.7404661178588867, -94.73748779296875],
    [0.0, 0.0, 0.0, 1.0]
],
  "dcmmeta_reorient_transform": [
    [0.0, -1.0, 0.0, 103.0],
    [1.0, 0.0, 0.0, 0.0],
    [0.0, 0.0, 1.0, 0.0],
    [0.0, 0.0, 0.0, 1.0]
],
  "dcmmeta_shape": [104, 104, 60, 190],
  "dcmmeta_slice_dim": 2,
  "dcmmeta_version": 0.6,
  "global": {
    "const": {
      "AcquisitionMatrix": [104, 0, 0, 104],
      "AngioFlag": "N",
      "BitsAllocated": 16,
      "BitsStored": 16,
      "BodyPartExamined": "BRAIN",
      "Columns": 832,
      "EchoNumbers": 1,
      "EchoTime": 37.0,
      "EchoTrainLength": 104,
      "FlipAngle": 52.0,
      "HighBit": 15,
      "ImageOrientationPatient": [0.99970087479599, 0.01799045609944, 0.01656817495896, -0.0075028587662, 0.87035847006402, -0.4923614939231],
      "ImagePositionPatient": [-827.39019033387, -775.41088344178, 353.06651949703],
      "ImageType": [
        "ORIGINAL",
        "PRIMARY",
        "P",
        "MB",
        "ND",
        "MOSAIC"
],
      "ImagedNucleus": "1H",
      "ImagingFrequency": 123.25891,
      "InPlanePhaseEncodingDirection": "COL",
      "LargestImagePixelValue": 4095,
      "MRAcquisitionType": "2D",
      "MagneticFieldStrength": 3.0,
      "Manufacturer": "SIEMENS",
      "ManufacturerModelName": "Prisma_fit",
      "Modality": "MR",
      "NumberOfAverages": 1.0,
      "NumberOfPhaseEncodingSteps": 104,
      "PercentPhaseFieldOfView": 100.0,
      "PercentSampling": 100.0,
      "PerformedProcedureStepStartTime": "102403.486000",
      "PhotometricInterpretation": "MONOCHROME2",
      "PixelBandwidth": 2290.0,
      "PixelRepresentation": 0,
      "PixelSpacing": [2.0, 2.0],
      "ProtocolName": "func_task-things_run-4",
      "RepetitionTime": 1490.0,
      "RescaleIntercept": -4096.0,
      "RescaleSlope": 2.0,
      "RescaleType": "US",
      "Rows": 832,
      "SAR": 0.04078930109596,
      "SamplesPerPixel": 1,
      "ScanOptions": "FS",
      "ScanningSequence": "EP",
      "SequenceName": "epfid2d1_104",
      "SequenceVariant": [
        "SK",
        "SS"
],
      "SeriesDescription": "func_task-things_run-4",
      "SeriesNumber": 20,
      "SeriesTime": "111311.210000",
      "SliceLocation": -55.061658948575,
      "SliceThickness": 2.0,
      "SmallestImagePixelValue": 0,
      "SoftwareVersions": "syngo MR E11",
      "SpacingBetweenSlices": 1.9999999420423,
      "SpecificCharacterSet": "ISO_IR 100",
      "StudyID": "1",
      "StudyTime": "102403.330000",
      "TransmitCoilName": "Body",
      "VariableFlipAngleFlag": "N",
      "WindowCenterWidthExplanation": "Algo1",
      "dBdt": 0.0},
    "slices": {}
  },
  "time": {
    "samples": {
      "AcquisitionNumber": [1, 2, 3, 4, 5, 6, 7, 8, 9, 10, 11, 12, 13, 14, 15, 16, 17, 18, 19, 20, 21, 22, 23, 24, 25, 26, 27, 28, 29, 30, 31, 32, 33, 34, 35, 36, 37, 38, 39, 40, 41, 42, 43, 44, 45, 46, 47, 48, 49, 50, 51, 52, 53, 54, 55, 56, 57, 58, 59, 60, 61, 62, 63, 64, 65, 66, 67, 68, 69, 70, 71, 72, 73, 74, 75, 76, 77, 78, 79, 80, 81, 82, 83, 84, 85, 86, 87, 88, 89, 90, 91, 92, 93, 94, 95, 96, 97, 98, 99, 100, 101, 102, 103, 104, 105, 106, 107, 108, 109, 110, 111, 112, 113, 114, 115, 116, 117, 118, 119, 120, 121, 122, 123, 124, 125, 126, 127, 128, 129, 130, 131, 132, 133, 134, 135, 136, 137, 138, 139, 140, 141, 142, 143, 144, 145, 146, 147, 148, 149, 150, 151, 152, 153, 154, 155, 156, 157, 158, 159, 160, 161, 162, 163, 164, 165, 166, 167, 168, 169, 170, 171, 172, 173, 174, 175, 176, 177, 178, 179, 180, 181, 182, 183, 184, 185, 186, 187, 188, 189, 190],
      "AcquisitionTime": ["111142.817500", "111144.307500", "111145.797500", "111147.287500", "111148.777500", "111150.267500", "111151.757500", "111153.247500", "111154.737500", "111156.227500", "111157.717500", "111159.207500", "111200.697500", "111202.187500", "111203.677500", "111205.167500", "111206.657500", "111208.147500", "111209.637500", "111211.127500", "111212.617500", "111214.107500", "111215.597500", "111217.087500", "111218.577500", "111220.067500", "111221.557500", "111223.047500", "111224.537500", "111226.027500", "111227.517500", "111229.007500", "111230.497500", "111231.987500", "111233.477500", "111234.967500", "111236.457500", "111237.947500", "111239.437500", "111240.927500", "111242.417500", "111243.907500", "111245.397500", "111246.887500", "111248.377500", "111249.867500", "111251.357500", "111252.847500", "111254.337500", "111255.827500", "111257.317500", "111258.807500", "111300.297500", "111301.787500", "111303.277500", "111304.767500", "111306.257500", "111307.747500", "111309.237500", "111310.727500", "111312.217500", "111313.707500", "111315.197500", "111316.687500", "111318.177500", "111319.667500", "111321.157500", "111322.647500", "111324.137500", "111325.627500", "111327.117500", "111328.607500", "111330.097500", "111331.587500", "111333.077500", "111334.567500", "111336.057500", "111337.547500", "111339.037500", "111340.527500", "111342.017500", "111343.507500", "111344.997500", "111346.487500", "111347.977500", "111349.467500", "111350.957500", "111352.447500", "111353.937500", "111355.427500", "111356.917500", "111358.407500", "111359.897500", "111401.387500", "111402.877500", "111404.367500", "111405.857500", "111407.347500", "111408.837500", "111410.327500", "111411.817500", "111413.307500", "111414.797500", "111416.287500", "111417.777500", "111419.267500", "111420.757500", "111422.247500", "111423.737500", "111425.227500", "111426.717500", "111428.207500", "111429.697500", "111431.187500", "111432.677500", "111434.167500", "111435.657500", "111437.147500", "111438.637500", "111440.127500", "111441.617500", "111443.107500", "111444.597500", "111446.087500", "111447.577500", "111449.067500", "111450.557500", "111452.047500", "111453.537500", "111455.027500", "111456.517500", "111458.007500", "111459.497500", "111500.987500", "111502.477500", "111503.967500", "111505.457500", "111506.947500", "111508.437500", "111509.927500", "111511.417500", "111512.907500", "111514.397500", "111515.887500", "111517.377500", "111518.867500", "111520.357500", "111521.847500", "111523.337500", "111524.827500", "111526.317500", "111527.807500", "111529.297500", "111530.787500", "111532.277500", "111533.767500", "111535.257500", "111536.747500", "111538.237500", "111539.727500", "111541.217500", "111542.707500", "111544.197500", "111545.687500", "111547.177500", "111548.667500", "111550.157500", "111551.647500", "111553.137500", "111554.627500", "111556.117500", "111557.607500", "111559.097500", "111600.587500", "111602.077500", "111603.567500", "111605.057500", "111606.547500", "111608.037500", "111609.527500", "111611.017500", "111612.507500", "111613.997500", "111615.487500", "111616.977500", "111618.467500", "111619.957500", "111621.447500", "111622.937500", "111624.427500"],
      "ContentTime": ["111311.212000", "111311.215000", "111311.217000", "111311.220000", "111311.222000", "111311.225000", "111311.227000", "111311.230000", "111311.232000", "111311.235000", "111311.237000", "111311.240000", "111311.242000", "111311.245000", "111311.247000", "111311.249000", "111311.252000", "111311.254000", "111311.257000", "111311.259000", "111311.264000", "111311.266000", "111311.269000", "111311.271000", "111311.274000", "111311.276000", "111311.279000", "111311.281000", "111311.283000", "111311.286000", "111311.288000", "111311.291000", "111311.293000", "111311.296000", "111311.298000", "111331.129000", "111331.131000", "111331.134000", "111331.136000", "111331.139000", "111331.141000", "111331.143000", "111331.146000", "111331.148000", "111331.151000", "111331.153000", "111331.156000", "111331.158000", "111331.161000", "111331.163000", "111331.166000", "111331.168000", "111331.171000", "111331.173000", "111331.175000", "111351.185000", "111351.187000", "111351.190000", "111351.192000", "111351.195000", "111351.197000", "111351.200000", "111351.202000", "111351.205000", "111351.207000", "111351.210000", "111351.212000", "111351.215000", "111351.217000", "111351.220000", "111351.222000", "111351.224000", "111351.227000", "111351.229000", "111351.232000", "111411.115000", "111411.118000", "111411.121000", "111411.123000", "111411.125000", "111411.128000", "111411.130000", "111411.133000", "111411.135000", "111411.138000", "111411.140000", "111411.143000", "111411.145000", "111411.148000", "111411.150000", "111411.153000", "111411.155000", "111411.158000", "111411.160000", "111411.162000", "111431.119000", "111431.122000", "111431.125000", "111431.127000", "111431.129000", "111431.132000", "111431.134000", "111431.137000", "111431.140000", "111431.142000", "111431.145000", "111431.147000", "111431.149000", "111431.152000", "111431.154000", "111431.157000", "111431.160000", "111511.145000", "111511.148000", "111511.151000", "111511.153000", "111511.156000", "111511.158000", "111511.174000", "111511.177000", "111511.179000", "111511.182000", "111511.184000", "111511.187000", "111511.189000", "111511.192000", "111511.194000", "111511.197000", "111511.199000", "111511.202000", "111511.204000", "111511.206000", "111511.209000", "111511.211000", "111511.214000", "111511.216000", "111511.219000", "111511.221000", "111511.224000", "111551.186000", "111551.189000", "111551.194000", "111551.197000", "111551.201000", "111551.203000", "111551.206000", "111551.209000", "111551.211000", "111551.214000", "111551.216000", "111551.219000", "111551.221000", "111551.223000", "111551.226000", "111551.228000", "111551.231000", "111551.233000", "111551.236000", "111551.238000", "111551.241000", "111551.243000", "111551.246000", "111551.248000", "111551.251000", "111551.253000", "111627.145000", "111627.148000", "111627.151000", "111627.153000", "111627.156000", "111627.158000", "111627.161000", "111627.164000", "111627.167000", "111627.169000", "111627.172000", "111627.175000", "111627.178000", "111627.181000", "111627.183000", "111627.186000", "111627.189000", "111627.192000", "111627.194000", "111627.197000", "111627.200000", "111627.204000", "111627.207000", "111627.210000", "111627.214000"],
      "InstanceCreationTime": ["111311.212000", "111311.215000", "111311.217000", "111311.220000", "111311.222000", "111311.225000", "111311.227000", "111311.230000", "111311.232000", "111311.235000", "111311.237000", "111311.240000", "111311.242000", "111311.245000", "111311.247000", "111311.249000", "111311.252000", "111311.254000", "111311.257000", "111311.259000", "111311.264000", "111311.266000", "111311.269000", "111311.271000", "111311.274000", "111311.276000", "111311.279000", "111311.281000", "111311.283000", "111311.286000", "111311.288000", "111311.291000", "111311.293000", "111311.296000", "111311.298000", "111331.129000", "111331.131000", "111331.134000", "111331.136000", "111331.139000", "111331.141000", "111331.143000", "111331.146000", "111331.148000", "111331.151000", "111331.153000", "111331.156000", "111331.158000", "111331.161000", "111331.163000", "111331.166000", "111331.168000", "111331.171000", "111331.173000", "111331.175000", "111351.185000", "111351.187000", "111351.190000", "111351.192000", "111351.195000", "111351.197000", "111351.200000", "111351.202000", "111351.205000", "111351.207000", "111351.210000", "111351.212000", "111351.215000", "111351.217000", "111351.220000", "111351.222000", "111351.224000", "111351.227000", "111351.229000", "111351.232000", "111411.115000", "111411.118000", "111411.121000", "111411.123000", "111411.125000", "111411.128000", "111411.130000", "111411.133000", "111411.135000", "111411.138000", "111411.140000", "111411.143000", "111411.145000", "111411.148000", "111411.150000", "111411.153000", "111411.155000", "111411.158000", "111411.160000", "111411.162000", "111431.119000", "111431.122000", "111431.125000", "111431.127000", "111431.129000", "111431.132000", "111431.134000", "111431.137000", "111431.140000", "111431.142000", "111431.145000", "111431.147000", "111431.149000", "111431.152000", "111431.154000", "111431.157000", "111431.160000", "111511.145000", "111511.148000", "111511.151000", "111511.153000", "111511.156000", "111511.158000", "111511.174000", "111511.177000", "111511.179000", "111511.182000", "111511.184000", "111511.187000", "111511.189000", "111511.192000", "111511.194000", "111511.197000", "111511.199000", "111511.202000", "111511.204000", "111511.206000", "111511.209000", "111511.211000", "111511.214000", "111511.216000", "111511.219000", "111511.221000", "111511.224000", "111551.186000", "111551.189000", "111551.194000", "111551.197000", "111551.201000", "111551.203000", "111551.206000", "111551.209000", "111551.211000", "111551.214000", "111551.216000", "111551.219000", "111551.221000", "111551.223000", "111551.226000", "111551.228000", "111551.231000", "111551.233000", "111551.236000", "111551.238000", "111551.241000", "111551.243000", "111551.246000", "111551.248000", "111551.251000", "111551.253000", "111627.145000", "111627.148000", "111627.151000", "111627.153000", "111627.156000", "111627.158000", "111627.161000", "111627.164000", "111627.167000", "111627.169000", "111627.172000", "111627.175000", "111627.178000", "111627.181000", "111627.183000", "111627.186000", "111627.189000", "111627.192000", "111627.194000", "111627.197000", "111627.200000", "111627.204000", "111627.207000", "111627.210000", "111627.214000"],
      "InstanceNumber": [1, 2, 3, 4, 5, 6, 7, 8, 9, 10, 11, 12, 13, 14, 15, 16, 17, 18, 19, 20, 21, 22, 23, 24, 25, 26, 27, 28, 29, 30, 31, 32, 33, 34, 35, 36, 37, 38, 39, 40, 41, 42, 43, 44, 45, 46, 47, 48, 49, 50, 51, 52, 53, 54, 55, 56, 57, 58, 59, 60, 61, 62, 63, 64, 65, 66, 67, 68, 69, 70, 71, 72, 73, 74, 75, 76, 77, 78, 79, 80, 81, 82, 83, 84, 85, 86, 87, 88, 89, 90, 91, 92, 93, 94, 95, 96, 97, 98, 99, 100, 101, 102, 103, 104, 105, 106, 107, 108, 109, 110, 111, 112, 113, 114, 115, 116, 117, 118, 119, 120, 121, 122, 123, 124, 125, 126, 127, 128, 129, 130, 131, 132, 133, 134, 135, 136, 137, 138, 139, 140, 141, 142, 143, 144, 145, 146, 147, 148, 149, 150, 151, 152, 153, 154, 155, 156, 157, 158, 159, 160, 161, 162, 163, 164, 165, 166, 167, 168, 169, 170, 171, 172, 173, 174, 175, 176, 177, 178, 179, 180, 181, 182, 183, 184, 185, 186, 187, 188, 189, 190],
      "WindowCenter": [4760.0, 4760.0, 4756.0, 4754.0, 4754.0, 4758.0, 4760.0, 4762.0, 4766.0, 4766.0, 4792.0, 4798.0, 4794.0, 4766.0, 4768.0, 4762.0, 4756.0, 4762.0, 4756.0, 4758.0, 4764.0, 4764.0, 4768.0, 4764.0, 4766.0, 4828.0, 4830.0, 4790.0, 4756.0, 4752.0, 4752.0, 4762.0, 4764.0, 4756.0, 4758.0, 4788.0, 4788.0, 4790.0, 4796.0, 4792.0, 4762.0, 4758.0, 4760.0, 4758.0, 4798.0, 4798.0, 4768.0, 4762.0, 4752.0, 4752.0, 4752.0, 4756.0, 4784.0, 4788.0, 4794.0, 4802.0, 4794.0, 4794.0, 4830.0, 4798.0, 4758.0, 4748.0, 4746.0, 4772.0, 4750.0, 4762.0, 4788.0, 4796.0, 4828.0, 4802.0, 4790.0, 4768.0, 4760.0, 4756.0, 4756.0, 4758.0, 4758.0, 4762.0, 4764.0, 4828.0, 4832.0, 4798.0, 4760.0, 4750.0, 4772.0, 4776.0, 4752.0, 4792.0, 4832.0, 4826.0, 4802.0, 4802.0, 4790.0, 4756.0, 4752.0, 4752.0, 4752.0, 4760.0, 4766.0, 4788.0, 4794.0, 4794.0, 4790.0, 4792.0, 4804.0, 4770.0, 4756.0, 4752.0, 4746.0, 4754.0, 4754.0, 4762.0, 4804.0, 4832.0, 4802.0, 4790.0, 4764.0, 4756.0, 4762.0, 4768.0, 4758.0, 4754.0, 4754.0, 4760.0, 4756.0, 4768.0, 4788.0, 4766.0, 4794.0, 4790.0, 4762.0, 4760.0, 4756.0, 4796.0, 4794.0, 4764.0, 4758.0, 4764.0, 4762.0, 4756.0, 4766.0, 4760.0, 4764.0, 4766.0, 4762.0, 4768.0, 4768.0, 4762.0, 4764.0, 4764.0, 4760.0, 4754.0, 4758.0, 4762.0, 4758.0, 4766.0, 4764.0, 4792.0, 4800.0, 4764.0, 4760.0, 4756.0, 4782.0, 4774.0, 4792.0, 4790.0, 4798.0, 4790.0, 4784.0, 4764.0, 4758.0, 4758.0, 4756.0, 4756.0, 4756.0, 4760.0, 4762.0, 4792.0, 4832.0, 4806.0, 4792.0, 4754.0, 4760.0, 4770.0, 4768.0, 4758.0, 4756.0, 4750.0, 4752.0, 4760.0],
      "WindowWidth": [18518.0, 18526.0, 18524.0, 18526.0, 18530.0, 18532.0, 18528.0, 18530.0, 18528.0, 18524.0, 18556.0, 18554.0, 18556.0, 18530.0, 18524.0, 18528.0, 18536.0, 18530.0, 18524.0, 18538.0, 18530.0, 18530.0, 18530.0, 18532.0, 18534.0, 18584.0, 18582.0, 18556.0, 18528.0, 18536.0, 18534.0, 18522.0, 18530.0, 18528.0, 18534.0, 18562.0, 18560.0, 18564.0, 18558.0, 18556.0, 18526.0, 18528.0, 18530.0, 18530.0, 18554.0, 18552.0, 18520.0, 18524.0, 18532.0, 18532.0, 18534.0, 18536.0, 18556.0, 18558.0, 18560.0, 18560.0, 18562.0, 18560.0, 18576.0, 18550.0, 18526.0, 18530.0, 18544.0, 18570.0, 18538.0, 18524.0, 18562.0, 18558.0, 18588.0, 18558.0, 18558.0, 18528.0, 18526.0, 18538.0, 18530.0, 18532.0, 18530.0, 18526.0, 18530.0, 18588.0, 18586.0, 18556.0, 18518.0, 18534.0, 18570.0, 18572.0, 18534.0, 18560.0, 18588.0, 18588.0, 18558.0, 18554.0, 18560.0, 18534.0, 18532.0, 18530.0, 18536.0, 18534.0, 18532.0, 18558.0, 18560.0, 18556.0, 18558.0, 18554.0, 18554.0, 18524.0, 18522.0, 18534.0, 18538.0, 18540.0, 18536.0, 18532.0, 18554.0, 18584.0, 18560.0, 18562.0, 18526.0, 18530.0, 18532.0, 18524.0, 18520.0, 18528.0, 18532.0, 18530.0, 18528.0, 18530.0, 18556.0, 18530.0, 18552.0, 18552.0, 18522.0, 18532.0, 18528.0, 18556.0, 18556.0, 18526.0, 18534.0, 18528.0, 18526.0, 18530.0, 18526.0, 18526.0, 18528.0, 18520.0, 18522.0, 18524.0, 18522.0, 18524.0, 18526.0, 18522.0, 18528.0, 18524.0, 18532.0, 18528.0, 18528.0, 18528.0, 18524.0, 18554.0, 18552.0, 18528.0, 18530.0, 18538.0, 18568.0, 18520.0, 18554.0, 18562.0, 18554.0, 18556.0, 18564.0, 18520.0, 18520.0, 18536.0, 18524.0, 18532.0, 18528.0, 18524.0, 18528.0, 18558.0, 18586.0, 18558.0, 18562.0, 18530.0, 18522.0, 18520.0, 18520.0, 18530.0, 18530.0, 18532.0, 18536.0, 18536.0]
    },
    "slices": {}
  }
}