{
  "AcquisitionMatrixPE": 104,
  "AcquisitionNumber": 1,
  "AcquisitionTime": "10:59:42.285000",
  "BandwidthPerPixelPhaseEncode": 17.17,
  "BaseResolution": 104,
  "BodyPartExamined": "BRAIN",
  "CoilString": "HC1-7;NC1_2",
  "ConsistencyInfo": "N4_VE11C_LATEST_20160120",
  "ConversionSoftware": "dcm2niix",
  "ConversionSoftwareVersion": "v1.0.20190902",
  "DerivedVendorReportedEchoSpacing": 0.000560011,
  "DeviceSerialNumber": "167006",
  "DwellTime": 2.1e-06,
  "EchoTime": 0.037,
  "EchoTrainLength": 104,
  "EffectiveEchoSpacing": 0.000560011,
  "FlipAngle": 52,
  "HeudiconvVersion": "0.10.0",
  "ImageComments": "Unaliased_MB4_PE3_LB",
  "ImageOrientationPatientDICOM": [0.999701, 0.0179905, 0.0165682, -0.00750286, 0.870358, -0.492361],
  "ImageType": [
    "ORIGINAL",
    "PRIMARY",
    "M",
    "MB",
    "ND",
    "MOSAIC"
],
  "ImagingFrequency": 123.259,
  "InPlanePhaseEncodingDirectionDICOM": "COL",
  "InstitutionAddress": "Chemin_Queen-Mary_4565_Montreal_District_CA_H3W_1W5",
  "InstitutionName": "IUGM",
  "InstitutionalDepartmentName": "Department",
  "MRAcquisitionType": "2D",
  "MagneticFieldStrength": 3,
  "Manufacturer": "Siemens",
  "ManufacturersModelName": "Prisma_fit",
  "Modality": "MR",
  "MultibandAccelerationFactor": 4,
  "PartialFourier": 1,
  "PatientPosition": "HFS",
  "PercentPhaseFOV": 100,
  "PhaseEncodingDirection": "j",
  "PhaseEncodingSteps": 104,
  "PhaseResolution": 1,
  "PixelBandwidth": 2290,
  "ProcedureStepDescription": "memory_things",
  "ProtocolName": "func_task-things_run-2",
  "PulseSequenceDetails": "%CustomerSeq%_cmrr_mbep2d_bold",
  "ReceiveCoilActiveElements": "HC1-7;NC1,2",
  "ReceiveCoilName": "HeadNeck_64",
  "ReconMatrixPE": 104,
  "RepetitionTime": 1.49,
  "SAR": 0.0407893,
  "ScanOptions": "FS",
  "ScanningSequence": "EP",
  "SequenceName": "epfid2d1_104",
  "SequenceVariant": "SK_SS",
  "SeriesDescription": "func_task-things_run-2",
  "SeriesNumber": 13,
  "ShimSetting": [622, -7194, -8866, 309, -17, -167, -22, -22],
  "SliceThickness": 2,
  "SliceTiming": [0, 0.785, 0.0975, 0.8825, 0.1975, 0.98, 0.295, 1.0775, 0.3925, 1.1775, 0.49, 1.275, 0.5875, 1.3725, 0.6875, 0, 0.785, 0.0975, 0.8825, 0.1975, 0.98, 0.295, 1.0775, 0.3925, 1.1775, 0.49, 1.275, 0.5875, 1.3725, 0.6875, 0, 0.785, 0.0975, 0.8825, 0.1975, 0.98, 0.295, 1.0775, 0.3925, 1.1775, 0.49, 1.275, 0.5875, 1.3725, 0.6875, 0, 0.785, 0.0975, 0.8825, 0.1975, 0.98, 0.295, 1.0775, 0.3925, 1.1775, 0.49, 1.275, 0.5875, 1.3725, 0.6875],
  "SoftwareVersions": "syngo_MR_E11",
  "SpacingBetweenSlices": 2,
  "StationName": "MRC35049",
  "TaskName": "things",
  "TotalReadoutTime": 0.0576811,
  "TxRefAmp": 253.844,
  "WipMemBlock": "c23ab401-e3ce-40f7-a5ba-0dcd451040e4||Sequence: R016 ve11c/master r/e634e98; Dec 19 2017 11:00:25 by eja",
  "dcmmeta_affine": [
    [-1.9994018077850342, -0.015005717985332012, 0.04655611887574196, 106.6156234741211],
    [-0.035980913788080215, 1.7407169342041016, -0.9841797947883606, -50.60097885131836],
    [0.03313634917140007, 0.9847229719161987, 1.7404661178588867, -94.73748779296875],
    [0.0, 0.0, 0.0, 1.0]
],
  "dcmmeta_reorient_transform": [
    [0.0, -1.0, 0.0, 103.0],
    [1.0, 0.0, 0.0, 0.0],
    [0.0, 0.0, 1.0, 0.0],
    [0.0, 0.0, 0.0, 1.0]
],
  "dcmmeta_shape": [104, 104, 60, 190],
  "dcmmeta_slice_dim": 2,
  "dcmmeta_version": 0.6,
  "global": {
    "const": {
      "AcquisitionMatrix": [104, 0, 0, 104],
      "AngioFlag": "N",
      "BitsAllocated": 16,
      "BitsStored": 16,
      "BodyPartExamined": "BRAIN",
      "Columns": 832,
      "EchoNumbers": 1,
      "EchoTime": 37.0,
      "EchoTrainLength": 104,
      "FlipAngle": 52.0,
      "HighBit": 15,
      "ImageOrientationPatient": [0.99970087479599, 0.01799045609944, 0.01656817495896, -0.0075028587662, 0.87035847006402, -0.4923614939231],
      "ImagePositionPatient": [-827.39019033387, -775.41088344178, 353.06651949703],
      "ImageType": [
        "ORIGINAL",
        "PRIMARY",
        "M",
        "MB",
        "ND",
        "MOSAIC"
],
      "ImagedNucleus": "1H",
      "ImagingFrequency": 123.258903,
      "InPlanePhaseEncodingDirection": "COL",
      "MRAcquisitionType": "2D",
      "MagneticFieldStrength": 3.0,
      "Manufacturer": "SIEMENS",
      "ManufacturerModelName": "Prisma_fit",
      "Modality": "MR",
      "NumberOfAverages": 1.0,
      "NumberOfPhaseEncodingSteps": 104,
      "PercentPhaseFieldOfView": 100.0,
      "PercentSampling": 100.0,
      "PerformedProcedureStepStartTime": "102403.486000",
      "PhotometricInterpretation": "MONOCHROME2",
      "PixelBandwidth": 2290.0,
      "PixelRepresentation": 0,
      "PixelSpacing": [2.0, 2.0],
      "ProtocolName": "func_task-things_run-2",
      "RepetitionTime": 1490.0,
      "Rows": 832,
      "SAR": 0.04078930109596,
      "SamplesPerPixel": 1,
      "ScanOptions": "FS",
      "ScanningSequence": "EP",
      "SequenceName": "epfid2d1_104",
      "SequenceVariant": [
        "SK",
        "SS"
],
      "SeriesDescription": "func_task-things_run-2",
      "SeriesNumber": 13,
      "SeriesTime": "110101.039000",
      "SliceLocation": -55.061658948575,
      "SliceThickness": 2.0,
      "SmallestImagePixelValue": 0,
      "SoftwareVersions": "syngo MR E11",
      "SpacingBetweenSlices": 1.9999999420423,
      "SpecificCharacterSet": "ISO_IR 100",
      "StudyID": "1",
      "StudyTime": "102403.330000",
      "TransmitCoilName": "Body",
      "VariableFlipAngleFlag": "N",
      "WindowCenterWidthExplanation": "Algo1",
      "dBdt": 0.0},
    "slices": {}
  },
  "time": {
    "samples": {
      "AcquisitionNumber": [1, 2, 3, 4, 5, 6, 7, 8, 9, 10, 11, 12, 13, 14, 15, 16, 17, 18, 19, 20, 21, 22, 23, 24, 25, 26, 27, 28, 29, 30, 31, 32, 33, 34, 35, 36, 37, 38, 39, 40, 41, 42, 43, 44, 45, 46, 47, 48, 49, 50, 51, 52, 53, 54, 55, 56, 57, 58, 59, 60, 61, 62, 63, 64, 65, 66, 67, 68, 69, 70, 71, 72, 73, 74, 75, 76, 77, 78, 79, 80, 81, 82, 83, 84, 85, 86, 87, 88, 89, 90, 91, 92, 93, 94, 95, 96, 97, 98, 99, 100, 101, 102, 103, 104, 105, 106, 107, 108, 109, 110, 111, 112, 113, 114, 115, 116, 117, 118, 119, 120, 121, 122, 123, 124, 125, 126, 127, 128, 129, 130, 131, 132, 133, 134, 135, 136, 137, 138, 139, 140, 141, 142, 143, 144, 145, 146, 147, 148, 149, 150, 151, 152, 153, 154, 155, 156, 157, 158, 159, 160, 161, 162, 163, 164, 165, 166, 167, 168, 169, 170, 171, 172, 173, 174, 175, 176, 177, 178, 179, 180, 181, 182, 183, 184, 185, 186, 187, 188, 189, 190],
      "AcquisitionTime": ["105942.285000", "105943.775000", "105945.265000", "105946.755000", "105948.245000", "105949.735000", "105951.225000", "105952.715000", "105954.205000", "105955.695000", "105957.185000", "105958.675000", "110000.165000", "110001.655000", "110003.145000", "110004.635000", "110006.125000", "110007.615000", "110009.105000", "110010.595000", "110012.085000", "110013.575000", "110015.065000", "110016.555000", "110018.045000", "110019.535000", "110021.025000", "110022.515000", "110024.005000", "110025.495000", "110026.985000", "110028.475000", "110029.965000", "110031.455000", "110032.945000", "110034.435000", "110035.925000", "110037.415000", "110038.905000", "110040.395000", "110041.885000", "110043.375000", "110044.865000", "110046.355000", "110047.845000", "110049.335000", "110050.825000", "110052.315000", "110053.805000", "110055.295000", "110056.785000", "110058.275000", "110059.765000", "110101.255000", "110102.745000", "110104.235000", "110105.725000", "110107.215000", "110108.705000", "110110.195000", "110111.685000", "110113.175000", "110114.665000", "110116.155000", "110117.645000", "110119.135000", "110120.625000", "110122.115000", "110123.605000", "110125.095000", "110126.585000", "110128.075000", "110129.565000", "110131.055000", "110132.545000", "110134.035000", "110135.525000", "110137.015000", "110138.505000", "110139.995000", "110141.485000", "110142.975000", "110144.465000", "110145.955000", "110147.445000", "110148.935000", "110150.425000", "110151.915000", "110153.405000", "110154.895000", "110156.385000", "110157.875000", "110159.365000", "110200.855000", "110202.345000", "110203.835000", "110205.325000", "110206.815000", "110208.305000", "110209.795000", "110211.285000", "110212.775000", "110214.265000", "110215.755000", "110217.245000", "110218.735000", "110220.225000", "110221.715000", "110223.205000", "110224.695000", "110226.185000", "110227.675000", "110229.165000", "110230.655000", "110232.145000", "110233.635000", "110235.125000", "110236.615000", "110238.105000", "110239.595000", "110241.085000", "110242.575000", "110244.065000", "110245.555000", "110247.045000", "110248.535000", "110250.025000", "110251.515000", "110253.005000", "110254.495000", "110255.985000", "110257.475000", "110258.965000", "110300.455000", "110301.945000", "110303.435000", "110304.925000", "110306.415000", "110307.905000", "110309.395000", "110310.885000", "110312.375000", "110313.865000", "110315.355000", "110316.845000", "110318.335000", "110319.825000", "110321.315000", "110322.805000", "110324.295000", "110325.785000", "110327.275000", "110328.765000", "110330.255000", "110331.745000", "110333.235000", "110334.725000", "110336.215000", "110337.705000", "110339.195000", "110340.685000", "110342.175000", "110343.665000", "110345.155000", "110346.645000", "110348.135000", "110349.625000", "110351.115000", "110352.605000", "110354.095000", "110355.585000", "110357.075000", "110358.565000", "110400.055000", "110401.545000", "110403.035000", "110404.525000", "110406.015000", "110407.505000", "110408.995000", "110410.485000", "110411.975000", "110413.465000", "110414.955000", "110416.445000", "110417.935000", "110419.425000", "110420.915000", "110422.405000", "110423.895000"],
      "ContentTime": ["110101.042000", "110101.046000", "110101.049000", "110101.052000", "110101.062000", "110101.071000", "110101.075000", "110101.078000", "110101.081000", "110101.084000", "110101.088000", "110101.091000", "110101.094000", "110101.098000", "110101.101000", "110101.104000", "110101.108000", "110101.111000", "110101.114000", "110101.117000", "110101.121000", "110101.124000", "110101.127000", "110101.130000", "110101.133000", "110121.010000", "110121.014000", "110121.017000", "110121.020000", "110121.023000", "110121.027000", "110121.030000", "110121.033000", "110121.036000", "110121.040000", "110121.043000", "110121.047000", "110121.050000", "110121.053000", "110121.057000", "110121.060000", "110121.063000", "110121.067000", "110121.070000", "110121.073000", "110141.010000", "110141.014000", "110141.017000", "110141.020000", "110141.023000", "110141.034000", "110141.038000", "110141.041000", "110141.044000", "110141.047000", "110141.051000", "110141.054000", "110141.057000", "110141.060000", "110141.064000", "110141.067000", "110141.070000", "110141.073000", "110141.077000", "110141.080000", "110201.011000", "110201.015000", "110201.018000", "110201.021000", "110201.024000", "110201.028000", "110201.031000", "110201.034000", "110201.037000", "110201.041000", "110201.044000", "110201.047000", "110201.050000", "110201.054000", "110201.057000", "110201.060000", "110201.063000", "110201.067000", "110201.070000", "110201.073000", "110221.011000", "110221.015000", "110221.018000", "110221.021000", "110221.024000", "110221.028000", "110221.031000", "110221.034000", "110221.037000", "110221.041000", "110221.044000", "110221.047000", "110221.050000", "110221.054000", "110221.057000", "110221.060000", "110221.063000", "110221.067000", "110221.070000", "110221.073000", "110301.011000", "110301.015000", "110301.018000", "110301.021000", "110301.024000", "110301.028000", "110301.031000", "110301.034000", "110301.038000", "110301.041000", "110301.044000", "110301.047000", "110301.051000", "110301.054000", "110301.057000", "110301.060000", "110301.064000", "110301.067000", "110301.070000", "110301.073000", "110301.077000", "110301.080000", "110301.083000", "110301.087000", "110301.090000", "110301.093000", "110301.096000", "110341.010000", "110341.014000", "110341.017000", "110341.020000", "110341.024000", "110341.027000", "110341.030000", "110341.034000", "110341.037000", "110341.040000", "110341.044000", "110341.047000", "110341.050000", "110341.053000", "110341.057000", "110341.060000", "110341.063000", "110341.066000", "110341.070000", "110341.073000", "110341.076000", "110341.080000", "110341.083000", "110341.086000", "110341.089000", "110341.093000", "110341.096000", "110421.011000", "110421.015000", "110421.033000", "110421.037000", "110421.040000", "110421.043000", "110421.046000", "110421.050000", "110421.053000", "110421.056000", "110421.060000", "110421.063000", "110421.066000", "110421.069000", "110421.073000", "110421.076000", "110421.079000", "110421.083000", "110421.086000", "110421.089000", "110421.092000", "110421.096000", "110421.099000", "110421.102000", "110421.105000", "110421.109000", "110421.112000", "110426.424000", "110426.428000", "110426.432000", "110426.435000"],
      "InstanceCreationTime": ["110101.042000", "110101.046000", "110101.049000", "110101.052000", "110101.062000", "110101.071000", "110101.075000", "110101.078000", "110101.081000", "110101.084000", "110101.088000", "110101.091000", "110101.094000", "110101.098000", "110101.101000", "110101.104000", "110101.108000", "110101.111000", "110101.114000", "110101.117000", "110101.121000", "110101.124000", "110101.127000", "110101.130000", "110101.133000", "110121.010000", "110121.014000", "110121.017000", "110121.020000", "110121.023000", "110121.027000", "110121.030000", "110121.033000", "110121.036000", "110121.040000", "110121.043000", "110121.047000", "110121.050000", "110121.053000", "110121.057000", "110121.060000", "110121.063000", "110121.067000", "110121.070000", "110121.073000", "110141.010000", "110141.014000", "110141.017000", "110141.020000", "110141.023000", "110141.034000", "110141.038000", "110141.041000", "110141.044000", "110141.047000", "110141.051000", "110141.054000", "110141.057000", "110141.060000", "110141.064000", "110141.067000", "110141.070000", "110141.073000", "110141.077000", "110141.080000", "110201.011000", "110201.015000", "110201.018000", "110201.021000", "110201.024000", "110201.028000", "110201.031000", "110201.034000", "110201.037000", "110201.041000", "110201.044000", "110201.047000", "110201.050000", "110201.054000", "110201.057000", "110201.060000", "110201.063000", "110201.067000", "110201.070000", "110201.073000", "110221.011000", "110221.015000", "110221.018000", "110221.021000", "110221.024000", "110221.028000", "110221.031000", "110221.034000", "110221.037000", "110221.041000", "110221.044000", "110221.047000", "110221.050000", "110221.054000", "110221.057000", "110221.060000", "110221.063000", "110221.067000", "110221.070000", "110221.073000", "110301.011000", "110301.015000", "110301.018000", "110301.021000", "110301.024000", "110301.028000", "110301.031000", "110301.034000", "110301.038000", "110301.041000", "110301.044000", "110301.047000", "110301.051000", "110301.054000", "110301.057000", "110301.060000", "110301.064000", "110301.067000", "110301.070000", "110301.073000", "110301.077000", "110301.080000", "110301.083000", "110301.087000", "110301.090000", "110301.093000", "110301.096000", "110341.010000", "110341.014000", "110341.017000", "110341.020000", "110341.024000", "110341.027000", "110341.030000", "110341.034000", "110341.037000", "110341.040000", "110341.044000", "110341.047000", "110341.050000", "110341.053000", "110341.057000", "110341.060000", "110341.063000", "110341.066000", "110341.070000", "110341.073000", "110341.076000", "110341.080000", "110341.083000", "110341.086000", "110341.089000", "110341.093000", "110341.096000", "110421.011000", "110421.015000", "110421.033000", "110421.037000", "110421.040000", "110421.043000", "110421.046000", "110421.050000", "110421.053000", "110421.056000", "110421.060000", "110421.063000", "110421.066000", "110421.069000", "110421.073000", "110421.076000", "110421.079000", "110421.083000", "110421.086000", "110421.089000", "110421.092000", "110421.096000", "110421.099000", "110421.102000", "110421.105000", "110421.109000", "110421.112000", "110426.424000", "110426.428000", "110426.432000", "110426.435000"],
      "InstanceNumber": [1, 2, 3, 4, 5, 6, 7, 8, 9, 10, 11, 12, 13, 14, 15, 16, 17, 18, 19, 20, 21, 22, 23, 24, 25, 26, 27, 28, 29, 30, 31, 32, 33, 34, 35, 36, 37, 38, 39, 40, 41, 42, 43, 44, 45, 46, 47, 48, 49, 50, 51, 52, 53, 54, 55, 56, 57, 58, 59, 60, 61, 62, 63, 64, 65, 66, 67, 68, 69, 70, 71, 72, 73, 74, 75, 76, 77, 78, 79, 80, 81, 82, 83, 84, 85, 86, 87, 88, 89, 90, 91, 92, 93, 94, 95, 96, 97, 98, 99, 100, 101, 102, 103, 104, 105, 106, 107, 108, 109, 110, 111, 112, 113, 114, 115, 116, 117, 118, 119, 120, 121, 122, 123, 124, 125, 126, 127, 128, 129, 130, 131, 132, 133, 134, 135, 136, 137, 138, 139, 140, 141, 142, 143, 144, 145, 146, 147, 148, 149, 150, 151, 152, 153, 154, 155, 156, 157, 158, 159, 160, 161, 162, 163, 164, 165, 166, 167, 168, 169, 170, 171, 172, 173, 174, 175, 176, 177, 178, 179, 180, 181, 182, 183, 184, 185, 186, 187, 188, 189, 190],
      "LargestImagePixelValue": [44467, 44109, 43520, 43785, 43705, 42713, 42657, 42263, 42295, 42436, 42890, 43652, 42804, 42777, 42809, 42697, 42303, 42500, 42188, 42441, 42909, 42570, 42145, 42395, 42744, 43007, 42366, 41793, 41754, 42470, 42340, 42972, 43386, 43002, 42452, 43098, 42157, 42481, 42503, 43109, 42894, 42253, 42639, 43600, 43038, 42968, 43179, 42228, 42165, 42748, 42061, 42610, 43213, 43424, 43175, 42417, 43037, 42909, 42674, 43215, 42022, 42123, 42672, 41957, 42039, 43119, 42346, 42045, 42531, 41944, 42331, 42149, 41873, 42088, 41823, 41570, 41906, 41756, 41874, 42101, 42106, 42085, 42255, 41542, 41808, 42413, 42121, 41883, 42767, 42041, 42314, 42674, 42061, 42339, 42297, 42259, 42388, 41904, 41516, 41818, 41978, 41650, 41969, 42278, 42387, 42113, 41784, 42728, 41892, 42294, 42214, 42055, 42192, 42177, 42156, 41454, 41925, 41679, 41451, 42143, 42085, 42002, 42167, 41840, 41726, 42087, 42361, 42284, 42051, 42151, 42111, 42281, 42252, 41880, 42241, 41861, 41912, 41974, 42246, 42045, 42450, 42223, 43662, 42916, 42394, 41893, 42022, 41931, 42183, 42014, 41953, 41876, 42332, 42082, 41757, 42315, 42237, 42001, 42317, 41990, 41941, 42281, 41792, 42035, 41954, 41622, 41472, 41405, 41814, 42060, 41802, 41812, 41935, 41999, 42261, 41803, 41963, 41632, 41682, 41313, 41937, 41731, 41845, 41604, 41824, 41659, 41777, 42065, 41621, 41644],
      "WindowCenter": [11060.0, 10990.0, 10984.0, 11004.0, 10999.0, 10958.0, 10920.0, 10888.0, 10911.0, 10904.0, 10903.0, 10930.0, 10937.0, 10954.0, 10977.0, 10952.0, 10922.0, 10936.0, 10975.0, 10993.0, 10982.0, 10933.0, 10899.0, 10859.0, 10874.0, 10897.0, 10908.0, 10921.0, 10932.0, 10979.0, 11019.0, 11029.0, 11002.0, 10937.0, 10922.0, 10916.0, 10884.0, 10913.0, 10936.0, 10933.0, 10896.0, 10908.0, 10959.0, 10988.0, 10949.0, 10920.0, 10945.0, 10930.0, 10921.0, 10935.0, 10921.0, 10936.0, 10952.0, 10955.0, 10981.0, 10960.0, 10957.0, 10956.0, 10920.0, 10904.0, 10899.0, 10955.0, 10983.0, 10953.0, 10960.0, 10969.0, 10934.0, 10932.0, 10952.0, 10963.0, 10961.0, 10923.0, 10884.0, 10906.0, 10936.0, 10940.0, 10957.0, 10935.0, 10919.0, 10934.0, 10951.0, 10962.0, 10967.0, 10952.0, 10962.0, 10928.0, 10934.0, 10953.0, 10971.0, 10932.0, 10939.0, 10951.0, 10951.0, 10949.0, 10904.0, 10907.0, 10917.0, 10947.0, 10981.0, 10992.0, 10974.0, 10918.0, 10906.0, 10926.0, 10950.0, 10965.0, 10970.0, 10950.0, 10910.0, 10891.0, 10899.0, 10884.0, 10932.0, 10945.0, 10937.0, 10951.0, 10951.0, 10935.0, 10915.0, 10918.0, 10918.0, 10918.0, 10915.0, 10907.0, 10902.0, 10907.0, 10902.0, 10896.0, 10916.0, 10937.0, 10911.0, 10922.0, 10921.0, 10890.0, 10895.0, 10939.0, 10957.0, 10947.0, 10915.0, 10898.0, 10896.0, 10892.0, 10903.0, 10868.0, 10877.0, 10918.0, 10931.0, 10926.0, 10943.0, 10949.0, 10932.0, 10915.0, 10907.0, 10897.0, 10867.0, 10875.0, 10850.0, 10831.0, 10879.0, 10900.0, 10911.0, 10931.0, 10954.0, 10962.0, 10974.0, 10978.0, 10978.0, 10928.0, 10926.0, 10919.0, 10899.0, 10894.0, 10912.0, 10904.0, 10911.0, 10931.0, 10935.0, 10939.0, 10942.0, 10923.0, 10917.0, 10936.0, 10931.0, 10947.0, 10953.0, 10938.0, 10907.0, 10879.0, 10918.0, 10930.0],
      "WindowWidth": [23818.0, 23614.0, 23580.0, 23612.0, 23592.0, 23500.0, 23412.0, 23339.0, 23389.0, 23378.0, 23370.0, 23429.0, 23448.0, 23483.0, 23538.0, 23483.0, 23414.0, 23442.0, 23535.0, 23576.0, 23549.0, 23439.0, 23364.0, 23275.0, 23305.0, 23354.0, 23386.0, 23417.0, 23442.0, 23548.0, 23640.0, 23659.0, 23595.0, 23442.0, 23413.0, 23398.0, 23330.0, 23390.0, 23446.0, 23441.0, 23354.0, 23383.0, 23498.0, 23566.0, 23479.0, 23412.0, 23465.0, 23438.0, 23418.0, 23452.0, 23421.0, 23451.0, 23488.0, 23487.0, 23553.0, 23505.0, 23495.0, 23492.0, 23412.0, 23372.0, 23364.0, 23494.0, 23556.0, 23489.0, 23504.0, 23519.0, 23445.0, 23441.0, 23481.0, 23517.0, 23510.0, 23421.0, 23332.0, 23378.0, 23450.0, 23460.0, 23496.0, 23452.0, 23414.0, 23444.0, 23485.0, 23507.0, 23522.0, 23488.0, 23514.0, 23435.0, 23445.0, 23489.0, 23531.0, 23443.0, 23456.0, 23483.0, 23485.0, 23481.0, 23381.0, 23381.0, 23407.0, 23476.0, 23556.0, 23581.0, 23539.0, 23413.0, 23385.0, 23427.0, 23484.0, 23516.0, 23529.0, 23479.0, 23396.0, 23344.0, 23367.0, 23334.0, 23436.0, 23470.0, 23450.0, 23484.0, 23486.0, 23448.0, 23401.0, 23403.0, 23402.0, 23403.0, 23398.0, 23376.0, 23369.0, 23376.0, 23367.0, 23353.0, 23397.0, 23445.0, 23389.0, 23409.0, 23412.0, 23344.0, 23351.0, 23453.0, 23492.0, 23472.0, 23397.0, 23358.0, 23350.0, 23346.0, 23366.0, 23289.0, 23308.0, 23405.0, 23437.0, 23429.0, 23463.0, 23481.0, 23439.0, 23399.0, 23378.0, 23358.0, 23289.0, 23303.0, 23251.0, 23207.0, 23313.0, 23366.0, 23390.0, 23435.0, 23491.0, 23509.0, 23537.0, 23546.0, 23545.0, 23433.0, 23422.0, 23410.0, 23362.0, 23350.0, 23393.0, 23375.0, 23391.0, 23437.0, 23448.0, 23463.0, 23468.0, 23423.0, 23406.0, 23454.0, 23436.0, 23476.0, 23489.0, 23457.0, 23383.0, 23320.0, 23413.0, 23447.0]
    },
    "slices": {}
  }
}