{
  "AcquisitionMatrixPE": 104,
  "AcquisitionNumber": 1,
  "AcquisitionTime": "10:59:42.285000",
  "BandwidthPerPixelPhaseEncode": 17.17,
  "BaseResolution": 104,
  "BodyPartExamined": "BRAIN",
  "CoilString": "HC1-7;NC1_2",
  "ConsistencyInfo": "N4_VE11C_LATEST_20160120",
  "ConversionSoftware": "dcm2niix",
  "ConversionSoftwareVersion": "v1.0.20190902",
  "DerivedVendorReportedEchoSpacing": 0.000560011,
  "DeviceSerialNumber": "167006",
  "DwellTime": 2.1e-06,
  "EchoTime": 0.037,
  "EchoTrainLength": 104,
  "EffectiveEchoSpacing": 0.000560011,
  "FlipAngle": 52,
  "HeudiconvVersion": "0.10.0",
  "ImageComments": "Unaliased_MB4_PE3_LB",
  "ImageOrientationPatientDICOM": [0.999701, 0.0179905, 0.0165682, -0.00750286, 0.870358, -0.492361],
  "ImageType": [
    "ORIGINAL",
    "PRIMARY",
    "P",
    "MB",
    "ND",
    "MOSAIC"
],
  "ImagingFrequency": 123.259,
  "InPlanePhaseEncodingDirectionDICOM": "COL",
  "InstitutionAddress": "Chemin_Queen-Mary_4565_Montreal_District_CA_H3W_1W5",
  "InstitutionName": "IUGM",
  "InstitutionalDepartmentName": "Department",
  "MRAcquisitionType": "2D",
  "MagneticFieldStrength": 3,
  "Manufacturer": "Siemens",
  "ManufacturersModelName": "Prisma_fit",
  "Modality": "MR",
  "MultibandAccelerationFactor": 4,
  "PartialFourier": 1,
  "PatientPosition": "HFS",
  "PercentPhaseFOV": 100,
  "PhaseEncodingDirection": "j",
  "PhaseEncodingSteps": 104,
  "PhaseResolution": 1,
  "PixelBandwidth": 2290,
  "ProcedureStepDescription": "memory_things",
  "ProtocolName": "func_task-things_run-2",
  "PulseSequenceDetails": "%CustomerSeq%_cmrr_mbep2d_bold",
  "ReceiveCoilActiveElements": "HC1-7;NC1,2",
  "ReceiveCoilName": "HeadNeck_64",
  "ReconMatrixPE": 104,
  "RepetitionTime": 1.49,
  "SAR": 0.0407893,
  "ScanOptions": "FS",
  "ScanningSequence": "EP",
  "SequenceName": "epfid2d1_104",
  "SequenceVariant": "SK_SS",
  "SeriesDescription": "func_task-things_run-2",
  "SeriesNumber": 14,
  "ShimSetting": [622, -7194, -8866, 309, -17, -167, -22, -22],
  "SliceThickness": 2,
  "SliceTiming": [0, 0.785, 0.0975, 0.8825, 0.1975, 0.98, 0.295, 1.0775, 0.3925, 1.1775, 0.49, 1.275, 0.5875, 1.3725, 0.6875, 0, 0.785, 0.0975, 0.8825, 0.1975, 0.98, 0.295, 1.0775, 0.3925, 1.1775, 0.49, 1.275, 0.5875, 1.3725, 0.6875, 0, 0.785, 0.0975, 0.8825, 0.1975, 0.98, 0.295, 1.0775, 0.3925, 1.1775, 0.49, 1.275, 0.5875, 1.3725, 0.6875, 0, 0.785, 0.0975, 0.8825, 0.1975, 0.98, 0.295, 1.0775, 0.3925, 1.1775, 0.49, 1.275, 0.5875, 1.3725, 0.6875],
  "SoftwareVersions": "syngo_MR_E11",
  "SpacingBetweenSlices": 2,
  "StationName": "MRC35049",
  "TaskName": "things",
  "TotalReadoutTime": 0.0576811,
  "TxRefAmp": 253.844,
  "WipMemBlock": "c23ab401-e3ce-40f7-a5ba-0dcd451040e4||Sequence: R016 ve11c/master r/e634e98; Dec 19 2017 11:00:25 by eja",
  "dcmmeta_affine": [
    [-1.9994018077850342, -0.015005717985332012, 0.04655611887574196, 106.6156234741211],
    [-0.035980913788080215, 1.7407169342041016, -0.9841797947883606, -50.60097885131836],
    [0.03313634917140007, 0.9847229719161987, 1.7404661178588867, -94.73748779296875],
    [0.0, 0.0, 0.0, 1.0]
],
  "dcmmeta_reorient_transform": [
    [0.0, -1.0, 0.0, 103.0],
    [1.0, 0.0, 0.0, 0.0],
    [0.0, 0.0, 1.0, 0.0],
    [0.0, 0.0, 0.0, 1.0]
],
  "dcmmeta_shape": [104, 104, 60, 190],
  "dcmmeta_slice_dim": 2,
  "dcmmeta_version": 0.6,
  "global": {
    "const": {
      "AcquisitionMatrix": [104, 0, 0, 104],
      "AngioFlag": "N",
      "BitsAllocated": 16,
      "BitsStored": 16,
      "BodyPartExamined": "BRAIN",
      "Columns": 832,
      "EchoNumbers": 1,
      "EchoTime": 37.0,
      "EchoTrainLength": 104,
      "FlipAngle": 52.0,
      "HighBit": 15,
      "ImageOrientationPatient": [0.99970087479599, 0.01799045609944, 0.01656817495896, -0.0075028587662, 0.87035847006402, -0.4923614939231],
      "ImagePositionPatient": [-827.39019033387, -775.41088344178, 353.06651949703],
      "ImageType": [
        "ORIGINAL",
        "PRIMARY",
        "P",
        "MB",
        "ND",
        "MOSAIC"
],
      "ImagedNucleus": "1H",
      "ImagingFrequency": 123.258903,
      "InPlanePhaseEncodingDirection": "COL",
      "LargestImagePixelValue": 4095,
      "MRAcquisitionType": "2D",
      "MagneticFieldStrength": 3.0,
      "Manufacturer": "SIEMENS",
      "ManufacturerModelName": "Prisma_fit",
      "Modality": "MR",
      "NumberOfAverages": 1.0,
      "NumberOfPhaseEncodingSteps": 104,
      "PercentPhaseFieldOfView": 100.0,
      "PercentSampling": 100.0,
      "PerformedProcedureStepStartTime": "102403.486000",
      "PhotometricInterpretation": "MONOCHROME2",
      "PixelBandwidth": 2290.0,
      "PixelRepresentation": 0,
      "PixelSpacing": [2.0, 2.0],
      "ProtocolName": "func_task-things_run-2",
      "RepetitionTime": 1490.0,
      "RescaleIntercept": -4096.0,
      "RescaleSlope": 2.0,
      "RescaleType": "US",
      "Rows": 832,
      "SAR": 0.04078930109596,
      "SamplesPerPixel": 1,
      "ScanOptions": "FS",
      "ScanningSequence": "EP",
      "SequenceName": "epfid2d1_104",
      "SequenceVariant": [
        "SK",
        "SS"
],
      "SeriesDescription": "func_task-things_run-2",
      "SeriesNumber": 14,
      "SeriesTime": "110101.168000",
      "SliceLocation": -55.061658948575,
      "SliceThickness": 2.0,
      "SmallestImagePixelValue": 0,
      "SoftwareVersions": "syngo MR E11",
      "SpacingBetweenSlices": 1.9999999420423,
      "SpecificCharacterSet": "ISO_IR 100",
      "StudyID": "1",
      "StudyTime": "102403.330000",
      "TransmitCoilName": "Body",
      "VariableFlipAngleFlag": "N",
      "WindowCenterWidthExplanation": "Algo1",
      "dBdt": 0.0},
    "slices": {}
  },
  "time": {
    "samples": {
      "AcquisitionNumber": [1, 2, 3, 4, 5, 6, 7, 8, 9, 10, 11, 12, 13, 14, 15, 16, 17, 18, 19, 20, 21, 22, 23, 24, 25, 26, 27, 28, 29, 30, 31, 32, 33, 34, 35, 36, 37, 38, 39, 40, 41, 42, 43, 44, 45, 46, 47, 48, 49, 50, 51, 52, 53, 54, 55, 56, 57, 58, 59, 60, 61, 62, 63, 64, 65, 66, 67, 68, 69, 70, 71, 72, 73, 74, 75, 76, 77, 78, 79, 80, 81, 82, 83, 84, 85, 86, 87, 88, 89, 90, 91, 92, 93, 94, 95, 96, 97, 98, 99, 100, 101, 102, 103, 104, 105, 106, 107, 108, 109, 110, 111, 112, 113, 114, 115, 116, 117, 118, 119, 120, 121, 122, 123, 124, 125, 126, 127, 128, 129, 130, 131, 132, 133, 134, 135, 136, 137, 138, 139, 140, 141, 142, 143, 144, 145, 146, 147, 148, 149, 150, 151, 152, 153, 154, 155, 156, 157, 158, 159, 160, 161, 162, 163, 164, 165, 166, 167, 168, 169, 170, 171, 172, 173, 174, 175, 176, 177, 178, 179, 180, 181, 182, 183, 184, 185, 186, 187, 188, 189, 190],
      "AcquisitionTime": ["105942.285000", "105943.775000", "105945.265000", "105946.755000", "105948.245000", "105949.735000", "105951.225000", "105952.715000", "105954.205000", "105955.695000", "105957.185000", "105958.675000", "110000.165000", "110001.655000", "110003.145000", "110004.635000", "110006.125000", "110007.615000", "110009.105000", "110010.595000", "110012.085000", "110013.575000", "110015.065000", "110016.555000", "110018.045000", "110019.535000", "110021.025000", "110022.515000", "110024.005000", "110025.495000", "110026.985000", "110028.475000", "110029.965000", "110031.455000", "110032.945000", "110034.435000", "110035.925000", "110037.415000", "110038.905000", "110040.395000", "110041.885000", "110043.375000", "110044.865000", "110046.355000", "110047.845000", "110049.335000", "110050.825000", "110052.315000", "110053.805000", "110055.295000", "110056.785000", "110058.275000", "110059.765000", "110101.255000", "110102.745000", "110104.235000", "110105.725000", "110107.215000", "110108.705000", "110110.195000", "110111.685000", "110113.175000", "110114.665000", "110116.155000", "110117.645000", "110119.135000", "110120.625000", "110122.115000", "110123.605000", "110125.095000", "110126.585000", "110128.075000", "110129.565000", "110131.055000", "110132.545000", "110134.035000", "110135.525000", "110137.015000", "110138.505000", "110139.995000", "110141.485000", "110142.975000", "110144.465000", "110145.955000", "110147.445000", "110148.935000", "110150.425000", "110151.915000", "110153.405000", "110154.895000", "110156.385000", "110157.875000", "110159.365000", "110200.855000", "110202.345000", "110203.835000", "110205.325000", "110206.815000", "110208.305000", "110209.795000", "110211.285000", "110212.775000", "110214.265000", "110215.755000", "110217.245000", "110218.735000", "110220.225000", "110221.715000", "110223.205000", "110224.695000", "110226.185000", "110227.675000", "110229.165000", "110230.655000", "110232.145000", "110233.635000", "110235.125000", "110236.615000", "110238.105000", "110239.595000", "110241.085000", "110242.575000", "110244.065000", "110245.555000", "110247.045000", "110248.535000", "110250.025000", "110251.515000", "110253.005000", "110254.495000", "110255.985000", "110257.475000", "110258.965000", "110300.455000", "110301.945000", "110303.435000", "110304.925000", "110306.415000", "110307.905000", "110309.395000", "110310.885000", "110312.375000", "110313.865000", "110315.355000", "110316.845000", "110318.335000", "110319.825000", "110321.315000", "110322.805000", "110324.295000", "110325.785000", "110327.275000", "110328.765000", "110330.255000", "110331.745000", "110333.235000", "110334.725000", "110336.215000", "110337.705000", "110339.195000", "110340.685000", "110342.175000", "110343.665000", "110345.155000", "110346.645000", "110348.135000", "110349.625000", "110351.115000", "110352.605000", "110354.095000", "110355.585000", "110357.075000", "110358.565000", "110400.055000", "110401.545000", "110403.035000", "110404.525000", "110406.015000", "110407.505000", "110408.995000", "110410.485000", "110411.975000", "110413.465000", "110414.955000", "110416.445000", "110417.935000", "110419.425000", "110420.915000", "110422.405000", "110423.895000"],
      "ContentTime": ["110101.170000", "110101.173000", "110101.182000", "110101.184000", "110101.187000", "110101.189000", "110101.192000", "110101.194000", "110101.196000", "110101.199000", "110101.201000", "110101.204000", "110101.206000", "110101.209000", "110101.211000", "110101.214000", "110101.216000", "110101.219000", "110101.221000", "110101.223000", "110101.226000", "110101.228000", "110101.231000", "110101.233000", "110101.236000", "110121.116000", "110121.119000", "110121.122000", "110121.124000", "110121.127000", "110121.129000", "110121.132000", "110121.134000", "110121.141000", "110121.144000", "110121.146000", "110121.148000", "110121.151000", "110121.153000", "110121.156000", "110121.159000", "110121.161000", "110121.164000", "110121.166000", "110121.169000", "110141.121000", "110141.124000", "110141.126000", "110141.129000", "110141.131000", "110141.134000", "110141.136000", "110141.139000", "110141.141000", "110141.144000", "110141.146000", "110141.170000", "110141.173000", "110141.175000", "110141.178000", "110141.180000", "110141.183000", "110141.185000", "110141.188000", "110141.190000", "110201.241000", "110201.244000", "110201.246000", "110201.249000", "110201.251000", "110201.254000", "110201.256000", "110201.259000", "110201.261000", "110201.264000", "110201.266000", "110201.269000", "110201.271000", "110201.274000", "110201.276000", "110201.279000", "110201.281000", "110201.284000", "110201.286000", "110201.289000", "110221.114000", "110221.117000", "110221.119000", "110221.122000", "110221.124000", "110221.127000", "110221.129000", "110221.132000", "110221.135000", "110221.137000", "110221.140000", "110221.142000", "110221.144000", "110221.147000", "110221.150000", "110221.152000", "110221.154000", "110221.157000", "110221.160000", "110221.162000", "110301.150000", "110301.153000", "110301.156000", "110301.158000", "110301.161000", "110301.163000", "110301.166000", "110301.168000", "110301.171000", "110301.173000", "110301.176000", "110301.178000", "110301.181000", "110301.183000", "110301.186000", "110301.188000", "110301.191000", "110301.193000", "110301.196000", "110301.198000", "110301.204000", "110301.206000", "110301.209000", "110301.211000", "110301.214000", "110301.216000", "110301.218000", "110341.146000", "110341.149000", "110341.151000", "110341.154000", "110341.156000", "110341.159000", "110341.162000", "110341.164000", "110341.166000", "110341.169000", "110341.171000", "110341.174000", "110341.176000", "110341.179000", "110341.181000", "110341.184000", "110341.186000", "110341.189000", "110341.191000", "110341.194000", "110341.196000", "110341.199000", "110341.201000", "110341.204000", "110341.206000", "110341.209000", "110341.211000", "110421.149000", "110421.152000", "110421.154000", "110421.157000", "110421.209000", "110421.212000", "110421.214000", "110421.217000", "110421.219000", "110421.222000", "110421.224000", "110421.227000", "110421.229000", "110421.231000", "110421.234000", "110421.236000", "110421.239000", "110421.241000", "110421.244000", "110421.246000", "110421.249000", "110421.251000", "110421.254000", "110421.256000", "110421.259000", "110421.261000", "110421.264000", "110426.460000", "110426.463000", "110426.465000", "110426.468000"],
      "InstanceCreationTime": ["110101.170000", "110101.173000", "110101.182000", "110101.184000", "110101.187000", "110101.189000", "110101.192000", "110101.194000", "110101.196000", "110101.199000", "110101.201000", "110101.204000", "110101.206000", "110101.209000", "110101.211000", "110101.214000", "110101.216000", "110101.219000", "110101.221000", "110101.223000", "110101.226000", "110101.228000", "110101.231000", "110101.233000", "110101.236000", "110121.116000", "110121.119000", "110121.122000", "110121.124000", "110121.127000", "110121.129000", "110121.132000", "110121.134000", "110121.141000", "110121.144000", "110121.146000", "110121.148000", "110121.151000", "110121.153000", "110121.156000", "110121.159000", "110121.161000", "110121.164000", "110121.166000", "110121.169000", "110141.121000", "110141.124000", "110141.126000", "110141.129000", "110141.131000", "110141.134000", "110141.136000", "110141.139000", "110141.141000", "110141.144000", "110141.146000", "110141.170000", "110141.173000", "110141.175000", "110141.178000", "110141.180000", "110141.183000", "110141.185000", "110141.188000", "110141.190000", "110201.241000", "110201.244000", "110201.246000", "110201.249000", "110201.251000", "110201.254000", "110201.256000", "110201.259000", "110201.261000", "110201.264000", "110201.266000", "110201.269000", "110201.271000", "110201.274000", "110201.276000", "110201.279000", "110201.281000", "110201.284000", "110201.286000", "110201.289000", "110221.114000", "110221.117000", "110221.119000", "110221.122000", "110221.124000", "110221.127000", "110221.129000", "110221.132000", "110221.135000", "110221.137000", "110221.140000", "110221.142000", "110221.144000", "110221.147000", "110221.150000", "110221.152000", "110221.154000", "110221.157000", "110221.160000", "110221.162000", "110301.150000", "110301.153000", "110301.156000", "110301.158000", "110301.161000", "110301.163000", "110301.166000", "110301.168000", "110301.171000", "110301.173000", "110301.176000", "110301.178000", "110301.181000", "110301.183000", "110301.186000", "110301.188000", "110301.191000", "110301.193000", "110301.196000", "110301.198000", "110301.204000", "110301.206000", "110301.209000", "110301.211000", "110301.214000", "110301.216000", "110301.218000", "110341.146000", "110341.149000", "110341.151000", "110341.154000", "110341.156000", "110341.159000", "110341.162000", "110341.164000", "110341.166000", "110341.169000", "110341.171000", "110341.174000", "110341.176000", "110341.179000", "110341.181000", "110341.184000", "110341.186000", "110341.189000", "110341.191000", "110341.194000", "110341.196000", "110341.199000", "110341.201000", "110341.204000", "110341.206000", "110341.209000", "110341.211000", "110421.149000", "110421.152000", "110421.154000", "110421.157000", "110421.209000", "110421.212000", "110421.214000", "110421.217000", "110421.219000", "110421.222000", "110421.224000", "110421.227000", "110421.229000", "110421.231000", "110421.234000", "110421.236000", "110421.239000", "110421.241000", "110421.244000", "110421.246000", "110421.249000", "110421.251000", "110421.254000", "110421.256000", "110421.259000", "110421.261000", "110421.264000", "110426.460000", "110426.463000", "110426.465000", "110426.468000"],
      "InstanceNumber": [1, 2, 3, 4, 5, 6, 7, 8, 9, 10, 11, 12, 13, 14, 15, 16, 17, 18, 19, 20, 21, 22, 23, 24, 25, 26, 27, 28, 29, 30, 31, 32, 33, 34, 35, 36, 37, 38, 39, 40, 41, 42, 43, 44, 45, 46, 47, 48, 49, 50, 51, 52, 53, 54, 55, 56, 57, 58, 59, 60, 61, 62, 63, 64, 65, 66, 67, 68, 69, 70, 71, 72, 73, 74, 75, 76, 77, 78, 79, 80, 81, 82, 83, 84, 85, 86, 87, 88, 89, 90, 91, 92, 93, 94, 95, 96, 97, 98, 99, 100, 101, 102, 103, 104, 105, 106, 107, 108, 109, 110, 111, 112, 113, 114, 115, 116, 117, 118, 119, 120, 121, 122, 123, 124, 125, 126, 127, 128, 129, 130, 131, 132, 133, 134, 135, 136, 137, 138, 139, 140, 141, 142, 143, 144, 145, 146, 147, 148, 149, 150, 151, 152, 153, 154, 155, 156, 157, 158, 159, 160, 161, 162, 163, 164, 165, 166, 167, 168, 169, 170, 171, 172, 173, 174, 175, 176, 177, 178, 179, 180, 181, 182, 183, 184, 185, 186, 187, 188, 189, 190],
      "WindowCenter": [4784.0, 4782.0, 4782.0, 4784.0, 4790.0, 4788.0, 4762.0, 4778.0, 4780.0, 4778.0, 4778.0, 4776.0, 4776.0, 4784.0, 4764.0, 4784.0, 4780.0, 4782.0, 4776.0, 4784.0, 4764.0, 4766.0, 4762.0, 4778.0, 4758.0, 4758.0, 4754.0, 4776.0, 4776.0, 4776.0, 4776.0, 4782.0, 4788.0, 4786.0, 4786.0, 4784.0, 4784.0, 4780.0, 4778.0, 4778.0, 4780.0, 4782.0, 4780.0, 4764.0, 4784.0, 4786.0, 4792.0, 4762.0, 4756.0, 4776.0, 4776.0, 4776.0, 4778.0, 4756.0, 4782.0, 4784.0, 4788.0, 4784.0, 4784.0, 4762.0, 4778.0, 4780.0, 4778.0, 4780.0, 4776.0, 4758.0, 4762.0, 4784.0, 4764.0, 4784.0, 4782.0, 4760.0, 4778.0, 4782.0, 4756.0, 4778.0, 4758.0, 4754.0, 4780.0, 4758.0, 4780.0, 4776.0, 4762.0, 4780.0, 4780.0, 4780.0, 4778.0, 4778.0, 4758.0, 4782.0, 4784.0, 4760.0, 4782.0, 4782.0, 4780.0, 4780.0, 4782.0, 4784.0, 4786.0, 4782.0, 4780.0, 4778.0, 4782.0, 4784.0, 4784.0, 4782.0, 4782.0, 4786.0, 4762.0, 4766.0, 4756.0, 4776.0, 4780.0, 4778.0, 4782.0, 4760.0, 4780.0, 4786.0, 4764.0, 4760.0, 4780.0, 4758.0, 4780.0, 4778.0, 4780.0, 4760.0, 4760.0, 4782.0, 4778.0, 4758.0, 4778.0, 4782.0, 4760.0, 4780.0, 4758.0, 4782.0, 4780.0, 4784.0, 4764.0, 4782.0, 4794.0, 4798.0, 4762.0, 4776.0, 4796.0, 4772.0, 4776.0, 4774.0, 4782.0, 4782.0, 4784.0, 4784.0, 4786.0, 4786.0, 4792.0, 4766.0, 4762.0, 4784.0, 4756.0, 4778.0, 4774.0, 4756.0, 4760.0, 4782.0, 4756.0, 4780.0, 4764.0, 4760.0, 4758.0, 4766.0, 4760.0, 4780.0, 4762.0, 4756.0, 4776.0, 4758.0, 4758.0, 4776.0, 4756.0, 4778.0, 4754.0, 4760.0, 4780.0, 4758.0, 4760.0, 4756.0, 4758.0, 4774.0, 4778.0, 4764.0],
      "WindowWidth": [18572.0, 18576.0, 18576.0, 18576.0, 18558.0, 18552.0, 18532.0, 18570.0, 18570.0, 18574.0, 18572.0, 18570.0, 18572.0, 18570.0, 18532.0, 18562.0, 18570.0, 18570.0, 18572.0, 18576.0, 18528.0, 18522.0, 18536.0, 18570.0, 18536.0, 18532.0, 18536.0, 18570.0, 18574.0, 18570.0, 18572.0, 18570.0, 18558.0, 18562.0, 18568.0, 18558.0, 18568.0, 18572.0, 18568.0, 18574.0, 18578.0, 18576.0, 18572.0, 18530.0, 18564.0, 18568.0, 18556.0, 18522.0, 18536.0, 18568.0, 18572.0, 18574.0, 18572.0, 18538.0, 18564.0, 18568.0, 18560.0, 18564.0, 18572.0, 18538.0, 18568.0, 18574.0, 18566.0, 18570.0, 18566.0, 18530.0, 18540.0, 18570.0, 18534.0, 18570.0, 18566.0, 18540.0, 18568.0, 18568.0, 18540.0, 18568.0, 18534.0, 18532.0, 18568.0, 18536.0, 18566.0, 18564.0, 18538.0, 18574.0, 18568.0, 18570.0, 18570.0, 18570.0, 18534.0, 18568.0, 18570.0, 18536.0, 18574.0, 18572.0, 18568.0, 18566.0, 18572.0, 18562.0, 18568.0, 18568.0, 18564.0, 18566.0, 18570.0, 18574.0, 18574.0, 18572.0, 18566.0, 18562.0, 18534.0, 18532.0, 18540.0, 18568.0, 18582.0, 18574.0, 18574.0, 18538.0, 18566.0, 18572.0, 18532.0, 18532.0, 18566.0, 18538.0, 18576.0, 18572.0, 18572.0, 18530.0, 18530.0, 18572.0, 18570.0, 18544.0, 18568.0, 18570.0, 18534.0, 18566.0, 18540.0, 18572.0, 18570.0, 18562.0, 18540.0, 18568.0, 18558.0, 18546.0, 18532.0, 18570.0, 18604.0, 18574.0, 18574.0, 18570.0, 18572.0, 18570.0, 18564.0, 18562.0, 18570.0, 18568.0, 18564.0, 18530.0, 18538.0, 18578.0, 18540.0, 18572.0, 18572.0, 18542.0, 18540.0, 18572.0, 18540.0, 18566.0, 18532.0, 18532.0, 18536.0, 18532.0, 18536.0, 18572.0, 18538.0, 18540.0, 18568.0, 18536.0, 18540.0, 18566.0, 18530.0, 18566.0, 18538.0, 18536.0, 18566.0, 18536.0, 18530.0, 18526.0, 18536.0, 18568.0, 18576.0, 18528.0]
    },
    "slices": {}
  }
}