{
  "AcquisitionMatrixPE": 104,
  "AcquisitionNumber": 1,
  "AcquisitionTime": "11:23:48.217500",
  "BandwidthPerPixelPhaseEncode": 17.17,
  "BaseResolution": 104,
  "BodyPartExamined": "BRAIN",
  "CoilString": "HC1-7;NC1_2",
  "ConsistencyInfo": "N4_VE11C_LATEST_20160120",
  "ConversionSoftware": "dcm2niix",
  "ConversionSoftwareVersion": "v1.0.20190902",
  "DerivedVendorReportedEchoSpacing": 0.000560011,
  "DeviceSerialNumber": "167006",
  "DwellTime": 2.1e-06,
  "EchoTime": 0.037,
  "EchoTrainLength": 104,
  "EffectiveEchoSpacing": 0.000560011,
  "FlipAngle": 52,
  "HeudiconvVersion": "0.10.0",
  "ImageComments": "Unaliased_MB4_PE3_LB",
  "ImageOrientationPatientDICOM": [0.999701, 0.0179905, 0.0165682, -0.00750286, 0.870358, -0.492361],
  "ImageType": [
    "ORIGINAL",
    "PRIMARY",
    "M",
    "MB",
    "ND",
    "MOSAIC"
],
  "ImagingFrequency": 123.259,
  "InPlanePhaseEncodingDirectionDICOM": "COL",
  "InstitutionAddress": "Chemin_Queen-Mary_4565_Montreal_District_CA_H3W_1W5",
  "InstitutionName": "IUGM",
  "InstitutionalDepartmentName": "Department",
  "MRAcquisitionType": "2D",
  "MagneticFieldStrength": 3,
  "Manufacturer": "Siemens",
  "ManufacturersModelName": "Prisma_fit",
  "Modality": "MR",
  "MultibandAccelerationFactor": 4,
  "PartialFourier": 1,
  "PatientPosition": "HFS",
  "PercentPhaseFOV": 100,
  "PhaseEncodingDirection": "j",
  "PhaseEncodingSteps": 104,
  "PhaseResolution": 1,
  "PixelBandwidth": 2290,
  "ProcedureStepDescription": "memory_things",
  "ProtocolName": "func_task-things_run-6",
  "PulseSequenceDetails": "%CustomerSeq%_cmrr_mbep2d_bold",
  "ReceiveCoilActiveElements": "HC1-7;NC1,2",
  "ReceiveCoilName": "HeadNeck_64",
  "ReconMatrixPE": 104,
  "RepetitionTime": 1.49,
  "SAR": 0.0407893,
  "ScanOptions": "FS",
  "ScanningSequence": "EP",
  "SequenceName": "epfid2d1_104",
  "SequenceVariant": "SK_SS",
  "SeriesDescription": "func_task-things_run-6",
  "SeriesNumber": 25,
  "ShimSetting": [622, -7194, -8866, 309, -17, -167, -22, -22],
  "SliceThickness": 2,
  "SliceTiming": [0, 0.785, 0.1, 0.8825, 0.1975, 0.98, 0.295, 1.08, 0.3925, 1.1775, 0.49, 1.275, 0.59, 1.3725, 0.6875, 0, 0.785, 0.1, 0.8825, 0.1975, 0.98, 0.295, 1.08, 0.3925, 1.1775, 0.49, 1.275, 0.59, 1.3725, 0.6875, 0, 0.785, 0.1, 0.8825, 0.1975, 0.98, 0.295, 1.08, 0.3925, 1.1775, 0.49, 1.275, 0.59, 1.3725, 0.6875, 0, 0.785, 0.1, 0.8825, 0.1975, 0.98, 0.295, 1.08, 0.3925, 1.1775, 0.49, 1.275, 0.59, 1.3725, 0.6875],
  "SoftwareVersions": "syngo_MR_E11",
  "SpacingBetweenSlices": 2,
  "StationName": "MRC35049",
  "TaskName": "things",
  "TotalReadoutTime": 0.0576811,
  "TxRefAmp": 253.844,
  "WipMemBlock": "3532bcdc-a912-4d36-9b3c-6f13366e991d||Sequence: R016 ve11c/master r/e634e98; Dec 19 2017 11:00:25 by eja",
  "dcmmeta_affine": [
    [-1.9994018077850342, -0.015005717985332012, 0.04655611887574196, 106.6156234741211],
    [-0.035980913788080215, 1.7407169342041016, -0.9841797947883606, -50.60097885131836],
    [0.03313634917140007, 0.9847229719161987, 1.7404661178588867, -94.73748779296875],
    [0.0, 0.0, 0.0, 1.0]
],
  "dcmmeta_reorient_transform": [
    [0.0, -1.0, 0.0, 103.0],
    [1.0, 0.0, 0.0, 0.0],
    [0.0, 0.0, 1.0, 0.0],
    [0.0, 0.0, 0.0, 1.0]
],
  "dcmmeta_shape": [104, 104, 60, 190],
  "dcmmeta_slice_dim": 2,
  "dcmmeta_version": 0.6,
  "global": {
    "const": {
      "AcquisitionMatrix": [104, 0, 0, 104],
      "AngioFlag": "N",
      "BitsAllocated": 16,
      "BitsStored": 16,
      "BodyPartExamined": "BRAIN",
      "Columns": 832,
      "EchoNumbers": 1,
      "EchoTime": 37.0,
      "EchoTrainLength": 104,
      "FlipAngle": 52.0,
      "HighBit": 15,
      "ImageOrientationPatient": [0.99970087479599, 0.01799045609944, 0.01656817495896, -0.0075028587662, 0.87035847006402, -0.4923614939231],
      "ImagePositionPatient": [-827.39019033387, -775.41088344178, 353.06651949703],
      "ImageType": [
        "ORIGINAL",
        "PRIMARY",
        "M",
        "MB",
        "ND",
        "MOSAIC"
],
      "ImagedNucleus": "1H",
      "ImagingFrequency": 123.258913,
      "InPlanePhaseEncodingDirection": "COL",
      "MRAcquisitionType": "2D",
      "MagneticFieldStrength": 3.0,
      "Manufacturer": "SIEMENS",
      "ManufacturerModelName": "Prisma_fit",
      "Modality": "MR",
      "NumberOfAverages": 1.0,
      "NumberOfPhaseEncodingSteps": 104,
      "PercentPhaseFieldOfView": 100.0,
      "PercentSampling": 100.0,
      "PerformedProcedureStepStartTime": "102403.486000",
      "PhotometricInterpretation": "MONOCHROME2",
      "PixelBandwidth": 2290.0,
      "PixelRepresentation": 0,
      "PixelSpacing": [2.0, 2.0],
      "ProtocolName": "func_task-things_run-6",
      "RepetitionTime": 1490.0,
      "Rows": 832,
      "SAR": 0.04078930109596,
      "SamplesPerPixel": 1,
      "ScanOptions": "FS",
      "ScanningSequence": "EP",
      "SequenceName": "epfid2d1_104",
      "SequenceVariant": [
        "SK",
        "SS"
],
      "SeriesDescription": "func_task-things_run-6",
      "SeriesNumber": 25,
      "SeriesTime": "112501.081000",
      "SliceLocation": -55.061658948575,
      "SliceThickness": 2.0,
      "SmallestImagePixelValue": 0,
      "SoftwareVersions": "syngo MR E11",
      "SpacingBetweenSlices": 1.9999999420423,
      "SpecificCharacterSet": "ISO_IR 100",
      "StudyID": "1",
      "StudyTime": "102403.330000",
      "TransmitCoilName": "Body",
      "VariableFlipAngleFlag": "N",
      "WindowCenterWidthExplanation": "Algo1",
      "dBdt": 0.0},
    "slices": {}
  },
  "time": {
    "samples": {
      "AcquisitionNumber": [1, 2, 3, 4, 5, 6, 7, 8, 9, 10, 11, 12, 13, 14, 15, 16, 17, 18, 19, 20, 21, 22, 23, 24, 25, 26, 27, 28, 29, 30, 31, 32, 33, 34, 35, 36, 37, 38, 39, 40, 41, 42, 43, 44, 45, 46, 47, 48, 49, 50, 51, 52, 53, 54, 55, 56, 57, 58, 59, 60, 61, 62, 63, 64, 65, 66, 67, 68, 69, 70, 71, 72, 73, 74, 75, 76, 77, 78, 79, 80, 81, 82, 83, 84, 85, 86, 87, 88, 89, 90, 91, 92, 93, 94, 95, 96, 97, 98, 99, 100, 101, 102, 103, 104, 105, 106, 107, 108, 109, 110, 111, 112, 113, 114, 115, 116, 117, 118, 119, 120, 121, 122, 123, 124, 125, 126, 127, 128, 129, 130, 131, 132, 133, 134, 135, 136, 137, 138, 139, 140, 141, 142, 143, 144, 145, 146, 147, 148, 149, 150, 151, 152, 153, 154, 155, 156, 157, 158, 159, 160, 161, 162, 163, 164, 165, 166, 167, 168, 169, 170, 171, 172, 173, 174, 175, 176, 177, 178, 179, 180, 181, 182, 183, 184, 185, 186, 187, 188, 189, 190],
      "AcquisitionTime": ["112348.217500", "112349.707500", "112351.197500", "112352.687500", "112354.177500", "112355.667500", "112357.157500", "112358.647500", "112400.137500", "112401.627500", "112403.117500", "112404.607500", "112406.097500", "112407.587500", "112409.077500", "112410.567500", "112412.057500", "112413.547500", "112415.037500", "112416.527500", "112418.017500", "112419.507500", "112420.997500", "112422.487500", "112423.977500", "112425.467500", "112426.957500", "112428.447500", "112429.937500", "112431.427500", "112432.917500", "112434.407500", "112435.897500", "112437.387500", "112438.877500", "112440.367500", "112441.857500", "112443.347500", "112444.837500", "112446.327500", "112447.817500", "112449.307500", "112450.797500", "112452.287500", "112453.777500", "112455.267500", "112456.757500", "112458.247500", "112459.737500", "112501.227500", "112502.717500", "112504.207500", "112505.697500", "112507.187500", "112508.677500", "112510.167500", "112511.657500", "112513.147500", "112514.637500", "112516.127500", "112517.617500", "112519.107500", "112520.597500", "112522.087500", "112523.577500", "112525.067500", "112526.557500", "112528.047500", "112529.537500", "112531.027500", "112532.517500", "112534.007500", "112535.497500", "112536.987500", "112538.477500", "112539.967500", "112541.457500", "112542.947500", "112544.437500", "112545.927500", "112547.417500", "112548.907500", "112550.397500", "112551.887500", "112553.377500", "112554.867500", "112556.357500", "112557.847500", "112559.337500", "112600.827500", "112602.317500", "112603.807500", "112605.297500", "112606.787500", "112608.277500", "112609.767500", "112611.257500", "112612.747500", "112614.237500", "112615.727500", "112617.217500", "112618.707500", "112620.197500", "112621.687500", "112623.177500", "112624.667500", "112626.157500", "112627.647500", "112629.137500", "112630.627500", "112632.117500", "112633.607500", "112635.097500", "112636.587500", "112638.077500", "112639.567500", "112641.057500", "112642.547500", "112644.037500", "112645.527500", "112647.017500", "112648.507500", "112649.997500", "112651.487500", "112652.977500", "112654.467500", "112655.957500", "112657.447500", "112658.937500", "112700.427500", "112701.917500", "112703.407500", "112704.897500", "112706.387500", "112707.877500", "112709.367500", "112710.857500", "112712.347500", "112713.837500", "112715.327500", "112716.817500", "112718.307500", "112719.797500", "112721.287500", "112722.777500", "112724.267500", "112725.757500", "112727.247500", "112728.737500", "112730.227500", "112731.717500", "112733.207500", "112734.697500", "112736.187500", "112737.677500", "112739.167500", "112740.657500", "112742.147500", "112743.637500", "112745.127500", "112746.617500", "112748.107500", "112749.597500", "112751.087500", "112752.577500", "112754.067500", "112755.557500", "112757.047500", "112758.537500", "112800.027500", "112801.517500", "112803.007500", "112804.497500", "112805.987500", "112807.477500", "112808.967500", "112810.457500", "112811.947500", "112813.437500", "112814.927500", "112816.417500", "112817.907500", "112819.397500", "112820.887500", "112822.377500", "112823.867500", "112825.357500", "112826.847500", "112828.337500", "112829.827500"],
      "ContentTime": ["112501.084000", "112501.088000", "112501.091000", "112501.098000", "112501.101000", "112501.104000", "112501.108000", "112501.111000", "112501.114000", "112501.117000", "112501.121000", "112501.131000", "112501.134000", "112501.137000", "112501.140000", "112501.144000", "112501.147000", "112501.150000", "112501.153000", "112521.051000", "112521.055000", "112521.058000", "112521.061000", "112521.064000", "112521.068000", "112521.071000", "112521.074000", "112521.077000", "112521.080000", "112521.084000", "112521.087000", "112521.090000", "112521.093000", "112521.097000", "112521.100000", "112521.103000", "112521.106000", "112521.110000", "112521.113000", "112541.051000", "112541.055000", "112541.058000", "112541.061000", "112541.064000", "112541.068000", "112541.071000", "112541.074000", "112541.078000", "112541.081000", "112541.084000", "112541.087000", "112541.091000", "112541.094000", "112541.098000", "112541.101000", "112541.104000", "112541.107000", "112541.111000", "112541.114000", "112601.051000", "112601.055000", "112601.058000", "112601.061000", "112601.064000", "112601.068000", "112601.071000", "112601.074000", "112601.077000", "112601.081000", "112601.084000", "112601.087000", "112601.090000", "112601.106000", "112601.110000", "112601.113000", "112601.116000", "112601.119000", "112601.123000", "112601.126000", "112621.051000", "112621.055000", "112621.058000", "112621.061000", "112621.064000", "112621.068000", "112621.071000", "112621.074000", "112621.078000", "112621.081000", "112621.084000", "112621.088000", "112621.091000", "112621.094000", "112621.097000", "112621.101000", "112621.104000", "112621.107000", "112621.110000", "112621.114000", "112701.050000", "112701.054000", "112701.057000", "112701.060000", "112701.064000", "112701.067000", "112701.070000", "112701.073000", "112701.076000", "112701.080000", "112701.083000", "112701.086000", "112701.089000", "112701.093000", "112701.096000", "112701.099000", "112701.102000", "112701.106000", "112701.109000", "112701.112000", "112701.115000", "112701.119000", "112701.122000", "112701.125000", "112701.128000", "112701.132000", "112701.135000", "112701.138000", "112701.142000", "112701.145000", "112741.051000", "112741.055000", "112741.058000", "112741.061000", "112741.064000", "112741.068000", "112741.071000", "112741.074000", "112741.078000", "112741.081000", "112741.084000", "112741.087000", "112741.090000", "112741.094000", "112741.097000", "112741.100000", "112741.104000", "112741.107000", "112741.110000", "112741.113000", "112741.117000", "112741.120000", "112741.123000", "112741.127000", "112741.130000", "112741.133000", "112741.136000", "112821.051000", "112821.055000", "112821.059000", "112821.063000", "112821.067000", "112821.070000", "112821.074000", "112821.078000", "112821.082000", "112821.085000", "112821.088000", "112821.092000", "112821.095000", "112821.109000", "112821.112000", "112821.116000", "112821.119000", "112821.122000", "112821.126000", "112821.129000", "112821.132000", "112821.135000", "112821.139000", "112821.142000", "112821.145000", "112821.148000", "112831.571000", "112831.574000", "112831.578000", "112831.581000", "112831.584000", "112831.587000", "112831.591000", "112831.594000"],
      "InstanceCreationTime": ["112501.084000", "112501.088000", "112501.091000", "112501.098000", "112501.101000", "112501.104000", "112501.108000", "112501.111000", "112501.114000", "112501.117000", "112501.121000", "112501.131000", "112501.134000", "112501.137000", "112501.140000", "112501.144000", "112501.147000", "112501.150000", "112501.153000", "112521.051000", "112521.055000", "112521.058000", "112521.061000", "112521.064000", "112521.068000", "112521.071000", "112521.074000", "112521.077000", "112521.080000", "112521.084000", "112521.087000", "112521.090000", "112521.093000", "112521.097000", "112521.100000", "112521.103000", "112521.106000", "112521.110000", "112521.113000", "112541.051000", "112541.055000", "112541.058000", "112541.061000", "112541.064000", "112541.068000", "112541.071000", "112541.074000", "112541.078000", "112541.081000", "112541.084000", "112541.087000", "112541.091000", "112541.094000", "112541.098000", "112541.101000", "112541.104000", "112541.107000", "112541.111000", "112541.114000", "112601.051000", "112601.055000", "112601.058000", "112601.061000", "112601.064000", "112601.068000", "112601.071000", "112601.074000", "112601.077000", "112601.081000", "112601.084000", "112601.087000", "112601.090000", "112601.106000", "112601.110000", "112601.113000", "112601.116000", "112601.119000", "112601.123000", "112601.126000", "112621.051000", "112621.055000", "112621.058000", "112621.061000", "112621.064000", "112621.068000", "112621.071000", "112621.074000", "112621.078000", "112621.081000", "112621.084000", "112621.088000", "112621.091000", "112621.094000", "112621.097000", "112621.101000", "112621.104000", "112621.107000", "112621.110000", "112621.114000", "112701.050000", "112701.054000", "112701.057000", "112701.060000", "112701.064000", "112701.067000", "112701.070000", "112701.073000", "112701.076000", "112701.080000", "112701.083000", "112701.086000", "112701.089000", "112701.093000", "112701.096000", "112701.099000", "112701.102000", "112701.106000", "112701.109000", "112701.112000", "112701.115000", "112701.119000", "112701.122000", "112701.125000", "112701.128000", "112701.132000", "112701.135000", "112701.138000", "112701.142000", "112701.145000", "112741.051000", "112741.055000", "112741.058000", "112741.061000", "112741.064000", "112741.068000", "112741.071000", "112741.074000", "112741.078000", "112741.081000", "112741.084000", "112741.087000", "112741.090000", "112741.094000", "112741.097000", "112741.100000", "112741.104000", "112741.107000", "112741.110000", "112741.113000", "112741.117000", "112741.120000", "112741.123000", "112741.127000", "112741.130000", "112741.133000", "112741.136000", "112821.051000", "112821.055000", "112821.059000", "112821.063000", "112821.067000", "112821.070000", "112821.074000", "112821.078000", "112821.082000", "112821.085000", "112821.088000", "112821.092000", "112821.095000", "112821.109000", "112821.112000", "112821.116000", "112821.119000", "112821.122000", "112821.126000", "112821.129000", "112821.132000", "112821.135000", "112821.139000", "112821.142000", "112821.145000", "112821.148000", "112831.571000", "112831.574000", "112831.578000", "112831.581000", "112831.584000", "112831.587000", "112831.591000", "112831.594000"],
      "InstanceNumber": [1, 2, 3, 4, 5, 6, 7, 8, 9, 10, 11, 12, 13, 14, 15, 16, 17, 18, 19, 20, 21, 22, 23, 24, 25, 26, 27, 28, 29, 30, 31, 32, 33, 34, 35, 36, 37, 38, 39, 40, 41, 42, 43, 44, 45, 46, 47, 48, 49, 50, 51, 52, 53, 54, 55, 56, 57, 58, 59, 60, 61, 62, 63, 64, 65, 66, 67, 68, 69, 70, 71, 72, 73, 74, 75, 76, 77, 78, 79, 80, 81, 82, 83, 84, 85, 86, 87, 88, 89, 90, 91, 92, 93, 94, 95, 96, 97, 98, 99, 100, 101, 102, 103, 104, 105, 106, 107, 108, 109, 110, 111, 112, 113, 114, 115, 116, 117, 118, 119, 120, 121, 122, 123, 124, 125, 126, 127, 128, 129, 130, 131, 132, 133, 134, 135, 136, 137, 138, 139, 140, 141, 142, 143, 144, 145, 146, 147, 148, 149, 150, 151, 152, 153, 154, 155, 156, 157, 158, 159, 160, 161, 162, 163, 164, 165, 166, 167, 168, 169, 170, 171, 172, 173, 174, 175, 176, 177, 178, 179, 180, 181, 182, 183, 184, 185, 186, 187, 188, 189, 190],
      "LargestImagePixelValue": [44533, 43052, 41828, 41666, 41621, 41337, 41532, 41518, 41632, 41607, 41778, 41933, 41388, 41742, 41511, 42053, 42361, 41950, 41363, 41396, 41392, 41351, 40978, 41593, 41948, 41055, 42281, 41499, 41766, 41559, 41476, 41499, 42375, 41734, 41247, 41498, 41792, 41655, 41912, 40996, 41988, 41894, 41710, 41396, 41747, 41670, 41916, 41314, 41655, 41673, 41191, 41844, 40917, 41043, 41311, 40587, 40903, 40898, 41559, 41585, 41170, 41671, 42212, 41252, 41583, 41640, 41270, 41943, 41545, 41221, 41504, 41991, 41293, 41772, 41858, 42053, 41094, 40953, 40857, 40965, 40987, 41593, 40921, 41030, 41470, 41872, 41457, 41155, 41426, 41746, 41085, 41159, 41652, 41515, 41424, 42811, 42199, 42364, 42816, 42406, 41870, 41350, 41070, 41429, 42639, 42045, 41328, 41168, 42289, 41527, 41691, 41905, 41293, 42278, 42645, 42286, 42754, 43218, 42654, 42453, 41455, 41395, 41967, 41580, 42196, 42101, 42261, 42859, 41748, 42470, 42158, 42252, 41101, 41541, 42233, 42146, 42343, 42121, 41476, 41988, 41823, 42174, 43371, 42991, 42540, 42615, 42254, 41982, 41259, 42045, 41994, 42542, 41700, 41812, 41329, 41421, 42177, 42345, 42281, 42349, 41830, 41596, 41678, 41870, 41884, 41970, 41336, 41571, 42328, 42048, 41663, 41731, 41882, 41678, 42011, 42218, 41374, 40699, 41670, 41747, 42668, 43313, 42303, 41730, 41798, 42506, 42667, 42289, 41612, 41118],
      "WindowCenter": [11024.0, 10923.0, 10856.0, 10827.0, 10815.0, 10811.0, 10862.0, 10892.0, 10896.0, 10887.0, 10879.0, 10849.0, 10816.0, 10802.0, 10782.0, 10793.0, 10840.0, 10877.0, 10913.0, 10901.0, 10894.0, 10884.0, 10867.0, 10906.0, 10902.0, 10861.0, 10872.0, 10851.0, 10836.0, 10868.0, 10914.0, 10921.0, 10883.0, 10878.0, 10886.0, 10869.0, 10847.0, 10836.0, 10882.0, 10928.0, 10947.0, 10908.0, 10869.0, 10860.0, 10891.0, 10934.0, 10942.0, 10913.0, 10878.0, 10828.0, 10796.0, 10838.0, 10840.0, 10893.0, 10913.0, 10905.0, 10916.0, 10882.0, 10897.0, 10890.0, 10847.0, 10863.0, 10851.0, 10865.0, 10891.0, 10891.0, 10864.0, 10862.0, 10825.0, 10820.0, 10830.0, 10871.0, 10870.0, 10872.0, 10864.0, 10892.0, 10920.0, 10897.0, 10859.0, 10857.0, 10862.0, 10866.0, 10829.0, 10789.0, 10815.0, 10852.0, 10885.0, 10893.0, 10875.0, 10858.0, 10814.0, 10763.0, 10777.0, 10826.0, 10868.0, 10883.0, 10848.0, 10838.0, 10851.0, 10874.0, 10887.0, 10860.0, 10845.0, 10837.0, 10846.0, 10850.0, 10865.0, 10849.0, 10828.0, 10795.0, 10826.0, 10868.0, 10858.0, 10857.0, 10871.0, 10896.0, 10900.0, 10890.0, 10875.0, 10849.0, 10801.0, 10765.0, 10762.0, 10801.0, 10814.0, 10832.0, 10861.0, 10877.0, 10865.0, 10857.0, 10855.0, 10882.0, 10882.0, 10845.0, 10834.0, 10824.0, 10826.0, 10835.0, 10836.0, 10856.0, 10871.0, 10901.0, 10909.0, 10868.0, 10833.0, 10832.0, 10797.0, 10776.0, 10776.0, 10829.0, 10879.0, 10905.0, 10889.0, 10872.0, 10834.0, 10822.0, 10864.0, 10895.0, 10883.0, 10858.0, 10827.0, 10812.0, 10867.0, 10903.0, 10888.0, 10867.0, 10835.0, 10817.0, 10838.0, 10850.0, 10865.0, 10858.0, 10838.0, 10809.0, 10805.0, 10821.0, 10826.0, 10816.0, 10837.0, 10843.0, 10901.0, 10938.0, 10932.0, 10902.0, 10854.0, 10811.0, 10820.0, 10865.0, 10875.0, 10849.0],
      "WindowWidth": [23716.0, 23442.0, 23270.0, 23194.0, 23160.0, 23149.0, 23258.0, 23329.0, 23336.0, 23312.0, 23292.0, 23226.0, 23155.0, 23120.0, 23076.0, 23100.0, 23203.0, 23288.0, 23374.0, 23352.0, 23332.0, 23310.0, 23270.0, 23356.0, 23349.0, 23259.0, 23280.0, 23240.0, 23201.0, 23268.0, 23376.0, 23392.0, 23302.0, 23293.0, 23320.0, 23279.0, 23231.0, 23200.0, 23301.0, 23414.0, 23455.0, 23364.0, 23274.0, 23255.0, 23325.0, 23429.0, 23444.0, 23378.0, 23300.0, 23186.0, 23112.0, 23201.0, 23212.0, 23328.0, 23384.0, 23363.0, 23385.0, 23312.0, 23335.0, 23322.0, 23223.0, 23257.0, 23231.0, 23262.0, 23321.0, 23325.0, 23260.0, 23255.0, 23172.0, 23172.0, 23191.0, 23280.0, 23281.0, 23280.0, 23262.0, 23335.0, 23399.0, 23345.0, 23256.0, 23250.0, 23257.0, 23267.0, 23186.0, 23097.0, 23150.0, 23236.0, 23309.0, 23328.0, 23286.0, 23246.0, 23154.0, 23037.0, 23060.0, 23176.0, 23275.0, 23300.0, 23228.0, 23203.0, 23226.0, 23284.0, 23313.0, 23256.0, 23226.0, 23202.0, 23216.0, 23225.0, 23265.0, 23231.0, 23176.0, 23104.0, 23172.0, 23279.0, 23257.0, 23242.0, 23274.0, 23331.0, 23336.0, 23307.0, 23276.0, 23217.0, 23113.0, 23037.0, 23023.0, 23118.0, 23144.0, 23183.0, 23251.0, 23287.0, 23268.0, 23244.0, 23236.0, 23297.0, 23312.0, 23221.0, 23191.0, 23171.0, 23175.0, 23194.0, 23197.0, 23243.0, 23273.0, 23347.0, 23357.0, 23266.0, 23184.0, 23184.0, 23106.0, 23057.0, 23070.0, 23180.0, 23297.0, 23350.0, 23320.0, 23286.0, 23196.0, 23166.0, 23257.0, 23329.0, 23303.0, 23248.0, 23177.0, 23143.0, 23269.0, 23351.0, 23316.0, 23267.0, 23199.0, 23150.0, 23197.0, 23224.0, 23261.0, 23245.0, 23197.0, 23132.0, 23120.0, 23157.0, 23173.0, 23156.0, 23202.0, 23213.0, 23337.0, 23422.0, 23414.0, 23350.0, 23241.0, 23137.0, 23153.0, 23258.0, 23285.0, 23233.0]
    },
    "slices": {}
  }
}