{
  "AcquisitionMatrixPE": 104,
  "AcquisitionNumber": 1,
  "AcquisitionTime": "11:23:48.217500",
  "BandwidthPerPixelPhaseEncode": 17.17,
  "BaseResolution": 104,
  "BodyPartExamined": "BRAIN",
  "CoilString": "HC1-7;NC1_2",
  "ConsistencyInfo": "N4_VE11C_LATEST_20160120",
  "ConversionSoftware": "dcm2niix",
  "ConversionSoftwareVersion": "v1.0.20190902",
  "DerivedVendorReportedEchoSpacing": 0.000560011,
  "DeviceSerialNumber": "167006",
  "DwellTime": 2.1e-06,
  "EchoTime": 0.037,
  "EchoTrainLength": 104,
  "EffectiveEchoSpacing": 0.000560011,
  "FlipAngle": 52,
  "HeudiconvVersion": "0.10.0",
  "ImageComments": "Unaliased_MB4_PE3_LB",
  "ImageOrientationPatientDICOM": [0.999701, 0.0179905, 0.0165682, -0.00750286, 0.870358, -0.492361],
  "ImageType": [
    "ORIGINAL",
    "PRIMARY",
    "P",
    "MB",
    "ND",
    "MOSAIC"
],
  "ImagingFrequency": 123.259,
  "InPlanePhaseEncodingDirectionDICOM": "COL",
  "InstitutionAddress": "Chemin_Queen-Mary_4565_Montreal_District_CA_H3W_1W5",
  "InstitutionName": "IUGM",
  "InstitutionalDepartmentName": "Department",
  "MRAcquisitionType": "2D",
  "MagneticFieldStrength": 3,
  "Manufacturer": "Siemens",
  "ManufacturersModelName": "Prisma_fit",
  "Modality": "MR",
  "MultibandAccelerationFactor": 4,
  "PartialFourier": 1,
  "PatientPosition": "HFS",
  "PercentPhaseFOV": 100,
  "PhaseEncodingDirection": "j",
  "PhaseEncodingSteps": 104,
  "PhaseResolution": 1,
  "PixelBandwidth": 2290,
  "ProcedureStepDescription": "memory_things",
  "ProtocolName": "func_task-things_run-6",
  "PulseSequenceDetails": "%CustomerSeq%_cmrr_mbep2d_bold",
  "ReceiveCoilActiveElements": "HC1-7;NC1,2",
  "ReceiveCoilName": "HeadNeck_64",
  "ReconMatrixPE": 104,
  "RepetitionTime": 1.49,
  "SAR": 0.0407893,
  "ScanOptions": "FS",
  "ScanningSequence": "EP",
  "SequenceName": "epfid2d1_104",
  "SequenceVariant": "SK_SS",
  "SeriesDescription": "func_task-things_run-6",
  "SeriesNumber": 26,
  "ShimSetting": [622, -7194, -8866, 309, -17, -167, -22, -22],
  "SliceThickness": 2,
  "SliceTiming": [0, 0.785, 0.1, 0.8825, 0.1975, 0.98, 0.295, 1.08, 0.3925, 1.1775, 0.49, 1.275, 0.59, 1.3725, 0.6875, 0, 0.785, 0.1, 0.8825, 0.1975, 0.98, 0.295, 1.08, 0.3925, 1.1775, 0.49, 1.275, 0.59, 1.3725, 0.6875, 0, 0.785, 0.1, 0.8825, 0.1975, 0.98, 0.295, 1.08, 0.3925, 1.1775, 0.49, 1.275, 0.59, 1.3725, 0.6875, 0, 0.785, 0.1, 0.8825, 0.1975, 0.98, 0.295, 1.08, 0.3925, 1.1775, 0.49, 1.275, 0.59, 1.3725, 0.6875],
  "SoftwareVersions": "syngo_MR_E11",
  "SpacingBetweenSlices": 2,
  "StationName": "MRC35049",
  "TaskName": "things",
  "TotalReadoutTime": 0.0576811,
  "TxRefAmp": 253.844,
  "WipMemBlock": "3532bcdc-a912-4d36-9b3c-6f13366e991d||Sequence: R016 ve11c/master r/e634e98; Dec 19 2017 11:00:25 by eja",
  "dcmmeta_affine": [
    [-1.9994018077850342, -0.015005717985332012, 0.04655611887574196, 106.6156234741211],
    [-0.035980913788080215, 1.7407169342041016, -0.9841797947883606, -50.60097885131836],
    [0.03313634917140007, 0.9847229719161987, 1.7404661178588867, -94.73748779296875],
    [0.0, 0.0, 0.0, 1.0]
],
  "dcmmeta_reorient_transform": [
    [0.0, -1.0, 0.0, 103.0],
    [1.0, 0.0, 0.0, 0.0],
    [0.0, 0.0, 1.0, 0.0],
    [0.0, 0.0, 0.0, 1.0]
],
  "dcmmeta_shape": [104, 104, 60, 190],
  "dcmmeta_slice_dim": 2,
  "dcmmeta_version": 0.6,
  "global": {
    "const": {
      "AcquisitionMatrix": [104, 0, 0, 104],
      "AngioFlag": "N",
      "BitsAllocated": 16,
      "BitsStored": 16,
      "BodyPartExamined": "BRAIN",
      "Columns": 832,
      "EchoNumbers": 1,
      "EchoTime": 37.0,
      "EchoTrainLength": 104,
      "FlipAngle": 52.0,
      "HighBit": 15,
      "ImageOrientationPatient": [0.99970087479599, 0.01799045609944, 0.01656817495896, -0.0075028587662, 0.87035847006402, -0.4923614939231],
      "ImagePositionPatient": [-827.39019033387, -775.41088344178, 353.06651949703],
      "ImageType": [
        "ORIGINAL",
        "PRIMARY",
        "P",
        "MB",
        "ND",
        "MOSAIC"
],
      "ImagedNucleus": "1H",
      "ImagingFrequency": 123.258913,
      "InPlanePhaseEncodingDirection": "COL",
      "LargestImagePixelValue": 4095,
      "MRAcquisitionType": "2D",
      "MagneticFieldStrength": 3.0,
      "Manufacturer": "SIEMENS",
      "ManufacturerModelName": "Prisma_fit",
      "Modality": "MR",
      "NumberOfAverages": 1.0,
      "NumberOfPhaseEncodingSteps": 104,
      "PercentPhaseFieldOfView": 100.0,
      "PercentSampling": 100.0,
      "PerformedProcedureStepStartTime": "102403.486000",
      "PhotometricInterpretation": "MONOCHROME2",
      "PixelBandwidth": 2290.0,
      "PixelRepresentation": 0,
      "PixelSpacing": [2.0, 2.0],
      "ProtocolName": "func_task-things_run-6",
      "RepetitionTime": 1490.0,
      "RescaleIntercept": -4096.0,
      "RescaleSlope": 2.0,
      "RescaleType": "US",
      "Rows": 832,
      "SAR": 0.04078930109596,
      "SamplesPerPixel": 1,
      "ScanOptions": "FS",
      "ScanningSequence": "EP",
      "SequenceName": "epfid2d1_104",
      "SequenceVariant": [
        "SK",
        "SS"
],
      "SeriesDescription": "func_task-things_run-6",
      "SeriesNumber": 26,
      "SeriesTime": "112501.186000",
      "SliceLocation": -55.061658948575,
      "SliceThickness": 2.0,
      "SmallestImagePixelValue": 0,
      "SoftwareVersions": "syngo MR E11",
      "SpacingBetweenSlices": 1.9999999420423,
      "SpecificCharacterSet": "ISO_IR 100",
      "StudyID": "1",
      "StudyTime": "102403.330000",
      "TransmitCoilName": "Body",
      "VariableFlipAngleFlag": "N",
      "WindowCenterWidthExplanation": "Algo1",
      "dBdt": 0.0},
    "slices": {}
  },
  "time": {
    "samples": {
      "AcquisitionNumber": [1, 2, 3, 4, 5, 6, 7, 8, 9, 10, 11, 12, 13, 14, 15, 16, 17, 18, 19, 20, 21, 22, 23, 24, 25, 26, 27, 28, 29, 30, 31, 32, 33, 34, 35, 36, 37, 38, 39, 40, 41, 42, 43, 44, 45, 46, 47, 48, 49, 50, 51, 52, 53, 54, 55, 56, 57, 58, 59, 60, 61, 62, 63, 64, 65, 66, 67, 68, 69, 70, 71, 72, 73, 74, 75, 76, 77, 78, 79, 80, 81, 82, 83, 84, 85, 86, 87, 88, 89, 90, 91, 92, 93, 94, 95, 96, 97, 98, 99, 100, 101, 102, 103, 104, 105, 106, 107, 108, 109, 110, 111, 112, 113, 114, 115, 116, 117, 118, 119, 120, 121, 122, 123, 124, 125, 126, 127, 128, 129, 130, 131, 132, 133, 134, 135, 136, 137, 138, 139, 140, 141, 142, 143, 144, 145, 146, 147, 148, 149, 150, 151, 152, 153, 154, 155, 156, 157, 158, 159, 160, 161, 162, 163, 164, 165, 166, 167, 168, 169, 170, 171, 172, 173, 174, 175, 176, 177, 178, 179, 180, 181, 182, 183, 184, 185, 186, 187, 188, 189, 190],
      "AcquisitionTime": ["112348.217500", "112349.707500", "112351.197500", "112352.687500", "112354.177500", "112355.667500", "112357.157500", "112358.647500", "112400.137500", "112401.627500", "112403.117500", "112404.607500", "112406.097500", "112407.587500", "112409.077500", "112410.567500", "112412.057500", "112413.547500", "112415.037500", "112416.527500", "112418.017500", "112419.507500", "112420.997500", "112422.487500", "112423.977500", "112425.467500", "112426.957500", "112428.447500", "112429.937500", "112431.427500", "112432.917500", "112434.407500", "112435.897500", "112437.387500", "112438.877500", "112440.367500", "112441.857500", "112443.347500", "112444.837500", "112446.327500", "112447.817500", "112449.307500", "112450.797500", "112452.287500", "112453.777500", "112455.267500", "112456.757500", "112458.247500", "112459.737500", "112501.227500", "112502.717500", "112504.207500", "112505.697500", "112507.187500", "112508.677500", "112510.167500", "112511.657500", "112513.147500", "112514.637500", "112516.127500", "112517.617500", "112519.107500", "112520.597500", "112522.087500", "112523.577500", "112525.067500", "112526.557500", "112528.047500", "112529.537500", "112531.027500", "112532.517500", "112534.007500", "112535.497500", "112536.987500", "112538.477500", "112539.967500", "112541.457500", "112542.947500", "112544.437500", "112545.927500", "112547.417500", "112548.907500", "112550.397500", "112551.887500", "112553.377500", "112554.867500", "112556.357500", "112557.847500", "112559.337500", "112600.827500", "112602.317500", "112603.807500", "112605.297500", "112606.787500", "112608.277500", "112609.767500", "112611.257500", "112612.747500", "112614.237500", "112615.727500", "112617.217500", "112618.707500", "112620.197500", "112621.687500", "112623.177500", "112624.667500", "112626.157500", "112627.647500", "112629.137500", "112630.627500", "112632.117500", "112633.607500", "112635.097500", "112636.587500", "112638.077500", "112639.567500", "112641.057500", "112642.547500", "112644.037500", "112645.527500", "112647.017500", "112648.507500", "112649.997500", "112651.487500", "112652.977500", "112654.467500", "112655.957500", "112657.447500", "112658.937500", "112700.427500", "112701.917500", "112703.407500", "112704.897500", "112706.387500", "112707.877500", "112709.367500", "112710.857500", "112712.347500", "112713.837500", "112715.327500", "112716.817500", "112718.307500", "112719.797500", "112721.287500", "112722.777500", "112724.267500", "112725.757500", "112727.247500", "112728.737500", "112730.227500", "112731.717500", "112733.207500", "112734.697500", "112736.187500", "112737.677500", "112739.167500", "112740.657500", "112742.147500", "112743.637500", "112745.127500", "112746.617500", "112748.107500", "112749.597500", "112751.087500", "112752.577500", "112754.067500", "112755.557500", "112757.047500", "112758.537500", "112800.027500", "112801.517500", "112803.007500", "112804.497500", "112805.987500", "112807.477500", "112808.967500", "112810.457500", "112811.947500", "112813.437500", "112814.927500", "112816.417500", "112817.907500", "112819.397500", "112820.887500", "112822.377500", "112823.867500", "112825.357500", "112826.847500", "112828.337500", "112829.827500"],
      "ContentTime": ["112501.188000", "112501.191000", "112501.194000", "112501.196000", "112501.199000", "112501.201000", "112501.204000", "112501.206000", "112501.209000", "112501.211000", "112501.213000", "112501.216000", "112501.218000", "112501.221000", "112501.223000", "112501.226000", "112501.228000", "112501.230000", "112501.233000", "112521.153000", "112521.156000", "112521.158000", "112521.161000", "112521.163000", "112521.166000", "112521.168000", "112521.170000", "112521.173000", "112521.175000", "112521.178000", "112521.180000", "112521.183000", "112521.185000", "112521.187000", "112521.190000", "112521.192000", "112521.195000", "112521.197000", "112521.200000", "112541.146000", "112541.149000", "112541.151000", "112541.154000", "112541.156000", "112541.159000", "112541.161000", "112541.164000", "112541.166000", "112541.168000", "112541.171000", "112541.173000", "112541.176000", "112541.178000", "112541.181000", "112541.183000", "112541.186000", "112541.188000", "112541.190000", "112541.193000", "112601.168000", "112601.171000", "112601.173000", "112601.176000", "112601.178000", "112601.181000", "112601.183000", "112601.185000", "112601.188000", "112601.190000", "112601.193000", "112601.195000", "112601.198000", "112601.200000", "112601.203000", "112601.205000", "112601.207000", "112601.210000", "112601.212000", "112601.215000", "112621.155000", "112621.158000", "112621.161000", "112621.163000", "112621.166000", "112621.168000", "112621.171000", "112621.173000", "112621.176000", "112621.178000", "112621.181000", "112621.183000", "112621.185000", "112621.188000", "112621.190000", "112621.193000", "112621.195000", "112621.198000", "112621.200000", "112621.203000", "112701.198000", "112701.200000", "112701.203000", "112701.205000", "112701.208000", "112701.210000", "112701.213000", "112701.215000", "112701.218000", "112701.220000", "112701.223000", "112701.225000", "112701.228000", "112701.230000", "112701.232000", "112701.235000", "112701.237000", "112701.240000", "112701.242000", "112701.245000", "112701.247000", "112701.250000", "112701.252000", "112701.255000", "112701.265000", "112701.268000", "112701.270000", "112701.273000", "112701.275000", "112701.278000", "112741.184000", "112741.186000", "112741.189000", "112741.191000", "112741.194000", "112741.196000", "112741.199000", "112741.201000", "112741.204000", "112741.206000", "112741.209000", "112741.211000", "112741.214000", "112741.216000", "112741.227000", "112741.229000", "112741.232000", "112741.234000", "112741.237000", "112741.239000", "112741.242000", "112741.244000", "112741.246000", "112741.249000", "112741.251000", "112741.254000", "112741.256000", "112821.197000", "112821.199000", "112821.202000", "112821.204000", "112821.207000", "112821.209000", "112821.212000", "112821.214000", "112821.217000", "112821.219000", "112821.221000", "112821.224000", "112821.226000", "112821.229000", "112821.231000", "112821.234000", "112821.236000", "112821.239000", "112821.241000", "112821.244000", "112821.246000", "112821.249000", "112821.251000", "112821.254000", "112821.256000", "112821.259000", "112831.641000", "112831.644000", "112831.646000", "112831.649000", "112831.651000", "112831.654000", "112831.656000", "112831.659000"],
      "InstanceCreationTime": ["112501.188000", "112501.191000", "112501.194000", "112501.196000", "112501.199000", "112501.201000", "112501.204000", "112501.206000", "112501.209000", "112501.211000", "112501.213000", "112501.216000", "112501.218000", "112501.221000", "112501.223000", "112501.226000", "112501.228000", "112501.230000", "112501.233000", "112521.153000", "112521.156000", "112521.158000", "112521.161000", "112521.163000", "112521.166000", "112521.168000", "112521.170000", "112521.173000", "112521.175000", "112521.178000", "112521.180000", "112521.183000", "112521.185000", "112521.187000", "112521.190000", "112521.192000", "112521.195000", "112521.197000", "112521.200000", "112541.146000", "112541.149000", "112541.151000", "112541.154000", "112541.156000", "112541.159000", "112541.161000", "112541.164000", "112541.166000", "112541.168000", "112541.171000", "112541.173000", "112541.176000", "112541.178000", "112541.181000", "112541.183000", "112541.186000", "112541.188000", "112541.190000", "112541.193000", "112601.168000", "112601.171000", "112601.173000", "112601.176000", "112601.178000", "112601.181000", "112601.183000", "112601.185000", "112601.188000", "112601.190000", "112601.193000", "112601.195000", "112601.198000", "112601.200000", "112601.203000", "112601.205000", "112601.207000", "112601.210000", "112601.212000", "112601.215000", "112621.155000", "112621.158000", "112621.161000", "112621.163000", "112621.166000", "112621.168000", "112621.171000", "112621.173000", "112621.176000", "112621.178000", "112621.181000", "112621.183000", "112621.185000", "112621.188000", "112621.190000", "112621.193000", "112621.195000", "112621.198000", "112621.200000", "112621.203000", "112701.198000", "112701.200000", "112701.203000", "112701.205000", "112701.208000", "112701.210000", "112701.213000", "112701.215000", "112701.218000", "112701.220000", "112701.223000", "112701.225000", "112701.228000", "112701.230000", "112701.232000", "112701.235000", "112701.237000", "112701.240000", "112701.242000", "112701.245000", "112701.247000", "112701.250000", "112701.252000", "112701.255000", "112701.265000", "112701.268000", "112701.270000", "112701.273000", "112701.275000", "112701.278000", "112741.184000", "112741.186000", "112741.189000", "112741.191000", "112741.194000", "112741.196000", "112741.199000", "112741.201000", "112741.204000", "112741.206000", "112741.209000", "112741.211000", "112741.214000", "112741.216000", "112741.227000", "112741.229000", "112741.232000", "112741.234000", "112741.237000", "112741.239000", "112741.242000", "112741.244000", "112741.246000", "112741.249000", "112741.251000", "112741.254000", "112741.256000", "112821.197000", "112821.199000", "112821.202000", "112821.204000", "112821.207000", "112821.209000", "112821.212000", "112821.214000", "112821.217000", "112821.219000", "112821.221000", "112821.224000", "112821.226000", "112821.229000", "112821.231000", "112821.234000", "112821.236000", "112821.239000", "112821.241000", "112821.244000", "112821.246000", "112821.249000", "112821.251000", "112821.254000", "112821.256000", "112821.259000", "112831.641000", "112831.644000", "112831.646000", "112831.649000", "112831.651000", "112831.654000", "112831.656000", "112831.659000"],
      "InstanceNumber": [1, 2, 3, 4, 5, 6, 7, 8, 9, 10, 11, 12, 13, 14, 15, 16, 17, 18, 19, 20, 21, 22, 23, 24, 25, 26, 27, 28, 29, 30, 31, 32, 33, 34, 35, 36, 37, 38, 39, 40, 41, 42, 43, 44, 45, 46, 47, 48, 49, 50, 51, 52, 53, 54, 55, 56, 57, 58, 59, 60, 61, 62, 63, 64, 65, 66, 67, 68, 69, 70, 71, 72, 73, 74, 75, 76, 77, 78, 79, 80, 81, 82, 83, 84, 85, 86, 87, 88, 89, 90, 91, 92, 93, 94, 95, 96, 97, 98, 99, 100, 101, 102, 103, 104, 105, 106, 107, 108, 109, 110, 111, 112, 113, 114, 115, 116, 117, 118, 119, 120, 121, 122, 123, 124, 125, 126, 127, 128, 129, 130, 131, 132, 133, 134, 135, 136, 137, 138, 139, 140, 141, 142, 143, 144, 145, 146, 147, 148, 149, 150, 151, 152, 153, 154, 155, 156, 157, 158, 159, 160, 161, 162, 163, 164, 165, 166, 167, 168, 169, 170, 171, 172, 173, 174, 175, 176, 177, 178, 179, 180, 181, 182, 183, 184, 185, 186, 187, 188, 189, 190],
      "WindowCenter": [4754.0, 4766.0, 4760.0, 4756.0, 4744.0, 4750.0, 4746.0, 4750.0, 4752.0, 4760.0, 4794.0, 4840.0, 4834.0, 4772.0, 4748.0, 4746.0, 4762.0, 4740.0, 4744.0, 4750.0, 4766.0, 4796.0, 4792.0, 4768.0, 4758.0, 4754.0, 4756.0, 4750.0, 4748.0, 4746.0, 4746.0, 4760.0, 4802.0, 4804.0, 4768.0, 4730.0, 4748.0, 4766.0, 4744.0, 4726.0, 4756.0, 4754.0, 4756.0, 4756.0, 4756.0, 4756.0, 4796.0, 4804.0, 4768.0, 4730.0, 4746.0, 4742.0, 4744.0, 4748.0, 4756.0, 4758.0, 4794.0, 4768.0, 4762.0, 4768.0, 4758.0, 4750.0, 4750.0, 4748.0, 4750.0, 4756.0, 4756.0, 4800.0, 4808.0, 4768.0, 4750.0, 4750.0, 4724.0, 4744.0, 4744.0, 4750.0, 4758.0, 4762.0, 4760.0, 4768.0, 4804.0, 4770.0, 4752.0, 4770.0, 4766.0, 4770.0, 4774.0, 4758.0, 4802.0, 4838.0, 4802.0, 4760.0, 4760.0, 4754.0, 4748.0, 4748.0, 4748.0, 4750.0, 4764.0, 4772.0, 4770.0, 4762.0, 4754.0, 4754.0, 4752.0, 4764.0, 4736.0, 4752.0, 4754.0, 4764.0, 4764.0, 4756.0, 4750.0, 4748.0, 4750.0, 4748.0, 4750.0, 4758.0, 4762.0, 4830.0, 4804.0, 4762.0, 4756.0, 4748.0, 4726.0, 4726.0, 4744.0, 4748.0, 4764.0, 4772.0, 4766.0, 4762.0, 4752.0, 4750.0, 4734.0, 4734.0, 4756.0, 4756.0, 4750.0, 4748.0, 4750.0, 4750.0, 4760.0, 4768.0, 4764.0, 4766.0, 4764.0, 4732.0, 4748.0, 4746.0, 4730.0, 4766.0, 4740.0, 4760.0, 4756.0, 4726.0, 4748.0, 4762.0, 4738.0, 4760.0, 4730.0, 4730.0, 4744.0, 4752.0, 4760.0, 4740.0, 4734.0, 4752.0, 4732.0, 4734.0, 4754.0, 4750.0, 4756.0, 4734.0, 4756.0, 4768.0, 4766.0, 4732.0, 4732.0, 4726.0, 4744.0, 4748.0, 4732.0, 4736.0, 4756.0, 4754.0, 4756.0, 4766.0, 4762.0, 4754.0],
      "WindowWidth": [18528.0, 18526.0, 18524.0, 18530.0, 18528.0, 18544.0, 18534.0, 18534.0, 18532.0, 18532.0, 18562.0, 18578.0, 18580.0, 18522.0, 18532.0, 18548.0, 18574.0, 18540.0, 18530.0, 18530.0, 18528.0, 18560.0, 18558.0, 18532.0, 18530.0, 18530.0, 18526.0, 18532.0, 18534.0, 18530.0, 18534.0, 18534.0, 18546.0, 18552.0, 18528.0, 18498.0, 18538.0, 18572.0, 18540.0, 18502.0, 18530.0, 18524.0, 18528.0, 18528.0, 18528.0, 18536.0, 18558.0, 18554.0, 18526.0, 18504.0, 18540.0, 18536.0, 18538.0, 18530.0, 18536.0, 18528.0, 18558.0, 18526.0, 18528.0, 18528.0, 18530.0, 18534.0, 18542.0, 18538.0, 18538.0, 18526.0, 18528.0, 18560.0, 18550.0, 18528.0, 18538.0, 18526.0, 18500.0, 18532.0, 18534.0, 18536.0, 18524.0, 18528.0, 18530.0, 18532.0, 18550.0, 18526.0, 18532.0, 18574.0, 18572.0, 18578.0, 18576.0, 18538.0, 18556.0, 18584.0, 18562.0, 18530.0, 18532.0, 18532.0, 18544.0, 18534.0, 18536.0, 18538.0, 18528.0, 18522.0, 18520.0, 18524.0, 18530.0, 18542.0, 18526.0, 18530.0, 18498.0, 18528.0, 18530.0, 18520.0, 18524.0, 18532.0, 18538.0, 18528.0, 18534.0, 18534.0, 18530.0, 18534.0, 18532.0, 18586.0, 18556.0, 18526.0, 18534.0, 18532.0, 18500.0, 18502.0, 18532.0, 18530.0, 18526.0, 18524.0, 18522.0, 18530.0, 18530.0, 18536.0, 18494.0, 18494.0, 18528.0, 18532.0, 18532.0, 18532.0, 18530.0, 18532.0, 18526.0, 18528.0, 18530.0, 18524.0, 18518.0, 18494.0, 18530.0, 18536.0, 18502.0, 18526.0, 18492.0, 18524.0, 18532.0, 18504.0, 18534.0, 18526.0, 18492.0, 18526.0, 18492.0, 18498.0, 18530.0, 18540.0, 18522.0, 18492.0, 18496.0, 18532.0, 18498.0, 18498.0, 18532.0, 18534.0, 18526.0, 18494.0, 18522.0, 18522.0, 18524.0, 18492.0, 18498.0, 18500.0, 18534.0, 18534.0, 18496.0, 18500.0, 18528.0, 18530.0, 18522.0, 18522.0, 18526.0, 18528.0]
    },
    "slices": {}
  }
}