{
  "AcquisitionMatrixPE": 104,
  "AcquisitionNumber": 1,
  "AcquisitionTime": "11:05:41.585000",
  "BandwidthPerPixelPhaseEncode": 17.17,
  "BaseResolution": 104,
  "BodyPartExamined": "BRAIN",
  "CoilString": "HC1-7;NC1_2",
  "ConsistencyInfo": "N4_VE11C_LATEST_20160120",
  "ConversionSoftware": "dcm2niix",
  "ConversionSoftwareVersion": "v1.0.20190902",
  "DerivedVendorReportedEchoSpacing": 0.000560011,
  "DeviceSerialNumber": "167006",
  "DwellTime": 2.1e-06,
  "EchoTime": 0.037,
  "EchoTrainLength": 104,
  "EffectiveEchoSpacing": 0.000560011,
  "FlipAngle": 52,
  "HeudiconvVersion": "0.10.0",
  "ImageComments": "Unaliased_MB4_PE3_LB",
  "ImageOrientationPatientDICOM": [0.999701, 0.0179905, 0.0165682, -0.00750286, 0.870358, -0.492361],
  "ImageType": [
    "ORIGINAL",
    "PRIMARY",
    "M",
    "MB",
    "ND",
    "MOSAIC"
],
  "ImagingFrequency": 123.259,
  "InPlanePhaseEncodingDirectionDICOM": "COL",
  "InstitutionAddress": "Chemin_Queen-Mary_4565_Montreal_District_CA_H3W_1W5",
  "InstitutionName": "IUGM",
  "InstitutionalDepartmentName": "Department",
  "MRAcquisitionType": "2D",
  "MagneticFieldStrength": 3,
  "Manufacturer": "Siemens",
  "ManufacturersModelName": "Prisma_fit",
  "Modality": "MR",
  "MultibandAccelerationFactor": 4,
  "PartialFourier": 1,
  "PatientPosition": "HFS",
  "PercentPhaseFOV": 100,
  "PhaseEncodingDirection": "j",
  "PhaseEncodingSteps": 104,
  "PhaseResolution": 1,
  "PixelBandwidth": 2290,
  "ProcedureStepDescription": "memory_things",
  "ProtocolName": "func_task-things_run-3",
  "PulseSequenceDetails": "%CustomerSeq%_cmrr_mbep2d_bold",
  "ReceiveCoilActiveElements": "HC1-7;NC1,2",
  "ReceiveCoilName": "HeadNeck_64",
  "ReconMatrixPE": 104,
  "RepetitionTime": 1.49,
  "SAR": 0.0407893,
  "ScanOptions": "FS",
  "ScanningSequence": "EP",
  "SequenceName": "epfid2d1_104",
  "SequenceVariant": "SK_SS",
  "SeriesDescription": "func_task-things_run-3",
  "SeriesNumber": 16,
  "ShimSetting": [622, -7194, -8866, 309, -17, -167, -22, -22],
  "SliceThickness": 2,
  "SliceTiming": [0, 0.785, 0.0975, 0.8825, 0.195, 0.98, 0.295, 1.0775, 0.3925, 1.175, 0.49, 1.275, 0.5875, 1.3725, 0.685, 0, 0.785, 0.0975, 0.8825, 0.195, 0.98, 0.295, 1.0775, 0.3925, 1.175, 0.49, 1.275, 0.5875, 1.3725, 0.685, 0, 0.785, 0.0975, 0.8825, 0.195, 0.98, 0.295, 1.0775, 0.3925, 1.175, 0.49, 1.275, 0.5875, 1.3725, 0.685, 0, 0.785, 0.0975, 0.8825, 0.195, 0.98, 0.295, 1.0775, 0.3925, 1.175, 0.49, 1.275, 0.5875, 1.3725, 0.685],
  "SoftwareVersions": "syngo_MR_E11",
  "SpacingBetweenSlices": 2,
  "StationName": "MRC35049",
  "TaskName": "things",
  "TotalReadoutTime": 0.0576811,
  "TxRefAmp": 253.844,
  "WipMemBlock": "bc4d0288-5783-4c7a-98b2-965d68d7e564||Sequence: R016 ve11c/master r/e634e98; Dec 19 2017 11:00:25 by eja",
  "dcmmeta_affine": [
    [-1.9994018077850342, -0.015005717985332012, 0.04655611887574196, 106.6156234741211],
    [-0.035980913788080215, 1.7407169342041016, -0.9841797947883606, -50.60097885131836],
    [0.03313634917140007, 0.9847229719161987, 1.7404661178588867, -94.73748779296875],
    [0.0, 0.0, 0.0, 1.0]
],
  "dcmmeta_reorient_transform": [
    [0.0, -1.0, 0.0, 103.0],
    [1.0, 0.0, 0.0, 0.0],
    [0.0, 0.0, 1.0, 0.0],
    [0.0, 0.0, 0.0, 1.0]
],
  "dcmmeta_shape": [104, 104, 60, 190],
  "dcmmeta_slice_dim": 2,
  "dcmmeta_version": 0.6,
  "global": {
    "const": {
      "AcquisitionMatrix": [104, 0, 0, 104],
      "AngioFlag": "N",
      "BitsAllocated": 16,
      "BitsStored": 16,
      "BodyPartExamined": "BRAIN",
      "Columns": 832,
      "EchoNumbers": 1,
      "EchoTime": 37.0,
      "EchoTrainLength": 104,
      "FlipAngle": 52.0,
      "HighBit": 15,
      "ImageOrientationPatient": [0.99970087479599, 0.01799045609944, 0.01656817495896, -0.0075028587662, 0.87035847006402, -0.4923614939231],
      "ImagePositionPatient": [-827.39019033387, -775.41088344178, 353.06651949703],
      "ImageType": [
        "ORIGINAL",
        "PRIMARY",
        "M",
        "MB",
        "ND",
        "MOSAIC"
],
      "ImagedNucleus": "1H",
      "ImagingFrequency": 123.258911,
      "InPlanePhaseEncodingDirection": "COL",
      "MRAcquisitionType": "2D",
      "MagneticFieldStrength": 3.0,
      "Manufacturer": "SIEMENS",
      "ManufacturerModelName": "Prisma_fit",
      "Modality": "MR",
      "NumberOfAverages": 1.0,
      "NumberOfPhaseEncodingSteps": 104,
      "PercentPhaseFieldOfView": 100.0,
      "PercentSampling": 100.0,
      "PerformedProcedureStepStartTime": "102403.486000",
      "PhotometricInterpretation": "MONOCHROME2",
      "PixelBandwidth": 2290.0,
      "PixelRepresentation": 0,
      "PixelSpacing": [2.0, 2.0],
      "ProtocolName": "func_task-things_run-3",
      "RepetitionTime": 1490.0,
      "Rows": 832,
      "SAR": 0.04078930109596,
      "SamplesPerPixel": 1,
      "ScanOptions": "FS",
      "ScanningSequence": "EP",
      "SequenceName": "epfid2d1_104",
      "SequenceVariant": [
        "SK",
        "SS"
],
      "SeriesDescription": "func_task-things_run-3",
      "SeriesNumber": 16,
      "SeriesTime": "110701.078000",
      "SliceLocation": -55.061658948575,
      "SliceThickness": 2.0,
      "SmallestImagePixelValue": 0,
      "SoftwareVersions": "syngo MR E11",
      "SpacingBetweenSlices": 1.9999999420423,
      "SpecificCharacterSet": "ISO_IR 100",
      "StudyID": "1",
      "StudyTime": "102403.330000",
      "TransmitCoilName": "Body",
      "VariableFlipAngleFlag": "N",
      "WindowCenterWidthExplanation": "Algo1",
      "dBdt": 0.0},
    "slices": {}
  },
  "time": {
    "samples": {
      "AcquisitionNumber": [1, 2, 3, 4, 5, 6, 7, 8, 9, 10, 11, 12, 13, 14, 15, 16, 17, 18, 19, 20, 21, 22, 23, 24, 25, 26, 27, 28, 29, 30, 31, 32, 33, 34, 35, 36, 37, 38, 39, 40, 41, 42, 43, 44, 45, 46, 47, 48, 49, 50, 51, 52, 53, 54, 55, 56, 57, 58, 59, 60, 61, 62, 63, 64, 65, 66, 67, 68, 69, 70, 71, 72, 73, 74, 75, 76, 77, 78, 79, 80, 81, 82, 83, 84, 85, 86, 87, 88, 89, 90, 91, 92, 93, 94, 95, 96, 97, 98, 99, 100, 101, 102, 103, 104, 105, 106, 107, 108, 109, 110, 111, 112, 113, 114, 115, 116, 117, 118, 119, 120, 121, 122, 123, 124, 125, 126, 127, 128, 129, 130, 131, 132, 133, 134, 135, 136, 137, 138, 139, 140, 141, 142, 143, 144, 145, 146, 147, 148, 149, 150, 151, 152, 153, 154, 155, 156, 157, 158, 159, 160, 161, 162, 163, 164, 165, 166, 167, 168, 169, 170, 171, 172, 173, 174, 175, 176, 177, 178, 179, 180, 181, 182, 183, 184, 185, 186, 187, 188, 189, 190],
      "AcquisitionTime": ["110541.585000", "110543.075000", "110544.565000", "110546.055000", "110547.545000", "110549.035000", "110550.525000", "110552.015000", "110553.505000", "110554.995000", "110556.485000", "110557.975000", "110559.465000", "110600.955000", "110602.445000", "110603.935000", "110605.425000", "110606.915000", "110608.405000", "110609.895000", "110611.385000", "110612.875000", "110614.365000", "110615.855000", "110617.345000", "110618.835000", "110620.325000", "110621.815000", "110623.305000", "110624.795000", "110626.285000", "110627.775000", "110629.265000", "110630.755000", "110632.245000", "110633.735000", "110635.225000", "110636.715000", "110638.205000", "110639.695000", "110641.185000", "110642.675000", "110644.165000", "110645.655000", "110647.145000", "110648.635000", "110650.125000", "110651.615000", "110653.105000", "110654.595000", "110656.085000", "110657.575000", "110659.065000", "110700.555000", "110702.045000", "110703.535000", "110705.025000", "110706.515000", "110708.005000", "110709.495000", "110710.985000", "110712.475000", "110713.965000", "110715.455000", "110716.945000", "110718.435000", "110719.925000", "110721.415000", "110722.905000", "110724.395000", "110725.885000", "110727.375000", "110728.865000", "110730.355000", "110731.845000", "110733.335000", "110734.825000", "110736.315000", "110737.805000", "110739.295000", "110740.785000", "110742.275000", "110743.765000", "110745.255000", "110746.745000", "110748.235000", "110749.725000", "110751.215000", "110752.705000", "110754.195000", "110755.685000", "110757.175000", "110758.665000", "110800.155000", "110801.645000", "110803.135000", "110804.625000", "110806.115000", "110807.605000", "110809.095000", "110810.585000", "110812.075000", "110813.565000", "110815.055000", "110816.545000", "110818.035000", "110819.525000", "110821.015000", "110822.505000", "110823.995000", "110825.485000", "110826.975000", "110828.465000", "110829.955000", "110831.445000", "110832.935000", "110834.425000", "110835.915000", "110837.405000", "110838.895000", "110840.385000", "110841.875000", "110843.365000", "110844.855000", "110846.345000", "110847.835000", "110849.325000", "110850.815000", "110852.305000", "110853.795000", "110855.285000", "110856.775000", "110858.265000", "110859.755000", "110901.245000", "110902.735000", "110904.225000", "110905.715000", "110907.205000", "110908.695000", "110910.185000", "110911.675000", "110913.165000", "110914.655000", "110916.145000", "110917.635000", "110919.125000", "110920.615000", "110922.105000", "110923.595000", "110925.085000", "110926.575000", "110928.065000", "110929.555000", "110931.045000", "110932.535000", "110934.025000", "110935.515000", "110937.005000", "110938.495000", "110939.985000", "110941.475000", "110942.965000", "110944.455000", "110945.945000", "110947.435000", "110948.925000", "110950.415000", "110951.905000", "110953.395000", "110954.885000", "110956.375000", "110957.865000", "110959.355000", "111000.845000", "111002.335000", "111003.825000", "111005.315000", "111006.805000", "111008.295000", "111009.785000", "111011.275000", "111012.765000", "111014.255000", "111015.745000", "111017.235000", "111018.725000", "111020.215000", "111021.705000", "111023.195000"],
      "ContentTime": ["110701.081000", "110701.085000", "110701.088000", "110701.091000", "110701.094000", "110701.098000", "110701.101000", "110701.104000", "110701.108000", "110701.111000", "110701.114000", "110701.117000", "110701.121000", "110701.124000", "110701.127000", "110701.130000", "110701.134000", "110701.137000", "110701.140000", "110701.144000", "110701.147000", "110701.150000", "110701.154000", "110701.161000", "110701.165000", "110701.168000", "110721.051000", "110721.055000", "110721.058000", "110721.061000", "110721.064000", "110721.068000", "110721.071000", "110721.074000", "110721.077000", "110721.081000", "110721.084000", "110721.087000", "110721.090000", "110721.094000", "110721.097000", "110721.100000", "110721.104000", "110721.107000", "110721.110000", "110721.115000", "110741.051000", "110741.055000", "110741.058000", "110741.061000", "110741.064000", "110741.068000", "110741.071000", "110741.074000", "110741.078000", "110741.081000", "110741.084000", "110741.087000", "110741.091000", "110741.094000", "110741.098000", "110741.101000", "110741.104000", "110741.107000", "110741.111000", "110741.114000", "110801.050000", "110801.054000", "110801.057000", "110801.060000", "110801.064000", "110801.067000", "110801.076000", "110801.080000", "110801.083000", "110801.086000", "110801.089000", "110801.093000", "110801.096000", "110801.100000", "110801.103000", "110801.106000", "110801.110000", "110801.113000", "110801.116000", "110801.119000", "110821.050000", "110821.054000", "110821.057000", "110821.060000", "110821.064000", "110821.067000", "110821.070000", "110821.073000", "110821.077000", "110821.080000", "110821.083000", "110821.087000", "110821.090000", "110821.093000", "110821.096000", "110821.099000", "110821.103000", "110821.106000", "110821.109000", "110821.113000", "110901.051000", "110901.055000", "110901.058000", "110901.062000", "110901.065000", "110901.068000", "110901.071000", "110901.075000", "110901.078000", "110901.081000", "110901.084000", "110901.088000", "110901.091000", "110901.094000", "110901.097000", "110901.101000", "110901.104000", "110901.107000", "110901.111000", "110901.114000", "110901.117000", "110901.120000", "110901.124000", "110901.127000", "110901.130000", "110901.133000", "110901.137000", "110941.051000", "110941.055000", "110941.058000", "110941.062000", "110941.065000", "110941.068000", "110941.071000", "110941.075000", "110941.078000", "110941.081000", "110941.084000", "110941.088000", "110941.091000", "110941.094000", "110941.098000", "110941.101000", "110941.104000", "110941.107000", "110941.111000", "110941.114000", "110941.117000", "110941.120000", "110941.124000", "110941.127000", "110941.130000", "110941.133000", "110941.137000", "111021.050000", "111021.064000", "111021.068000", "111021.071000", "111021.074000", "111021.078000", "111021.081000", "111021.084000", "111021.087000", "111021.091000", "111021.094000", "111021.097000", "111021.100000", "111021.104000", "111021.107000", "111021.110000", "111021.114000", "111021.117000", "111021.120000", "111021.123000", "111021.127000", "111021.130000", "111021.133000", "111021.136000", "111021.140000", "111021.143000", "111021.146000", "111025.110000", "111025.113000", "111025.117000"],
      "InstanceCreationTime": ["110701.081000", "110701.085000", "110701.088000", "110701.091000", "110701.094000", "110701.098000", "110701.101000", "110701.104000", "110701.108000", "110701.111000", "110701.114000", "110701.117000", "110701.121000", "110701.124000", "110701.127000", "110701.130000", "110701.134000", "110701.137000", "110701.140000", "110701.144000", "110701.147000", "110701.150000", "110701.154000", "110701.161000", "110701.165000", "110701.168000", "110721.051000", "110721.055000", "110721.058000", "110721.061000", "110721.064000", "110721.068000", "110721.071000", "110721.074000", "110721.077000", "110721.081000", "110721.084000", "110721.087000", "110721.090000", "110721.094000", "110721.097000", "110721.100000", "110721.104000", "110721.107000", "110721.110000", "110721.115000", "110741.051000", "110741.055000", "110741.058000", "110741.061000", "110741.064000", "110741.068000", "110741.071000", "110741.074000", "110741.078000", "110741.081000", "110741.084000", "110741.087000", "110741.091000", "110741.094000", "110741.098000", "110741.101000", "110741.104000", "110741.107000", "110741.111000", "110741.114000", "110801.050000", "110801.054000", "110801.057000", "110801.060000", "110801.064000", "110801.067000", "110801.076000", "110801.080000", "110801.083000", "110801.086000", "110801.089000", "110801.093000", "110801.096000", "110801.100000", "110801.103000", "110801.106000", "110801.110000", "110801.113000", "110801.116000", "110801.119000", "110821.050000", "110821.054000", "110821.057000", "110821.060000", "110821.064000", "110821.067000", "110821.070000", "110821.073000", "110821.077000", "110821.080000", "110821.083000", "110821.087000", "110821.090000", "110821.093000", "110821.096000", "110821.099000", "110821.103000", "110821.106000", "110821.109000", "110821.113000", "110901.051000", "110901.055000", "110901.058000", "110901.062000", "110901.065000", "110901.068000", "110901.071000", "110901.075000", "110901.078000", "110901.081000", "110901.084000", "110901.088000", "110901.091000", "110901.094000", "110901.097000", "110901.101000", "110901.104000", "110901.107000", "110901.111000", "110901.114000", "110901.117000", "110901.120000", "110901.124000", "110901.127000", "110901.130000", "110901.133000", "110901.137000", "110941.051000", "110941.055000", "110941.058000", "110941.062000", "110941.065000", "110941.068000", "110941.071000", "110941.075000", "110941.078000", "110941.081000", "110941.084000", "110941.088000", "110941.091000", "110941.094000", "110941.098000", "110941.101000", "110941.104000", "110941.107000", "110941.111000", "110941.114000", "110941.117000", "110941.120000", "110941.124000", "110941.127000", "110941.130000", "110941.133000", "110941.137000", "111021.050000", "111021.064000", "111021.068000", "111021.071000", "111021.074000", "111021.078000", "111021.081000", "111021.084000", "111021.087000", "111021.091000", "111021.094000", "111021.097000", "111021.100000", "111021.104000", "111021.107000", "111021.110000", "111021.114000", "111021.117000", "111021.120000", "111021.123000", "111021.127000", "111021.130000", "111021.133000", "111021.136000", "111021.140000", "111021.143000", "111021.146000", "111025.110000", "111025.113000", "111025.117000"],
      "InstanceNumber": [1, 2, 3, 4, 5, 6, 7, 8, 9, 10, 11, 12, 13, 14, 15, 16, 17, 18, 19, 20, 21, 22, 23, 24, 25, 26, 27, 28, 29, 30, 31, 32, 33, 34, 35, 36, 37, 38, 39, 40, 41, 42, 43, 44, 45, 46, 47, 48, 49, 50, 51, 52, 53, 54, 55, 56, 57, 58, 59, 60, 61, 62, 63, 64, 65, 66, 67, 68, 69, 70, 71, 72, 73, 74, 75, 76, 77, 78, 79, 80, 81, 82, 83, 84, 85, 86, 87, 88, 89, 90, 91, 92, 93, 94, 95, 96, 97, 98, 99, 100, 101, 102, 103, 104, 105, 106, 107, 108, 109, 110, 111, 112, 113, 114, 115, 116, 117, 118, 119, 120, 121, 122, 123, 124, 125, 126, 127, 128, 129, 130, 131, 132, 133, 134, 135, 136, 137, 138, 139, 140, 141, 142, 143, 144, 145, 146, 147, 148, 149, 150, 151, 152, 153, 154, 155, 156, 157, 158, 159, 160, 161, 162, 163, 164, 165, 166, 167, 168, 169, 170, 171, 172, 173, 174, 175, 176, 177, 178, 179, 180, 181, 182, 183, 184, 185, 186, 187, 188, 189, 190],
      "LargestImagePixelValue": [44128, 43051, 42024, 41894, 42246, 42802, 41904, 41965, 41911, 41451, 41963, 41678, 41896, 41866, 41741, 41938, 41065, 42313, 42168, 41532, 42181, 42108, 41459, 41726, 41414, 41714, 41580, 41205, 40980, 42118, 41635, 41985, 42374, 42218, 41453, 42354, 41674, 41749, 41524, 41697, 42014, 42291, 41718, 41929, 42259, 42682, 42352, 41848, 41692, 42657, 42482, 42352, 40805, 42130, 42781, 42535, 41219, 41821, 41014, 41282, 41078, 41592, 42023, 41797, 42210, 41909, 42019, 41513, 41745, 41811, 41798, 41345, 41870, 41383, 41654, 42027, 41920, 40899, 41366, 41004, 40782, 40979, 41144, 40756, 41142, 41989, 41362, 41949, 41770, 41451, 41328, 42025, 41511, 41384, 40284, 42200, 41026, 41310, 42039, 42311, 41717, 42081, 41839, 41051, 41674, 40688, 41059, 41526, 41121, 41351, 41821, 41225, 41488, 43058, 41669, 41259, 42107, 41114, 41762, 41072, 41089, 41493, 40696, 41966, 41750, 41570, 42578, 41979, 41722, 42351, 42571, 42042, 41003, 40729, 42283, 41530, 41569, 42906, 42363, 42329, 42907, 42048, 40971, 42518, 41800, 41218, 41650, 42161, 41352, 42484, 42435, 41426, 42429, 42022, 41161, 42578, 42463, 40893, 41918, 42500, 41887, 41169, 42629, 42616, 41610, 42102, 42260, 41659, 42273, 42499, 41914, 42670, 42073, 41204, 42156, 41832, 40916, 42432, 43174, 42250, 40907, 40278, 42104, 42207, 41546, 41413, 43886, 43109, 42383, 42255],
      "WindowCenter": [11062.0, 11013.0, 10961.0, 10911.0, 10912.0, 10901.0, 10874.0, 10891.0, 10900.0, 10893.0, 10898.0, 10909.0, 10927.0, 10928.0, 10938.0, 10921.0, 10898.0, 10933.0, 10920.0, 10914.0, 10937.0, 10912.0, 10894.0, 10912.0, 10895.0, 10914.0, 10887.0, 10858.0, 10873.0, 10895.0, 10898.0, 10898.0, 10944.0, 10967.0, 10937.0, 10944.0, 10940.0, 10914.0, 10873.0, 10872.0, 10890.0, 10935.0, 10928.0, 10899.0, 10900.0, 10898.0, 10923.0, 10914.0, 10884.0, 10890.0, 10889.0, 10909.0, 10902.0, 10930.0, 10935.0, 10896.0, 10888.0, 10929.0, 10960.0, 10926.0, 10916.0, 10894.0, 10861.0, 10838.0, 10840.0, 10861.0, 10915.0, 10925.0, 10910.0, 10914.0, 10901.0, 10875.0, 10857.0, 10861.0, 10875.0, 10885.0, 10906.0, 10918.0, 10927.0, 10905.0, 10906.0, 10909.0, 10894.0, 10895.0, 10905.0, 10895.0, 10879.0, 10876.0, 10864.0, 10893.0, 10882.0, 10872.0, 10884.0, 10918.0, 10915.0, 10897.0, 10879.0, 10882.0, 10867.0, 10827.0, 10837.0, 10859.0, 10869.0, 10888.0, 10907.0, 10905.0, 10904.0, 10899.0, 10902.0, 10870.0, 10910.0, 10917.0, 10918.0, 10889.0, 10823.0, 10816.0, 10841.0, 10851.0, 10899.0, 10901.0, 10906.0, 10896.0, 10897.0, 10886.0, 10898.0, 10900.0, 10878.0, 10839.0, 10847.0, 10870.0, 10877.0, 10899.0, 10918.0, 10901.0, 10885.0, 10875.0, 10871.0, 10852.0, 10861.0, 10855.0, 10850.0, 10863.0, 10868.0, 10881.0, 10887.0, 10895.0, 10870.0, 10882.0, 10864.0, 10845.0, 10840.0, 10859.0, 10867.0, 10854.0, 10851.0, 10869.0, 10870.0, 10865.0, 10886.0, 10865.0, 10848.0, 10863.0, 10870.0, 10878.0, 10878.0, 10867.0, 10882.0, 10889.0, 10896.0, 10867.0, 10845.0, 10850.0, 10865.0, 10899.0, 10895.0, 10877.0, 10887.0, 10909.0, 10905.0, 10920.0, 10932.0, 10924.0, 10906.0, 10873.0, 10873.0, 10836.0, 10921.0, 10950.0, 10937.0, 10906.0],
      "WindowWidth": [23809.0, 23664.0, 23530.0, 23403.0, 23397.0, 23369.0, 23307.0, 23344.0, 23365.0, 23349.0, 23357.0, 23384.0, 23424.0, 23426.0, 23451.0, 23412.0, 23361.0, 23433.0, 23408.0, 23395.0, 23446.0, 23391.0, 23350.0, 23391.0, 23353.0, 23397.0, 23336.0, 23268.0, 23309.0, 23345.0, 23362.0, 23356.0, 23459.0, 23514.0, 23448.0, 23458.0, 23456.0, 23398.0, 23301.0, 23301.0, 23335.0, 23438.0, 23432.0, 23367.0, 23359.0, 23357.0, 23414.0, 23395.0, 23332.0, 23338.0, 23333.0, 23383.0, 23374.0, 23430.0, 23438.0, 23352.0, 23338.0, 23425.0, 23503.0, 23424.0, 23398.0, 23349.0, 23270.0, 23219.0, 23220.0, 23271.0, 23396.0, 23419.0, 23384.0, 23387.0, 23363.0, 23303.0, 23260.0, 23274.0, 23304.0, 23326.0, 23373.0, 23404.0, 23424.0, 23377.0, 23378.0, 23387.0, 23347.0, 23350.0, 23377.0, 23344.0, 23312.0, 23304.0, 23277.0, 23341.0, 23321.0, 23294.0, 23322.0, 23403.0, 23404.0, 23353.0, 23314.0, 23318.0, 23280.0, 23193.0, 23214.0, 23264.0, 23285.0, 23334.0, 23375.0, 23373.0, 23374.0, 23356.0, 23370.0, 23292.0, 23376.0, 23400.0, 23401.0, 23329.0, 23184.0, 23170.0, 23222.0, 23250.0, 23355.0, 23362.0, 23377.0, 23347.0, 23356.0, 23324.0, 23355.0, 23357.0, 23307.0, 23217.0, 23233.0, 23284.0, 23302.0, 23352.0, 23402.0, 23366.0, 23317.0, 23303.0, 23294.0, 23244.0, 23267.0, 23259.0, 23241.0, 23272.0, 23293.0, 23314.0, 23326.0, 23350.0, 23288.0, 23313.0, 23279.0, 23229.0, 23217.0, 23267.0, 23280.0, 23250.0, 23249.0, 23286.0, 23287.0, 23284.0, 23328.0, 23280.0, 23241.0, 23279.0, 23289.0, 23307.0, 23311.0, 23283.0, 23315.0, 23334.0, 23347.0, 23282.0, 23228.0, 23240.0, 23277.0, 23359.0, 23345.0, 23304.0, 23331.0, 23376.0, 23368.0, 23407.0, 23438.0, 23423.0, 23374.0, 23304.0, 23308.0, 23213.0, 23408.0, 23466.0, 23443.0, 23372.0]
    },
    "slices": {}
  }
}