{
  "AcquisitionMatrixPE": 104,
  "AcquisitionNumber": 1,
  "AcquisitionTime": "11:14:37.342500",
  "BandwidthPerPixelPhaseEncode": 17.17,
  "BaseResolution": 104,
  "BodyPartExamined": "BRAIN",
  "CoilString": "HC1-7;NC1_2",
  "ConsistencyInfo": "N4_VE11C_LATEST_20160120",
  "ConversionSoftware": "dcm2niix",
  "ConversionSoftwareVersion": "v1.0.20190902",
  "DerivedVendorReportedEchoSpacing": 0.000560011,
  "DeviceSerialNumber": "167006",
  "DwellTime": 2.1e-06,
  "EchoTime": 0.037,
  "EchoTrainLength": 104,
  "EffectiveEchoSpacing": 0.000560011,
  "FlipAngle": 52,
  "HeudiconvVersion": "0.10.0",
  "ImageComments": "Unaliased_MB4_PE3_LB",
  "ImageOrientationPatientDICOM": [0.999669, 0.016573, 0.019663, -0.00366403, 0.848625, -0.528983],
  "ImageType": [
    "ORIGINAL",
    "PRIMARY",
    "P",
    "MB",
    "ND",
    "MOSAIC"
],
  "ImagingFrequency": 123.259,
  "InPlanePhaseEncodingDirectionDICOM": "COL",
  "InstitutionAddress": "Chemin_Queen-Mary_4565_Montreal_District_CA_H3W_1W5",
  "InstitutionName": "IUGM",
  "InstitutionalDepartmentName": "Department",
  "MRAcquisitionType": "2D",
  "MagneticFieldStrength": 3,
  "Manufacturer": "Siemens",
  "ManufacturersModelName": "Prisma_fit",
  "Modality": "MR",
  "MultibandAccelerationFactor": 4,
  "PartialFourier": 1,
  "PatientPosition": "HFS",
  "PercentPhaseFOV": 100,
  "PhaseEncodingDirection": "j",
  "PhaseEncodingSteps": 104,
  "PhaseResolution": 1,
  "PixelBandwidth": 2290,
  "ProcedureStepDescription": "memory_things",
  "ProtocolName": "func_task-things_run-4",
  "PulseSequenceDetails": "%CustomerSeq%_cmrr_mbep2d_bold",
  "ReceiveCoilActiveElements": "HC1-7;NC1,2",
  "ReceiveCoilName": "HeadNeck_64",
  "ReconMatrixPE": 104,
  "RepetitionTime": 1.49,
  "SAR": 0.042738,
  "ScanOptions": "FS",
  "ScanningSequence": "EP",
  "SequenceName": "epfid2d1_104",
  "SequenceVariant": "SK_SS",
  "SeriesDescription": "func_task-things_run-4",
  "SeriesNumber": 28,
  "ShimSetting": [621, -7174, -8868, 281, 20, -130, -33, -21],
  "SliceThickness": 2,
  "SliceTiming": [0, 0.7825, 0.0975, 0.88, 0.195, 0.98, 0.2925, 1.0775, 0.39, 1.175, 0.49, 1.2725, 0.5875, 1.37, 0.685, 0, 0.7825, 0.0975, 0.88, 0.195, 0.98, 0.2925, 1.0775, 0.39, 1.175, 0.49, 1.2725, 0.5875, 1.37, 0.685, 0, 0.7825, 0.0975, 0.88, 0.195, 0.98, 0.2925, 1.0775, 0.39, 1.175, 0.49, 1.2725, 0.5875, 1.37, 0.685, 0, 0.7825, 0.0975, 0.88, 0.195, 0.98, 0.2925, 1.0775, 0.39, 1.175, 0.49, 1.2725, 0.5875, 1.37, 0.685],
  "SoftwareVersions": "syngo_MR_E11",
  "SpacingBetweenSlices": 2,
  "StationName": "MRC35049",
  "TaskName": "things",
  "TotalReadoutTime": 0.0576811,
  "TxRefAmp": 257.471,
  "WipMemBlock": "826a0a31-ff3a-4935-a67a-247740799912||Sequence: R016 ve11c/master r/e634e98; Dec 19 2017 11:00:25 by eja",
  "dcmmeta_affine": [
    [-1.9993386268615723, -0.007328069303184748, 0.050906702876091, 105.54785919189453],
    [-0.03314594551920891, 1.6972490549087524, -1.0574719905853271, -47.985511779785156],
    [0.03932606428861618, 1.0579659938812256, 1.69680917263031, -95.0604019165039],
    [0.0, 0.0, 0.0, 1.0]
],
  "dcmmeta_reorient_transform": [
    [0.0, -1.0, 0.0, 103.0],
    [1.0, 0.0, 0.0, 0.0],
    [0.0, 0.0, 1.0, 0.0],
    [0.0, 0.0, 0.0, 1.0]
],
  "dcmmeta_shape": [104, 104, 60, 190],
  "dcmmeta_slice_dim": 2,
  "dcmmeta_version": 0.6,
  "global": {
    "const": {
      "AcquisitionMatrix": [104, 0, 0, 104],
      "AngioFlag": "N",
      "BitsAllocated": 16,
      "BitsStored": 16,
      "BodyPartExamined": "BRAIN",
      "Columns": 832,
      "EchoNumbers": 1,
      "EchoTime": 37.0,
      "EchoTrainLength": 104,
      "FlipAngle": 52.0,
      "HighBit": 15,
      "ImageOrientationPatient": [0.99966929617788, 0.01657297350527, 0.01966303202488, -0.0036640345463, 0.84862453109573, -0.5289829676591],
      "ImagePositionPatient": [-829.88489940122, -756.69492502432, 384.69500141957],
      "ImageType": [
        "ORIGINAL",
        "PRIMARY",
        "P",
        "MB",
        "ND",
        "MOSAIC"
],
      "ImagedNucleus": "1H",
      "ImagingFrequency": 123.258903,
      "InPlanePhaseEncodingDirection": "COL",
      "LargestImagePixelValue": 4095,
      "MRAcquisitionType": "2D",
      "MagneticFieldStrength": 3.0,
      "Manufacturer": "SIEMENS",
      "ManufacturerModelName": "Prisma_fit",
      "Modality": "MR",
      "NumberOfAverages": 1.0,
      "NumberOfPhaseEncodingSteps": 104,
      "PercentPhaseFieldOfView": 100.0,
      "PercentSampling": 100.0,
      "PerformedProcedureStepStartTime": "102541.721000",
      "PhotometricInterpretation": "MONOCHROME2",
      "PixelBandwidth": 2290.0,
      "PixelRepresentation": 0,
      "PixelSpacing": [2.0, 2.0],
      "ProtocolName": "func_task-things_run-4",
      "RepetitionTime": 1490.0,
      "RescaleIntercept": -4096.0,
      "RescaleSlope": 2.0,
      "RescaleType": "US",
      "Rows": 832,
      "SAR": 0.04273797996185,
      "SamplesPerPixel": 1,
      "ScanOptions": "FS",
      "ScanningSequence": "EP",
      "SequenceName": "epfid2d1_104",
      "SequenceVariant": [
        "SK",
        "SS"
],
      "SeriesDescription": "func_task-things_run-4",
      "SeriesNumber": 28,
      "SeriesTime": "111609.802000",
      "SliceLocation": -52.591470696096,
      "SliceThickness": 2.0,
      "SmallestImagePixelValue": 0,
      "SoftwareVersions": "syngo MR E11",
      "SpacingBetweenSlices": 1.9999999969952,
      "SpecificCharacterSet": "ISO_IR 100",
      "StudyID": "1",
      "StudyTime": "102541.655000",
      "TransmitCoilName": "Body",
      "VariableFlipAngleFlag": "N",
      "WindowCenterWidthExplanation": "Algo1",
      "dBdt": 0.0},
    "slices": {}
  },
  "time": {
    "samples": {
      "AcquisitionNumber": [1, 2, 3, 4, 5, 6, 7, 8, 9, 10, 11, 12, 13, 14, 15, 16, 17, 18, 19, 20, 21, 22, 23, 24, 25, 26, 27, 28, 29, 30, 31, 32, 33, 34, 35, 36, 37, 38, 39, 40, 41, 42, 43, 44, 45, 46, 47, 48, 49, 50, 51, 52, 53, 54, 55, 56, 57, 58, 59, 60, 61, 62, 63, 64, 65, 66, 67, 68, 69, 70, 71, 72, 73, 74, 75, 76, 77, 78, 79, 80, 81, 82, 83, 84, 85, 86, 87, 88, 89, 90, 91, 92, 93, 94, 95, 96, 97, 98, 99, 100, 101, 102, 103, 104, 105, 106, 107, 108, 109, 110, 111, 112, 113, 114, 115, 116, 117, 118, 119, 120, 121, 122, 123, 124, 125, 126, 127, 128, 129, 130, 131, 132, 133, 134, 135, 136, 137, 138, 139, 140, 141, 142, 143, 144, 145, 146, 147, 148, 149, 150, 151, 152, 153, 154, 155, 156, 157, 158, 159, 160, 161, 162, 163, 164, 165, 166, 167, 168, 169, 170, 171, 172, 173, 174, 175, 176, 177, 178, 179, 180, 181, 182, 183, 184, 185, 186, 187, 188, 189, 190],
      "AcquisitionTime": ["111437.342500", "111438.832500", "111440.322500", "111441.812500", "111443.302500", "111444.792500", "111446.282500", "111447.772500", "111449.262500", "111450.752500", "111452.242500", "111453.732500", "111455.222500", "111456.712500", "111458.202500", "111459.692500", "111501.182500", "111502.672500", "111504.162500", "111505.652500", "111507.142500", "111508.632500", "111510.122500", "111511.612500", "111513.102500", "111514.592500", "111516.082500", "111517.572500", "111519.062500", "111520.552500", "111522.042500", "111523.532500", "111525.022500", "111526.512500", "111528.002500", "111529.492500", "111530.982500", "111532.472500", "111533.962500", "111535.452500", "111536.942500", "111538.432500", "111539.922500", "111541.412500", "111542.902500", "111544.392500", "111545.882500", "111547.372500", "111548.862500", "111550.352500", "111551.842500", "111553.332500", "111554.822500", "111556.312500", "111557.802500", "111559.292500", "111600.782500", "111602.272500", "111603.762500", "111605.252500", "111606.742500", "111608.232500", "111609.722500", "111611.212500", "111612.702500", "111614.192500", "111615.682500", "111617.172500", "111618.662500", "111620.152500", "111621.642500", "111623.132500", "111624.622500", "111626.112500", "111627.602500", "111629.092500", "111630.582500", "111632.072500", "111633.562500", "111635.052500", "111636.542500", "111638.032500", "111639.522500", "111641.012500", "111642.502500", "111643.992500", "111645.482500", "111646.972500", "111648.462500", "111649.952500", "111651.442500", "111652.932500", "111654.422500", "111655.912500", "111657.402500", "111658.892500", "111700.382500", "111701.872500", "111703.362500", "111704.852500", "111706.342500", "111707.832500", "111709.322500", "111710.812500", "111712.302500", "111713.792500", "111715.282500", "111716.772500", "111718.262500", "111719.752500", "111721.242500", "111722.732500", "111724.222500", "111725.712500", "111727.202500", "111728.692500", "111730.182500", "111731.672500", "111733.162500", "111734.652500", "111736.142500", "111737.632500", "111739.122500", "111740.612500", "111742.102500", "111743.592500", "111745.082500", "111746.572500", "111748.062500", "111749.552500", "111751.042500", "111752.532500", "111754.022500", "111755.512500", "111757.002500", "111758.492500", "111759.982500", "111801.472500", "111802.962500", "111804.452500", "111805.942500", "111807.432500", "111808.922500", "111810.412500", "111811.902500", "111813.392500", "111814.882500", "111816.372500", "111817.862500", "111819.352500", "111820.842500", "111822.332500", "111823.822500", "111825.312500", "111826.802500", "111828.292500", "111829.782500", "111831.272500", "111832.762500", "111834.252500", "111835.742500", "111837.232500", "111838.722500", "111840.212500", "111841.702500", "111843.192500", "111844.682500", "111846.172500", "111847.662500", "111849.152500", "111850.642500", "111852.132500", "111853.622500", "111855.112500", "111856.602500", "111858.092500", "111859.582500", "111901.072500", "111902.562500", "111904.052500", "111905.542500", "111907.032500", "111908.522500", "111910.012500", "111911.502500", "111912.992500", "111914.482500", "111915.972500", "111917.462500", "111918.952500"],
      "ContentTime": ["111609.804000", "111609.807000", "111609.809000", "111609.812000", "111609.814000", "111609.817000", "111609.819000", "111609.822000", "111609.829000", "111609.831000", "111609.834000", "111609.836000", "111609.839000", "111609.841000", "111609.844000", "111609.846000", "111609.849000", "111609.851000", "111609.854000", "111609.856000", "111609.859000", "111609.861000", "111609.864000", "111609.866000", "111609.869000", "111609.871000", "111609.874000", "111609.876000", "111609.879000", "111609.881000", "111609.884000", "111609.886000", "111609.889000", "111609.891000", "111609.894000", "111609.896000", "111609.899000", "111609.901000", "111629.669000", "111629.672000", "111629.674000", "111629.677000", "111629.679000", "111629.682000", "111629.684000", "111629.687000", "111629.689000", "111629.692000", "111629.694000", "111629.697000", "111629.699000", "111629.702000", "111629.704000", "111629.707000", "111629.710000", "111629.712000", "111629.715000", "111629.717000", "111649.662000", "111649.665000", "111649.668000", "111649.670000", "111649.673000", "111649.675000", "111649.678000", "111649.680000", "111649.683000", "111649.685000", "111649.688000", "111649.690000", "111649.693000", "111649.695000", "111649.698000", "111649.700000", "111649.703000", "111649.705000", "111649.708000", "111649.710000", "111709.674000", "111709.677000", "111709.679000", "111709.682000", "111709.684000", "111709.687000", "111709.689000", "111709.692000", "111709.694000", "111709.697000", "111709.699000", "111709.702000", "111709.704000", "111709.707000", "111709.709000", "111709.712000", "111709.714000", "111709.717000", "111709.719000", "111709.722000", "111749.717000", "111749.720000", "111749.723000", "111749.725000", "111749.728000", "111749.730000", "111749.733000", "111749.757000", "111749.759000", "111749.762000", "111749.764000", "111749.767000", "111749.769000", "111749.772000", "111749.774000", "111749.777000", "111749.779000", "111749.782000", "111749.784000", "111749.787000", "111749.789000", "111749.792000", "111749.794000", "111749.797000", "111749.799000", "111749.802000", "111749.804000", "111749.807000", "111749.809000", "111749.812000", "111829.718000", "111829.721000", "111829.723000", "111829.726000", "111829.728000", "111829.731000", "111829.733000", "111829.736000", "111829.738000", "111829.741000", "111829.743000", "111829.746000", "111829.748000", "111829.751000", "111829.753000", "111829.756000", "111829.758000", "111829.761000", "111829.763000", "111829.766000", "111829.768000", "111829.771000", "111829.773000", "111829.776000", "111829.779000", "111829.781000", "111829.784000", "111909.715000", "111909.718000", "111909.720000", "111909.723000", "111909.725000", "111909.728000", "111909.730000", "111909.733000", "111909.736000", "111909.738000", "111909.741000", "111909.743000", "111909.746000", "111909.748000", "111909.751000", "111909.753000", "111909.756000", "111909.758000", "111909.761000", "111909.763000", "111909.766000", "111909.768000", "111909.771000", "111909.774000", "111909.776000", "111909.779000", "111909.781000", "111920.740000", "111920.743000", "111920.745000", "111920.748000", "111920.751000", "111920.753000", "111920.756000", "111920.758000"],
      "InstanceCreationTime": ["111609.804000", "111609.807000", "111609.809000", "111609.812000", "111609.814000", "111609.817000", "111609.819000", "111609.822000", "111609.829000", "111609.831000", "111609.834000", "111609.836000", "111609.839000", "111609.841000", "111609.844000", "111609.846000", "111609.849000", "111609.851000", "111609.854000", "111609.856000", "111609.859000", "111609.861000", "111609.864000", "111609.866000", "111609.869000", "111609.871000", "111609.874000", "111609.876000", "111609.879000", "111609.881000", "111609.884000", "111609.886000", "111609.889000", "111609.891000", "111609.894000", "111609.896000", "111609.899000", "111609.901000", "111629.669000", "111629.672000", "111629.674000", "111629.677000", "111629.679000", "111629.682000", "111629.684000", "111629.687000", "111629.689000", "111629.692000", "111629.694000", "111629.697000", "111629.699000", "111629.702000", "111629.704000", "111629.707000", "111629.710000", "111629.712000", "111629.715000", "111629.717000", "111649.662000", "111649.665000", "111649.668000", "111649.670000", "111649.673000", "111649.675000", "111649.678000", "111649.680000", "111649.683000", "111649.685000", "111649.688000", "111649.690000", "111649.693000", "111649.695000", "111649.698000", "111649.700000", "111649.703000", "111649.705000", "111649.708000", "111649.710000", "111709.674000", "111709.677000", "111709.679000", "111709.682000", "111709.684000", "111709.687000", "111709.689000", "111709.692000", "111709.694000", "111709.697000", "111709.699000", "111709.702000", "111709.704000", "111709.707000", "111709.709000", "111709.712000", "111709.714000", "111709.717000", "111709.719000", "111709.722000", "111749.717000", "111749.720000", "111749.723000", "111749.725000", "111749.728000", "111749.730000", "111749.733000", "111749.757000", "111749.759000", "111749.762000", "111749.764000", "111749.767000", "111749.769000", "111749.772000", "111749.774000", "111749.777000", "111749.779000", "111749.782000", "111749.784000", "111749.787000", "111749.789000", "111749.792000", "111749.794000", "111749.797000", "111749.799000", "111749.802000", "111749.804000", "111749.807000", "111749.809000", "111749.812000", "111829.718000", "111829.721000", "111829.723000", "111829.726000", "111829.728000", "111829.731000", "111829.733000", "111829.736000", "111829.738000", "111829.741000", "111829.743000", "111829.746000", "111829.748000", "111829.751000", "111829.753000", "111829.756000", "111829.758000", "111829.761000", "111829.763000", "111829.766000", "111829.768000", "111829.771000", "111829.773000", "111829.776000", "111829.779000", "111829.781000", "111829.784000", "111909.715000", "111909.718000", "111909.720000", "111909.723000", "111909.725000", "111909.728000", "111909.730000", "111909.733000", "111909.736000", "111909.738000", "111909.741000", "111909.743000", "111909.746000", "111909.748000", "111909.751000", "111909.753000", "111909.756000", "111909.758000", "111909.761000", "111909.763000", "111909.766000", "111909.768000", "111909.771000", "111909.774000", "111909.776000", "111909.779000", "111909.781000", "111920.740000", "111920.743000", "111920.745000", "111920.748000", "111920.751000", "111920.753000", "111920.756000", "111920.758000"],
      "InstanceNumber": [1, 2, 3, 4, 5, 6, 7, 8, 9, 10, 11, 12, 13, 14, 15, 16, 17, 18, 19, 20, 21, 22, 23, 24, 25, 26, 27, 28, 29, 30, 31, 32, 33, 34, 35, 36, 37, 38, 39, 40, 41, 42, 43, 44, 45, 46, 47, 48, 49, 50, 51, 52, 53, 54, 55, 56, 57, 58, 59, 60, 61, 62, 63, 64, 65, 66, 67, 68, 69, 70, 71, 72, 73, 74, 75, 76, 77, 78, 79, 80, 81, 82, 83, 84, 85, 86, 87, 88, 89, 90, 91, 92, 93, 94, 95, 96, 97, 98, 99, 100, 101, 102, 103, 104, 105, 106, 107, 108, 109, 110, 111, 112, 113, 114, 115, 116, 117, 118, 119, 120, 121, 122, 123, 124, 125, 126, 127, 128, 129, 130, 131, 132, 133, 134, 135, 136, 137, 138, 139, 140, 141, 142, 143, 144, 145, 146, 147, 148, 149, 150, 151, 152, 153, 154, 155, 156, 157, 158, 159, 160, 161, 162, 163, 164, 165, 166, 167, 168, 169, 170, 171, 172, 173, 174, 175, 176, 177, 178, 179, 180, 181, 182, 183, 184, 185, 186, 187, 188, 189, 190],
      "WindowCenter": [4784.0, 4806.0, 4804.0, 4784.0, 4784.0, 4786.0, 4782.0, 4784.0, 4784.0, 4806.0, 4802.0, 4786.0, 4804.0, 4788.0, 4782.0, 4806.0, 4784.0, 4784.0, 4784.0, 4810.0, 4804.0, 4782.0, 4782.0, 4786.0, 4782.0, 4786.0, 4782.0, 4788.0, 4794.0, 4816.0, 4804.0, 4802.0, 4802.0, 4806.0, 4788.0, 4790.0, 4786.0, 4784.0, 4784.0, 4786.0, 4806.0, 4806.0, 4808.0, 4806.0, 4806.0, 4788.0, 4786.0, 4788.0, 4788.0, 4790.0, 4790.0, 4786.0, 4804.0, 4808.0, 4806.0, 4812.0, 4808.0, 4790.0, 4788.0, 4788.0, 4788.0, 4796.0, 4800.0, 4816.0, 4808.0, 4804.0, 4804.0, 4808.0, 4810.0, 4812.0, 4790.0, 4784.0, 4784.0, 4788.0, 4814.0, 4808.0, 4806.0, 4808.0, 4808.0, 4808.0, 4790.0, 4810.0, 4784.0, 4790.0, 4788.0, 4812.0, 4810.0, 4808.0, 4810.0, 4808.0, 4810.0, 4814.0, 4810.0, 4790.0, 4810.0, 4790.0, 4810.0, 4786.0, 4808.0, 4810.0, 4792.0, 4810.0, 4812.0, 4810.0, 4810.0, 4810.0, 4812.0, 4808.0, 4810.0, 4788.0, 4786.0, 4786.0, 4788.0, 4808.0, 4806.0, 4806.0, 4810.0, 4810.0, 4790.0, 4808.0, 4786.0, 4786.0, 4806.0, 4790.0, 4784.0, 4806.0, 4806.0, 4790.0, 4790.0, 4788.0, 4790.0, 4808.0, 4814.0, 4808.0, 4810.0, 4806.0, 4816.0, 4814.0, 4808.0, 4812.0, 4810.0, 4812.0, 4788.0, 4812.0, 4808.0, 4792.0, 4812.0, 4814.0, 4818.0, 4808.0, 4812.0, 4808.0, 4804.0, 4810.0, 4808.0, 4786.0, 4810.0, 4790.0, 4808.0, 4792.0, 4792.0, 4790.0, 4808.0, 4814.0, 4804.0, 4812.0, 4814.0, 4810.0, 4816.0, 4792.0, 4814.0, 4808.0, 4812.0, 4812.0, 4810.0, 4792.0, 4814.0, 4812.0, 4804.0, 4806.0, 4810.0, 4790.0, 4812.0, 4792.0, 4812.0, 4792.0, 4810.0, 4812.0, 4810.0, 4808.0],
      "WindowWidth": [18584.0, 18624.0, 18626.0, 18588.0, 18588.0, 18570.0, 18572.0, 18596.0, 18586.0, 18624.0, 18624.0, 18592.0, 18624.0, 18592.0, 18588.0, 18622.0, 18586.0, 18592.0, 18588.0, 18620.0, 18624.0, 18588.0, 18588.0, 18572.0, 18580.0, 18580.0, 18594.0, 18586.0, 18572.0, 18608.0, 18624.0, 18624.0, 18620.0, 18620.0, 18588.0, 18594.0, 18576.0, 18578.0, 18586.0, 18592.0, 18624.0, 18622.0, 18618.0, 18618.0, 18622.0, 18584.0, 18592.0, 18580.0, 18590.0, 18586.0, 18586.0, 18590.0, 18622.0, 18626.0, 18620.0, 18618.0, 18620.0, 18588.0, 18584.0, 18586.0, 18586.0, 18558.0, 18578.0, 18610.0, 18622.0, 18624.0, 18620.0, 18626.0, 18622.0, 18622.0, 18570.0, 18574.0, 18558.0, 18582.0, 18616.0, 18624.0, 18620.0, 18626.0, 18620.0, 18624.0, 18592.0, 18624.0, 18576.0, 18588.0, 18582.0, 18620.0, 18622.0, 18618.0, 18626.0, 18618.0, 18620.0, 18620.0, 18620.0, 18578.0, 18618.0, 18586.0, 18622.0, 18588.0, 18622.0, 18620.0, 18578.0, 18620.0, 18618.0, 18618.0, 18626.0, 18626.0, 18630.0, 18624.0, 18626.0, 18560.0, 18544.0, 18578.0, 18586.0, 18622.0, 18622.0, 18618.0, 18628.0, 18626.0, 18588.0, 18620.0, 18586.0, 18580.0, 18622.0, 18592.0, 18592.0, 18618.0, 18620.0, 18586.0, 18588.0, 18590.0, 18574.0, 18620.0, 18620.0, 18624.0, 18616.0, 18620.0, 18614.0, 18622.0, 18622.0, 18618.0, 18622.0, 18620.0, 18590.0, 18614.0, 18620.0, 18578.0, 18620.0, 18614.0, 18618.0, 18612.0, 18618.0, 18622.0, 18616.0, 18620.0, 18624.0, 18582.0, 18620.0, 18590.0, 18618.0, 18578.0, 18556.0, 18582.0, 18622.0, 18618.0, 18620.0, 18620.0, 18620.0, 18618.0, 18620.0, 18584.0, 18620.0, 18624.0, 18616.0, 18616.0, 18622.0, 18574.0, 18616.0, 18624.0, 18620.0, 18622.0, 18618.0, 18588.0, 18618.0, 18580.0, 18618.0, 18580.0, 18616.0, 18618.0, 18620.0, 18622.0]
    },
    "slices": {}
  }
}