{
  "AcquisitionMatrixPE": 104,
  "AcquisitionNumber": 1,
  "AcquisitionTime": "11:08:33.150000",
  "BandwidthPerPixelPhaseEncode": 17.17,
  "BaseResolution": 104,
  "BodyPartExamined": "BRAIN",
  "CoilString": "HC1-7;NC1_2",
  "ConsistencyInfo": "N4_VE11C_LATEST_20160120",
  "ConversionSoftware": "dcm2niix",
  "ConversionSoftwareVersion": "v1.0.20190902",
  "DerivedVendorReportedEchoSpacing": 0.000560011,
  "DeviceSerialNumber": "167006",
  "DwellTime": 2.1e-06,
  "EchoTime": 0.037,
  "EchoTrainLength": 104,
  "EffectiveEchoSpacing": 0.000560011,
  "FlipAngle": 52,
  "HeudiconvVersion": "0.10.0",
  "ImageComments": "Unaliased_MB4_PE3_LB",
  "ImageOrientationPatientDICOM": [0.999669, 0.016573, 0.019663, -0.00366403, 0.848625, -0.528983],
  "ImageType": [
    "ORIGINAL",
    "PRIMARY",
    "P",
    "MB",
    "ND",
    "MOSAIC"
],
  "ImagingFrequency": 123.259,
  "InPlanePhaseEncodingDirectionDICOM": "COL",
  "InstitutionAddress": "Chemin_Queen-Mary_4565_Montreal_District_CA_H3W_1W5",
  "InstitutionName": "IUGM",
  "InstitutionalDepartmentName": "Department",
  "MRAcquisitionType": "2D",
  "MagneticFieldStrength": 3,
  "Manufacturer": "Siemens",
  "ManufacturersModelName": "Prisma_fit",
  "Modality": "MR",
  "MultibandAccelerationFactor": 4,
  "PartialFourier": 1,
  "PatientPosition": "HFS",
  "PercentPhaseFOV": 100,
  "PhaseEncodingDirection": "j",
  "PhaseEncodingSteps": 104,
  "PhaseResolution": 1,
  "PixelBandwidth": 2290,
  "ProcedureStepDescription": "memory_things",
  "ProtocolName": "func_task-things_run-3",
  "PulseSequenceDetails": "%CustomerSeq%_cmrr_mbep2d_bold",
  "ReceiveCoilActiveElements": "HC1-7;NC1,2",
  "ReceiveCoilName": "HeadNeck_64",
  "ReconMatrixPE": 104,
  "RepetitionTime": 1.49,
  "SAR": 0.042738,
  "ScanOptions": "FS",
  "ScanningSequence": "EP",
  "SequenceName": "epfid2d1_104",
  "SequenceVariant": "SK_SS",
  "SeriesDescription": "func_task-things_run-3",
  "SeriesNumber": 25,
  "ShimSetting": [621, -7174, -8868, 281, 20, -130, -33, -21],
  "SliceThickness": 2,
  "SliceTiming": [0, 0.785, 0.1, 0.8825, 0.1975, 0.98, 0.295, 1.08, 0.3925, 1.1775, 0.49, 1.275, 0.59, 1.3725, 0.6875, 0, 0.785, 0.1, 0.8825, 0.1975, 0.98, 0.295, 1.08, 0.3925, 1.1775, 0.49, 1.275, 0.59, 1.3725, 0.6875, 0, 0.785, 0.1, 0.8825, 0.1975, 0.98, 0.295, 1.08, 0.3925, 1.1775, 0.49, 1.275, 0.59, 1.3725, 0.6875, 0, 0.785, 0.1, 0.8825, 0.1975, 0.98, 0.295, 1.08, 0.3925, 1.1775, 0.49, 1.275, 0.59, 1.3725, 0.6875],
  "SoftwareVersions": "syngo_MR_E11",
  "SpacingBetweenSlices": 2,
  "StationName": "MRC35049",
  "TaskName": "things",
  "TotalReadoutTime": 0.0576811,
  "TxRefAmp": 257.471,
  "WipMemBlock": "c6076fe7-e88a-49e4-809f-a397bc9c5db7||Sequence: R016 ve11c/master r/e634e98; Dec 19 2017 11:00:25 by eja",
  "dcmmeta_affine": [
    [-1.9993386268615723, -0.007328069303184748, 0.050906702876091, 105.54785919189453],
    [-0.03314594551920891, 1.6972490549087524, -1.0574719905853271, -47.985511779785156],
    [0.03932606428861618, 1.0579659938812256, 1.69680917263031, -95.0604019165039],
    [0.0, 0.0, 0.0, 1.0]
],
  "dcmmeta_reorient_transform": [
    [0.0, -1.0, 0.0, 103.0],
    [1.0, 0.0, 0.0, 0.0],
    [0.0, 0.0, 1.0, 0.0],
    [0.0, 0.0, 0.0, 1.0]
],
  "dcmmeta_shape": [104, 104, 60, 190],
  "dcmmeta_slice_dim": 2,
  "dcmmeta_version": 0.6,
  "global": {
    "const": {
      "AcquisitionMatrix": [104, 0, 0, 104],
      "AngioFlag": "N",
      "BitsAllocated": 16,
      "BitsStored": 16,
      "BodyPartExamined": "BRAIN",
      "Columns": 832,
      "EchoNumbers": 1,
      "EchoTime": 37.0,
      "EchoTrainLength": 104,
      "FlipAngle": 52.0,
      "HighBit": 15,
      "ImageOrientationPatient": [0.99966929617788, 0.01657297350527, 0.01966303202488, -0.0036640345463, 0.84862453109573, -0.5289829676591],
      "ImagePositionPatient": [-829.88489940122, -756.69492502432, 384.69500141957],
      "ImageType": [
        "ORIGINAL",
        "PRIMARY",
        "P",
        "MB",
        "ND",
        "MOSAIC"
],
      "ImagedNucleus": "1H",
      "ImagingFrequency": 123.258897,
      "InPlanePhaseEncodingDirection": "COL",
      "LargestImagePixelValue": 4095,
      "MRAcquisitionType": "2D",
      "MagneticFieldStrength": 3.0,
      "Manufacturer": "SIEMENS",
      "ManufacturerModelName": "Prisma_fit",
      "Modality": "MR",
      "NumberOfAverages": 1.0,
      "NumberOfPhaseEncodingSteps": 104,
      "PercentPhaseFieldOfView": 100.0,
      "PercentSampling": 100.0,
      "PerformedProcedureStepStartTime": "102541.721000",
      "PhotometricInterpretation": "MONOCHROME2",
      "PixelBandwidth": 2290.0,
      "PixelRepresentation": 0,
      "PixelSpacing": [2.0, 2.0],
      "ProtocolName": "func_task-things_run-3",
      "RepetitionTime": 1490.0,
      "RescaleIntercept": -4096.0,
      "RescaleSlope": 2.0,
      "RescaleType": "US",
      "Rows": 832,
      "SAR": 0.04273797996185,
      "SamplesPerPixel": 1,
      "ScanOptions": "FS",
      "ScanningSequence": "EP",
      "SequenceName": "epfid2d1_104",
      "SequenceVariant": [
        "SK",
        "SS"
],
      "SeriesDescription": "func_task-things_run-3",
      "SeriesNumber": 25,
      "SeriesTime": "111003.746000",
      "SliceLocation": -52.591470696096,
      "SliceThickness": 2.0,
      "SmallestImagePixelValue": 0,
      "SoftwareVersions": "syngo MR E11",
      "SpacingBetweenSlices": 1.9999999969952,
      "SpecificCharacterSet": "ISO_IR 100",
      "StudyID": "1",
      "StudyTime": "102541.655000",
      "TransmitCoilName": "Body",
      "VariableFlipAngleFlag": "N",
      "WindowCenterWidthExplanation": "Algo1",
      "dBdt": 0.0},
    "slices": {}
  },
  "time": {
    "samples": {
      "AcquisitionNumber": [1, 2, 3, 4, 5, 6, 7, 8, 9, 10, 11, 12, 13, 14, 15, 16, 17, 18, 19, 20, 21, 22, 23, 24, 25, 26, 27, 28, 29, 30, 31, 32, 33, 34, 35, 36, 37, 38, 39, 40, 41, 42, 43, 44, 45, 46, 47, 48, 49, 50, 51, 52, 53, 54, 55, 56, 57, 58, 59, 60, 61, 62, 63, 64, 65, 66, 67, 68, 69, 70, 71, 72, 73, 74, 75, 76, 77, 78, 79, 80, 81, 82, 83, 84, 85, 86, 87, 88, 89, 90, 91, 92, 93, 94, 95, 96, 97, 98, 99, 100, 101, 102, 103, 104, 105, 106, 107, 108, 109, 110, 111, 112, 113, 114, 115, 116, 117, 118, 119, 120, 121, 122, 123, 124, 125, 126, 127, 128, 129, 130, 131, 132, 133, 134, 135, 136, 137, 138, 139, 140, 141, 142, 143, 144, 145, 146, 147, 148, 149, 150, 151, 152, 153, 154, 155, 156, 157, 158, 159, 160, 161, 162, 163, 164, 165, 166, 167, 168, 169, 170, 171, 172, 173, 174, 175, 176, 177, 178, 179, 180, 181, 182, 183, 184, 185, 186, 187, 188, 189, 190],
      "AcquisitionTime": ["110833.150000", "110834.640000", "110836.130000", "110837.620000", "110839.110000", "110840.600000", "110842.090000", "110843.580000", "110845.070000", "110846.560000", "110848.050000", "110849.540000", "110851.030000", "110852.520000", "110854.010000", "110855.500000", "110856.990000", "110858.480000", "110859.970000", "110901.460000", "110902.950000", "110904.440000", "110905.930000", "110907.420000", "110908.910000", "110910.400000", "110911.890000", "110913.380000", "110914.870000", "110916.360000", "110917.850000", "110919.340000", "110920.830000", "110922.320000", "110923.810000", "110925.300000", "110926.790000", "110928.280000", "110929.770000", "110931.260000", "110932.750000", "110934.240000", "110935.730000", "110937.220000", "110938.710000", "110940.200000", "110941.690000", "110943.180000", "110944.670000", "110946.160000", "110947.650000", "110949.140000", "110950.630000", "110952.120000", "110953.610000", "110955.100000", "110956.590000", "110958.080000", "110959.570000", "111001.060000", "111002.550000", "111004.040000", "111005.530000", "111007.020000", "111008.510000", "111010.000000", "111011.490000", "111012.980000", "111014.470000", "111015.960000", "111017.450000", "111018.940000", "111020.430000", "111021.920000", "111023.410000", "111024.900000", "111026.390000", "111027.880000", "111029.370000", "111030.860000", "111032.350000", "111033.840000", "111035.330000", "111036.820000", "111038.310000", "111039.800000", "111041.290000", "111042.780000", "111044.270000", "111045.760000", "111047.250000", "111048.740000", "111050.230000", "111051.720000", "111053.210000", "111054.700000", "111056.190000", "111057.680000", "111059.170000", "111100.660000", "111102.150000", "111103.640000", "111105.130000", "111106.620000", "111108.110000", "111109.600000", "111111.090000", "111112.580000", "111114.070000", "111115.560000", "111117.050000", "111118.540000", "111120.030000", "111121.520000", "111123.010000", "111124.500000", "111125.990000", "111127.480000", "111128.970000", "111130.460000", "111131.950000", "111133.440000", "111134.930000", "111136.420000", "111137.910000", "111139.400000", "111140.890000", "111142.380000", "111143.870000", "111145.360000", "111146.850000", "111148.340000", "111149.830000", "111151.320000", "111152.810000", "111154.300000", "111155.790000", "111157.280000", "111158.770000", "111200.260000", "111201.750000", "111203.240000", "111204.730000", "111206.220000", "111207.710000", "111209.200000", "111210.690000", "111212.180000", "111213.670000", "111215.160000", "111216.650000", "111218.140000", "111219.630000", "111221.120000", "111222.610000", "111224.100000", "111225.590000", "111227.080000", "111228.570000", "111230.060000", "111231.550000", "111233.040000", "111234.530000", "111236.020000", "111237.510000", "111239.000000", "111240.490000", "111241.980000", "111243.470000", "111244.960000", "111246.450000", "111247.940000", "111249.430000", "111250.920000", "111252.410000", "111253.900000", "111255.390000", "111256.880000", "111258.370000", "111259.860000", "111301.350000", "111302.840000", "111304.330000", "111305.820000", "111307.310000", "111308.800000", "111310.290000", "111311.780000", "111313.270000", "111314.760000"],
      "ContentTime": ["111003.748000", "111003.751000", "111003.754000", "111003.756000", "111003.759000", "111003.761000", "111003.775000", "111003.778000", "111003.780000", "111003.783000", "111003.786000", "111003.788000", "111003.791000", "111003.793000", "111003.796000", "111003.798000", "111003.801000", "111003.803000", "111003.806000", "111003.808000", "111003.811000", "111003.813000", "111003.816000", "111003.818000", "111003.821000", "111003.823000", "111003.826000", "111003.828000", "111003.831000", "111003.833000", "111003.836000", "111023.666000", "111023.668000", "111023.671000", "111023.673000", "111023.676000", "111023.678000", "111023.681000", "111023.683000", "111023.686000", "111023.688000", "111023.691000", "111023.693000", "111023.696000", "111023.698000", "111023.701000", "111023.703000", "111023.706000", "111023.708000", "111023.711000", "111023.713000", "111043.659000", "111043.662000", "111043.665000", "111043.667000", "111043.670000", "111043.672000", "111043.675000", "111043.677000", "111043.680000", "111043.682000", "111043.685000", "111043.687000", "111043.690000", "111043.692000", "111043.695000", "111043.697000", "111043.700000", "111043.702000", "111043.705000", "111043.707000", "111103.669000", "111103.671000", "111103.674000", "111103.676000", "111103.679000", "111103.681000", "111103.684000", "111103.686000", "111103.689000", "111103.691000", "111103.694000", "111103.697000", "111103.699000", "111103.702000", "111103.704000", "111103.707000", "111103.709000", "111103.711000", "111103.714000", "111103.717000", "111123.679000", "111123.682000", "111123.685000", "111123.687000", "111123.690000", "111123.692000", "111123.695000", "111123.697000", "111123.700000", "111123.703000", "111123.705000", "111123.708000", "111123.710000", "111123.713000", "111123.715000", "111123.718000", "111123.720000", "111123.723000", "111123.725000", "111123.728000", "111203.727000", "111203.730000", "111203.733000", "111203.735000", "111203.738000", "111203.740000", "111203.743000", "111203.745000", "111203.748000", "111203.750000", "111203.753000", "111203.755000", "111203.758000", "111203.760000", "111203.763000", "111203.765000", "111203.768000", "111203.770000", "111203.773000", "111203.775000", "111203.778000", "111203.780000", "111203.783000", "111203.785000", "111203.788000", "111203.790000", "111203.793000", "111203.795000", "111203.798000", "111243.695000", "111243.697000", "111243.700000", "111243.702000", "111243.705000", "111243.707000", "111243.710000", "111243.712000", "111243.715000", "111243.718000", "111243.720000", "111243.723000", "111243.725000", "111243.728000", "111243.730000", "111243.733000", "111243.735000", "111243.738000", "111243.740000", "111243.743000", "111243.745000", "111243.748000", "111243.750000", "111243.753000", "111243.755000", "111243.758000", "111243.760000", "111317.201000", "111317.203000", "111317.206000", "111317.208000", "111317.211000", "111317.214000", "111317.216000", "111317.219000", "111317.221000", "111317.224000", "111317.227000", "111317.229000", "111317.232000", "111317.235000", "111317.237000", "111317.240000", "111317.242000", "111317.245000", "111317.248000", "111317.250000", "111317.253000", "111317.256000", "111317.258000"],
      "InstanceCreationTime": ["111003.748000", "111003.751000", "111003.754000", "111003.756000", "111003.759000", "111003.761000", "111003.775000", "111003.778000", "111003.780000", "111003.783000", "111003.786000", "111003.788000", "111003.791000", "111003.793000", "111003.796000", "111003.798000", "111003.801000", "111003.803000", "111003.806000", "111003.808000", "111003.811000", "111003.813000", "111003.816000", "111003.818000", "111003.821000", "111003.823000", "111003.826000", "111003.828000", "111003.831000", "111003.833000", "111003.836000", "111023.666000", "111023.668000", "111023.671000", "111023.673000", "111023.676000", "111023.678000", "111023.681000", "111023.683000", "111023.686000", "111023.688000", "111023.691000", "111023.693000", "111023.696000", "111023.698000", "111023.701000", "111023.703000", "111023.706000", "111023.708000", "111023.711000", "111023.713000", "111043.659000", "111043.662000", "111043.665000", "111043.667000", "111043.670000", "111043.672000", "111043.675000", "111043.677000", "111043.680000", "111043.682000", "111043.685000", "111043.687000", "111043.690000", "111043.692000", "111043.695000", "111043.697000", "111043.700000", "111043.702000", "111043.705000", "111043.707000", "111103.669000", "111103.671000", "111103.674000", "111103.676000", "111103.679000", "111103.681000", "111103.684000", "111103.686000", "111103.689000", "111103.691000", "111103.694000", "111103.697000", "111103.699000", "111103.702000", "111103.704000", "111103.707000", "111103.709000", "111103.711000", "111103.714000", "111103.717000", "111123.679000", "111123.682000", "111123.685000", "111123.687000", "111123.690000", "111123.692000", "111123.695000", "111123.697000", "111123.700000", "111123.703000", "111123.705000", "111123.708000", "111123.710000", "111123.713000", "111123.715000", "111123.718000", "111123.720000", "111123.723000", "111123.725000", "111123.728000", "111203.727000", "111203.730000", "111203.733000", "111203.735000", "111203.738000", "111203.740000", "111203.743000", "111203.745000", "111203.748000", "111203.750000", "111203.753000", "111203.755000", "111203.758000", "111203.760000", "111203.763000", "111203.765000", "111203.768000", "111203.770000", "111203.773000", "111203.775000", "111203.778000", "111203.780000", "111203.783000", "111203.785000", "111203.788000", "111203.790000", "111203.793000", "111203.795000", "111203.798000", "111243.695000", "111243.697000", "111243.700000", "111243.702000", "111243.705000", "111243.707000", "111243.710000", "111243.712000", "111243.715000", "111243.718000", "111243.720000", "111243.723000", "111243.725000", "111243.728000", "111243.730000", "111243.733000", "111243.735000", "111243.738000", "111243.740000", "111243.743000", "111243.745000", "111243.748000", "111243.750000", "111243.753000", "111243.755000", "111243.758000", "111243.760000", "111317.201000", "111317.203000", "111317.206000", "111317.208000", "111317.211000", "111317.214000", "111317.216000", "111317.219000", "111317.221000", "111317.224000", "111317.227000", "111317.229000", "111317.232000", "111317.235000", "111317.237000", "111317.240000", "111317.242000", "111317.245000", "111317.248000", "111317.250000", "111317.253000", "111317.256000", "111317.258000"],
      "InstanceNumber": [1, 2, 3, 4, 5, 6, 7, 8, 9, 10, 11, 12, 13, 14, 15, 16, 17, 18, 19, 20, 21, 22, 23, 24, 25, 26, 27, 28, 29, 30, 31, 32, 33, 34, 35, 36, 37, 38, 39, 40, 41, 42, 43, 44, 45, 46, 47, 48, 49, 50, 51, 52, 53, 54, 55, 56, 57, 58, 59, 60, 61, 62, 63, 64, 65, 66, 67, 68, 69, 70, 71, 72, 73, 74, 75, 76, 77, 78, 79, 80, 81, 82, 83, 84, 85, 86, 87, 88, 89, 90, 91, 92, 93, 94, 95, 96, 97, 98, 99, 100, 101, 102, 103, 104, 105, 106, 107, 108, 109, 110, 111, 112, 113, 114, 115, 116, 117, 118, 119, 120, 121, 122, 123, 124, 125, 126, 127, 128, 129, 130, 131, 132, 133, 134, 135, 136, 137, 138, 139, 140, 141, 142, 143, 144, 145, 146, 147, 148, 149, 150, 151, 152, 153, 154, 155, 156, 157, 158, 159, 160, 161, 162, 163, 164, 165, 166, 167, 168, 169, 170, 171, 172, 173, 174, 175, 176, 177, 178, 179, 180, 181, 182, 183, 184, 185, 186, 187, 188, 189, 190],
      "WindowCenter": [4780.0, 4758.0, 4780.0, 4756.0, 4758.0, 4758.0, 4758.0, 4782.0, 4758.0, 4758.0, 4782.0, 4778.0, 4782.0, 4780.0, 4762.0, 4784.0, 4798.0, 4764.0, 4782.0, 4784.0, 4784.0, 4786.0, 4784.0, 4784.0, 4782.0, 4758.0, 4754.0, 4782.0, 4764.0, 4756.0, 4784.0, 4784.0, 4782.0, 4788.0, 4784.0, 4786.0, 4782.0, 4780.0, 4762.0, 4760.0, 4780.0, 4780.0, 4778.0, 4784.0, 4782.0, 4780.0, 4784.0, 4780.0, 4778.0, 4784.0, 4762.0, 4758.0, 4780.0, 4780.0, 4776.0, 4780.0, 4758.0, 4754.0, 4758.0, 4760.0, 4756.0, 4784.0, 4780.0, 4780.0, 4786.0, 4790.0, 4762.0, 4784.0, 4806.0, 4808.0, 4754.0, 4762.0, 4760.0, 4756.0, 4758.0, 4752.0, 4778.0, 4756.0, 4778.0, 4778.0, 4782.0, 4754.0, 4782.0, 4780.0, 4784.0, 4796.0, 4760.0, 4758.0, 4780.0, 4784.0, 4784.0, 4782.0, 4780.0, 4780.0, 4776.0, 4758.0, 4756.0, 4764.0, 4762.0, 4762.0, 4754.0, 4780.0, 4780.0, 4784.0, 4780.0, 4778.0, 4780.0, 4762.0, 4756.0, 4762.0, 4760.0, 4780.0, 4758.0, 4778.0, 4782.0, 4782.0, 4782.0, 4754.0, 4782.0, 4766.0, 4758.0, 4766.0, 4762.0, 4776.0, 4782.0, 4782.0, 4784.0, 4786.0, 4780.0, 4776.0, 4754.0, 4764.0, 4758.0, 4788.0, 4800.0, 4792.0, 4758.0, 4802.0, 4802.0, 4802.0, 4782.0, 4756.0, 4764.0, 4766.0, 4762.0, 4786.0, 4762.0, 4756.0, 4778.0, 4782.0, 4778.0, 4780.0, 4774.0, 4754.0, 4756.0, 4756.0, 4760.0, 4754.0, 4754.0, 4752.0, 4760.0, 4760.0, 4754.0, 4748.0, 4780.0, 4780.0, 4774.0, 4752.0, 4750.0, 4800.0, 4862.0, 4796.0, 4772.0, 4798.0, 4798.0, 4800.0, 4776.0, 4750.0, 4762.0, 4790.0, 4790.0, 4788.0, 4758.0, 4746.0, 4774.0, 4776.0, 4754.0, 4754.0, 4780.0, 4750.0],
      "WindowWidth": [18568.0, 18530.0, 18570.0, 18534.0, 18542.0, 18524.0, 18536.0, 18554.0, 18532.0, 18536.0, 18582.0, 18584.0, 18564.0, 18564.0, 18518.0, 18558.0, 18540.0, 18514.0, 18574.0, 18582.0, 18588.0, 18582.0, 18580.0, 18560.0, 18556.0, 18530.0, 18528.0, 18550.0, 18512.0, 18528.0, 18550.0, 18562.0, 18588.0, 18582.0, 18586.0, 18586.0, 18572.0, 18562.0, 18522.0, 18516.0, 18556.0, 18562.0, 18564.0, 18540.0, 18554.0, 18578.0, 18560.0, 18566.0, 18578.0, 18566.0, 18520.0, 18536.0, 18566.0, 18560.0, 18570.0, 18564.0, 18524.0, 18536.0, 18520.0, 18526.0, 18536.0, 18554.0, 18564.0, 18580.0, 18544.0, 18534.0, 18522.0, 18590.0, 18620.0, 18624.0, 18526.0, 18514.0, 18524.0, 18524.0, 18520.0, 18532.0, 18560.0, 18532.0, 18576.0, 18580.0, 18570.0, 18530.0, 18566.0, 18560.0, 18550.0, 18540.0, 18514.0, 18538.0, 18584.0, 18584.0, 18580.0, 18572.0, 18586.0, 18572.0, 18568.0, 18526.0, 18530.0, 18520.0, 18520.0, 18524.0, 18532.0, 18570.0, 18582.0, 18594.0, 18588.0, 18584.0, 18564.0, 18516.0, 18522.0, 18518.0, 18522.0, 18562.0, 18520.0, 18570.0, 18584.0, 18594.0, 18578.0, 18536.0, 18562.0, 18516.0, 18522.0, 18516.0, 18518.0, 18568.0, 18576.0, 18576.0, 18582.0, 18590.0, 18578.0, 18564.0, 18528.0, 18522.0, 18524.0, 18550.0, 18536.0, 18544.0, 18542.0, 18620.0, 18624.0, 18622.0, 18590.0, 18536.0, 18514.0, 18520.0, 18518.0, 18546.0, 18516.0, 18538.0, 18576.0, 18576.0, 18584.0, 18574.0, 18562.0, 18532.0, 18520.0, 18532.0, 18520.0, 18526.0, 18526.0, 18530.0, 18528.0, 18516.0, 18522.0, 18536.0, 18590.0, 18594.0, 18578.0, 18528.0, 18528.0, 18552.0, 18612.0, 18550.0, 18574.0, 18626.0, 18628.0, 18624.0, 18594.0, 18534.0, 18518.0, 18550.0, 18562.0, 18552.0, 18524.0, 18530.0, 18578.0, 18582.0, 18526.0, 18528.0, 18570.0, 18536.0]
    },
    "slices": {}
  }
}