{
  "AcquisitionMatrixPE": 104,
  "AcquisitionNumber": 1,
  "AcquisitionTime": "11:26:37.947500",
  "BandwidthPerPixelPhaseEncode": 17.17,
  "BaseResolution": 104,
  "BodyPartExamined": "BRAIN",
  "CoilString": "HC1-7;NC1_2",
  "ConsistencyInfo": "N4_VE11C_LATEST_20160120",
  "ConversionSoftware": "dcm2niix",
  "ConversionSoftwareVersion": "v1.0.20190902",
  "DerivedVendorReportedEchoSpacing": 0.000560011,
  "DeviceSerialNumber": "167006",
  "DwellTime": 2.1e-06,
  "EchoTime": 0.037,
  "EchoTrainLength": 104,
  "EffectiveEchoSpacing": 0.000560011,
  "FlipAngle": 52,
  "HeudiconvVersion": "0.10.0",
  "ImageComments": "Unaliased_MB4_PE3_LB",
  "ImageOrientationPatientDICOM": [0.999669, 0.016573, 0.019663, -0.00366403, 0.848625, -0.528983],
  "ImageType": [
    "ORIGINAL",
    "PRIMARY",
    "P",
    "MB",
    "ND",
    "MOSAIC"
],
  "ImagingFrequency": 123.259,
  "InPlanePhaseEncodingDirectionDICOM": "COL",
  "InstitutionAddress": "Chemin_Queen-Mary_4565_Montreal_District_CA_H3W_1W5",
  "InstitutionName": "IUGM",
  "InstitutionalDepartmentName": "Department",
  "MRAcquisitionType": "2D",
  "MagneticFieldStrength": 3,
  "Manufacturer": "Siemens",
  "ManufacturersModelName": "Prisma_fit",
  "Modality": "MR",
  "MultibandAccelerationFactor": 4,
  "PartialFourier": 1,
  "PatientPosition": "HFS",
  "PercentPhaseFOV": 100,
  "PhaseEncodingDirection": "j",
  "PhaseEncodingSteps": 104,
  "PhaseResolution": 1,
  "PixelBandwidth": 2290,
  "ProcedureStepDescription": "memory_things",
  "ProtocolName": "func_task-things_run-6",
  "PulseSequenceDetails": "%CustomerSeq%_cmrr_mbep2d_bold",
  "ReceiveCoilActiveElements": "HC1-7;NC1,2",
  "ReceiveCoilName": "HeadNeck_64",
  "ReconMatrixPE": 104,
  "RepetitionTime": 1.49,
  "SAR": 0.042738,
  "ScanOptions": "FS",
  "ScanningSequence": "EP",
  "SequenceName": "epfid2d1_104",
  "SequenceVariant": "SK_SS",
  "SeriesDescription": "func_task-things_run-6",
  "SeriesNumber": 34,
  "ShimSetting": [621, -7174, -8868, 281, 20, -130, -33, -21],
  "SliceThickness": 2,
  "SliceTiming": [0, 0.785, 0.0975, 0.8825, 0.195, 0.98, 0.295, 1.0775, 0.3925, 1.175, 0.49, 1.275, 0.5875, 1.3725, 0.685, 0, 0.785, 0.0975, 0.8825, 0.195, 0.98, 0.295, 1.0775, 0.3925, 1.175, 0.49, 1.275, 0.5875, 1.3725, 0.685, 0, 0.785, 0.0975, 0.8825, 0.195, 0.98, 0.295, 1.0775, 0.3925, 1.175, 0.49, 1.275, 0.5875, 1.3725, 0.685, 0, 0.785, 0.0975, 0.8825, 0.195, 0.98, 0.295, 1.0775, 0.3925, 1.175, 0.49, 1.275, 0.5875, 1.3725, 0.685],
  "SoftwareVersions": "syngo_MR_E11",
  "SpacingBetweenSlices": 2,
  "StationName": "MRC35049",
  "TaskName": "things",
  "TotalReadoutTime": 0.0576811,
  "TxRefAmp": 257.471,
  "WipMemBlock": "810a29c6-05c2-4109-a6d3-c140e373e2ec||Sequence: R016 ve11c/master r/e634e98; Dec 19 2017 11:00:25 by eja",
  "dcmmeta_affine": [
    [-1.9993386268615723, -0.007328069303184748, 0.050906702876091, 105.54785919189453],
    [-0.03314594551920891, 1.6972490549087524, -1.0574719905853271, -47.985511779785156],
    [0.03932606428861618, 1.0579659938812256, 1.69680917263031, -95.0604019165039],
    [0.0, 0.0, 0.0, 1.0]
],
  "dcmmeta_reorient_transform": [
    [0.0, -1.0, 0.0, 103.0],
    [1.0, 0.0, 0.0, 0.0],
    [0.0, 0.0, 1.0, 0.0],
    [0.0, 0.0, 0.0, 1.0]
],
  "dcmmeta_shape": [104, 104, 60, 190],
  "dcmmeta_slice_dim": 2,
  "dcmmeta_version": 0.6,
  "global": {
    "const": {
      "AcquisitionMatrix": [104, 0, 0, 104],
      "AngioFlag": "N",
      "BitsAllocated": 16,
      "BitsStored": 16,
      "BodyPartExamined": "BRAIN",
      "Columns": 832,
      "EchoNumbers": 1,
      "EchoTime": 37.0,
      "EchoTrainLength": 104,
      "FlipAngle": 52.0,
      "HighBit": 15,
      "ImageOrientationPatient": [0.99966929617788, 0.01657297350527, 0.01966303202488, -0.0036640345463, 0.84862453109573, -0.5289829676591],
      "ImagePositionPatient": [-829.88489940122, -756.69492502432, 384.69500141957],
      "ImageType": [
        "ORIGINAL",
        "PRIMARY",
        "P",
        "MB",
        "ND",
        "MOSAIC"
],
      "ImagedNucleus": "1H",
      "ImagingFrequency": 123.258905,
      "InPlanePhaseEncodingDirection": "COL",
      "LargestImagePixelValue": 4095,
      "MRAcquisitionType": "2D",
      "MagneticFieldStrength": 3.0,
      "Manufacturer": "SIEMENS",
      "ManufacturerModelName": "Prisma_fit",
      "Modality": "MR",
      "NumberOfAverages": 1.0,
      "NumberOfPhaseEncodingSteps": 104,
      "PercentPhaseFieldOfView": 100.0,
      "PercentSampling": 100.0,
      "PerformedProcedureStepStartTime": "102541.721000",
      "PhotometricInterpretation": "MONOCHROME2",
      "PixelBandwidth": 2290.0,
      "PixelRepresentation": 0,
      "PixelSpacing": [2.0, 2.0],
      "ProtocolName": "func_task-things_run-6",
      "RepetitionTime": 1490.0,
      "RescaleIntercept": -4096.0,
      "RescaleSlope": 2.0,
      "RescaleType": "US",
      "Rows": 832,
      "SAR": 0.04273797996185,
      "SamplesPerPixel": 1,
      "ScanOptions": "FS",
      "ScanningSequence": "EP",
      "SequenceName": "epfid2d1_104",
      "SequenceVariant": [
        "SK",
        "SS"
],
      "SeriesDescription": "func_task-things_run-6",
      "SeriesNumber": 34,
      "SeriesTime": "112743.660000",
      "SliceLocation": -52.591470696096,
      "SliceThickness": 2.0,
      "SmallestImagePixelValue": 0,
      "SoftwareVersions": "syngo MR E11",
      "SpacingBetweenSlices": 1.9999999969952,
      "SpecificCharacterSet": "ISO_IR 100",
      "StudyID": "1",
      "StudyTime": "102541.655000",
      "TransmitCoilName": "Body",
      "VariableFlipAngleFlag": "N",
      "WindowCenterWidthExplanation": "Algo1",
      "dBdt": 0.0},
    "slices": {}
  },
  "time": {
    "samples": {
      "AcquisitionNumber": [1, 2, 3, 4, 5, 6, 7, 8, 9, 10, 11, 12, 13, 14, 15, 16, 17, 18, 19, 20, 21, 22, 23, 24, 25, 26, 27, 28, 29, 30, 31, 32, 33, 34, 35, 36, 37, 38, 39, 40, 41, 42, 43, 44, 45, 46, 47, 48, 49, 50, 51, 52, 53, 54, 55, 56, 57, 58, 59, 60, 61, 62, 63, 64, 65, 66, 67, 68, 69, 70, 71, 72, 73, 74, 75, 76, 77, 78, 79, 80, 81, 82, 83, 84, 85, 86, 87, 88, 89, 90, 91, 92, 93, 94, 95, 96, 97, 98, 99, 100, 101, 102, 103, 104, 105, 106, 107, 108, 109, 110, 111, 112, 113, 114, 115, 116, 117, 118, 119, 120, 121, 122, 123, 124, 125, 126, 127, 128, 129, 130, 131, 132, 133, 134, 135, 136, 137, 138, 139, 140, 141, 142, 143, 144, 145, 146, 147, 148, 149, 150, 151, 152, 153, 154, 155, 156, 157, 158, 159, 160, 161, 162, 163, 164, 165, 166, 167, 168, 169, 170, 171, 172, 173, 174, 175, 176, 177, 178, 179, 180, 181, 182, 183, 184, 185, 186, 187, 188, 189, 190],
      "AcquisitionTime": ["112637.947500", "112639.437500", "112640.927500", "112642.417500", "112643.907500", "112645.397500", "112646.887500", "112648.377500", "112649.867500", "112651.357500", "112652.847500", "112654.337500", "112655.827500", "112657.317500", "112658.807500", "112700.297500", "112701.787500", "112703.277500", "112704.767500", "112706.257500", "112707.747500", "112709.237500", "112710.727500", "112712.217500", "112713.707500", "112715.197500", "112716.687500", "112718.177500", "112719.667500", "112721.157500", "112722.647500", "112724.137500", "112725.627500", "112727.117500", "112728.607500", "112730.097500", "112731.587500", "112733.077500", "112734.567500", "112736.057500", "112737.547500", "112739.037500", "112740.527500", "112742.017500", "112743.507500", "112744.997500", "112746.487500", "112747.977500", "112749.467500", "112750.957500", "112752.447500", "112753.937500", "112755.427500", "112756.917500", "112758.407500", "112759.897500", "112801.387500", "112802.877500", "112804.367500", "112805.857500", "112807.347500", "112808.837500", "112810.327500", "112811.817500", "112813.307500", "112814.797500", "112816.287500", "112817.777500", "112819.267500", "112820.757500", "112822.247500", "112823.737500", "112825.227500", "112826.717500", "112828.207500", "112829.697500", "112831.187500", "112832.677500", "112834.167500", "112835.657500", "112837.147500", "112838.637500", "112840.127500", "112841.617500", "112843.107500", "112844.597500", "112846.087500", "112847.577500", "112849.067500", "112850.557500", "112852.047500", "112853.537500", "112855.027500", "112856.517500", "112858.007500", "112859.497500", "112900.987500", "112902.477500", "112903.967500", "112905.457500", "112906.947500", "112908.437500", "112909.927500", "112911.417500", "112912.907500", "112914.397500", "112915.887500", "112917.377500", "112918.867500", "112920.357500", "112921.847500", "112923.337500", "112924.827500", "112926.317500", "112927.807500", "112929.297500", "112930.787500", "112932.277500", "112933.767500", "112935.257500", "112936.747500", "112938.237500", "112939.727500", "112941.217500", "112942.707500", "112944.197500", "112945.687500", "112947.177500", "112948.667500", "112950.157500", "112951.647500", "112953.137500", "112954.627500", "112956.117500", "112957.607500", "112959.097500", "113000.587500", "113002.077500", "113003.567500", "113005.057500", "113006.547500", "113008.037500", "113009.527500", "113011.017500", "113012.507500", "113013.997500", "113015.487500", "113016.977500", "113018.467500", "113019.957500", "113021.447500", "113022.937500", "113024.427500", "113025.917500", "113027.407500", "113028.897500", "113030.387500", "113031.877500", "113033.367500", "113034.857500", "113036.347500", "113037.837500", "113039.327500", "113040.817500", "113042.307500", "113043.797500", "113045.287500", "113046.777500", "113048.267500", "113049.757500", "113051.247500", "113052.737500", "113054.227500", "113055.717500", "113057.207500", "113058.697500", "113100.187500", "113101.677500", "113103.167500", "113104.657500", "113106.147500", "113107.637500", "113109.127500", "113110.617500", "113112.107500", "113113.597500", "113115.087500", "113116.577500", "113118.067500", "113119.557500"],
      "ContentTime": ["112743.662000", "112743.665000", "112743.667000", "112743.670000", "112743.672000", "112743.675000", "112743.677000", "112743.680000", "112743.682000", "112803.666000", "112803.668000", "112803.671000", "112803.673000", "112803.683000", "112803.685000", "112803.688000", "112803.690000", "112803.693000", "112803.695000", "112803.698000", "112803.700000", "112803.703000", "112803.705000", "112803.707000", "112803.710000", "112803.712000", "112803.715000", "112803.717000", "112803.720000", "112823.682000", "112823.684000", "112823.687000", "112823.689000", "112823.692000", "112823.694000", "112823.697000", "112823.699000", "112823.702000", "112823.704000", "112823.707000", "112823.709000", "112823.712000", "112823.714000", "112823.717000", "112823.719000", "112823.721000", "112823.724000", "112823.727000", "112823.729000", "112843.669000", "112843.672000", "112843.674000", "112843.677000", "112843.679000", "112843.682000", "112843.684000", "112843.687000", "112843.689000", "112843.692000", "112843.694000", "112843.697000", "112843.699000", "112843.702000", "112843.704000", "112843.707000", "112843.709000", "112843.712000", "112843.714000", "112843.717000", "112903.674000", "112903.677000", "112903.679000", "112903.682000", "112903.684000", "112903.687000", "112903.689000", "112903.692000", "112903.694000", "112903.697000", "112903.699000", "112903.702000", "112903.704000", "112903.707000", "112903.709000", "112903.712000", "112903.714000", "112903.717000", "112903.719000", "112903.721000", "112923.680000", "112923.682000", "112923.685000", "112923.687000", "112923.690000", "112923.692000", "112923.695000", "112923.697000", "112923.700000", "112923.703000", "112923.705000", "112923.707000", "112923.710000", "112923.719000", "112923.722000", "112923.724000", "112923.727000", "112923.729000", "112923.732000", "112923.734000", "112923.737000", "113003.693000", "113003.696000", "113003.698000", "113003.701000", "113003.703000", "113003.706000", "113003.708000", "113003.711000", "113003.714000", "113003.716000", "113003.719000", "113003.721000", "113003.724000", "113003.727000", "113003.729000", "113003.742000", "113003.744000", "113003.747000", "113003.749000", "113003.752000", "113003.754000", "113003.757000", "113003.759000", "113003.762000", "113003.764000", "113003.767000", "113003.769000", "113043.722000", "113043.725000", "113043.728000", "113043.730000", "113043.733000", "113043.735000", "113043.738000", "113043.740000", "113043.743000", "113043.745000", "113043.748000", "113043.750000", "113043.753000", "113043.756000", "113043.758000", "113043.761000", "113043.763000", "113043.766000", "113043.768000", "113043.771000", "113043.773000", "113043.776000", "113043.778000", "113043.781000", "113043.783000", "113043.786000", "113043.788000", "113122.720000", "113122.723000", "113122.726000", "113122.728000", "113122.731000", "113122.733000", "113122.736000", "113122.738000", "113122.741000", "113122.743000", "113122.746000", "113122.748000", "113122.751000", "113122.753000", "113122.756000", "113122.758000", "113122.761000", "113122.763000", "113122.766000", "113122.768000", "113122.771000", "113122.773000", "113122.776000", "113122.779000", "113122.781000", "113122.784000"],
      "InstanceCreationTime": ["112743.662000", "112743.665000", "112743.667000", "112743.670000", "112743.672000", "112743.675000", "112743.677000", "112743.680000", "112743.682000", "112803.666000", "112803.668000", "112803.671000", "112803.673000", "112803.683000", "112803.685000", "112803.688000", "112803.690000", "112803.693000", "112803.695000", "112803.698000", "112803.700000", "112803.703000", "112803.705000", "112803.707000", "112803.710000", "112803.712000", "112803.715000", "112803.717000", "112803.720000", "112823.682000", "112823.684000", "112823.687000", "112823.689000", "112823.692000", "112823.694000", "112823.697000", "112823.699000", "112823.702000", "112823.704000", "112823.707000", "112823.709000", "112823.712000", "112823.714000", "112823.717000", "112823.719000", "112823.721000", "112823.724000", "112823.727000", "112823.729000", "112843.669000", "112843.672000", "112843.674000", "112843.677000", "112843.679000", "112843.682000", "112843.684000", "112843.687000", "112843.689000", "112843.692000", "112843.694000", "112843.697000", "112843.699000", "112843.702000", "112843.704000", "112843.707000", "112843.709000", "112843.712000", "112843.714000", "112843.717000", "112903.674000", "112903.677000", "112903.679000", "112903.682000", "112903.684000", "112903.687000", "112903.689000", "112903.692000", "112903.694000", "112903.697000", "112903.699000", "112903.702000", "112903.704000", "112903.707000", "112903.709000", "112903.712000", "112903.714000", "112903.717000", "112903.719000", "112903.721000", "112923.680000", "112923.682000", "112923.685000", "112923.687000", "112923.690000", "112923.692000", "112923.695000", "112923.697000", "112923.700000", "112923.703000", "112923.705000", "112923.707000", "112923.710000", "112923.719000", "112923.722000", "112923.724000", "112923.727000", "112923.729000", "112923.732000", "112923.734000", "112923.737000", "113003.693000", "113003.696000", "113003.698000", "113003.701000", "113003.703000", "113003.706000", "113003.708000", "113003.711000", "113003.714000", "113003.716000", "113003.719000", "113003.721000", "113003.724000", "113003.727000", "113003.729000", "113003.742000", "113003.744000", "113003.747000", "113003.749000", "113003.752000", "113003.754000", "113003.757000", "113003.759000", "113003.762000", "113003.764000", "113003.767000", "113003.769000", "113043.722000", "113043.725000", "113043.728000", "113043.730000", "113043.733000", "113043.735000", "113043.738000", "113043.740000", "113043.743000", "113043.745000", "113043.748000", "113043.750000", "113043.753000", "113043.756000", "113043.758000", "113043.761000", "113043.763000", "113043.766000", "113043.768000", "113043.771000", "113043.773000", "113043.776000", "113043.778000", "113043.781000", "113043.783000", "113043.786000", "113043.788000", "113122.720000", "113122.723000", "113122.726000", "113122.728000", "113122.731000", "113122.733000", "113122.736000", "113122.738000", "113122.741000", "113122.743000", "113122.746000", "113122.748000", "113122.751000", "113122.753000", "113122.756000", "113122.758000", "113122.761000", "113122.763000", "113122.766000", "113122.768000", "113122.771000", "113122.773000", "113122.776000", "113122.779000", "113122.781000", "113122.784000"],
      "InstanceNumber": [1, 2, 3, 4, 5, 6, 7, 8, 9, 10, 11, 12, 13, 14, 15, 16, 17, 18, 19, 20, 21, 22, 23, 24, 25, 26, 27, 28, 29, 30, 31, 32, 33, 34, 35, 36, 37, 38, 39, 40, 41, 42, 43, 44, 45, 46, 47, 48, 49, 50, 51, 52, 53, 54, 55, 56, 57, 58, 59, 60, 61, 62, 63, 64, 65, 66, 67, 68, 69, 70, 71, 72, 73, 74, 75, 76, 77, 78, 79, 80, 81, 82, 83, 84, 85, 86, 87, 88, 89, 90, 91, 92, 93, 94, 95, 96, 97, 98, 99, 100, 101, 102, 103, 104, 105, 106, 107, 108, 109, 110, 111, 112, 113, 114, 115, 116, 117, 118, 119, 120, 121, 122, 123, 124, 125, 126, 127, 128, 129, 130, 131, 132, 133, 134, 135, 136, 137, 138, 139, 140, 141, 142, 143, 144, 145, 146, 147, 148, 149, 150, 151, 152, 153, 154, 155, 156, 157, 158, 159, 160, 161, 162, 163, 164, 165, 166, 167, 168, 169, 170, 171, 172, 173, 174, 175, 176, 177, 178, 179, 180, 181, 182, 183, 184, 185, 186, 187, 188, 189, 190],
      "WindowCenter": [4824.0, 4800.0, 4792.0, 4788.0, 4792.0, 4834.0, 4862.0, 4854.0, 4824.0, 4792.0, 4790.0, 4788.0, 4786.0, 4788.0, 4828.0, 4862.0, 4858.0, 4834.0, 4796.0, 4800.0, 4800.0, 4792.0, 4790.0, 4792.0, 4788.0, 4790.0, 4826.0, 4828.0, 4832.0, 4864.0, 4862.0, 4824.0, 4790.0, 4762.0, 4784.0, 4784.0, 4788.0, 4794.0, 4800.0, 4824.0, 4862.0, 4862.0, 4834.0, 4794.0, 4788.0, 4788.0, 4790.0, 4762.0, 4760.0, 4830.0, 4864.0, 4860.0, 4826.0, 4786.0, 4782.0, 4786.0, 4786.0, 4784.0, 4832.0, 4862.0, 4832.0, 4802.0, 4832.0, 4792.0, 4760.0, 4786.0, 4782.0, 4788.0, 4800.0, 4802.0, 4822.0, 4826.0, 4802.0, 4858.0, 4860.0, 4796.0, 4760.0, 4786.0, 4758.0, 4790.0, 4794.0, 4796.0, 4830.0, 4830.0, 4824.0, 4798.0, 4788.0, 4794.0, 4834.0, 4856.0, 4824.0, 4788.0, 4784.0, 4788.0, 4828.0, 4834.0, 4824.0, 4790.0, 4792.0, 4788.0, 4788.0, 4792.0, 4798.0, 4858.0, 4862.0, 4832.0, 4790.0, 4790.0, 4762.0, 4760.0, 4790.0, 4788.0, 4798.0, 4822.0, 4802.0, 4862.0, 4862.0, 4830.0, 4792.0, 4760.0, 4786.0, 4800.0, 4802.0, 4796.0, 4790.0, 4768.0, 4790.0, 4790.0, 4828.0, 4830.0, 4800.0, 4798.0, 4824.0, 4834.0, 4828.0, 4796.0, 4758.0, 4786.0, 4764.0, 4764.0, 4822.0, 4828.0, 4838.0, 4836.0, 4828.0, 4792.0, 4790.0, 4764.0, 4762.0, 4760.0, 4826.0, 4860.0, 4862.0, 4826.0, 4790.0, 4764.0, 4762.0, 4764.0, 4798.0, 4802.0, 4804.0, 4796.0, 4828.0, 4802.0, 4796.0, 4794.0, 4764.0, 4794.0, 4792.0, 4794.0, 4794.0, 4832.0, 4830.0, 4826.0, 4800.0, 4766.0, 4790.0, 4760.0, 4792.0, 4798.0, 4796.0, 4804.0, 4800.0, 4796.0, 4824.0, 4888.0, 4864.0, 4802.0, 4764.0, 4790.0],
      "WindowWidth": [18564.0, 18534.0, 18536.0, 18536.0, 18542.0, 18574.0, 18612.0, 18604.0, 18564.0, 18538.0, 18558.0, 18566.0, 18556.0, 18544.0, 18582.0, 18624.0, 18618.0, 18584.0, 18544.0, 18540.0, 18534.0, 18534.0, 18548.0, 18558.0, 18558.0, 18542.0, 18572.0, 18580.0, 18582.0, 18630.0, 18620.0, 18572.0, 18540.0, 18530.0, 18562.0, 18552.0, 18542.0, 18544.0, 18552.0, 18574.0, 18622.0, 18626.0, 18582.0, 18544.0, 18546.0, 18536.0, 18548.0, 18520.0, 18516.0, 18576.0, 18620.0, 18616.0, 18574.0, 18542.0, 18550.0, 18558.0, 18556.0, 18546.0, 18578.0, 18624.0, 18584.0, 18550.0, 18580.0, 18542.0, 18516.0, 18540.0, 18548.0, 18536.0, 18544.0, 18548.0, 18576.0, 18576.0, 18546.0, 18616.0, 18612.0, 18546.0, 18520.0, 18544.0, 18520.0, 18540.0, 18546.0, 18550.0, 18582.0, 18580.0, 18576.0, 18542.0, 18540.0, 18546.0, 18582.0, 18604.0, 18570.0, 18540.0, 18554.0, 18544.0, 18568.0, 18572.0, 18572.0, 18538.0, 18546.0, 18544.0, 18542.0, 18546.0, 18550.0, 18614.0, 18622.0, 18580.0, 18540.0, 18538.0, 18522.0, 18514.0, 18540.0, 18534.0, 18542.0, 18578.0, 18554.0, 18618.0, 18618.0, 18578.0, 18542.0, 18524.0, 18540.0, 18538.0, 18536.0, 18540.0, 18544.0, 18514.0, 18546.0, 18548.0, 18582.0, 18584.0, 18542.0, 18546.0, 18582.0, 18576.0, 18572.0, 18540.0, 18520.0, 18552.0, 18526.0, 18514.0, 18578.0, 18578.0, 18590.0, 18588.0, 18578.0, 18544.0, 18548.0, 18518.0, 18522.0, 18516.0, 18574.0, 18618.0, 18616.0, 18574.0, 18548.0, 18516.0, 18520.0, 18516.0, 18542.0, 18546.0, 18542.0, 18546.0, 18578.0, 18548.0, 18542.0, 18544.0, 18516.0, 18540.0, 18548.0, 18550.0, 18552.0, 18576.0, 18578.0, 18576.0, 18548.0, 18514.0, 18540.0, 18518.0, 18550.0, 18544.0, 18546.0, 18548.0, 18544.0, 18548.0, 18580.0, 18660.0, 18610.0, 18532.0, 18514.0, 18570.0]
    },
    "slices": {}
  }
}