{
  "AcquisitionMatrixPE": 104,
  "AcquisitionNumber": 1,
  "AcquisitionTime": "10:56:34.830000",
  "BandwidthPerPixelPhaseEncode": 17.17,
  "BaseResolution": 104,
  "BodyPartExamined": "BRAIN",
  "CoilString": "HC1-7;NC1_2",
  "ConsistencyInfo": "N4_VE11C_LATEST_20160120",
  "ConversionSoftware": "dcm2niix",
  "ConversionSoftwareVersion": "v1.0.20190902",
  "DerivedVendorReportedEchoSpacing": 0.000560011,
  "DeviceSerialNumber": "167006",
  "DwellTime": 2.1e-06,
  "EchoTime": 0.037,
  "EchoTrainLength": 104,
  "EffectiveEchoSpacing": 0.000560011,
  "FlipAngle": 52,
  "HeudiconvVersion": "0.10.0",
  "ImageComments": "Unaliased_MB4_PE3_LB",
  "ImageOrientationPatientDICOM": [0.999669, 0.016573, 0.019663, -0.00366403, 0.848625, -0.528983],
  "ImageType": [
    "ORIGINAL",
    "PRIMARY",
    "P",
    "MB",
    "ND",
    "MOSAIC"
],
  "ImagingFrequency": 123.259,
  "InPlanePhaseEncodingDirectionDICOM": "COL",
  "InstitutionAddress": "Chemin_Queen-Mary_4565_Montreal_District_CA_H3W_1W5",
  "InstitutionName": "IUGM",
  "InstitutionalDepartmentName": "Department",
  "MRAcquisitionType": "2D",
  "MagneticFieldStrength": 3,
  "Manufacturer": "Siemens",
  "ManufacturersModelName": "Prisma_fit",
  "Modality": "MR",
  "MultibandAccelerationFactor": 4,
  "PartialFourier": 1,
  "PatientPosition": "HFS",
  "PercentPhaseFOV": 100,
  "PhaseEncodingDirection": "j",
  "PhaseEncodingSteps": 104,
  "PhaseResolution": 1,
  "PixelBandwidth": 2290,
  "ProcedureStepDescription": "memory_things",
  "ProtocolName": "func_task-things_run-1",
  "PulseSequenceDetails": "%CustomerSeq%_cmrr_mbep2d_bold",
  "ReceiveCoilActiveElements": "HC1-7;NC1,2",
  "ReceiveCoilName": "HeadNeck_64",
  "ReconMatrixPE": 104,
  "RepetitionTime": 1.49,
  "SAR": 0.042738,
  "ScanOptions": "FS",
  "ScanningSequence": "EP",
  "SequenceName": "epfid2d1_104",
  "SequenceVariant": "SK_SS",
  "SeriesDescription": "func_task-things_run-1",
  "SeriesNumber": 19,
  "ShimSetting": [621, -7174, -8868, 281, 20, -130, -33, -21],
  "SliceThickness": 2,
  "SliceTiming": [0, 0.7825, 0.0975, 0.88, 0.195, 0.98, 0.2925, 1.0775, 0.39, 1.175, 0.49, 1.2725, 0.5875, 1.37, 0.685, 0, 0.7825, 0.0975, 0.88, 0.195, 0.98, 0.2925, 1.0775, 0.39, 1.175, 0.49, 1.2725, 0.5875, 1.37, 0.685, 0, 0.7825, 0.0975, 0.88, 0.195, 0.98, 0.2925, 1.0775, 0.39, 1.175, 0.49, 1.2725, 0.5875, 1.37, 0.685, 0, 0.7825, 0.0975, 0.88, 0.195, 0.98, 0.2925, 1.0775, 0.39, 1.175, 0.49, 1.2725, 0.5875, 1.37, 0.685],
  "SoftwareVersions": "syngo_MR_E11",
  "SpacingBetweenSlices": 2,
  "StationName": "MRC35049",
  "TaskName": "things",
  "TotalReadoutTime": 0.0576811,
  "TxRefAmp": 257.471,
  "WipMemBlock": "30465e48-f9a1-458c-9ece-ec1db422a0e4||Sequence: R016 ve11c/master r/e634e98; Dec 19 2017 11:00:25 by eja",
  "dcmmeta_affine": [
    [-1.9993386268615723, -0.007328069303184748, 0.050906702876091, 105.54785919189453],
    [-0.03314594551920891, 1.6972490549087524, -1.0574719905853271, -47.985511779785156],
    [0.03932606428861618, 1.0579659938812256, 1.69680917263031, -95.0604019165039],
    [0.0, 0.0, 0.0, 1.0]
],
  "dcmmeta_reorient_transform": [
    [0.0, -1.0, 0.0, 103.0],
    [1.0, 0.0, 0.0, 0.0],
    [0.0, 0.0, 1.0, 0.0],
    [0.0, 0.0, 0.0, 1.0]
],
  "dcmmeta_shape": [104, 104, 60, 190],
  "dcmmeta_slice_dim": 2,
  "dcmmeta_version": 0.6,
  "global": {
    "const": {
      "AcquisitionMatrix": [104, 0, 0, 104],
      "AngioFlag": "N",
      "BitsAllocated": 16,
      "BitsStored": 16,
      "BodyPartExamined": "BRAIN",
      "Columns": 832,
      "EchoNumbers": 1,
      "EchoTime": 37.0,
      "EchoTrainLength": 104,
      "FlipAngle": 52.0,
      "HighBit": 15,
      "ImageOrientationPatient": [0.99966929617788, 0.01657297350527, 0.01966303202488, -0.0036640345463, 0.84862453109573, -0.5289829676591],
      "ImagePositionPatient": [-829.88489940122, -756.69492502432, 384.69500141957],
      "ImageType": [
        "ORIGINAL",
        "PRIMARY",
        "P",
        "MB",
        "ND",
        "MOSAIC"
],
      "ImagedNucleus": "1H",
      "ImagingFrequency": 123.258889,
      "InPlanePhaseEncodingDirection": "COL",
      "LargestImagePixelValue": 4095,
      "MRAcquisitionType": "2D",
      "MagneticFieldStrength": 3.0,
      "Manufacturer": "SIEMENS",
      "ManufacturerModelName": "Prisma_fit",
      "Modality": "MR",
      "NumberOfAverages": 1.0,
      "NumberOfPhaseEncodingSteps": 104,
      "PercentPhaseFieldOfView": 100.0,
      "PercentSampling": 100.0,
      "PerformedProcedureStepStartTime": "102541.721000",
      "PhotometricInterpretation": "MONOCHROME2",
      "PixelBandwidth": 2290.0,
      "PixelRepresentation": 0,
      "PixelSpacing": [2.0, 2.0],
      "ProtocolName": "func_task-things_run-1",
      "RepetitionTime": 1490.0,
      "RescaleIntercept": -4096.0,
      "RescaleSlope": 2.0,
      "RescaleType": "US",
      "Rows": 832,
      "SAR": 0.04273797996185,
      "SamplesPerPixel": 1,
      "ScanOptions": "FS",
      "ScanningSequence": "EP",
      "SequenceName": "epfid2d1_104",
      "SequenceVariant": [
        "SK",
        "SS"
],
      "SeriesDescription": "func_task-things_run-1",
      "SeriesNumber": 19,
      "SeriesTime": "105749.710000",
      "SliceLocation": -52.591470696096,
      "SliceThickness": 2.0,
      "SmallestImagePixelValue": 0,
      "SoftwareVersions": "syngo MR E11",
      "SpacingBetweenSlices": 1.9999999969952,
      "SpecificCharacterSet": "ISO_IR 100",
      "StudyID": "1",
      "StudyTime": "102541.655000",
      "TransmitCoilName": "Body",
      "VariableFlipAngleFlag": "N",
      "WindowCenterWidthExplanation": "Algo1",
      "dBdt": 0.0},
    "slices": {}
  },
  "time": {
    "samples": {
      "AcquisitionNumber": [1, 2, 3, 4, 5, 6, 7, 8, 9, 10, 11, 12, 13, 14, 15, 16, 17, 18, 19, 20, 21, 22, 23, 24, 25, 26, 27, 28, 29, 30, 31, 32, 33, 34, 35, 36, 37, 38, 39, 40, 41, 42, 43, 44, 45, 46, 47, 48, 49, 50, 51, 52, 53, 54, 55, 56, 57, 58, 59, 60, 61, 62, 63, 64, 65, 66, 67, 68, 69, 70, 71, 72, 73, 74, 75, 76, 77, 78, 79, 80, 81, 82, 83, 84, 85, 86, 87, 88, 89, 90, 91, 92, 93, 94, 95, 96, 97, 98, 99, 100, 101, 102, 103, 104, 105, 106, 107, 108, 109, 110, 111, 112, 113, 114, 115, 116, 117, 118, 119, 120, 121, 122, 123, 124, 125, 126, 127, 128, 129, 130, 131, 132, 133, 134, 135, 136, 137, 138, 139, 140, 141, 142, 143, 144, 145, 146, 147, 148, 149, 150, 151, 152, 153, 154, 155, 156, 157, 158, 159, 160, 161, 162, 163, 164, 165, 166, 167, 168, 169, 170, 171, 172, 173, 174, 175, 176, 177, 178, 179, 180, 181, 182, 183, 184, 185, 186, 187, 188, 189, 190],
      "AcquisitionTime": ["105634.830000", "105636.320000", "105637.810000", "105639.300000", "105640.790000", "105642.280000", "105643.770000", "105645.260000", "105646.750000", "105648.240000", "105649.730000", "105651.220000", "105652.710000", "105654.200000", "105655.690000", "105657.180000", "105658.670000", "105700.160000", "105701.650000", "105703.140000", "105704.630000", "105706.120000", "105707.610000", "105709.100000", "105710.590000", "105712.080000", "105713.570000", "105715.060000", "105716.550000", "105718.040000", "105719.530000", "105721.020000", "105722.510000", "105724.000000", "105725.490000", "105726.980000", "105728.470000", "105729.960000", "105731.450000", "105732.940000", "105734.430000", "105735.920000", "105737.410000", "105738.900000", "105740.390000", "105741.880000", "105743.370000", "105744.860000", "105746.350000", "105747.840000", "105749.330000", "105750.820000", "105752.310000", "105753.800000", "105755.290000", "105756.780000", "105758.270000", "105759.760000", "105801.250000", "105802.740000", "105804.230000", "105805.720000", "105807.210000", "105808.700000", "105810.190000", "105811.680000", "105813.170000", "105814.660000", "105816.150000", "105817.640000", "105819.130000", "105820.620000", "105822.110000", "105823.600000", "105825.090000", "105826.580000", "105828.070000", "105829.560000", "105831.050000", "105832.540000", "105834.030000", "105835.520000", "105837.010000", "105838.500000", "105839.990000", "105841.480000", "105842.970000", "105844.460000", "105845.950000", "105847.440000", "105848.930000", "105850.420000", "105851.910000", "105853.400000", "105854.890000", "105856.380000", "105857.870000", "105859.360000", "105900.850000", "105902.340000", "105903.830000", "105905.320000", "105906.810000", "105908.300000", "105909.790000", "105911.280000", "105912.770000", "105914.260000", "105915.750000", "105917.240000", "105918.730000", "105920.220000", "105921.710000", "105923.200000", "105924.690000", "105926.180000", "105927.670000", "105929.160000", "105930.650000", "105932.140000", "105933.630000", "105935.120000", "105936.610000", "105938.100000", "105939.590000", "105941.080000", "105942.570000", "105944.060000", "105945.550000", "105947.040000", "105948.530000", "105950.020000", "105951.510000", "105953.000000", "105954.490000", "105955.980000", "105957.470000", "105958.960000", "110000.450000", "110001.940000", "110003.430000", "110004.920000", "110006.410000", "110007.900000", "110009.390000", "110010.880000", "110012.370000", "110013.860000", "110015.350000", "110016.840000", "110018.330000", "110019.820000", "110021.310000", "110022.800000", "110024.290000", "110025.780000", "110027.270000", "110028.760000", "110030.250000", "110031.740000", "110033.230000", "110034.720000", "110036.210000", "110037.700000", "110039.190000", "110040.680000", "110042.170000", "110043.660000", "110045.150000", "110046.640000", "110048.130000", "110049.620000", "110051.110000", "110052.600000", "110054.090000", "110055.580000", "110057.070000", "110058.560000", "110100.050000", "110101.540000", "110103.030000", "110104.520000", "110106.010000", "110107.500000", "110108.990000", "110110.480000", "110111.970000", "110113.460000", "110114.950000", "110116.440000"],
      "ContentTime": ["105749.712000", "105749.715000", "105749.717000", "105749.720000", "105749.722000", "105749.725000", "105749.727000", "105749.739000", "105749.741000", "105749.744000", "105749.746000", "105749.749000", "105749.751000", "105749.754000", "105749.756000", "105749.759000", "105749.761000", "105749.764000", "105829.797000", "105829.799000", "105829.802000", "105829.804000", "105829.807000", "105829.809000", "105829.812000", "105829.815000", "105829.817000", "105829.820000", "105829.822000", "105829.825000", "105829.827000", "105829.830000", "105829.832000", "105829.835000", "105829.837000", "105829.840000", "105829.842000", "105829.853000", "105829.855000", "105829.858000", "105829.860000", "105829.863000", "105829.865000", "105829.868000", "105829.870000", "105829.873000", "105829.875000", "105829.878000", "105829.880000", "105829.883000", "105829.885000", "105829.888000", "105829.891000", "105829.893000", "105829.895000", "105829.898000", "105829.900000", "105849.669000", "105849.672000", "105849.675000", "105849.677000", "105849.679000", "105849.682000", "105849.685000", "105849.687000", "105849.690000", "105849.692000", "105849.695000", "105849.697000", "105849.700000", "105849.702000", "105849.705000", "105849.707000", "105849.710000", "105849.712000", "105849.715000", "105849.717000", "105849.720000", "105909.668000", "105909.671000", "105909.674000", "105909.676000", "105909.679000", "105909.681000", "105909.684000", "105909.686000", "105909.689000", "105909.691000", "105909.694000", "105909.696000", "105909.699000", "105909.701000", "105909.703000", "105909.706000", "105909.708000", "105909.711000", "105909.713000", "105909.716000", "105949.723000", "105949.725000", "105949.728000", "105949.730000", "105949.733000", "105949.736000", "105949.738000", "105949.741000", "105949.743000", "105949.746000", "105949.748000", "105949.751000", "105949.753000", "105949.756000", "105949.758000", "105949.761000", "105949.763000", "105949.766000", "105949.768000", "105949.771000", "105949.774000", "105949.776000", "105949.779000", "105949.781000", "105949.784000", "105949.793000", "105949.795000", "105949.798000", "105949.800000", "105949.803000", "105949.805000", "105949.808000", "110029.701000", "110029.704000", "110029.706000", "110029.709000", "110029.711000", "110029.714000", "110029.716000", "110029.719000", "110029.721000", "110029.724000", "110029.727000", "110029.729000", "110029.732000", "110029.734000", "110029.737000", "110029.739000", "110029.742000", "110029.744000", "110029.747000", "110029.749000", "110029.752000", "110029.754000", "110029.757000", "110029.759000", "110029.762000", "110029.765000", "110029.767000", "110109.699000", "110109.702000", "110109.704000", "110109.707000", "110109.709000", "110109.712000", "110109.714000", "110109.717000", "110109.719000", "110109.722000", "110109.725000", "110109.727000", "110109.730000", "110109.733000", "110109.735000", "110109.738000", "110109.741000", "110109.743000", "110109.748000", "110109.751000", "110109.754000", "110109.757000", "110109.760000", "110109.762000", "110109.765000", "110109.768000", "110118.813000", "110118.816000", "110118.818000", "110118.821000", "110118.823000", "110118.826000", "110118.828000"],
      "InstanceCreationTime": ["105749.712000", "105749.715000", "105749.717000", "105749.720000", "105749.722000", "105749.725000", "105749.727000", "105749.739000", "105749.741000", "105749.744000", "105749.746000", "105749.749000", "105749.751000", "105749.754000", "105749.756000", "105749.759000", "105749.761000", "105749.764000", "105829.797000", "105829.799000", "105829.802000", "105829.804000", "105829.807000", "105829.809000", "105829.812000", "105829.815000", "105829.817000", "105829.820000", "105829.822000", "105829.825000", "105829.827000", "105829.830000", "105829.832000", "105829.835000", "105829.837000", "105829.840000", "105829.842000", "105829.853000", "105829.855000", "105829.858000", "105829.860000", "105829.863000", "105829.865000", "105829.868000", "105829.870000", "105829.873000", "105829.875000", "105829.878000", "105829.880000", "105829.883000", "105829.885000", "105829.888000", "105829.891000", "105829.893000", "105829.895000", "105829.898000", "105829.900000", "105849.669000", "105849.672000", "105849.675000", "105849.677000", "105849.679000", "105849.682000", "105849.685000", "105849.687000", "105849.690000", "105849.692000", "105849.695000", "105849.697000", "105849.700000", "105849.702000", "105849.705000", "105849.707000", "105849.710000", "105849.712000", "105849.715000", "105849.717000", "105849.720000", "105909.668000", "105909.671000", "105909.674000", "105909.676000", "105909.679000", "105909.681000", "105909.684000", "105909.686000", "105909.689000", "105909.691000", "105909.694000", "105909.696000", "105909.699000", "105909.701000", "105909.703000", "105909.706000", "105909.708000", "105909.711000", "105909.713000", "105909.716000", "105949.723000", "105949.725000", "105949.728000", "105949.730000", "105949.733000", "105949.736000", "105949.738000", "105949.741000", "105949.743000", "105949.746000", "105949.748000", "105949.751000", "105949.753000", "105949.756000", "105949.758000", "105949.761000", "105949.763000", "105949.766000", "105949.768000", "105949.771000", "105949.774000", "105949.776000", "105949.779000", "105949.781000", "105949.784000", "105949.793000", "105949.795000", "105949.798000", "105949.800000", "105949.803000", "105949.805000", "105949.808000", "110029.701000", "110029.704000", "110029.706000", "110029.709000", "110029.711000", "110029.714000", "110029.716000", "110029.719000", "110029.721000", "110029.724000", "110029.727000", "110029.729000", "110029.732000", "110029.734000", "110029.737000", "110029.739000", "110029.742000", "110029.744000", "110029.747000", "110029.749000", "110029.752000", "110029.754000", "110029.757000", "110029.759000", "110029.762000", "110029.765000", "110029.767000", "110109.699000", "110109.702000", "110109.704000", "110109.707000", "110109.709000", "110109.712000", "110109.714000", "110109.717000", "110109.719000", "110109.722000", "110109.725000", "110109.727000", "110109.730000", "110109.733000", "110109.735000", "110109.738000", "110109.741000", "110109.743000", "110109.748000", "110109.751000", "110109.754000", "110109.757000", "110109.760000", "110109.762000", "110109.765000", "110109.768000", "110118.813000", "110118.816000", "110118.818000", "110118.821000", "110118.823000", "110118.826000", "110118.828000"],
      "InstanceNumber": [1, 2, 3, 4, 5, 6, 7, 8, 9, 10, 11, 12, 13, 14, 15, 16, 17, 18, 19, 20, 21, 22, 23, 24, 25, 26, 27, 28, 29, 30, 31, 32, 33, 34, 35, 36, 37, 38, 39, 40, 41, 42, 43, 44, 45, 46, 47, 48, 49, 50, 51, 52, 53, 54, 55, 56, 57, 58, 59, 60, 61, 62, 63, 64, 65, 66, 67, 68, 69, 70, 71, 72, 73, 74, 75, 76, 77, 78, 79, 80, 81, 82, 83, 84, 85, 86, 87, 88, 89, 90, 91, 92, 93, 94, 95, 96, 97, 98, 99, 100, 101, 102, 103, 104, 105, 106, 107, 108, 109, 110, 111, 112, 113, 114, 115, 116, 117, 118, 119, 120, 121, 122, 123, 124, 125, 126, 127, 128, 129, 130, 131, 132, 133, 134, 135, 136, 137, 138, 139, 140, 141, 142, 143, 144, 145, 146, 147, 148, 149, 150, 151, 152, 153, 154, 155, 156, 157, 158, 159, 160, 161, 162, 163, 164, 165, 166, 167, 168, 169, 170, 171, 172, 173, 174, 175, 176, 177, 178, 179, 180, 181, 182, 183, 184, 185, 186, 187, 188, 189, 190],
      "WindowCenter": [4786.0, 4798.0, 4788.0, 4766.0, 4762.0, 4786.0, 4784.0, 4784.0, 4782.0, 4766.0, 4766.0, 4790.0, 4766.0, 4764.0, 4786.0, 4758.0, 4786.0, 4800.0, 4768.0, 4786.0, 4790.0, 4756.0, 4758.0, 4758.0, 4784.0, 4762.0, 4796.0, 4792.0, 4790.0, 4766.0, 4762.0, 4762.0, 4758.0, 4760.0, 4758.0, 4762.0, 4794.0, 4768.0, 4758.0, 4782.0, 4758.0, 4826.0, 4828.0, 4788.0, 4782.0, 4760.0, 4776.0, 4786.0, 4798.0, 4794.0, 4766.0, 4760.0, 4760.0, 4760.0, 4760.0, 4758.0, 4764.0, 4766.0, 4792.0, 4828.0, 4768.0, 4786.0, 4790.0, 4760.0, 4782.0, 4752.0, 4762.0, 4760.0, 4768.0, 4798.0, 4790.0, 4790.0, 4766.0, 4760.0, 4764.0, 4756.0, 4762.0, 4760.0, 4758.0, 4780.0, 4788.0, 4794.0, 4766.0, 4794.0, 4764.0, 4756.0, 4786.0, 4754.0, 4786.0, 4792.0, 4762.0, 4760.0, 4760.0, 4756.0, 4756.0, 4758.0, 4790.0, 4766.0, 4766.0, 4796.0, 4766.0, 4766.0, 4758.0, 4756.0, 4752.0, 4750.0, 4756.0, 4766.0, 4790.0, 4798.0, 4794.0, 4800.0, 4764.0, 4758.0, 4760.0, 4750.0, 4758.0, 4760.0, 4758.0, 4788.0, 4794.0, 4764.0, 4766.0, 4768.0, 4760.0, 4760.0, 4758.0, 4758.0, 4754.0, 4790.0, 4762.0, 4760.0, 4758.0, 4802.0, 4834.0, 4798.0, 4752.0, 4760.0, 4760.0, 4752.0, 4758.0, 4762.0, 4762.0, 4764.0, 4790.0, 4764.0, 4800.0, 4796.0, 4786.0, 4754.0, 4756.0, 4752.0, 4756.0, 4794.0, 4796.0, 4788.0, 4760.0, 4760.0, 4768.0, 4754.0, 4760.0, 4764.0, 4758.0, 4762.0, 4760.0, 4762.0, 4760.0, 4790.0, 4804.0, 4796.0, 4762.0, 4756.0, 4750.0, 4778.0, 4760.0, 4754.0, 4796.0, 4824.0, 4790.0, 4788.0, 4760.0, 4754.0, 4788.0, 4764.0, 4758.0, 4756.0, 4800.0, 4826.0, 4794.0, 4758.0],
      "WindowWidth": [18546.0, 18536.0, 18546.0, 18516.0, 18524.0, 18552.0, 18548.0, 18552.0, 18556.0, 18518.0, 18522.0, 18546.0, 18522.0, 18522.0, 18554.0, 18526.0, 18556.0, 18538.0, 18518.0, 18548.0, 18548.0, 18530.0, 18534.0, 18534.0, 18554.0, 18520.0, 18542.0, 18544.0, 18548.0, 18520.0, 18520.0, 18520.0, 18518.0, 18526.0, 18522.0, 18522.0, 18542.0, 18518.0, 18522.0, 18562.0, 18524.0, 18572.0, 18574.0, 18546.0, 18558.0, 18524.0, 18568.0, 18556.0, 18536.0, 18536.0, 18514.0, 18528.0, 18526.0, 18532.0, 18524.0, 18530.0, 18512.0, 18516.0, 18544.0, 18576.0, 18512.0, 18550.0, 18540.0, 18528.0, 18570.0, 18536.0, 18524.0, 18520.0, 18520.0, 18546.0, 18550.0, 18546.0, 18518.0, 18526.0, 18518.0, 18530.0, 18522.0, 18524.0, 18530.0, 18562.0, 18548.0, 18546.0, 18526.0, 18546.0, 18522.0, 18526.0, 18554.0, 18526.0, 18544.0, 18540.0, 18522.0, 18518.0, 18516.0, 18526.0, 18526.0, 18528.0, 18548.0, 18526.0, 18518.0, 18548.0, 18522.0, 18520.0, 18516.0, 18530.0, 18538.0, 18536.0, 18528.0, 18520.0, 18554.0, 18548.0, 18550.0, 18546.0, 18524.0, 18522.0, 18518.0, 18532.0, 18530.0, 18516.0, 18524.0, 18550.0, 18544.0, 18522.0, 18518.0, 18518.0, 18524.0, 18524.0, 18516.0, 18528.0, 18524.0, 18552.0, 18522.0, 18524.0, 18528.0, 18550.0, 18572.0, 18544.0, 18532.0, 18526.0, 18530.0, 18540.0, 18536.0, 18518.0, 18524.0, 18520.0, 18548.0, 18522.0, 18550.0, 18544.0, 18552.0, 18526.0, 18538.0, 18532.0, 18528.0, 18540.0, 18546.0, 18552.0, 18528.0, 18524.0, 18514.0, 18522.0, 18526.0, 18518.0, 18532.0, 18518.0, 18520.0, 18524.0, 18530.0, 18550.0, 18550.0, 18548.0, 18522.0, 18524.0, 18536.0, 18560.0, 18528.0, 18528.0, 18546.0, 18578.0, 18552.0, 18546.0, 18526.0, 18532.0, 18548.0, 18516.0, 18528.0, 18528.0, 18542.0, 18576.0, 18542.0, 18524.0]
    },
    "slices": {}
  }
}