{
  "AcquisitionMatrixPE": 104,
  "AcquisitionNumber": 1,
  "AcquisitionTime": "10:56:34.830000",
  "BandwidthPerPixelPhaseEncode": 17.17,
  "BaseResolution": 104,
  "BodyPartExamined": "BRAIN",
  "CoilString": "HC1-7;NC1_2",
  "ConsistencyInfo": "N4_VE11C_LATEST_20160120",
  "ConversionSoftware": "dcm2niix",
  "ConversionSoftwareVersion": "v1.0.20190902",
  "DerivedVendorReportedEchoSpacing": 0.000560011,
  "DeviceSerialNumber": "167006",
  "DwellTime": 2.1e-06,
  "EchoTime": 0.037,
  "EchoTrainLength": 104,
  "EffectiveEchoSpacing": 0.000560011,
  "FlipAngle": 52,
  "HeudiconvVersion": "0.10.0",
  "ImageComments": "Unaliased_MB4_PE3_LB",
  "ImageOrientationPatientDICOM": [0.999669, 0.016573, 0.019663, -0.00366403, 0.848625, -0.528983],
  "ImageType": [
    "ORIGINAL",
    "PRIMARY",
    "M",
    "MB",
    "ND",
    "MOSAIC"
],
  "ImagingFrequency": 123.259,
  "InPlanePhaseEncodingDirectionDICOM": "COL",
  "InstitutionAddress": "Chemin_Queen-Mary_4565_Montreal_District_CA_H3W_1W5",
  "InstitutionName": "IUGM",
  "InstitutionalDepartmentName": "Department",
  "MRAcquisitionType": "2D",
  "MagneticFieldStrength": 3,
  "Manufacturer": "Siemens",
  "ManufacturersModelName": "Prisma_fit",
  "Modality": "MR",
  "MultibandAccelerationFactor": 4,
  "PartialFourier": 1,
  "PatientPosition": "HFS",
  "PercentPhaseFOV": 100,
  "PhaseEncodingDirection": "j",
  "PhaseEncodingSteps": 104,
  "PhaseResolution": 1,
  "PixelBandwidth": 2290,
  "ProcedureStepDescription": "memory_things",
  "ProtocolName": "func_task-things_run-1",
  "PulseSequenceDetails": "%CustomerSeq%_cmrr_mbep2d_bold",
  "ReceiveCoilActiveElements": "HC1-7;NC1,2",
  "ReceiveCoilName": "HeadNeck_64",
  "ReconMatrixPE": 104,
  "RepetitionTime": 1.49,
  "SAR": 0.042738,
  "ScanOptions": "FS",
  "ScanningSequence": "EP",
  "SequenceName": "epfid2d1_104",
  "SequenceVariant": "SK_SS",
  "SeriesDescription": "func_task-things_run-1",
  "SeriesNumber": 18,
  "ShimSetting": [621, -7174, -8868, 281, 20, -130, -33, -21],
  "SliceThickness": 2,
  "SliceTiming": [0, 0.7825, 0.0975, 0.88, 0.195, 0.98, 0.2925, 1.0775, 0.39, 1.175, 0.49, 1.2725, 0.5875, 1.37, 0.685, 0, 0.7825, 0.0975, 0.88, 0.195, 0.98, 0.2925, 1.0775, 0.39, 1.175, 0.49, 1.2725, 0.5875, 1.37, 0.685, 0, 0.7825, 0.0975, 0.88, 0.195, 0.98, 0.2925, 1.0775, 0.39, 1.175, 0.49, 1.2725, 0.5875, 1.37, 0.685, 0, 0.7825, 0.0975, 0.88, 0.195, 0.98, 0.2925, 1.0775, 0.39, 1.175, 0.49, 1.2725, 0.5875, 1.37, 0.685],
  "SoftwareVersions": "syngo_MR_E11",
  "SpacingBetweenSlices": 2,
  "StationName": "MRC35049",
  "TaskName": "things",
  "TotalReadoutTime": 0.0576811,
  "TxRefAmp": 257.471,
  "WipMemBlock": "30465e48-f9a1-458c-9ece-ec1db422a0e4||Sequence: R016 ve11c/master r/e634e98; Dec 19 2017 11:00:25 by eja",
  "dcmmeta_affine": [
    [-1.9993386268615723, -0.007328069303184748, 0.050906702876091, 105.54785919189453],
    [-0.03314594551920891, 1.6972490549087524, -1.0574719905853271, -47.985511779785156],
    [0.03932606428861618, 1.0579659938812256, 1.69680917263031, -95.0604019165039],
    [0.0, 0.0, 0.0, 1.0]
],
  "dcmmeta_reorient_transform": [
    [0.0, -1.0, 0.0, 103.0],
    [1.0, 0.0, 0.0, 0.0],
    [0.0, 0.0, 1.0, 0.0],
    [0.0, 0.0, 0.0, 1.0]
],
  "dcmmeta_shape": [104, 104, 60, 190],
  "dcmmeta_slice_dim": 2,
  "dcmmeta_version": 0.6,
  "global": {
    "const": {
      "AcquisitionMatrix": [104, 0, 0, 104],
      "AngioFlag": "N",
      "BitsAllocated": 16,
      "BitsStored": 16,
      "BodyPartExamined": "BRAIN",
      "Columns": 832,
      "EchoNumbers": 1,
      "EchoTime": 37.0,
      "EchoTrainLength": 104,
      "FlipAngle": 52.0,
      "HighBit": 15,
      "ImageOrientationPatient": [0.99966929617788, 0.01657297350527, 0.01966303202488, -0.0036640345463, 0.84862453109573, -0.5289829676591],
      "ImagePositionPatient": [-829.88489940122, -756.69492502432, 384.69500141957],
      "ImageType": [
        "ORIGINAL",
        "PRIMARY",
        "M",
        "MB",
        "ND",
        "MOSAIC"
],
      "ImagedNucleus": "1H",
      "ImagingFrequency": 123.258889,
      "InPlanePhaseEncodingDirection": "COL",
      "MRAcquisitionType": "2D",
      "MagneticFieldStrength": 3.0,
      "Manufacturer": "SIEMENS",
      "ManufacturerModelName": "Prisma_fit",
      "Modality": "MR",
      "NumberOfAverages": 1.0,
      "NumberOfPhaseEncodingSteps": 104,
      "PercentPhaseFieldOfView": 100.0,
      "PercentSampling": 100.0,
      "PerformedProcedureStepStartTime": "102541.721000",
      "PhotometricInterpretation": "MONOCHROME2",
      "PixelBandwidth": 2290.0,
      "PixelRepresentation": 0,
      "PixelSpacing": [2.0, 2.0],
      "ProtocolName": "func_task-things_run-1",
      "RepetitionTime": 1490.0,
      "Rows": 832,
      "SAR": 0.04273797996185,
      "SamplesPerPixel": 1,
      "ScanOptions": "FS",
      "ScanningSequence": "EP",
      "SequenceName": "epfid2d1_104",
      "SequenceVariant": [
        "SK",
        "SS"
],
      "SeriesDescription": "func_task-things_run-1",
      "SeriesNumber": 18,
      "SeriesTime": "105749.607000",
      "SliceLocation": -52.591470696096,
      "SliceThickness": 2.0,
      "SmallestImagePixelValue": 0,
      "SoftwareVersions": "syngo MR E11",
      "SpacingBetweenSlices": 1.9999999969952,
      "SpecificCharacterSet": "ISO_IR 100",
      "StudyID": "1",
      "StudyTime": "102541.655000",
      "TransmitCoilName": "Body",
      "VariableFlipAngleFlag": "N",
      "WindowCenterWidthExplanation": "Algo1",
      "dBdt": 0.0},
    "slices": {}
  },
  "time": {
    "samples": {
      "AcquisitionNumber": [1, 2, 3, 4, 5, 6, 7, 8, 9, 10, 11, 12, 13, 14, 15, 16, 17, 18, 19, 20, 21, 22, 23, 24, 25, 26, 27, 28, 29, 30, 31, 32, 33, 34, 35, 36, 37, 38, 39, 40, 41, 42, 43, 44, 45, 46, 47, 48, 49, 50, 51, 52, 53, 54, 55, 56, 57, 58, 59, 60, 61, 62, 63, 64, 65, 66, 67, 68, 69, 70, 71, 72, 73, 74, 75, 76, 77, 78, 79, 80, 81, 82, 83, 84, 85, 86, 87, 88, 89, 90, 91, 92, 93, 94, 95, 96, 97, 98, 99, 100, 101, 102, 103, 104, 105, 106, 107, 108, 109, 110, 111, 112, 113, 114, 115, 116, 117, 118, 119, 120, 121, 122, 123, 124, 125, 126, 127, 128, 129, 130, 131, 132, 133, 134, 135, 136, 137, 138, 139, 140, 141, 142, 143, 144, 145, 146, 147, 148, 149, 150, 151, 152, 153, 154, 155, 156, 157, 158, 159, 160, 161, 162, 163, 164, 165, 166, 167, 168, 169, 170, 171, 172, 173, 174, 175, 176, 177, 178, 179, 180, 181, 182, 183, 184, 185, 186, 187, 188, 189, 190],
      "AcquisitionTime": ["105634.830000", "105636.320000", "105637.810000", "105639.300000", "105640.790000", "105642.280000", "105643.770000", "105645.260000", "105646.750000", "105648.240000", "105649.730000", "105651.220000", "105652.710000", "105654.200000", "105655.690000", "105657.180000", "105658.670000", "105700.160000", "105701.650000", "105703.140000", "105704.630000", "105706.120000", "105707.610000", "105709.100000", "105710.590000", "105712.080000", "105713.570000", "105715.060000", "105716.550000", "105718.040000", "105719.530000", "105721.020000", "105722.510000", "105724.000000", "105725.490000", "105726.980000", "105728.470000", "105729.960000", "105731.450000", "105732.940000", "105734.430000", "105735.920000", "105737.410000", "105738.900000", "105740.390000", "105741.880000", "105743.370000", "105744.860000", "105746.350000", "105747.840000", "105749.330000", "105750.820000", "105752.310000", "105753.800000", "105755.290000", "105756.780000", "105758.270000", "105759.760000", "105801.250000", "105802.740000", "105804.230000", "105805.720000", "105807.210000", "105808.700000", "105810.190000", "105811.680000", "105813.170000", "105814.660000", "105816.150000", "105817.640000", "105819.130000", "105820.620000", "105822.110000", "105823.600000", "105825.090000", "105826.580000", "105828.070000", "105829.560000", "105831.050000", "105832.540000", "105834.030000", "105835.520000", "105837.010000", "105838.500000", "105839.990000", "105841.480000", "105842.970000", "105844.460000", "105845.950000", "105847.440000", "105848.930000", "105850.420000", "105851.910000", "105853.400000", "105854.890000", "105856.380000", "105857.870000", "105859.360000", "105900.850000", "105902.340000", "105903.830000", "105905.320000", "105906.810000", "105908.300000", "105909.790000", "105911.280000", "105912.770000", "105914.260000", "105915.750000", "105917.240000", "105918.730000", "105920.220000", "105921.710000", "105923.200000", "105924.690000", "105926.180000", "105927.670000", "105929.160000", "105930.650000", "105932.140000", "105933.630000", "105935.120000", "105936.610000", "105938.100000", "105939.590000", "105941.080000", "105942.570000", "105944.060000", "105945.550000", "105947.040000", "105948.530000", "105950.020000", "105951.510000", "105953.000000", "105954.490000", "105955.980000", "105957.470000", "105958.960000", "110000.450000", "110001.940000", "110003.430000", "110004.920000", "110006.410000", "110007.900000", "110009.390000", "110010.880000", "110012.370000", "110013.860000", "110015.350000", "110016.840000", "110018.330000", "110019.820000", "110021.310000", "110022.800000", "110024.290000", "110025.780000", "110027.270000", "110028.760000", "110030.250000", "110031.740000", "110033.230000", "110034.720000", "110036.210000", "110037.700000", "110039.190000", "110040.680000", "110042.170000", "110043.660000", "110045.150000", "110046.640000", "110048.130000", "110049.620000", "110051.110000", "110052.600000", "110054.090000", "110055.580000", "110057.070000", "110058.560000", "110100.050000", "110101.540000", "110103.030000", "110104.520000", "110106.010000", "110107.500000", "110108.990000", "110110.480000", "110111.970000", "110113.460000", "110114.950000", "110116.440000"],
      "ContentTime": ["105749.610000", "105749.614000", "105749.617000", "105749.621000", "105749.624000", "105749.627000", "105749.630000", "105749.634000", "105749.637000", "105749.640000", "105749.644000", "105749.647000", "105749.650000", "105749.653000", "105749.657000", "105749.660000", "105749.664000", "105749.667000", "105829.562000", "105829.566000", "105829.569000", "105829.573000", "105829.576000", "105829.579000", "105829.582000", "105829.586000", "105829.589000", "105829.592000", "105829.596000", "105829.599000", "105829.602000", "105829.605000", "105829.609000", "105829.612000", "105829.615000", "105829.619000", "105829.622000", "105829.625000", "105829.629000", "105829.632000", "105829.644000", "105829.655000", "105829.659000", "105829.662000", "105829.665000", "105829.669000", "105829.672000", "105829.676000", "105829.679000", "105829.684000", "105829.693000", "105829.697000", "105829.701000", "105829.704000", "105829.708000", "105829.711000", "105829.714000", "105849.562000", "105849.566000", "105849.569000", "105849.572000", "105849.576000", "105849.579000", "105849.582000", "105849.586000", "105849.589000", "105849.593000", "105849.596000", "105849.600000", "105849.603000", "105849.607000", "105849.610000", "105849.613000", "105849.617000", "105849.620000", "105849.623000", "105849.626000", "105849.630000", "105909.562000", "105909.566000", "105909.569000", "105909.572000", "105909.576000", "105909.579000", "105909.583000", "105909.586000", "105909.589000", "105909.592000", "105909.596000", "105909.599000", "105909.602000", "105909.606000", "105909.609000", "105909.612000", "105909.616000", "105909.619000", "105909.623000", "105909.626000", "105949.562000", "105949.566000", "105949.569000", "105949.572000", "105949.576000", "105949.579000", "105949.583000", "105949.586000", "105949.589000", "105949.593000", "105949.596000", "105949.599000", "105949.603000", "105949.606000", "105949.609000", "105949.613000", "105949.616000", "105949.619000", "105949.623000", "105949.626000", "105949.629000", "105949.633000", "105949.636000", "105949.639000", "105949.643000", "105949.646000", "105949.649000", "105949.653000", "105949.656000", "105949.659000", "105949.663000", "105949.666000", "110029.561000", "110029.565000", "110029.568000", "110029.571000", "110029.575000", "110029.578000", "110029.591000", "110029.595000", "110029.598000", "110029.601000", "110029.605000", "110029.608000", "110029.611000", "110029.615000", "110029.618000", "110029.621000", "110029.625000", "110029.628000", "110029.631000", "110029.635000", "110029.638000", "110029.641000", "110029.645000", "110029.648000", "110029.651000", "110029.655000", "110029.658000", "110109.562000", "110109.566000", "110109.569000", "110109.573000", "110109.576000", "110109.579000", "110109.583000", "110109.586000", "110109.589000", "110109.593000", "110109.596000", "110109.601000", "110109.604000", "110109.608000", "110109.611000", "110109.614000", "110109.618000", "110109.621000", "110109.624000", "110109.628000", "110109.631000", "110109.634000", "110109.638000", "110109.641000", "110109.644000", "110109.648000", "110118.738000", "110118.741000", "110118.745000", "110118.748000", "110118.752000", "110118.755000", "110118.759000"],
      "InstanceCreationTime": ["105749.610000", "105749.614000", "105749.617000", "105749.621000", "105749.624000", "105749.627000", "105749.630000", "105749.634000", "105749.637000", "105749.640000", "105749.644000", "105749.647000", "105749.650000", "105749.653000", "105749.657000", "105749.660000", "105749.664000", "105749.667000", "105829.562000", "105829.566000", "105829.569000", "105829.573000", "105829.576000", "105829.579000", "105829.582000", "105829.586000", "105829.589000", "105829.592000", "105829.596000", "105829.599000", "105829.602000", "105829.605000", "105829.609000", "105829.612000", "105829.615000", "105829.619000", "105829.622000", "105829.625000", "105829.629000", "105829.632000", "105829.644000", "105829.655000", "105829.659000", "105829.662000", "105829.665000", "105829.669000", "105829.672000", "105829.676000", "105829.679000", "105829.684000", "105829.693000", "105829.697000", "105829.701000", "105829.704000", "105829.708000", "105829.711000", "105829.714000", "105849.562000", "105849.566000", "105849.569000", "105849.572000", "105849.576000", "105849.579000", "105849.582000", "105849.586000", "105849.589000", "105849.593000", "105849.596000", "105849.600000", "105849.603000", "105849.607000", "105849.610000", "105849.613000", "105849.617000", "105849.620000", "105849.623000", "105849.626000", "105849.630000", "105909.562000", "105909.566000", "105909.569000", "105909.572000", "105909.576000", "105909.579000", "105909.583000", "105909.586000", "105909.589000", "105909.592000", "105909.596000", "105909.599000", "105909.602000", "105909.606000", "105909.609000", "105909.612000", "105909.616000", "105909.619000", "105909.623000", "105909.626000", "105949.562000", "105949.566000", "105949.569000", "105949.572000", "105949.576000", "105949.579000", "105949.583000", "105949.586000", "105949.589000", "105949.593000", "105949.596000", "105949.599000", "105949.603000", "105949.606000", "105949.609000", "105949.613000", "105949.616000", "105949.619000", "105949.623000", "105949.626000", "105949.629000", "105949.633000", "105949.636000", "105949.639000", "105949.643000", "105949.646000", "105949.649000", "105949.653000", "105949.656000", "105949.659000", "105949.663000", "105949.666000", "110029.561000", "110029.565000", "110029.568000", "110029.571000", "110029.575000", "110029.578000", "110029.591000", "110029.595000", "110029.598000", "110029.601000", "110029.605000", "110029.608000", "110029.611000", "110029.615000", "110029.618000", "110029.621000", "110029.625000", "110029.628000", "110029.631000", "110029.635000", "110029.638000", "110029.641000", "110029.645000", "110029.648000", "110029.651000", "110029.655000", "110029.658000", "110109.562000", "110109.566000", "110109.569000", "110109.573000", "110109.576000", "110109.579000", "110109.583000", "110109.586000", "110109.589000", "110109.593000", "110109.596000", "110109.601000", "110109.604000", "110109.608000", "110109.611000", "110109.614000", "110109.618000", "110109.621000", "110109.624000", "110109.628000", "110109.631000", "110109.634000", "110109.638000", "110109.641000", "110109.644000", "110109.648000", "110118.738000", "110118.741000", "110118.745000", "110118.748000", "110118.752000", "110118.755000", "110118.759000"],
      "InstanceNumber": [1, 2, 3, 4, 5, 6, 7, 8, 9, 10, 11, 12, 13, 14, 15, 16, 17, 18, 19, 20, 21, 22, 23, 24, 25, 26, 27, 28, 29, 30, 31, 32, 33, 34, 35, 36, 37, 38, 39, 40, 41, 42, 43, 44, 45, 46, 47, 48, 49, 50, 51, 52, 53, 54, 55, 56, 57, 58, 59, 60, 61, 62, 63, 64, 65, 66, 67, 68, 69, 70, 71, 72, 73, 74, 75, 76, 77, 78, 79, 80, 81, 82, 83, 84, 85, 86, 87, 88, 89, 90, 91, 92, 93, 94, 95, 96, 97, 98, 99, 100, 101, 102, 103, 104, 105, 106, 107, 108, 109, 110, 111, 112, 113, 114, 115, 116, 117, 118, 119, 120, 121, 122, 123, 124, 125, 126, 127, 128, 129, 130, 131, 132, 133, 134, 135, 136, 137, 138, 139, 140, 141, 142, 143, 144, 145, 146, 147, 148, 149, 150, 151, 152, 153, 154, 155, 156, 157, 158, 159, 160, 161, 162, 163, 164, 165, 166, 167, 168, 169, 170, 171, 172, 173, 174, 175, 176, 177, 178, 179, 180, 181, 182, 183, 184, 185, 186, 187, 188, 189, 190],
      "LargestImagePixelValue": [49635, 48540, 49123, 47910, 47880, 47108, 47220, 47673, 47217, 47850, 47255, 47063, 47279, 47353, 47067, 46848, 47162, 46917, 48306, 47291, 46803, 47571, 47192, 47034, 47102, 47130, 47027, 47584, 47267, 46826, 47249, 47281, 47059, 47221, 47065, 46980, 46879, 47094, 47144, 47593, 47258, 46479, 47491, 47263, 47130, 47352, 47560, 47603, 46771, 48074, 47032, 47928, 47770, 47892, 47515, 47452, 47144, 47293, 47654, 46882, 47800, 47671, 47447, 48307, 47654, 47645, 46599, 47574, 46976, 46560, 47525, 47344, 47705, 47676, 46946, 47581, 47455, 47258, 48140, 47773, 46861, 47292, 47994, 47202, 48199, 48191, 46991, 47920, 47577, 47085, 47431, 47070, 47359, 47765, 47320, 47377, 46426, 47564, 47076, 47157, 48032, 47394, 47622, 47468, 46723, 46832, 46289, 45920, 46941, 46518, 47123, 46237, 47765, 47389, 46776, 47650, 46094, 46003, 47245, 45902, 46581, 47543, 47158, 47041, 47430, 46980, 46849, 46890, 46674, 45691, 46978, 47319, 47389, 45914, 45581, 46807, 47756, 46310, 46265, 46504, 45979, 44798, 46045, 46303, 45759, 46531, 46079, 46465, 47317, 46690, 46763, 45894, 45407, 44629, 46719, 47235, 47850, 46892, 45781, 47121, 47416, 45260, 46970, 45096, 46388, 46806, 46651, 45499, 45423, 46505, 47383, 47251, 47229, 45849, 46196, 46862, 45100, 45619, 47419, 47218, 47284, 47514, 45851, 46530, 47687, 47304, 44444, 46319, 47875, 47935],
      "WindowCenter": [11101.0, 11068.0, 11056.0, 11039.0, 11019.0, 11029.0, 11054.0, 11068.0, 11063.0, 11067.0, 11062.0, 11058.0, 11056.0, 11047.0, 11031.0, 11041.0, 11065.0, 11084.0, 11096.0, 11066.0, 11047.0, 11052.0, 11063.0, 11073.0, 11077.0, 11076.0, 11064.0, 11057.0, 11031.0, 11012.0, 11015.0, 11042.0, 11046.0, 11037.0, 11030.0, 11036.0, 11033.0, 11046.0, 11039.0, 11022.0, 11041.0, 11062.0, 11101.0, 11079.0, 11041.0, 11026.0, 11032.0, 11035.0, 11042.0, 11054.0, 11025.0, 11004.0, 10988.0, 11009.0, 11024.0, 11024.0, 11005.0, 11002.0, 11002.0, 11003.0, 11023.0, 11022.0, 11032.0, 11062.0, 11067.0, 11063.0, 11053.0, 11065.0, 11043.0, 11023.0, 11022.0, 11014.0, 11025.0, 11027.0, 11032.0, 11035.0, 11020.0, 11029.0, 11033.0, 11023.0, 11031.0, 11055.0, 11062.0, 11034.0, 11035.0, 11031.0, 11028.0, 11041.0, 11053.0, 11053.0, 11049.0, 11016.0, 11012.0, 11025.0, 11028.0, 11036.0, 11038.0, 11042.0, 11026.0, 11017.0, 11019.0, 11019.0, 11035.0, 11038.0, 11026.0, 11040.0, 11049.0, 11055.0, 11055.0, 11034.0, 11027.0, 11021.0, 11046.0, 11047.0, 11044.0, 11051.0, 11039.0, 11035.0, 11043.0, 11016.0, 11019.0, 11028.0, 11005.0, 11006.0, 11023.0, 11023.0, 11020.0, 11017.0, 11002.0, 10996.0, 11016.0, 11013.0, 11015.0, 11017.0, 11037.0, 11052.0, 11019.0, 10983.0, 10991.0, 11023.0, 11022.0, 11000.0, 11008.0, 10995.0, 10982.0, 10978.0, 10978.0, 10986.0, 10992.0, 10974.0, 10966.0, 10988.0, 11020.0, 11027.0, 11055.0, 11032.0, 11015.0, 11015.0, 11029.0, 11057.0, 11054.0, 11020.0, 11041.0, 11021.0, 11038.0, 11038.0, 11033.0, 11018.0, 11018.0, 11023.0, 11014.0, 10997.0, 10994.0, 11020.0, 11052.0, 11044.0, 11010.0, 11015.0, 11019.0, 11018.0, 11018.0, 11033.0, 11028.0, 11043.0, 11029.0, 10991.0, 10968.0, 11008.0, 11018.0, 10995.0],
      "WindowWidth": [23923.0, 23813.0, 23762.0, 23716.0, 23663.0, 23683.0, 23736.0, 23770.0, 23756.0, 23763.0, 23753.0, 23747.0, 23741.0, 23720.0, 23685.0, 23708.0, 23764.0, 23807.0, 23829.0, 23765.0, 23720.0, 23729.0, 23755.0, 23783.0, 23791.0, 23784.0, 23761.0, 23739.0, 23681.0, 23637.0, 23644.0, 23706.0, 23717.0, 23697.0, 23681.0, 23695.0, 23691.0, 23719.0, 23704.0, 23662.0, 23702.0, 23758.0, 23845.0, 23797.0, 23708.0, 23674.0, 23685.0, 23695.0, 23712.0, 23737.0, 23672.0, 23620.0, 23584.0, 23631.0, 23666.0, 23663.0, 23624.0, 23614.0, 23615.0, 23620.0, 23663.0, 23664.0, 23682.0, 23750.0, 23764.0, 23758.0, 23737.0, 23765.0, 23711.0, 23668.0, 23660.0, 23642.0, 23665.0, 23674.0, 23686.0, 23689.0, 23656.0, 23676.0, 23685.0, 23663.0, 23683.0, 23736.0, 23750.0, 23690.0, 23685.0, 23678.0, 23677.0, 23703.0, 23736.0, 23739.0, 23724.0, 23650.0, 23637.0, 23664.0, 23674.0, 23690.0, 23700.0, 23706.0, 23672.0, 23651.0, 23654.0, 23654.0, 23692.0, 23700.0, 23679.0, 23708.0, 23729.0, 23743.0, 23739.0, 23692.0, 23672.0, 23662.0, 23714.0, 23720.0, 23715.0, 23729.0, 23706.0, 23697.0, 23712.0, 23652.0, 23653.0, 23672.0, 23624.0, 23624.0, 23663.0, 23663.0, 23656.0, 23648.0, 23616.0, 23603.0, 23648.0, 23642.0, 23646.0, 23656.0, 23702.0, 23731.0, 23657.0, 23574.0, 23592.0, 23667.0, 23663.0, 23619.0, 23628.0, 23597.0, 23571.0, 23559.0, 23562.0, 23579.0, 23588.0, 23550.0, 23533.0, 23587.0, 23661.0, 23684.0, 23739.0, 23683.0, 23642.0, 23644.0, 23685.0, 23744.0, 23735.0, 23666.0, 23707.0, 23668.0, 23701.0, 23702.0, 23688.0, 23657.0, 23656.0, 23664.0, 23643.0, 23604.0, 23595.0, 23662.0, 23729.0, 23707.0, 23635.0, 23646.0, 23648.0, 23648.0, 23647.0, 23681.0, 23678.0, 23708.0, 23673.0, 23582.0, 23542.0, 23628.0, 23649.0, 23598.0]
    },
    "slices": {}
  }
}