{
  "AcquisitionMatrixPE": 104,
  "AcquisitionNumber": 1,
  "AcquisitionTime": "10:54:7.615000",
  "BandwidthPerPixelPhaseEncode": 17.17,
  "BaseResolution": 104,
  "BodyPartExamined": "BRAIN",
  "CoilString": "HC1-7;NC1_2",
  "ConsistencyInfo": "N4_VE11C_LATEST_20160120",
  "ConversionSoftware": "dcm2niix",
  "ConversionSoftwareVersion": "v1.0.20190902",
  "DerivedVendorReportedEchoSpacing": 0.000560011,
  "DeviceSerialNumber": "167006",
  "DwellTime": 2.1e-06,
  "EchoTime": 0.037,
  "EchoTrainLength": 104,
  "EffectiveEchoSpacing": 0.000560011,
  "FlipAngle": 52,
  "HeudiconvVersion": "0.10.0",
  "ImageComments": "Unaliased_MB4_PE3_LB",
  "ImageOrientationPatientDICOM": [0.999401, 0.00558198, 0.0341404, 0.0125595, 0.861009, -0.508435],
  "ImageType": [
    "ORIGINAL",
    "PRIMARY",
    "M",
    "MB",
    "ND",
    "MOSAIC"
],
  "ImagingFrequency": 123.259,
  "InPlanePhaseEncodingDirectionDICOM": "COL",
  "InstitutionAddress": "Chemin_Queen-Mary_4565_Montreal_District_CA_H3W_1W5",
  "InstitutionName": "IUGM",
  "InstitutionalDepartmentName": "Department",
  "MRAcquisitionType": "2D",
  "MagneticFieldStrength": 3,
  "Manufacturer": "Siemens",
  "ManufacturersModelName": "Prisma_fit",
  "Modality": "MR",
  "MultibandAccelerationFactor": 4,
  "PartialFourier": 1,
  "PatientPosition": "HFS",
  "PercentPhaseFOV": 100,
  "PhaseEncodingDirection": "j",
  "PhaseEncodingSteps": 104,
  "PhaseResolution": 1,
  "PixelBandwidth": 2290,
  "ProcedureStepDescription": "memory_things",
  "ProtocolName": "func_task-things_run-1",
  "PulseSequenceDetails": "%CustomerSeq%_cmrr_mbep2d_bold",
  "ReceiveCoilActiveElements": "HC1-7;NC1,2",
  "ReceiveCoilName": "HeadNeck_64",
  "ReconMatrixPE": 104,
  "RepetitionTime": 1.49,
  "SAR": 0.0502701,
  "ScanOptions": "FS",
  "ScanningSequence": "EP",
  "SequenceName": "epfid2d1_104",
  "SequenceVariant": "SK_SS",
  "SeriesDescription": "func_task-things_run-1",
  "SeriesNumber": 10,
  "ShimSetting": [626, -7173, -8858, 296, 35, -203, -82, -14],
  "SliceThickness": 2,
  "SliceTiming": [0, 0.785, 0.0975, 0.8825, 0.1975, 0.98, 0.295, 1.0775, 0.3925, 1.175, 0.49, 1.275, 0.5875, 1.3725, 0.685, 0, 0.785, 0.0975, 0.8825, 0.1975, 0.98, 0.295, 1.0775, 0.3925, 1.175, 0.49, 1.275, 0.5875, 1.3725, 0.685, 0, 0.785, 0.0975, 0.8825, 0.1975, 0.98, 0.295, 1.0775, 0.3925, 1.175, 0.49, 1.275, 0.5875, 1.3725, 0.685, 0, 0.785, 0.0975, 0.8825, 0.1975, 0.98, 0.295, 1.0775, 0.3925, 1.175, 0.49, 1.275, 0.5875, 1.3725, 0.685],
  "SoftwareVersions": "syngo_MR_E11",
  "SpacingBetweenSlices": 2,
  "StationName": "MRC35049",
  "TaskName": "things",
  "TotalReadoutTime": 0.0576811,
  "TxRefAmp": 289.108,
  "WipMemBlock": "2961f5a0-31d7-45a0-951a-eb5a5b35fecc||Sequence: R016 ve11c/master r/e634e98; Dec 19 2017 11:00:25 by eja",
  "dcmmeta_affine": [
    [-1.998802900314331, 0.025119086727499962, 0.06446642428636551, 104.250244140625],
    [-0.011163950897753239, 1.7220172882080078, -1.017119288444519, -49.910179138183594],
    [0.06828070431947708, 1.016870379447937, 1.72084641456604, -104.97858428955078],
    [0.0, 0.0, 0.0, 1.0]
],
  "dcmmeta_reorient_transform": [
    [0.0, -1.0, 0.0, 103.0],
    [1.0, 0.0, 0.0, 0.0],
    [0.0, 0.0, 1.0, 0.0],
    [0.0, 0.0, 0.0, 1.0]
],
  "dcmmeta_shape": [104, 104, 60, 190],
  "dcmmeta_slice_dim": 2,
  "dcmmeta_version": 0.6,
  "global": {
    "const": {
      "AcquisitionMatrix": [104, 0, 0, 104],
      "AngioFlag": "N",
      "BitsAllocated": 16,
      "BitsStored": 16,
      "BodyPartExamined": "BRAIN",
      "Columns": 832,
      "EchoNumbers": 1,
      "EchoTime": 37.0,
      "EchoTrainLength": 104,
      "FlipAngle": 52.0,
      "HighBit": 15,
      "ImageOrientationPatient": [0.99940145987179, 0.00558197536118, 0.03414035086522, 0.01255954345239, 0.86100867083241, -0.5084351744516],
      "ImagePositionPatient": [-843.54511689188, -758.33559765626, 345.04569297366],
      "ImageType": [
        "ORIGINAL",
        "PRIMARY",
        "M",
        "MB",
        "ND",
        "MOSAIC"
],
      "ImagedNucleus": "1H",
      "ImagingFrequency": 123.258912,
      "InPlanePhaseEncodingDirection": "COL",
      "MRAcquisitionType": "2D",
      "MagneticFieldStrength": 3.0,
      "Manufacturer": "SIEMENS",
      "ManufacturerModelName": "Prisma_fit",
      "Modality": "MR",
      "NumberOfAverages": 1.0,
      "NumberOfPhaseEncodingSteps": 104,
      "PercentPhaseFieldOfView": 100.0,
      "PercentSampling": 100.0,
      "PerformedProcedureStepStartTime": "103257.114000",
      "PhotometricInterpretation": "MONOCHROME2",
      "PixelBandwidth": 2290.0,
      "PixelRepresentation": 0,
      "PixelSpacing": [2.0, 2.0],
      "ProtocolName": "func_task-things_run-1",
      "RepetitionTime": 1490.0,
      "Rows": 832,
      "SAR": 0.05027010179745,
      "SamplesPerPixel": 1,
      "ScanOptions": "FS",
      "ScanningSequence": "EP",
      "SequenceName": "epfid2d1_104",
      "SequenceVariant": [
        "SK",
        "SS"
],
      "SeriesDescription": "func_task-things_run-1",
      "SeriesNumber": 10,
      "SeriesTime": "105519.248000",
      "SliceLocation": -61.583388507777,
      "SliceThickness": 2.0,
      "SmallestImagePixelValue": 0,
      "SoftwareVersions": "syngo MR E11",
      "SpacingBetweenSlices": 1.9999999814001,
      "SpecificCharacterSet": "ISO_IR 100",
      "StudyID": "1",
      "StudyTime": "103256.979000",
      "TransmitCoilName": "Body",
      "VariableFlipAngleFlag": "N",
      "WindowCenterWidthExplanation": "Algo1",
      "dBdt": 0.0},
    "slices": {}
  },
  "time": {
    "samples": {
      "AcquisitionNumber": [1, 2, 3, 4, 5, 6, 7, 8, 9, 10, 11, 12, 13, 14, 15, 16, 17, 18, 19, 20, 21, 22, 23, 24, 25, 26, 27, 28, 29, 30, 31, 32, 33, 34, 35, 36, 37, 38, 39, 40, 41, 42, 43, 44, 45, 46, 47, 48, 49, 50, 51, 52, 53, 54, 55, 56, 57, 58, 59, 60, 61, 62, 63, 64, 65, 66, 67, 68, 69, 70, 71, 72, 73, 74, 75, 76, 77, 78, 79, 80, 81, 82, 83, 84, 85, 86, 87, 88, 89, 90, 91, 92, 93, 94, 95, 96, 97, 98, 99, 100, 101, 102, 103, 104, 105, 106, 107, 108, 109, 110, 111, 112, 113, 114, 115, 116, 117, 118, 119, 120, 121, 122, 123, 124, 125, 126, 127, 128, 129, 130, 131, 132, 133, 134, 135, 136, 137, 138, 139, 140, 141, 142, 143, 144, 145, 146, 147, 148, 149, 150, 151, 152, 153, 154, 155, 156, 157, 158, 159, 160, 161, 162, 163, 164, 165, 166, 167, 168, 169, 170, 171, 172, 173, 174, 175, 176, 177, 178, 179, 180, 181, 182, 183, 184, 185, 186, 187, 188, 189, 190],
      "AcquisitionTime": ["105407.615000", "105409.105000", "105410.595000", "105412.085000", "105413.575000", "105415.065000", "105416.555000", "105418.045000", "105419.535000", "105421.025000", "105422.515000", "105424.005000", "105425.495000", "105426.985000", "105428.475000", "105429.965000", "105431.455000", "105432.945000", "105434.435000", "105435.925000", "105437.415000", "105438.905000", "105440.395000", "105441.885000", "105443.375000", "105444.865000", "105446.355000", "105447.845000", "105449.335000", "105450.825000", "105452.315000", "105453.805000", "105455.295000", "105456.785000", "105458.275000", "105459.765000", "105501.255000", "105502.745000", "105504.235000", "105505.725000", "105507.215000", "105508.705000", "105510.195000", "105511.685000", "105513.175000", "105514.665000", "105516.155000", "105517.645000", "105519.135000", "105520.625000", "105522.115000", "105523.605000", "105525.095000", "105526.585000", "105528.075000", "105529.565000", "105531.055000", "105532.545000", "105534.035000", "105535.525000", "105537.015000", "105538.505000", "105539.995000", "105541.485000", "105542.975000", "105544.465000", "105545.955000", "105547.445000", "105548.935000", "105550.425000", "105551.915000", "105553.405000", "105554.895000", "105556.385000", "105557.875000", "105559.365000", "105600.855000", "105602.345000", "105603.835000", "105605.325000", "105606.815000", "105608.305000", "105609.795000", "105611.285000", "105612.775000", "105614.265000", "105615.755000", "105617.245000", "105618.735000", "105620.225000", "105621.715000", "105623.205000", "105624.695000", "105626.185000", "105627.675000", "105629.165000", "105630.655000", "105632.145000", "105633.635000", "105635.125000", "105636.615000", "105638.105000", "105639.595000", "105641.085000", "105642.575000", "105644.065000", "105645.555000", "105647.045000", "105648.535000", "105650.025000", "105651.515000", "105653.005000", "105654.495000", "105655.985000", "105657.475000", "105658.965000", "105700.455000", "105701.945000", "105703.435000", "105704.925000", "105706.415000", "105707.905000", "105709.395000", "105710.885000", "105712.375000", "105713.865000", "105715.355000", "105716.845000", "105718.335000", "105719.825000", "105721.315000", "105722.805000", "105724.295000", "105725.785000", "105727.275000", "105728.765000", "105730.255000", "105731.745000", "105733.235000", "105734.725000", "105736.215000", "105737.705000", "105739.195000", "105740.685000", "105742.175000", "105743.665000", "105745.155000", "105746.645000", "105748.135000", "105749.625000", "105751.115000", "105752.605000", "105754.095000", "105755.585000", "105757.075000", "105758.565000", "105800.055000", "105801.545000", "105803.035000", "105804.525000", "105806.015000", "105807.505000", "105808.995000", "105810.485000", "105811.975000", "105813.465000", "105814.955000", "105816.445000", "105817.935000", "105819.425000", "105820.915000", "105822.405000", "105823.895000", "105825.385000", "105826.875000", "105828.365000", "105829.855000", "105831.345000", "105832.835000", "105834.325000", "105835.815000", "105837.305000", "105838.795000", "105840.285000", "105841.775000", "105843.265000", "105844.755000", "105846.245000", "105847.735000", "105849.225000"],
      "ContentTime": ["105519.252000", "105519.261000", "105519.264000", "105519.268000", "105519.280000", "105519.283000", "105519.286000", "105519.290000", "105519.293000", "105519.296000", "105519.300000", "105519.303000", "105519.306000", "105519.319000", "105559.213000", "105559.217000", "105559.220000", "105559.223000", "105559.227000", "105559.230000", "105559.233000", "105559.237000", "105559.240000", "105559.243000", "105559.246000", "105559.250000", "105559.253000", "105559.256000", "105559.260000", "105559.263000", "105559.266000", "105559.270000", "105559.273000", "105559.276000", "105559.280000", "105559.283000", "105559.286000", "105559.289000", "105559.293000", "105559.296000", "105559.300000", "105559.303000", "105559.306000", "105559.310000", "105559.313000", "105559.317000", "105559.320000", "105559.323000", "105559.327000", "105559.330000", "105559.334000", "105559.337000", "105559.340000", "105619.213000", "105619.217000", "105619.220000", "105619.223000", "105619.227000", "105619.230000", "105619.233000", "105619.237000", "105619.240000", "105619.250000", "105619.254000", "105619.257000", "105619.260000", "105619.264000", "105619.267000", "105619.270000", "105619.274000", "105619.277000", "105619.281000", "105619.284000", "105619.287000", "105639.213000", "105639.217000", "105639.220000", "105639.224000", "105639.227000", "105639.230000", "105639.234000", "105639.237000", "105639.240000", "105639.243000", "105639.247000", "105639.250000", "105639.253000", "105639.257000", "105639.260000", "105639.263000", "105639.267000", "105639.270000", "105639.273000", "105639.277000", "105659.213000", "105659.217000", "105659.220000", "105659.224000", "105659.227000", "105659.231000", "105659.234000", "105659.237000", "105659.241000", "105659.244000", "105659.247000", "105659.251000", "105659.254000", "105659.257000", "105659.261000", "105659.264000", "105659.267000", "105659.271000", "105659.274000", "105659.277000", "105739.213000", "105739.217000", "105739.220000", "105739.224000", "105739.227000", "105739.244000", "105739.247000", "105739.251000", "105739.254000", "105739.257000", "105739.261000", "105739.264000", "105739.267000", "105739.271000", "105739.274000", "105739.278000", "105739.281000", "105739.284000", "105739.287000", "105739.291000", "105739.294000", "105739.298000", "105739.301000", "105739.305000", "105739.308000", "105739.311000", "105739.314000", "105819.213000", "105819.217000", "105819.221000", "105819.224000", "105819.227000", "105819.231000", "105819.234000", "105819.237000", "105819.241000", "105819.244000", "105819.247000", "105819.251000", "105819.254000", "105819.258000", "105819.261000", "105819.264000", "105819.268000", "105819.271000", "105819.274000", "105819.278000", "105819.281000", "105819.284000", "105819.288000", "105819.291000", "105819.294000", "105819.298000", "105819.301000", "105851.113000", "105851.117000", "105851.120000", "105851.125000", "105851.128000", "105851.132000", "105851.135000", "105851.138000", "105851.142000", "105851.145000", "105851.148000", "105851.152000", "105851.156000", "105851.159000", "105851.162000", "105851.166000", "105851.169000", "105851.172000", "105851.176000", "105851.179000", "105851.183000", "105851.186000"],
      "InstanceCreationTime": ["105519.252000", "105519.261000", "105519.264000", "105519.268000", "105519.280000", "105519.283000", "105519.286000", "105519.290000", "105519.293000", "105519.296000", "105519.300000", "105519.303000", "105519.306000", "105519.319000", "105559.213000", "105559.217000", "105559.220000", "105559.223000", "105559.227000", "105559.230000", "105559.233000", "105559.237000", "105559.240000", "105559.243000", "105559.246000", "105559.250000", "105559.253000", "105559.256000", "105559.260000", "105559.263000", "105559.266000", "105559.270000", "105559.273000", "105559.276000", "105559.280000", "105559.283000", "105559.286000", "105559.289000", "105559.293000", "105559.296000", "105559.300000", "105559.303000", "105559.306000", "105559.310000", "105559.313000", "105559.317000", "105559.320000", "105559.323000", "105559.327000", "105559.330000", "105559.334000", "105559.337000", "105559.340000", "105619.213000", "105619.217000", "105619.220000", "105619.223000", "105619.227000", "105619.230000", "105619.233000", "105619.237000", "105619.240000", "105619.250000", "105619.254000", "105619.257000", "105619.260000", "105619.264000", "105619.267000", "105619.270000", "105619.274000", "105619.277000", "105619.281000", "105619.284000", "105619.287000", "105639.213000", "105639.217000", "105639.220000", "105639.224000", "105639.227000", "105639.230000", "105639.234000", "105639.237000", "105639.240000", "105639.243000", "105639.247000", "105639.250000", "105639.253000", "105639.257000", "105639.260000", "105639.263000", "105639.267000", "105639.270000", "105639.273000", "105639.277000", "105659.213000", "105659.217000", "105659.220000", "105659.224000", "105659.227000", "105659.231000", "105659.234000", "105659.237000", "105659.241000", "105659.244000", "105659.247000", "105659.251000", "105659.254000", "105659.257000", "105659.261000", "105659.264000", "105659.267000", "105659.271000", "105659.274000", "105659.277000", "105739.213000", "105739.217000", "105739.220000", "105739.224000", "105739.227000", "105739.244000", "105739.247000", "105739.251000", "105739.254000", "105739.257000", "105739.261000", "105739.264000", "105739.267000", "105739.271000", "105739.274000", "105739.278000", "105739.281000", "105739.284000", "105739.287000", "105739.291000", "105739.294000", "105739.298000", "105739.301000", "105739.305000", "105739.308000", "105739.311000", "105739.314000", "105819.213000", "105819.217000", "105819.221000", "105819.224000", "105819.227000", "105819.231000", "105819.234000", "105819.237000", "105819.241000", "105819.244000", "105819.247000", "105819.251000", "105819.254000", "105819.258000", "105819.261000", "105819.264000", "105819.268000", "105819.271000", "105819.274000", "105819.278000", "105819.281000", "105819.284000", "105819.288000", "105819.291000", "105819.294000", "105819.298000", "105819.301000", "105851.113000", "105851.117000", "105851.120000", "105851.125000", "105851.128000", "105851.132000", "105851.135000", "105851.138000", "105851.142000", "105851.145000", "105851.148000", "105851.152000", "105851.156000", "105851.159000", "105851.162000", "105851.166000", "105851.169000", "105851.172000", "105851.176000", "105851.179000", "105851.183000", "105851.186000"],
      "InstanceNumber": [1, 2, 3, 4, 5, 6, 7, 8, 9, 10, 11, 12, 13, 14, 15, 16, 17, 18, 19, 20, 21, 22, 23, 24, 25, 26, 27, 28, 29, 30, 31, 32, 33, 34, 35, 36, 37, 38, 39, 40, 41, 42, 43, 44, 45, 46, 47, 48, 49, 50, 51, 52, 53, 54, 55, 56, 57, 58, 59, 60, 61, 62, 63, 64, 65, 66, 67, 68, 69, 70, 71, 72, 73, 74, 75, 76, 77, 78, 79, 80, 81, 82, 83, 84, 85, 86, 87, 88, 89, 90, 91, 92, 93, 94, 95, 96, 97, 98, 99, 100, 101, 102, 103, 104, 105, 106, 107, 108, 109, 110, 111, 112, 113, 114, 115, 116, 117, 118, 119, 120, 121, 122, 123, 124, 125, 126, 127, 128, 129, 130, 131, 132, 133, 134, 135, 136, 137, 138, 139, 140, 141, 142, 143, 144, 145, 146, 147, 148, 149, 150, 151, 152, 153, 154, 155, 156, 157, 158, 159, 160, 161, 162, 163, 164, 165, 166, 167, 168, 169, 170, 171, 172, 173, 174, 175, 176, 177, 178, 179, 180, 181, 182, 183, 184, 185, 186, 187, 188, 189, 190],
      "LargestImagePixelValue": [42418, 41248, 40430, 40441, 40811, 39366, 40177, 39864, 39380, 40922, 41103, 40079, 40723, 39862, 39438, 41036, 39982, 40441, 41630, 40656, 40860, 40553, 40268, 42833, 42092, 41087, 40772, 41620, 40993, 40183, 40767, 40305, 40576, 40874, 41278, 40988, 41423, 41299, 40219, 40868, 40631, 40327, 41106, 41072, 40634, 41575, 41048, 40414, 40364, 39981, 39645, 40624, 44096, 41868, 41279, 39912, 39751, 39670, 41016, 39886, 41659, 41187, 41145, 41868, 40124, 40670, 41010, 40828, 40004, 39902, 39652, 40229, 40014, 40091, 39546, 40831, 40506, 40164, 40906, 40419, 39840, 40261, 40783, 39738, 39755, 41778, 41162, 41437, 40975, 40793, 40978, 39609, 40078, 39926, 40443, 40604, 41199, 40344, 40682, 41442, 40738, 40607, 40546, 40972, 39764, 40397, 40306, 40099, 41388, 40844, 40672, 41692, 40415, 39902, 40436, 39979, 40262, 40604, 42395, 41069, 41021, 39742, 39531, 42081, 39637, 40230, 39771, 41543, 39853, 40866, 39579, 39707, 40007, 41025, 39541, 40310, 40557, 40091, 40222, 40304, 40409, 40723, 40043, 40668, 40389, 40911, 40525, 40194, 41531, 40006, 39909, 41434, 40693, 40326, 42332, 40961, 40777, 41642, 40970, 40415, 40649, 40639, 40091, 40685, 41234, 40695, 42035, 40444, 40785, 41794, 41045, 40988, 41652, 40896, 41431, 42436, 41585, 40619, 40253, 40688, 41723, 42111, 40007, 38954, 41439, 44244, 40574, 40147, 44624, 40568],
      "WindowCenter": [10632.0, 10574.0, 10573.0, 10583.0, 10586.0, 10555.0, 10553.0, 10543.0, 10533.0, 10565.0, 10575.0, 10570.0, 10577.0, 10581.0, 10576.0, 10633.0, 10602.0, 10608.0, 10607.0, 10588.0, 10574.0, 10566.0, 10579.0, 10621.0, 10620.0, 10585.0, 10550.0, 10539.0, 10525.0, 10571.0, 10595.0, 10599.0, 10588.0, 10548.0, 10543.0, 10560.0, 10577.0, 10572.0, 10560.0, 10561.0, 10555.0, 10551.0, 10559.0, 10536.0, 10556.0, 10593.0, 10611.0, 10616.0, 10602.0, 10577.0, 10566.0, 10596.0, 10600.0, 10561.0, 10556.0, 10567.0, 10569.0, 10552.0, 10534.0, 10518.0, 10526.0, 10525.0, 10526.0, 10537.0, 10535.0, 10569.0, 10586.0, 10567.0, 10537.0, 10542.0, 10563.0, 10592.0, 10606.0, 10576.0, 10553.0, 10556.0, 10559.0, 10572.0, 10587.0, 10574.0, 10563.0, 10565.0, 10578.0, 10579.0, 10593.0, 10630.0, 10626.0, 10602.0, 10564.0, 10544.0, 10565.0, 10569.0, 10585.0, 10585.0, 10579.0, 10580.0, 10575.0, 10540.0, 10558.0, 10573.0, 10561.0, 10568.0, 10570.0, 10576.0, 10559.0, 10567.0, 10538.0, 10533.0, 10569.0, 10561.0, 10552.0, 10578.0, 10561.0, 10573.0, 10567.0, 10557.0, 10557.0, 10563.0, 10570.0, 10567.0, 10567.0, 10540.0, 10539.0, 10586.0, 10560.0, 10574.0, 10563.0, 10573.0, 10550.0, 10554.0, 10540.0, 10543.0, 10549.0, 10558.0, 10545.0, 10556.0, 10551.0, 10539.0, 10561.0, 10573.0, 10582.0, 10573.0, 10551.0, 10554.0, 10538.0, 10541.0, 10534.0, 10539.0, 10547.0, 10546.0, 10552.0, 10560.0, 10551.0, 10565.0, 10601.0, 10596.0, 10584.0, 10577.0, 10570.0, 10553.0, 10528.0, 10524.0, 10537.0, 10543.0, 10555.0, 10544.0, 10559.0, 10545.0, 10545.0, 10545.0, 10541.0, 10552.0, 10555.0, 10558.0, 10575.0, 10593.0, 10592.0, 10575.0, 10555.0, 10561.0, 10579.0, 10598.0, 10573.0, 10549.0, 10558.0, 10605.0, 10579.0, 10539.0, 10544.0, 10493.0],
      "WindowWidth": [22773.0, 22612.0, 22592.0, 22607.0, 22604.0, 22537.0, 22527.0, 22503.0, 22485.0, 22552.0, 22573.0, 22564.0, 22577.0, 22591.0, 22580.0, 22705.0, 22634.0, 22645.0, 22639.0, 22601.0, 22566.0, 22548.0, 22584.0, 22660.0, 22665.0, 22590.0, 22513.0, 22484.0, 22454.0, 22558.0, 22615.0, 22623.0, 22596.0, 22507.0, 22495.0, 22531.0, 22568.0, 22559.0, 22535.0, 22534.0, 22522.0, 22517.0, 22536.0, 22478.0, 22525.0, 22604.0, 22649.0, 22660.0, 22631.0, 22577.0, 22555.0, 22619.0, 22607.0, 22528.0, 22518.0, 22547.0, 22558.0, 22519.0, 22472.0, 22435.0, 22450.0, 22449.0, 22453.0, 22475.0, 22483.0, 22556.0, 22590.0, 22549.0, 22485.0, 22495.0, 22542.0, 22606.0, 22641.0, 22568.0, 22523.0, 22521.0, 22529.0, 22562.0, 22597.0, 22574.0, 22546.0, 22549.0, 22574.0, 22583.0, 22618.0, 22688.0, 22681.0, 22630.0, 22549.0, 22504.0, 22546.0, 22562.0, 22594.0, 22594.0, 22581.0, 22575.0, 22561.0, 22493.0, 22527.0, 22558.0, 22539.0, 22552.0, 22557.0, 22567.0, 22536.0, 22553.0, 22485.0, 22478.0, 22550.0, 22535.0, 22517.0, 22572.0, 22536.0, 22564.0, 22551.0, 22528.0, 22530.0, 22542.0, 22550.0, 22546.0, 22548.0, 22494.0, 22493.0, 22591.0, 22539.0, 22567.0, 22545.0, 22556.0, 22515.0, 22523.0, 22491.0, 22497.0, 22510.0, 22526.0, 22506.0, 22526.0, 22513.0, 22491.0, 22537.0, 22561.0, 22581.0, 22561.0, 22516.0, 22516.0, 22483.0, 22487.0, 22473.0, 22489.0, 22501.0, 22503.0, 22522.0, 22539.0, 22513.0, 22548.0, 22616.0, 22610.0, 22588.0, 22564.0, 22548.0, 22514.0, 22464.0, 22451.0, 22481.0, 22496.0, 22514.0, 22497.0, 22521.0, 22496.0, 22499.0, 22492.0, 22486.0, 22512.0, 22515.0, 22523.0, 22563.0, 22597.0, 22597.0, 22567.0, 22522.0, 22532.0, 22566.0, 22610.0, 22567.0, 22515.0, 22529.0, 22646.0, 22597.0, 22516.0, 22499.0, 22396.0]
    },
    "slices": {}
  }
}