{
  "AcquisitionMatrixPE": 104,
  "AcquisitionNumber": 1,
  "AcquisitionTime": "11:12:17.427500",
  "BandwidthPerPixelPhaseEncode": 17.17,
  "BaseResolution": 104,
  "BodyPartExamined": "BRAIN",
  "CoilString": "HC1-7;NC1_2",
  "ConsistencyInfo": "N4_VE11C_LATEST_20160120",
  "ConversionSoftware": "dcm2niix",
  "ConversionSoftwareVersion": "v1.0.20190902",
  "DerivedVendorReportedEchoSpacing": 0.000560011,
  "DeviceSerialNumber": "167006",
  "DwellTime": 2.1e-06,
  "EchoTime": 0.037,
  "EchoTrainLength": 104,
  "EffectiveEchoSpacing": 0.000560011,
  "FlipAngle": 52,
  "HeudiconvVersion": "0.10.0",
  "ImageComments": "Unaliased_MB4_PE3_LB",
  "ImageOrientationPatientDICOM": [0.999401, 0.00558198, 0.0341404, 0.0125595, 0.861009, -0.508435],
  "ImageType": [
    "ORIGINAL",
    "PRIMARY",
    "M",
    "MB",
    "ND",
    "MOSAIC"
],
  "ImagingFrequency": 123.259,
  "InPlanePhaseEncodingDirectionDICOM": "COL",
  "InstitutionAddress": "Chemin_Queen-Mary_4565_Montreal_District_CA_H3W_1W5",
  "InstitutionName": "IUGM",
  "InstitutionalDepartmentName": "Department",
  "MRAcquisitionType": "2D",
  "MagneticFieldStrength": 3,
  "Manufacturer": "Siemens",
  "ManufacturersModelName": "Prisma_fit",
  "Modality": "MR",
  "MultibandAccelerationFactor": 4,
  "PartialFourier": 1,
  "PatientPosition": "HFS",
  "PercentPhaseFOV": 100,
  "PhaseEncodingDirection": "j",
  "PhaseEncodingSteps": 104,
  "PhaseResolution": 1,
  "PixelBandwidth": 2290,
  "ProcedureStepDescription": "memory_things",
  "ProtocolName": "func_task-things_run-4",
  "PulseSequenceDetails": "%CustomerSeq%_cmrr_mbep2d_bold",
  "ReceiveCoilActiveElements": "HC1-7;NC1,2",
  "ReceiveCoilName": "HeadNeck_64",
  "ReconMatrixPE": 104,
  "RepetitionTime": 1.49,
  "SAR": 0.0502701,
  "ScanOptions": "FS",
  "ScanningSequence": "EP",
  "SequenceName": "epfid2d1_104",
  "SequenceVariant": "SK_SS",
  "SeriesDescription": "func_task-things_run-4",
  "SeriesNumber": 19,
  "ShimSetting": [626, -7173, -8858, 296, 35, -203, -82, -14],
  "SliceThickness": 2,
  "SliceTiming": [0, 0.7825, 0.0975, 0.88, 0.195, 0.98, 0.2925, 1.0775, 0.3925, 1.175, 0.49, 1.2725, 0.5875, 1.37, 0.685, 0, 0.7825, 0.0975, 0.88, 0.195, 0.98, 0.2925, 1.0775, 0.3925, 1.175, 0.49, 1.2725, 0.5875, 1.37, 0.685, 0, 0.7825, 0.0975, 0.88, 0.195, 0.98, 0.2925, 1.0775, 0.3925, 1.175, 0.49, 1.2725, 0.5875, 1.37, 0.685, 0, 0.7825, 0.0975, 0.88, 0.195, 0.98, 0.2925, 1.0775, 0.3925, 1.175, 0.49, 1.2725, 0.5875, 1.37, 0.685],
  "SoftwareVersions": "syngo_MR_E11",
  "SpacingBetweenSlices": 2,
  "StationName": "MRC35049",
  "TaskName": "things",
  "TotalReadoutTime": 0.0576811,
  "TxRefAmp": 289.108,
  "WipMemBlock": "fd73b60b-a0e5-4937-8c2c-f47c9d5a4d42||Sequence: R016 ve11c/master r/e634e98; Dec 19 2017 11:00:25 by eja",
  "dcmmeta_affine": [
    [-1.998802900314331, 0.025119086727499962, 0.06446642428636551, 104.250244140625],
    [-0.011163950897753239, 1.7220172882080078, -1.017119288444519, -49.910179138183594],
    [0.06828070431947708, 1.016870379447937, 1.72084641456604, -104.97858428955078],
    [0.0, 0.0, 0.0, 1.0]
],
  "dcmmeta_reorient_transform": [
    [0.0, -1.0, 0.0, 103.0],
    [1.0, 0.0, 0.0, 0.0],
    [0.0, 0.0, 1.0, 0.0],
    [0.0, 0.0, 0.0, 1.0]
],
  "dcmmeta_shape": [104, 104, 60, 190],
  "dcmmeta_slice_dim": 2,
  "dcmmeta_version": 0.6,
  "global": {
    "const": {
      "AcquisitionMatrix": [104, 0, 0, 104],
      "AngioFlag": "N",
      "BitsAllocated": 16,
      "BitsStored": 16,
      "BodyPartExamined": "BRAIN",
      "Columns": 832,
      "EchoNumbers": 1,
      "EchoTime": 37.0,
      "EchoTrainLength": 104,
      "FlipAngle": 52.0,
      "HighBit": 15,
      "ImageOrientationPatient": [0.99940145987179, 0.00558197536118, 0.03414035086522, 0.01255954345239, 0.86100867083241, -0.5084351744516],
      "ImagePositionPatient": [-843.54511689188, -758.33559765626, 345.04569297366],
      "ImageType": [
        "ORIGINAL",
        "PRIMARY",
        "M",
        "MB",
        "ND",
        "MOSAIC"
],
      "ImagedNucleus": "1H",
      "ImagingFrequency": 123.258921,
      "InPlanePhaseEncodingDirection": "COL",
      "MRAcquisitionType": "2D",
      "MagneticFieldStrength": 3.0,
      "Manufacturer": "SIEMENS",
      "ManufacturerModelName": "Prisma_fit",
      "Modality": "MR",
      "NumberOfAverages": 1.0,
      "NumberOfPhaseEncodingSteps": 104,
      "PercentPhaseFieldOfView": 100.0,
      "PercentSampling": 100.0,
      "PerformedProcedureStepStartTime": "103257.114000",
      "PhotometricInterpretation": "MONOCHROME2",
      "PixelBandwidth": 2290.0,
      "PixelRepresentation": 0,
      "PixelSpacing": [2.0, 2.0],
      "ProtocolName": "func_task-things_run-4",
      "RepetitionTime": 1490.0,
      "Rows": 832,
      "SAR": 0.05027010179745,
      "SamplesPerPixel": 1,
      "ScanOptions": "FS",
      "ScanningSequence": "EP",
      "SequenceName": "epfid2d1_104",
      "SequenceVariant": [
        "SK",
        "SS"
],
      "SeriesDescription": "func_task-things_run-4",
      "SeriesNumber": 19,
      "SeriesTime": "111339.252000",
      "SliceLocation": -61.583388507777,
      "SliceThickness": 2.0,
      "SmallestImagePixelValue": 0,
      "SoftwareVersions": "syngo MR E11",
      "SpacingBetweenSlices": 1.9999999814001,
      "SpecificCharacterSet": "ISO_IR 100",
      "StudyID": "1",
      "StudyTime": "103256.979000",
      "TransmitCoilName": "Body",
      "VariableFlipAngleFlag": "N",
      "WindowCenterWidthExplanation": "Algo1",
      "dBdt": 0.0},
    "slices": {}
  },
  "time": {
    "samples": {
      "AcquisitionNumber": [1, 2, 3, 4, 5, 6, 7, 8, 9, 10, 11, 12, 13, 14, 15, 16, 17, 18, 19, 20, 21, 22, 23, 24, 25, 26, 27, 28, 29, 30, 31, 32, 33, 34, 35, 36, 37, 38, 39, 40, 41, 42, 43, 44, 45, 46, 47, 48, 49, 50, 51, 52, 53, 54, 55, 56, 57, 58, 59, 60, 61, 62, 63, 64, 65, 66, 67, 68, 69, 70, 71, 72, 73, 74, 75, 76, 77, 78, 79, 80, 81, 82, 83, 84, 85, 86, 87, 88, 89, 90, 91, 92, 93, 94, 95, 96, 97, 98, 99, 100, 101, 102, 103, 104, 105, 106, 107, 108, 109, 110, 111, 112, 113, 114, 115, 116, 117, 118, 119, 120, 121, 122, 123, 124, 125, 126, 127, 128, 129, 130, 131, 132, 133, 134, 135, 136, 137, 138, 139, 140, 141, 142, 143, 144, 145, 146, 147, 148, 149, 150, 151, 152, 153, 154, 155, 156, 157, 158, 159, 160, 161, 162, 163, 164, 165, 166, 167, 168, 169, 170, 171, 172, 173, 174, 175, 176, 177, 178, 179, 180, 181, 182, 183, 184, 185, 186, 187, 188, 189, 190],
      "AcquisitionTime": ["111217.427500", "111218.917500", "111220.407500", "111221.897500", "111223.387500", "111224.877500", "111226.367500", "111227.857500", "111229.347500", "111230.837500", "111232.327500", "111233.817500", "111235.307500", "111236.797500", "111238.287500", "111239.777500", "111241.267500", "111242.757500", "111244.247500", "111245.737500", "111247.227500", "111248.717500", "111250.207500", "111251.697500", "111253.187500", "111254.677500", "111256.167500", "111257.657500", "111259.147500", "111300.637500", "111302.127500", "111303.617500", "111305.107500", "111306.597500", "111308.087500", "111309.577500", "111311.067500", "111312.557500", "111314.047500", "111315.537500", "111317.027500", "111318.517500", "111320.007500", "111321.497500", "111322.987500", "111324.477500", "111325.967500", "111327.457500", "111328.947500", "111330.437500", "111331.927500", "111333.417500", "111334.907500", "111336.397500", "111337.887500", "111339.377500", "111340.867500", "111342.357500", "111343.847500", "111345.337500", "111346.827500", "111348.317500", "111349.807500", "111351.297500", "111352.787500", "111354.277500", "111355.767500", "111357.257500", "111358.747500", "111400.237500", "111401.727500", "111403.217500", "111404.707500", "111406.197500", "111407.687500", "111409.177500", "111410.667500", "111412.157500", "111413.647500", "111415.137500", "111416.627500", "111418.117500", "111419.607500", "111421.097500", "111422.587500", "111424.077500", "111425.567500", "111427.057500", "111428.547500", "111430.037500", "111431.527500", "111433.017500", "111434.507500", "111435.997500", "111437.487500", "111438.977500", "111440.467500", "111441.957500", "111443.447500", "111444.937500", "111446.427500", "111447.917500", "111449.407500", "111450.897500", "111452.387500", "111453.877500", "111455.367500", "111456.857500", "111458.347500", "111459.837500", "111501.327500", "111502.817500", "111504.307500", "111505.797500", "111507.287500", "111508.777500", "111510.267500", "111511.757500", "111513.247500", "111514.737500", "111516.227500", "111517.717500", "111519.207500", "111520.697500", "111522.187500", "111523.677500", "111525.167500", "111526.657500", "111528.147500", "111529.637500", "111531.127500", "111532.617500", "111534.107500", "111535.597500", "111537.087500", "111538.577500", "111540.067500", "111541.557500", "111543.047500", "111544.537500", "111546.027500", "111547.517500", "111549.007500", "111550.497500", "111551.987500", "111553.477500", "111554.967500", "111556.457500", "111557.947500", "111559.437500", "111600.927500", "111602.417500", "111603.907500", "111605.397500", "111606.887500", "111608.377500", "111609.867500", "111611.357500", "111612.847500", "111614.337500", "111615.827500", "111617.317500", "111618.807500", "111620.297500", "111621.787500", "111623.277500", "111624.767500", "111626.257500", "111627.747500", "111629.237500", "111630.727500", "111632.217500", "111633.707500", "111635.197500", "111636.687500", "111638.177500", "111639.667500", "111641.157500", "111642.647500", "111644.137500", "111645.627500", "111647.117500", "111648.607500", "111650.097500", "111651.587500", "111653.077500", "111654.567500", "111656.057500", "111657.547500", "111659.037500"],
      "ContentTime": ["111339.255000", "111339.259000", "111339.262000", "111339.265000", "111339.269000", "111339.272000", "111339.275000", "111339.279000", "111339.282000", "111339.285000", "111339.288000", "111339.292000", "111339.295000", "111339.298000", "111339.302000", "111339.305000", "111339.308000", "111339.312000", "111339.315000", "111339.318000", "111339.322000", "111339.325000", "111339.329000", "111339.332000", "111339.335000", "111339.338000", "111339.342000", "111339.345000", "111359.213000", "111359.217000", "111359.220000", "111359.223000", "111359.227000", "111359.230000", "111359.233000", "111359.237000", "111359.240000", "111359.243000", "111359.247000", "111359.250000", "111359.266000", "111359.269000", "111359.273000", "111359.276000", "111359.279000", "111359.283000", "111359.286000", "111359.289000", "111359.292000", "111419.213000", "111419.217000", "111419.220000", "111419.224000", "111419.227000", "111419.230000", "111419.234000", "111419.237000", "111419.240000", "111419.244000", "111419.247000", "111419.250000", "111419.254000", "111419.257000", "111419.260000", "111419.263000", "111419.267000", "111419.270000", "111419.273000", "111419.277000", "111439.213000", "111439.217000", "111439.220000", "111439.223000", "111439.227000", "111439.230000", "111439.233000", "111439.237000", "111439.240000", "111439.243000", "111439.247000", "111439.250000", "111439.253000", "111439.257000", "111439.260000", "111439.263000", "111439.267000", "111439.270000", "111439.273000", "111439.277000", "111459.213000", "111459.217000", "111459.220000", "111459.224000", "111459.227000", "111459.230000", "111459.233000", "111459.237000", "111459.240000", "111459.243000", "111459.247000", "111459.250000", "111459.253000", "111459.257000", "111459.260000", "111459.263000", "111459.267000", "111459.270000", "111459.273000", "111539.213000", "111539.217000", "111539.220000", "111539.224000", "111539.227000", "111539.230000", "111539.234000", "111539.237000", "111539.240000", "111539.244000", "111539.247000", "111539.250000", "111539.253000", "111539.265000", "111539.268000", "111539.271000", "111539.275000", "111539.278000", "111539.282000", "111539.285000", "111539.288000", "111539.292000", "111539.295000", "111539.298000", "111539.302000", "111539.305000", "111539.308000", "111619.213000", "111619.217000", "111619.220000", "111619.224000", "111619.243000", "111619.246000", "111619.249000", "111619.253000", "111619.256000", "111619.260000", "111619.263000", "111619.266000", "111619.270000", "111619.273000", "111619.276000", "111619.280000", "111619.283000", "111619.286000", "111619.289000", "111619.293000", "111619.296000", "111619.299000", "111619.303000", "111619.306000", "111619.309000", "111619.313000", "111619.316000", "111659.213000", "111659.217000", "111659.220000", "111659.224000", "111659.227000", "111659.231000", "111659.234000", "111659.237000", "111659.240000", "111659.244000", "111659.247000", "111659.250000", "111659.254000", "111659.257000", "111659.260000", "111659.264000", "111659.267000", "111659.270000", "111659.274000", "111659.277000", "111659.281000", "111659.284000", "111659.288000", "111659.292000", "111659.295000", "111659.298000", "111700.866000", "111700.870000"],
      "InstanceCreationTime": ["111339.255000", "111339.259000", "111339.262000", "111339.265000", "111339.269000", "111339.272000", "111339.275000", "111339.279000", "111339.282000", "111339.285000", "111339.288000", "111339.292000", "111339.295000", "111339.298000", "111339.302000", "111339.305000", "111339.308000", "111339.312000", "111339.315000", "111339.318000", "111339.322000", "111339.325000", "111339.329000", "111339.332000", "111339.335000", "111339.338000", "111339.342000", "111339.345000", "111359.213000", "111359.217000", "111359.220000", "111359.223000", "111359.227000", "111359.230000", "111359.233000", "111359.237000", "111359.240000", "111359.243000", "111359.247000", "111359.250000", "111359.266000", "111359.269000", "111359.273000", "111359.276000", "111359.279000", "111359.283000", "111359.286000", "111359.289000", "111359.292000", "111419.213000", "111419.217000", "111419.220000", "111419.224000", "111419.227000", "111419.230000", "111419.234000", "111419.237000", "111419.240000", "111419.244000", "111419.247000", "111419.250000", "111419.254000", "111419.257000", "111419.260000", "111419.263000", "111419.267000", "111419.270000", "111419.273000", "111419.277000", "111439.213000", "111439.217000", "111439.220000", "111439.223000", "111439.227000", "111439.230000", "111439.233000", "111439.237000", "111439.240000", "111439.243000", "111439.247000", "111439.250000", "111439.253000", "111439.257000", "111439.260000", "111439.263000", "111439.267000", "111439.270000", "111439.273000", "111439.277000", "111459.213000", "111459.217000", "111459.220000", "111459.224000", "111459.227000", "111459.230000", "111459.233000", "111459.237000", "111459.240000", "111459.243000", "111459.247000", "111459.250000", "111459.253000", "111459.257000", "111459.260000", "111459.263000", "111459.267000", "111459.270000", "111459.273000", "111539.213000", "111539.217000", "111539.220000", "111539.224000", "111539.227000", "111539.230000", "111539.234000", "111539.237000", "111539.240000", "111539.244000", "111539.247000", "111539.250000", "111539.253000", "111539.265000", "111539.268000", "111539.271000", "111539.275000", "111539.278000", "111539.282000", "111539.285000", "111539.288000", "111539.292000", "111539.295000", "111539.298000", "111539.302000", "111539.305000", "111539.308000", "111619.213000", "111619.217000", "111619.220000", "111619.224000", "111619.243000", "111619.246000", "111619.249000", "111619.253000", "111619.256000", "111619.260000", "111619.263000", "111619.266000", "111619.270000", "111619.273000", "111619.276000", "111619.280000", "111619.283000", "111619.286000", "111619.289000", "111619.293000", "111619.296000", "111619.299000", "111619.303000", "111619.306000", "111619.309000", "111619.313000", "111619.316000", "111659.213000", "111659.217000", "111659.220000", "111659.224000", "111659.227000", "111659.231000", "111659.234000", "111659.237000", "111659.240000", "111659.244000", "111659.247000", "111659.250000", "111659.254000", "111659.257000", "111659.260000", "111659.264000", "111659.267000", "111659.270000", "111659.274000", "111659.277000", "111659.281000", "111659.284000", "111659.288000", "111659.292000", "111659.295000", "111659.298000", "111700.866000", "111700.870000"],
      "InstanceNumber": [1, 2, 3, 4, 5, 6, 7, 8, 9, 10, 11, 12, 13, 14, 15, 16, 17, 18, 19, 20, 21, 22, 23, 24, 25, 26, 27, 28, 29, 30, 31, 32, 33, 34, 35, 36, 37, 38, 39, 40, 41, 42, 43, 44, 45, 46, 47, 48, 49, 50, 51, 52, 53, 54, 55, 56, 57, 58, 59, 60, 61, 62, 63, 64, 65, 66, 67, 68, 69, 70, 71, 72, 73, 74, 75, 76, 77, 78, 79, 80, 81, 82, 83, 84, 85, 86, 87, 88, 89, 90, 91, 92, 93, 94, 95, 96, 97, 98, 99, 100, 101, 102, 103, 104, 105, 106, 107, 108, 109, 110, 111, 112, 113, 114, 115, 116, 117, 118, 119, 120, 121, 122, 123, 124, 125, 126, 127, 128, 129, 130, 131, 132, 133, 134, 135, 136, 137, 138, 139, 140, 141, 142, 143, 144, 145, 146, 147, 148, 149, 150, 151, 152, 153, 154, 155, 156, 157, 158, 159, 160, 161, 162, 163, 164, 165, 166, 167, 168, 169, 170, 171, 172, 173, 174, 175, 176, 177, 178, 179, 180, 181, 182, 183, 184, 185, 186, 187, 188, 189, 190],
      "LargestImagePixelValue": [42727, 48249, 44464, 43934, 43806, 42608, 41857, 40796, 41550, 42461, 43289, 42649, 42902, 42488, 42588, 40783, 44853, 43362, 43036, 43179, 42630, 42601, 43297, 42492, 42895, 42719, 42913, 44153, 43751, 42964, 42888, 43334, 42795, 42651, 43174, 43041, 42655, 42793, 42855, 43173, 43361, 42539, 42784, 42839, 43060, 43662, 42660, 42678, 43441, 43267, 42426, 42497, 43002, 42962, 43157, 42557, 42464, 42407, 42535, 43293, 42836, 44061, 42706, 43074, 43183, 42738, 43170, 42468, 42918, 42804, 42889, 42964, 42975, 43054, 42595, 43308, 43326, 42556, 43018, 42764, 42326, 42265, 43419, 42959, 43061, 43265, 42959, 42587, 42923, 42763, 43474, 42968, 42337, 43594, 42987, 43300, 43008, 47558, 42092, 43169, 42743, 42593, 42715, 43204, 41961, 43318, 42398, 42923, 42306, 42959, 42375, 42235, 42969, 42574, 42828, 42934, 42538, 43293, 43497, 42344, 43483, 43281, 42601, 42769, 42860, 42090, 42324, 42382, 41779, 41889, 42598, 42385, 41993, 42107, 42195, 41204, 41400, 42488, 42243, 42660, 42829, 42847, 43056, 41744, 41987, 43694, 43160, 43145, 42067, 42516, 42968, 43160, 42347, 42316, 42750, 41471, 42789, 42826, 42864, 43416, 42888, 42244, 42674, 43684, 42329, 42432, 41722, 42314, 39255, 41007, 41643, 42878, 42806, 42584, 42940, 43094, 43104, 42448, 43266, 42572, 42518, 43341, 42396, 43416, 44214, 42924, 43139, 42547, 42466, 43059],
      "WindowCenter": [10566.0, 10613.0, 10600.0, 10587.0, 10557.0, 10511.0, 10485.0, 10466.0, 10482.0, 10505.0, 10535.0, 10523.0, 10535.0, 10509.0, 10515.0, 10510.0, 10550.0, 10534.0, 10521.0, 10516.0, 10504.0, 10511.0, 10506.0, 10510.0, 10518.0, 10516.0, 10511.0, 10502.0, 10501.0, 10500.0, 10517.0, 10515.0, 10507.0, 10509.0, 10515.0, 10518.0, 10506.0, 10500.0, 10497.0, 10497.0, 10494.0, 10484.0, 10490.0, 10489.0, 10494.0, 10511.0, 10489.0, 10501.0, 10505.0, 10493.0, 10488.0, 10508.0, 10517.0, 10526.0, 10512.0, 10471.0, 10462.0, 10464.0, 10472.0, 10488.0, 10489.0, 10491.0, 10471.0, 10485.0, 10502.0, 10509.0, 10525.0, 10512.0, 10510.0, 10501.0, 10501.0, 10508.0, 10499.0, 10479.0, 10473.0, 10505.0, 10516.0, 10511.0, 10510.0, 10502.0, 10493.0, 10480.0, 10486.0, 10480.0, 10493.0, 10493.0, 10490.0, 10500.0, 10499.0, 10499.0, 10511.0, 10498.0, 10478.0, 10494.0, 10482.0, 10496.0, 10491.0, 10520.0, 10465.0, 10506.0, 10502.0, 10523.0, 10507.0, 10482.0, 10449.0, 10472.0, 10483.0, 10507.0, 10505.0, 10498.0, 10484.0, 10479.0, 10490.0, 10485.0, 10499.0, 10501.0, 10495.0, 10500.0, 10507.0, 10498.0, 10527.0, 10509.0, 10475.0, 10491.0, 10506.0, 10530.0, 10530.0, 10500.0, 10464.0, 10471.0, 10504.0, 10504.0, 10489.0, 10493.0, 10499.0, 10497.0, 10480.0, 10481.0, 10472.0, 10478.0, 10479.0, 10494.0, 10509.0, 10504.0, 10531.0, 10549.0, 10509.0, 10483.0, 10464.0, 10504.0, 10524.0, 10506.0, 10464.0, 10458.0, 10482.0, 10488.0, 10503.0, 10490.0, 10463.0, 10476.0, 10467.0, 10509.0, 10532.0, 10522.0, 10474.0, 10492.0, 10496.0, 10508.0, 10488.0, 10509.0, 10509.0, 10514.0, 10489.0, 10481.0, 10503.0, 10529.0, 10542.0, 10527.0, 10522.0, 10517.0, 10518.0, 10533.0, 10513.0, 10536.0, 10555.0, 10525.0, 10492.0, 10454.0, 10467.0, 10509.0],
      "WindowWidth": [22617.0, 22656.0, 22623.0, 22588.0, 22513.0, 22409.0, 22350.0, 22317.0, 22347.0, 22394.0, 22458.0, 22434.0, 22464.0, 22400.0, 22415.0, 22416.0, 22483.0, 22448.0, 22420.0, 22406.0, 22386.0, 22414.0, 22393.0, 22401.0, 22421.0, 22420.0, 22400.0, 22376.0, 22379.0, 22380.0, 22417.0, 22412.0, 22395.0, 22399.0, 22408.0, 22415.0, 22392.0, 22375.0, 22366.0, 22368.0, 22358.0, 22342.0, 22355.0, 22353.0, 22363.0, 22400.0, 22357.0, 22382.0, 22390.0, 22359.0, 22349.0, 22397.0, 22416.0, 22432.0, 22411.0, 22310.0, 22290.0, 22297.0, 22314.0, 22346.0, 22352.0, 22352.0, 22312.0, 22339.0, 22377.0, 22398.0, 22430.0, 22406.0, 22399.0, 22380.0, 22381.0, 22394.0, 22375.0, 22329.0, 22319.0, 22385.0, 22411.0, 22401.0, 22398.0, 22383.0, 22363.0, 22337.0, 22345.0, 22332.0, 22357.0, 22361.0, 22356.0, 22381.0, 22378.0, 22374.0, 22400.0, 22371.0, 22331.0, 22361.0, 22341.0, 22368.0, 22359.0, 22408.0, 22302.0, 22392.0, 22384.0, 22429.0, 22398.0, 22340.0, 22268.0, 22309.0, 22341.0, 22392.0, 22390.0, 22369.0, 22340.0, 22331.0, 22350.0, 22341.0, 22370.0, 22378.0, 22365.0, 22374.0, 22387.0, 22374.0, 22436.0, 22393.0, 22321.0, 22354.0, 22384.0, 22440.0, 22452.0, 22377.0, 22297.0, 22312.0, 22381.0, 22386.0, 22354.0, 22355.0, 22371.0, 22375.0, 22331.0, 22328.0, 22312.0, 22320.0, 22325.0, 22368.0, 22388.0, 22388.0, 22444.0, 22475.0, 22392.0, 22331.0, 22296.0, 22380.0, 22423.0, 22383.0, 22292.0, 22275.0, 22328.0, 22351.0, 22383.0, 22348.0, 22291.0, 22315.0, 22300.0, 22393.0, 22449.0, 22418.0, 22316.0, 22357.0, 22368.0, 22393.0, 22364.0, 22397.0, 22398.0, 22413.0, 22351.0, 22333.0, 22382.0, 22437.0, 22467.0, 22435.0, 22423.0, 22411.0, 22414.0, 22444.0, 22408.0, 22452.0, 22495.0, 22429.0, 22353.0, 22271.0, 22322.0, 22414.0]
    },
    "slices": {}
  }
}