{
  "AcquisitionMatrixPE": 104,
  "AcquisitionNumber": 1,
  "AcquisitionTime": "11:24:26.015000",
  "BandwidthPerPixelPhaseEncode": 17.17,
  "BaseResolution": 104,
  "BodyPartExamined": "BRAIN",
  "CoilString": "HC1-7;NC1_2",
  "ConsistencyInfo": "N4_VE11C_LATEST_20160120",
  "ConversionSoftware": "dcm2niix",
  "ConversionSoftwareVersion": "v1.0.20190902",
  "DerivedVendorReportedEchoSpacing": 0.000560011,
  "DeviceSerialNumber": "167006",
  "DwellTime": 2.1e-06,
  "EchoTime": 0.037,
  "EchoTrainLength": 104,
  "EffectiveEchoSpacing": 0.000560011,
  "FlipAngle": 52,
  "HeudiconvVersion": "0.10.0",
  "ImageComments": "Unaliased_MB4_PE3_LB",
  "ImageOrientationPatientDICOM": [0.999401, 0.00558198, 0.0341404, 0.0125595, 0.861009, -0.508435],
  "ImageType": [
    "ORIGINAL",
    "PRIMARY",
    "M",
    "MB",
    "ND",
    "MOSAIC"
],
  "ImagingFrequency": 123.259,
  "InPlanePhaseEncodingDirectionDICOM": "COL",
  "InstitutionAddress": "Chemin_Queen-Mary_4565_Montreal_District_CA_H3W_1W5",
  "InstitutionName": "IUGM",
  "InstitutionalDepartmentName": "Department",
  "MRAcquisitionType": "2D",
  "MagneticFieldStrength": 3,
  "Manufacturer": "Siemens",
  "ManufacturersModelName": "Prisma_fit",
  "Modality": "MR",
  "MultibandAccelerationFactor": 4,
  "PartialFourier": 1,
  "PatientPosition": "HFS",
  "PercentPhaseFOV": 100,
  "PhaseEncodingDirection": "j",
  "PhaseEncodingSteps": 104,
  "PhaseResolution": 1,
  "PixelBandwidth": 2290,
  "ProcedureStepDescription": "memory_things",
  "ProtocolName": "func_task-things_run-6",
  "PulseSequenceDetails": "%CustomerSeq%_cmrr_mbep2d_bold",
  "ReceiveCoilActiveElements": "HC1-7;NC1,2",
  "ReceiveCoilName": "HeadNeck_64",
  "ReconMatrixPE": 104,
  "RepetitionTime": 1.49,
  "SAR": 0.0502701,
  "ScanOptions": "FS",
  "ScanningSequence": "EP",
  "SequenceName": "epfid2d1_104",
  "SequenceVariant": "SK_SS",
  "SeriesDescription": "func_task-things_run-6",
  "SeriesNumber": 25,
  "ShimSetting": [626, -7173, -8858, 296, 35, -203, -82, -14],
  "SliceThickness": 2,
  "SliceTiming": [0, 0.7825, 0.0975, 0.88, 0.195, 0.98, 0.2925, 1.0775, 0.39, 1.175, 0.49, 1.2725, 0.5875, 1.37, 0.685, 0, 0.7825, 0.0975, 0.88, 0.195, 0.98, 0.2925, 1.0775, 0.39, 1.175, 0.49, 1.2725, 0.5875, 1.37, 0.685, 0, 0.7825, 0.0975, 0.88, 0.195, 0.98, 0.2925, 1.0775, 0.39, 1.175, 0.49, 1.2725, 0.5875, 1.37, 0.685, 0, 0.7825, 0.0975, 0.88, 0.195, 0.98, 0.2925, 1.0775, 0.39, 1.175, 0.49, 1.2725, 0.5875, 1.37, 0.685],
  "SoftwareVersions": "syngo_MR_E11",
  "SpacingBetweenSlices": 2,
  "StationName": "MRC35049",
  "TaskName": "things",
  "TotalReadoutTime": 0.0576811,
  "TxRefAmp": 289.108,
  "WipMemBlock": "dfd7cf25-955c-4ca8-b3f3-d8f008a74f64||Sequence: R016 ve11c/master r/e634e98; Dec 19 2017 11:00:25 by eja",
  "dcmmeta_affine": [
    [-1.998802900314331, 0.025119086727499962, 0.06446642428636551, 104.250244140625],
    [-0.011163950897753239, 1.7220172882080078, -1.017119288444519, -49.910179138183594],
    [0.06828070431947708, 1.016870379447937, 1.72084641456604, -104.97858428955078],
    [0.0, 0.0, 0.0, 1.0]
],
  "dcmmeta_reorient_transform": [
    [0.0, -1.0, 0.0, 103.0],
    [1.0, 0.0, 0.0, 0.0],
    [0.0, 0.0, 1.0, 0.0],
    [0.0, 0.0, 0.0, 1.0]
],
  "dcmmeta_shape": [104, 104, 60, 190],
  "dcmmeta_slice_dim": 2,
  "dcmmeta_version": 0.6,
  "global": {
    "const": {
      "AcquisitionMatrix": [104, 0, 0, 104],
      "AngioFlag": "N",
      "BitsAllocated": 16,
      "BitsStored": 16,
      "BodyPartExamined": "BRAIN",
      "Columns": 832,
      "EchoNumbers": 1,
      "EchoTime": 37.0,
      "EchoTrainLength": 104,
      "FlipAngle": 52.0,
      "HighBit": 15,
      "ImageOrientationPatient": [0.99940145987179, 0.00558197536118, 0.03414035086522, 0.01255954345239, 0.86100867083241, -0.5084351744516],
      "ImagePositionPatient": [-843.54511689188, -758.33559765626, 345.04569297366],
      "ImageType": [
        "ORIGINAL",
        "PRIMARY",
        "M",
        "MB",
        "ND",
        "MOSAIC"
],
      "ImagedNucleus": "1H",
      "ImagingFrequency": 123.258925,
      "InPlanePhaseEncodingDirection": "COL",
      "MRAcquisitionType": "2D",
      "MagneticFieldStrength": 3.0,
      "Manufacturer": "SIEMENS",
      "ManufacturerModelName": "Prisma_fit",
      "Modality": "MR",
      "NumberOfAverages": 1.0,
      "NumberOfPhaseEncodingSteps": 104,
      "PercentPhaseFieldOfView": 100.0,
      "PercentSampling": 100.0,
      "PerformedProcedureStepStartTime": "103257.114000",
      "PhotometricInterpretation": "MONOCHROME2",
      "PixelBandwidth": 2290.0,
      "PixelRepresentation": 0,
      "PixelSpacing": [2.0, 2.0],
      "ProtocolName": "func_task-things_run-6",
      "RepetitionTime": 1490.0,
      "Rows": 832,
      "SAR": 0.05027010179745,
      "SamplesPerPixel": 1,
      "ScanOptions": "FS",
      "ScanningSequence": "EP",
      "SequenceName": "epfid2d1_104",
      "SequenceVariant": [
        "SK",
        "SS"
],
      "SeriesDescription": "func_task-things_run-6",
      "SeriesNumber": 25,
      "SeriesTime": "112524.738000",
      "SliceLocation": -61.583388507777,
      "SliceThickness": 2.0,
      "SmallestImagePixelValue": 0,
      "SoftwareVersions": "syngo MR E11",
      "SpacingBetweenSlices": 1.9999999814001,
      "SpecificCharacterSet": "ISO_IR 100",
      "StudyID": "1",
      "StudyTime": "103256.979000",
      "TransmitCoilName": "Body",
      "VariableFlipAngleFlag": "N",
      "WindowCenterWidthExplanation": "Algo1",
      "dBdt": 0.0},
    "slices": {}
  },
  "time": {
    "samples": {
      "AcquisitionNumber": [1, 2, 3, 4, 5, 6, 7, 8, 9, 10, 11, 12, 13, 14, 15, 16, 17, 18, 19, 20, 21, 22, 23, 24, 25, 26, 27, 28, 29, 30, 31, 32, 33, 34, 35, 36, 37, 38, 39, 40, 41, 42, 43, 44, 45, 46, 47, 48, 49, 50, 51, 52, 53, 54, 55, 56, 57, 58, 59, 60, 61, 62, 63, 64, 65, 66, 67, 68, 69, 70, 71, 72, 73, 74, 75, 76, 77, 78, 79, 80, 81, 82, 83, 84, 85, 86, 87, 88, 89, 90, 91, 92, 93, 94, 95, 96, 97, 98, 99, 100, 101, 102, 103, 104, 105, 106, 107, 108, 109, 110, 111, 112, 113, 114, 115, 116, 117, 118, 119, 120, 121, 122, 123, 124, 125, 126, 127, 128, 129, 130, 131, 132, 133, 134, 135, 136, 137, 138, 139, 140, 141, 142, 143, 144, 145, 146, 147, 148, 149, 150, 151, 152, 153, 154, 155, 156, 157, 158, 159, 160, 161, 162, 163, 164, 165, 166, 167, 168, 169, 170, 171, 172, 173, 174, 175, 176, 177, 178, 179, 180, 181, 182, 183, 184, 185, 186, 187, 188, 189, 190],
      "AcquisitionTime": ["112426.015000", "112427.505000", "112428.995000", "112430.485000", "112431.975000", "112433.465000", "112434.955000", "112436.445000", "112437.935000", "112439.425000", "112440.915000", "112442.405000", "112443.895000", "112445.385000", "112446.875000", "112448.365000", "112449.855000", "112451.345000", "112452.835000", "112454.325000", "112455.815000", "112457.305000", "112458.795000", "112500.285000", "112501.775000", "112503.265000", "112504.755000", "112506.245000", "112507.735000", "112509.225000", "112510.715000", "112512.205000", "112513.695000", "112515.185000", "112516.675000", "112518.165000", "112519.655000", "112521.145000", "112522.635000", "112524.125000", "112525.615000", "112527.105000", "112528.595000", "112530.085000", "112531.575000", "112533.065000", "112534.555000", "112536.045000", "112537.535000", "112539.025000", "112540.515000", "112542.005000", "112543.495000", "112544.985000", "112546.475000", "112547.965000", "112549.455000", "112550.945000", "112552.435000", "112553.925000", "112555.415000", "112556.905000", "112558.395000", "112559.885000", "112601.375000", "112602.865000", "112604.355000", "112605.845000", "112607.335000", "112608.825000", "112610.315000", "112611.805000", "112613.295000", "112614.785000", "112616.275000", "112617.765000", "112619.255000", "112620.745000", "112622.235000", "112623.725000", "112625.215000", "112626.705000", "112628.195000", "112629.685000", "112631.175000", "112632.665000", "112634.155000", "112635.645000", "112637.135000", "112638.625000", "112640.115000", "112641.605000", "112643.095000", "112644.585000", "112646.075000", "112647.565000", "112649.055000", "112650.545000", "112652.035000", "112653.525000", "112655.015000", "112656.505000", "112657.995000", "112659.485000", "112700.975000", "112702.465000", "112703.955000", "112705.445000", "112706.935000", "112708.425000", "112709.915000", "112711.405000", "112712.895000", "112714.385000", "112715.875000", "112717.365000", "112718.855000", "112720.345000", "112721.835000", "112723.325000", "112724.815000", "112726.305000", "112727.795000", "112729.285000", "112730.775000", "112732.265000", "112733.755000", "112735.245000", "112736.735000", "112738.225000", "112739.715000", "112741.205000", "112742.695000", "112744.185000", "112745.675000", "112747.165000", "112748.655000", "112750.145000", "112751.635000", "112753.125000", "112754.615000", "112756.105000", "112757.595000", "112759.085000", "112800.575000", "112802.065000", "112803.555000", "112805.045000", "112806.535000", "112808.025000", "112809.515000", "112811.005000", "112812.495000", "112813.985000", "112815.475000", "112816.965000", "112818.455000", "112819.945000", "112821.435000", "112822.925000", "112824.415000", "112825.905000", "112827.395000", "112828.885000", "112830.375000", "112831.865000", "112833.355000", "112834.845000", "112836.335000", "112837.825000", "112839.315000", "112840.805000", "112842.295000", "112843.785000", "112845.275000", "112846.765000", "112848.255000", "112849.745000", "112851.235000", "112852.725000", "112854.215000", "112855.705000", "112857.195000", "112858.685000", "112900.175000", "112901.665000", "112903.155000", "112904.645000", "112906.135000", "112907.625000"],
      "ContentTime": ["112524.741000", "112524.745000", "112524.748000", "112524.758000", "112524.761000", "112544.703000", "112544.707000", "112544.710000", "112544.713000", "112544.716000", "112544.720000", "112544.723000", "112544.726000", "112544.729000", "112544.738000", "112544.741000", "112544.744000", "112544.748000", "112544.751000", "112544.754000", "112544.758000", "112544.761000", "112544.764000", "112544.767000", "112544.771000", "112604.704000", "112604.708000", "112604.711000", "112604.714000", "112604.718000", "112604.721000", "112604.724000", "112604.728000", "112604.731000", "112604.735000", "112604.738000", "112604.741000", "112604.745000", "112604.748000", "112604.751000", "112604.755000", "112604.758000", "112604.761000", "112604.765000", "112604.772000", "112624.718000", "112624.721000", "112624.724000", "112624.728000", "112624.731000", "112624.734000", "112624.738000", "112624.741000", "112624.744000", "112624.748000", "112624.751000", "112624.754000", "112624.758000", "112624.761000", "112624.764000", "112624.768000", "112624.771000", "112624.774000", "112624.778000", "112624.781000", "112644.704000", "112644.708000", "112644.711000", "112644.714000", "112644.717000", "112644.721000", "112644.724000", "112644.728000", "112644.731000", "112644.734000", "112644.737000", "112644.741000", "112644.744000", "112644.748000", "112644.751000", "112644.754000", "112644.758000", "112644.761000", "112644.765000", "112644.768000", "112704.703000", "112704.707000", "112704.710000", "112704.713000", "112704.717000", "112704.720000", "112704.723000", "112704.727000", "112704.730000", "112704.733000", "112704.737000", "112704.740000", "112704.743000", "112704.747000", "112704.750000", "112704.753000", "112704.757000", "112704.760000", "112704.763000", "112704.767000", "112744.703000", "112744.707000", "112744.710000", "112744.714000", "112744.717000", "112744.720000", "112744.723000", "112744.727000", "112744.730000", "112744.734000", "112744.737000", "112744.740000", "112744.744000", "112744.747000", "112744.750000", "112744.754000", "112744.757000", "112744.761000", "112744.764000", "112744.767000", "112744.771000", "112744.774000", "112744.777000", "112744.781000", "112744.784000", "112744.787000", "112744.790000", "112824.704000", "112824.708000", "112824.711000", "112824.714000", "112824.718000", "112824.721000", "112824.724000", "112824.728000", "112824.731000", "112824.734000", "112824.738000", "112824.741000", "112824.744000", "112824.748000", "112824.751000", "112824.764000", "112824.768000", "112824.771000", "112824.774000", "112824.778000", "112824.781000", "112824.784000", "112824.788000", "112824.791000", "112824.794000", "112824.798000", "112824.801000", "112904.704000", "112904.708000", "112904.711000", "112904.715000", "112904.718000", "112904.721000", "112904.725000", "112904.728000", "112904.732000", "112904.735000", "112904.738000", "112904.742000", "112904.745000", "112904.748000", "112904.752000", "112904.755000", "112904.759000", "112904.762000", "112904.765000", "112904.769000", "112904.772000", "112904.775000", "112904.778000", "112904.782000", "112904.785000", "112904.788000", "112904.792000", "112910.031000", "112910.035000", "112910.038000", "112910.041000"],
      "InstanceCreationTime": ["112524.741000", "112524.745000", "112524.748000", "112524.758000", "112524.761000", "112544.703000", "112544.707000", "112544.710000", "112544.713000", "112544.716000", "112544.720000", "112544.723000", "112544.726000", "112544.729000", "112544.738000", "112544.741000", "112544.744000", "112544.748000", "112544.751000", "112544.754000", "112544.758000", "112544.761000", "112544.764000", "112544.767000", "112544.771000", "112604.704000", "112604.708000", "112604.711000", "112604.714000", "112604.718000", "112604.721000", "112604.724000", "112604.728000", "112604.731000", "112604.735000", "112604.738000", "112604.741000", "112604.745000", "112604.748000", "112604.751000", "112604.755000", "112604.758000", "112604.761000", "112604.765000", "112604.772000", "112624.718000", "112624.721000", "112624.724000", "112624.728000", "112624.731000", "112624.734000", "112624.738000", "112624.741000", "112624.744000", "112624.748000", "112624.751000", "112624.754000", "112624.758000", "112624.761000", "112624.764000", "112624.768000", "112624.771000", "112624.774000", "112624.778000", "112624.781000", "112644.704000", "112644.708000", "112644.711000", "112644.714000", "112644.717000", "112644.721000", "112644.724000", "112644.728000", "112644.731000", "112644.734000", "112644.737000", "112644.741000", "112644.744000", "112644.748000", "112644.751000", "112644.754000", "112644.758000", "112644.761000", "112644.765000", "112644.768000", "112704.703000", "112704.707000", "112704.710000", "112704.713000", "112704.717000", "112704.720000", "112704.723000", "112704.727000", "112704.730000", "112704.733000", "112704.737000", "112704.740000", "112704.743000", "112704.747000", "112704.750000", "112704.753000", "112704.757000", "112704.760000", "112704.763000", "112704.767000", "112744.703000", "112744.707000", "112744.710000", "112744.714000", "112744.717000", "112744.720000", "112744.723000", "112744.727000", "112744.730000", "112744.734000", "112744.737000", "112744.740000", "112744.744000", "112744.747000", "112744.750000", "112744.754000", "112744.757000", "112744.761000", "112744.764000", "112744.767000", "112744.771000", "112744.774000", "112744.777000", "112744.781000", "112744.784000", "112744.787000", "112744.790000", "112824.704000", "112824.708000", "112824.711000", "112824.714000", "112824.718000", "112824.721000", "112824.724000", "112824.728000", "112824.731000", "112824.734000", "112824.738000", "112824.741000", "112824.744000", "112824.748000", "112824.751000", "112824.764000", "112824.768000", "112824.771000", "112824.774000", "112824.778000", "112824.781000", "112824.784000", "112824.788000", "112824.791000", "112824.794000", "112824.798000", "112824.801000", "112904.704000", "112904.708000", "112904.711000", "112904.715000", "112904.718000", "112904.721000", "112904.725000", "112904.728000", "112904.732000", "112904.735000", "112904.738000", "112904.742000", "112904.745000", "112904.748000", "112904.752000", "112904.755000", "112904.759000", "112904.762000", "112904.765000", "112904.769000", "112904.772000", "112904.775000", "112904.778000", "112904.782000", "112904.785000", "112904.788000", "112904.792000", "112910.031000", "112910.035000", "112910.038000", "112910.041000"],
      "InstanceNumber": [1, 2, 3, 4, 5, 6, 7, 8, 9, 10, 11, 12, 13, 14, 15, 16, 17, 18, 19, 20, 21, 22, 23, 24, 25, 26, 27, 28, 29, 30, 31, 32, 33, 34, 35, 36, 37, 38, 39, 40, 41, 42, 43, 44, 45, 46, 47, 48, 49, 50, 51, 52, 53, 54, 55, 56, 57, 58, 59, 60, 61, 62, 63, 64, 65, 66, 67, 68, 69, 70, 71, 72, 73, 74, 75, 76, 77, 78, 79, 80, 81, 82, 83, 84, 85, 86, 87, 88, 89, 90, 91, 92, 93, 94, 95, 96, 97, 98, 99, 100, 101, 102, 103, 104, 105, 106, 107, 108, 109, 110, 111, 112, 113, 114, 115, 116, 117, 118, 119, 120, 121, 122, 123, 124, 125, 126, 127, 128, 129, 130, 131, 132, 133, 134, 135, 136, 137, 138, 139, 140, 141, 142, 143, 144, 145, 146, 147, 148, 149, 150, 151, 152, 153, 154, 155, 156, 157, 158, 159, 160, 161, 162, 163, 164, 165, 166, 167, 168, 169, 170, 171, 172, 173, 174, 175, 176, 177, 178, 179, 180, 181, 182, 183, 184, 185, 186, 187, 188, 189, 190],
      "LargestImagePixelValue": [45003, 43446, 40005, 41006, 40297, 39368, 45065, 40931, 41342, 40061, 41732, 41768, 45922, 40485, 40854, 39186, 39244, 39299, 40930, 40130, 39726, 40037, 40382, 41968, 40484, 42983, 41550, 39123, 39721, 39667, 39563, 41320, 40187, 40062, 41543, 41248, 43048, 42778, 42152, 41531, 40550, 39301, 40080, 40924, 40791, 40620, 41338, 41517, 42687, 43557, 41756, 42120, 39638, 41502, 43109, 40827, 40255, 43084, 40971, 41695, 42023, 41653, 40555, 40106, 41083, 41696, 41169, 42188, 41401, 41044, 41040, 40304, 40276, 40160, 40824, 39989, 40148, 40849, 44247, 40724, 40221, 40336, 39425, 40159, 40942, 40502, 39948, 40188, 42469, 39843, 41282, 42044, 42040, 41900, 39771, 40675, 41431, 42274, 42593, 41003, 41365, 42079, 42121, 41263, 40885, 44948, 40139, 40388, 40991, 41129, 42014, 43617, 41797, 41987, 41492, 40591, 41408, 40352, 40094, 39752, 40183, 39060, 41012, 41532, 41853, 40036, 41530, 41572, 40872, 41090, 40202, 41079, 41936, 42606, 42860, 40718, 41386, 41886, 41523, 40567, 40630, 40410, 41057, 41651, 43244, 42022, 40147, 40232, 41747, 41505, 40201, 41528, 41090, 41220, 42226, 42857, 41153, 40043, 41135, 41222, 40510, 41746, 41594, 42295, 41822, 42920, 43326, 40771, 40912, 41631, 40758, 39719, 41421, 42545, 41831, 42084, 40951, 40464, 41446, 41230, 40557, 41284, 40627, 40417, 41519, 45034, 41848, 44056, 43735, 43247],
      "WindowCenter": [10599.0, 10547.0, 10459.0, 10436.0, 10431.0, 10456.0, 10550.0, 10511.0, 10508.0, 10512.0, 10492.0, 10458.0, 10487.0, 10453.0, 10491.0, 10487.0, 10491.0, 10471.0, 10460.0, 10436.0, 10447.0, 10482.0, 10494.0, 10518.0, 10551.0, 10586.0, 10501.0, 10437.0, 10444.0, 10487.0, 10514.0, 10534.0, 10507.0, 10482.0, 10493.0, 10518.0, 10543.0, 10502.0, 10472.0, 10450.0, 10449.0, 10479.0, 10513.0, 10522.0, 10499.0, 10480.0, 10482.0, 10484.0, 10474.0, 10492.0, 10471.0, 10500.0, 10475.0, 10518.0, 10543.0, 10510.0, 10479.0, 10494.0, 10467.0, 10496.0, 10517.0, 10517.0, 10497.0, 10479.0, 10476.0, 10496.0, 10522.0, 10530.0, 10497.0, 10477.0, 10492.0, 10516.0, 10539.0, 10530.0, 10512.0, 10489.0, 10475.0, 10471.0, 10512.0, 10489.0, 10492.0, 10508.0, 10512.0, 10505.0, 10490.0, 10480.0, 10485.0, 10510.0, 10545.0, 10535.0, 10529.0, 10499.0, 10458.0, 10435.0, 10419.0, 10464.0, 10497.0, 10509.0, 10504.0, 10502.0, 10480.0, 10465.0, 10441.0, 10429.0, 10451.0, 10521.0, 10480.0, 10483.0, 10482.0, 10488.0, 10495.0, 10522.0, 10509.0, 10489.0, 10460.0, 10462.0, 10526.0, 10561.0, 10541.0, 10495.0, 10481.0, 10475.0, 10505.0, 10509.0, 10502.0, 10490.0, 10498.0, 10457.0, 10419.0, 10405.0, 10419.0, 10484.0, 10529.0, 10532.0, 10519.0, 10501.0, 10493.0, 10483.0, 10449.0, 10429.0, 10443.0, 10459.0, 10478.0, 10494.0, 10506.0, 10495.0, 10491.0, 10486.0, 10466.0, 10443.0, 10440.0, 10490.0, 10510.0, 10521.0, 10507.0, 10509.0, 10502.0, 10481.0, 10462.0, 10443.0, 10437.0, 10484.0, 10510.0, 10519.0, 10494.0, 10488.0, 10501.0, 10494.0, 10517.0, 10501.0, 10460.0, 10447.0, 10489.0, 10517.0, 10514.0, 10506.0, 10463.0, 10446.0, 10481.0, 10504.0, 10521.0, 10515.0, 10475.0, 10444.0, 10462.0, 10536.0, 10548.0, 10569.0, 10544.0, 10499.0],
      "WindowWidth": [22677.0, 22521.0, 22320.0, 22255.0, 22236.0, 22293.0, 22479.0, 22407.0, 22394.0, 22412.0, 22355.0, 22280.0, 22335.0, 22274.0, 22355.0, 22363.0, 22366.0, 22318.0, 22292.0, 22241.0, 22265.0, 22341.0, 22370.0, 22414.0, 22498.0, 22564.0, 22378.0, 22252.0, 22260.0, 22350.0, 22415.0, 22450.0, 22394.0, 22338.0, 22356.0, 22419.0, 22462.0, 22377.0, 22311.0, 22260.0, 22261.0, 22332.0, 22411.0, 22424.0, 22371.0, 22331.0, 22330.0, 22334.0, 22309.0, 22346.0, 22306.0, 22372.0, 22326.0, 22411.0, 22468.0, 22394.0, 22331.0, 22356.0, 22302.0, 22364.0, 22413.0, 22411.0, 22372.0, 22339.0, 22323.0, 22367.0, 22425.0, 22442.0, 22370.0, 22328.0, 22356.0, 22414.0, 22470.0, 22448.0, 22405.0, 22354.0, 22321.0, 22309.0, 22394.0, 22354.0, 22360.0, 22391.0, 22408.0, 22389.0, 22359.0, 22329.0, 22341.0, 22395.0, 22463.0, 22455.0, 22438.0, 22363.0, 22272.0, 22222.0, 22195.0, 22292.0, 22367.0, 22384.0, 22372.0, 22375.0, 22325.0, 22293.0, 22239.0, 22212.0, 22263.0, 22414.0, 22333.0, 22335.0, 22331.0, 22340.0, 22356.0, 22416.0, 22387.0, 22343.0, 22283.0, 22290.0, 22429.0, 22516.0, 22474.0, 22373.0, 22332.0, 22321.0, 22385.0, 22389.0, 22372.0, 22356.0, 22370.0, 22275.0, 22196.0, 22165.0, 22196.0, 22337.0, 22436.0, 22438.0, 22403.0, 22377.0, 22355.0, 22332.0, 22262.0, 22220.0, 22248.0, 22288.0, 22331.0, 22359.0, 22381.0, 22357.0, 22356.0, 22347.0, 22298.0, 22247.0, 22248.0, 22352.0, 22399.0, 22425.0, 22380.0, 22381.0, 22375.0, 22338.0, 22294.0, 22249.0, 22237.0, 22334.0, 22396.0, 22414.0, 22354.0, 22341.0, 22364.0, 22367.0, 22416.0, 22376.0, 22291.0, 22265.0, 22347.0, 22407.0, 22404.0, 22380.0, 22291.0, 22259.0, 22330.0, 22381.0, 22429.0, 22408.0, 22326.0, 22256.0, 22287.0, 22453.0, 22497.0, 22543.0, 22494.0, 22389.0]
    },
    "slices": {}
  }
}