{
  "AcquisitionMatrixPE": 104,
  "AcquisitionNumber": 1,
  "AcquisitionTime": "11:06:19.012500",
  "BandwidthPerPixelPhaseEncode": 17.17,
  "BaseResolution": 104,
  "BodyPartExamined": "BRAIN",
  "CoilString": "HC1-7;NC1_2",
  "ConsistencyInfo": "N4_VE11C_LATEST_20160120",
  "ConversionSoftware": "dcm2niix",
  "ConversionSoftwareVersion": "v1.0.20190902",
  "DerivedVendorReportedEchoSpacing": 0.000560011,
  "DeviceSerialNumber": "167006",
  "DwellTime": 2.1e-06,
  "EchoTime": 0.037,
  "EchoTrainLength": 104,
  "EffectiveEchoSpacing": 0.000560011,
  "FlipAngle": 52,
  "HeudiconvVersion": "0.10.0",
  "ImageComments": "Unaliased_MB4_PE3_LB",
  "ImageOrientationPatientDICOM": [0.999401, 0.00558198, 0.0341404, 0.0125595, 0.861009, -0.508435],
  "ImageType": [
    "ORIGINAL",
    "PRIMARY",
    "P",
    "MB",
    "ND",
    "MOSAIC"
],
  "ImagingFrequency": 123.259,
  "InPlanePhaseEncodingDirectionDICOM": "COL",
  "InstitutionAddress": "Chemin_Queen-Mary_4565_Montreal_District_CA_H3W_1W5",
  "InstitutionName": "IUGM",
  "InstitutionalDepartmentName": "Department",
  "MRAcquisitionType": "2D",
  "MagneticFieldStrength": 3,
  "Manufacturer": "Siemens",
  "ManufacturersModelName": "Prisma_fit",
  "Modality": "MR",
  "MultibandAccelerationFactor": 4,
  "PartialFourier": 1,
  "PatientPosition": "HFS",
  "PercentPhaseFOV": 100,
  "PhaseEncodingDirection": "j",
  "PhaseEncodingSteps": 104,
  "PhaseResolution": 1,
  "PixelBandwidth": 2290,
  "ProcedureStepDescription": "memory_things",
  "ProtocolName": "func_task-things_run-3",
  "PulseSequenceDetails": "%CustomerSeq%_cmrr_mbep2d_bold",
  "ReceiveCoilActiveElements": "HC1-7;NC1,2",
  "ReceiveCoilName": "HeadNeck_64",
  "ReconMatrixPE": 104,
  "RepetitionTime": 1.49,
  "SAR": 0.0502701,
  "ScanOptions": "FS",
  "ScanningSequence": "EP",
  "SequenceName": "epfid2d1_104",
  "SequenceVariant": "SK_SS",
  "SeriesDescription": "func_task-things_run-3",
  "SeriesNumber": 17,
  "ShimSetting": [626, -7173, -8858, 296, 35, -203, -82, -14],
  "SliceThickness": 2,
  "SliceTiming": [0, 0.7825, 0.0975, 0.88, 0.195, 0.98, 0.2925, 1.0775, 0.39, 1.175, 0.49, 1.2725, 0.5875, 1.37, 0.685, 0, 0.7825, 0.0975, 0.88, 0.195, 0.98, 0.2925, 1.0775, 0.39, 1.175, 0.49, 1.2725, 0.5875, 1.37, 0.685, 0, 0.7825, 0.0975, 0.88, 0.195, 0.98, 0.2925, 1.0775, 0.39, 1.175, 0.49, 1.2725, 0.5875, 1.37, 0.685, 0, 0.7825, 0.0975, 0.88, 0.195, 0.98, 0.2925, 1.0775, 0.39, 1.175, 0.49, 1.2725, 0.5875, 1.37, 0.685],
  "SoftwareVersions": "syngo_MR_E11",
  "SpacingBetweenSlices": 2,
  "StationName": "MRC35049",
  "TaskName": "things",
  "TotalReadoutTime": 0.0576811,
  "TxRefAmp": 289.108,
  "WipMemBlock": "3cb3348e-1704-4aac-94a5-6398fc167bd2||Sequence: R016 ve11c/master r/e634e98; Dec 19 2017 11:00:25 by eja",
  "dcmmeta_affine": [
    [-1.998802900314331, 0.025119086727499962, 0.06446642428636551, 104.250244140625],
    [-0.011163950897753239, 1.7220172882080078, -1.017119288444519, -49.910179138183594],
    [0.06828070431947708, 1.016870379447937, 1.72084641456604, -104.97858428955078],
    [0.0, 0.0, 0.0, 1.0]
],
  "dcmmeta_reorient_transform": [
    [0.0, -1.0, 0.0, 103.0],
    [1.0, 0.0, 0.0, 0.0],
    [0.0, 0.0, 1.0, 0.0],
    [0.0, 0.0, 0.0, 1.0]
],
  "dcmmeta_shape": [104, 104, 60, 190],
  "dcmmeta_slice_dim": 2,
  "dcmmeta_version": 0.6,
  "global": {
    "const": {
      "AcquisitionMatrix": [104, 0, 0, 104],
      "AngioFlag": "N",
      "BitsAllocated": 16,
      "BitsStored": 16,
      "BodyPartExamined": "BRAIN",
      "Columns": 832,
      "EchoNumbers": 1,
      "EchoTime": 37.0,
      "EchoTrainLength": 104,
      "FlipAngle": 52.0,
      "HighBit": 15,
      "ImageOrientationPatient": [0.99940145987179, 0.00558197536118, 0.03414035086522, 0.01255954345239, 0.86100867083241, -0.5084351744516],
      "ImagePositionPatient": [-843.54511689188, -758.33559765626, 345.04569297366],
      "ImageType": [
        "ORIGINAL",
        "PRIMARY",
        "P",
        "MB",
        "ND",
        "MOSAIC"
],
      "ImagedNucleus": "1H",
      "ImagingFrequency": 123.258919,
      "InPlanePhaseEncodingDirection": "COL",
      "LargestImagePixelValue": 4095,
      "MRAcquisitionType": "2D",
      "MagneticFieldStrength": 3.0,
      "Manufacturer": "SIEMENS",
      "ManufacturerModelName": "Prisma_fit",
      "Modality": "MR",
      "NumberOfAverages": 1.0,
      "NumberOfPhaseEncodingSteps": 104,
      "PercentPhaseFieldOfView": 100.0,
      "PercentSampling": 100.0,
      "PerformedProcedureStepStartTime": "103257.114000",
      "PhotometricInterpretation": "MONOCHROME2",
      "PixelBandwidth": 2290.0,
      "PixelRepresentation": 0,
      "PixelSpacing": [2.0, 2.0],
      "ProtocolName": "func_task-things_run-3",
      "RepetitionTime": 1490.0,
      "RescaleIntercept": -4096.0,
      "RescaleSlope": 2.0,
      "RescaleType": "US",
      "Rows": 832,
      "SAR": 0.05027010179745,
      "SamplesPerPixel": 1,
      "ScanOptions": "FS",
      "ScanningSequence": "EP",
      "SequenceName": "epfid2d1_104",
      "SequenceVariant": [
        "SK",
        "SS"
],
      "SeriesDescription": "func_task-things_run-3",
      "SeriesNumber": 17,
      "SeriesTime": "110745.009000",
      "SliceLocation": -61.583388507777,
      "SliceThickness": 2.0,
      "SmallestImagePixelValue": 0,
      "SoftwareVersions": "syngo MR E11",
      "SpacingBetweenSlices": 1.9999999814001,
      "SpecificCharacterSet": "ISO_IR 100",
      "StudyID": "1",
      "StudyTime": "103256.979000",
      "TransmitCoilName": "Body",
      "VariableFlipAngleFlag": "N",
      "WindowCenterWidthExplanation": "Algo1",
      "dBdt": 0.0},
    "slices": {}
  },
  "time": {
    "samples": {
      "AcquisitionNumber": [1, 2, 3, 4, 5, 6, 7, 8, 9, 10, 11, 12, 13, 14, 15, 16, 17, 18, 19, 20, 21, 22, 23, 24, 25, 26, 27, 28, 29, 30, 31, 32, 33, 34, 35, 36, 37, 38, 39, 40, 41, 42, 43, 44, 45, 46, 47, 48, 49, 50, 51, 52, 53, 54, 55, 56, 57, 58, 59, 60, 61, 62, 63, 64, 65, 66, 67, 68, 69, 70, 71, 72, 73, 74, 75, 76, 77, 78, 79, 80, 81, 82, 83, 84, 85, 86, 87, 88, 89, 90, 91, 92, 93, 94, 95, 96, 97, 98, 99, 100, 101, 102, 103, 104, 105, 106, 107, 108, 109, 110, 111, 112, 113, 114, 115, 116, 117, 118, 119, 120, 121, 122, 123, 124, 125, 126, 127, 128, 129, 130, 131, 132, 133, 134, 135, 136, 137, 138, 139, 140, 141, 142, 143, 144, 145, 146, 147, 148, 149, 150, 151, 152, 153, 154, 155, 156, 157, 158, 159, 160, 161, 162, 163, 164, 165, 166, 167, 168, 169, 170, 171, 172, 173, 174, 175, 176, 177, 178, 179, 180, 181, 182, 183, 184, 185, 186, 187, 188, 189, 190],
      "AcquisitionTime": ["110619.012500", "110620.502500", "110621.992500", "110623.482500", "110624.972500", "110626.462500", "110627.952500", "110629.442500", "110630.932500", "110632.422500", "110633.912500", "110635.402500", "110636.892500", "110638.382500", "110639.872500", "110641.362500", "110642.852500", "110644.342500", "110645.832500", "110647.322500", "110648.812500", "110650.302500", "110651.792500", "110653.282500", "110654.772500", "110656.262500", "110657.752500", "110659.242500", "110700.732500", "110702.222500", "110703.712500", "110705.202500", "110706.692500", "110708.182500", "110709.672500", "110711.162500", "110712.652500", "110714.142500", "110715.632500", "110717.122500", "110718.612500", "110720.102500", "110721.592500", "110723.082500", "110724.572500", "110726.062500", "110727.552500", "110729.042500", "110730.532500", "110732.022500", "110733.512500", "110735.002500", "110736.492500", "110737.982500", "110739.472500", "110740.962500", "110742.452500", "110743.942500", "110745.432500", "110746.922500", "110748.412500", "110749.902500", "110751.392500", "110752.882500", "110754.372500", "110755.862500", "110757.352500", "110758.842500", "110800.332500", "110801.822500", "110803.312500", "110804.802500", "110806.292500", "110807.782500", "110809.272500", "110810.762500", "110812.252500", "110813.742500", "110815.232500", "110816.722500", "110818.212500", "110819.702500", "110821.192500", "110822.682500", "110824.172500", "110825.662500", "110827.152500", "110828.642500", "110830.132500", "110831.622500", "110833.112500", "110834.602500", "110836.092500", "110837.582500", "110839.072500", "110840.562500", "110842.052500", "110843.542500", "110845.032500", "110846.522500", "110848.012500", "110849.502500", "110850.992500", "110852.482500", "110853.972500", "110855.462500", "110856.952500", "110858.442500", "110859.932500", "110901.422500", "110902.912500", "110904.402500", "110905.892500", "110907.382500", "110908.872500", "110910.362500", "110911.852500", "110913.342500", "110914.832500", "110916.322500", "110917.812500", "110919.302500", "110920.792500", "110922.282500", "110923.772500", "110925.262500", "110926.752500", "110928.242500", "110929.732500", "110931.222500", "110932.712500", "110934.202500", "110935.692500", "110937.182500", "110938.672500", "110940.162500", "110941.652500", "110943.142500", "110944.632500", "110946.122500", "110947.612500", "110949.102500", "110950.592500", "110952.082500", "110953.572500", "110955.062500", "110956.552500", "110958.042500", "110959.532500", "111001.022500", "111002.512500", "111004.002500", "111005.492500", "111006.982500", "111008.472500", "111009.962500", "111011.452500", "111012.942500", "111014.432500", "111015.922500", "111017.412500", "111018.902500", "111020.392500", "111021.882500", "111023.372500", "111024.862500", "111026.352500", "111027.842500", "111029.332500", "111030.822500", "111032.312500", "111033.802500", "111035.292500", "111036.782500", "111038.272500", "111039.762500", "111041.252500", "111042.742500", "111044.232500", "111045.722500", "111047.212500", "111048.702500", "111050.192500", "111051.682500", "111053.172500", "111054.662500", "111056.152500", "111057.642500", "111059.132500", "111100.622500"],
      "ContentTime": ["110745.011000", "110745.022000", "110745.025000", "110745.027000", "110745.030000", "110745.033000", "110745.035000", "110745.038000", "110745.040000", "110745.043000", "110745.045000", "110745.048000", "110745.050000", "110745.053000", "110745.055000", "110745.058000", "110745.060000", "110745.063000", "110745.065000", "110745.068000", "110745.070000", "110745.073000", "110745.075000", "110745.078000", "110745.080000", "110745.082000", "110745.085000", "110745.087000", "110745.090000", "110745.092000", "110745.095000", "110804.871000", "110804.874000", "110804.876000", "110804.879000", "110804.881000", "110804.884000", "110804.886000", "110804.889000", "110804.891000", "110804.894000", "110804.896000", "110804.899000", "110804.901000", "110804.904000", "110804.906000", "110804.909000", "110804.911000", "110804.914000", "110804.916000", "110804.919000", "110804.921000", "110824.807000", "110824.810000", "110824.813000", "110824.815000", "110824.818000", "110824.820000", "110824.823000", "110824.825000", "110824.828000", "110824.830000", "110824.832000", "110824.835000", "110824.837000", "110824.840000", "110824.842000", "110824.845000", "110824.847000", "110824.850000", "110824.852000", "110824.855000", "110844.846000", "110844.849000", "110844.851000", "110844.854000", "110844.856000", "110844.859000", "110844.861000", "110844.864000", "110844.866000", "110844.869000", "110844.871000", "110844.874000", "110844.876000", "110844.879000", "110844.881000", "110844.884000", "110844.886000", "110844.889000", "110844.891000", "110844.894000", "110924.865000", "110924.868000", "110924.870000", "110924.873000", "110924.876000", "110924.878000", "110924.881000", "110924.889000", "110924.892000", "110924.894000", "110924.897000", "110924.899000", "110924.902000", "110924.904000", "110924.907000", "110924.909000", "110924.912000", "110924.914000", "110924.917000", "110924.919000", "110924.922000", "110924.924000", "110924.927000", "110924.929000", "110924.932000", "110924.934000", "110924.937000", "110924.939000", "110924.942000", "110924.944000", "110924.947000", "110924.949000", "111004.856000", "111004.859000", "111004.861000", "111004.864000", "111004.866000", "111004.868000", "111004.871000", "111004.873000", "111004.876000", "111004.878000", "111004.881000", "111004.883000", "111004.886000", "111004.888000", "111004.891000", "111004.893000", "111004.896000", "111004.899000", "111004.901000", "111004.904000", "111004.906000", "111004.909000", "111004.911000", "111004.914000", "111004.916000", "111004.919000", "111004.921000", "111044.846000", "111044.849000", "111044.851000", "111044.854000", "111044.856000", "111044.859000", "111044.861000", "111044.864000", "111044.866000", "111044.868000", "111044.871000", "111044.874000", "111044.876000", "111044.879000", "111044.881000", "111044.884000", "111044.886000", "111044.889000", "111044.891000", "111044.893000", "111044.896000", "111044.898000", "111044.901000", "111044.903000", "111044.906000", "111044.908000", "111044.911000", "111102.560000", "111102.563000", "111102.566000", "111102.568000", "111102.571000", "111102.574000", "111102.576000", "111102.579000", "111102.581000", "111102.584000", "111102.586000", "111102.589000"],
      "InstanceCreationTime": ["110745.011000", "110745.022000", "110745.025000", "110745.027000", "110745.030000", "110745.033000", "110745.035000", "110745.038000", "110745.040000", "110745.043000", "110745.045000", "110745.048000", "110745.050000", "110745.053000", "110745.055000", "110745.058000", "110745.060000", "110745.063000", "110745.065000", "110745.068000", "110745.070000", "110745.073000", "110745.075000", "110745.078000", "110745.080000", "110745.082000", "110745.085000", "110745.087000", "110745.090000", "110745.092000", "110745.095000", "110804.871000", "110804.874000", "110804.876000", "110804.879000", "110804.881000", "110804.884000", "110804.886000", "110804.889000", "110804.891000", "110804.894000", "110804.896000", "110804.899000", "110804.901000", "110804.904000", "110804.906000", "110804.909000", "110804.911000", "110804.914000", "110804.916000", "110804.919000", "110804.921000", "110824.807000", "110824.810000", "110824.813000", "110824.815000", "110824.818000", "110824.820000", "110824.823000", "110824.825000", "110824.828000", "110824.830000", "110824.832000", "110824.835000", "110824.837000", "110824.840000", "110824.842000", "110824.845000", "110824.847000", "110824.850000", "110824.852000", "110824.855000", "110844.846000", "110844.849000", "110844.851000", "110844.854000", "110844.856000", "110844.859000", "110844.861000", "110844.864000", "110844.866000", "110844.869000", "110844.871000", "110844.874000", "110844.876000", "110844.879000", "110844.881000", "110844.884000", "110844.886000", "110844.889000", "110844.891000", "110844.894000", "110924.865000", "110924.868000", "110924.870000", "110924.873000", "110924.876000", "110924.878000", "110924.881000", "110924.889000", "110924.892000", "110924.894000", "110924.897000", "110924.899000", "110924.902000", "110924.904000", "110924.907000", "110924.909000", "110924.912000", "110924.914000", "110924.917000", "110924.919000", "110924.922000", "110924.924000", "110924.927000", "110924.929000", "110924.932000", "110924.934000", "110924.937000", "110924.939000", "110924.942000", "110924.944000", "110924.947000", "110924.949000", "111004.856000", "111004.859000", "111004.861000", "111004.864000", "111004.866000", "111004.868000", "111004.871000", "111004.873000", "111004.876000", "111004.878000", "111004.881000", "111004.883000", "111004.886000", "111004.888000", "111004.891000", "111004.893000", "111004.896000", "111004.899000", "111004.901000", "111004.904000", "111004.906000", "111004.909000", "111004.911000", "111004.914000", "111004.916000", "111004.919000", "111004.921000", "111044.846000", "111044.849000", "111044.851000", "111044.854000", "111044.856000", "111044.859000", "111044.861000", "111044.864000", "111044.866000", "111044.868000", "111044.871000", "111044.874000", "111044.876000", "111044.879000", "111044.881000", "111044.884000", "111044.886000", "111044.889000", "111044.891000", "111044.893000", "111044.896000", "111044.898000", "111044.901000", "111044.903000", "111044.906000", "111044.908000", "111044.911000", "111102.560000", "111102.563000", "111102.566000", "111102.568000", "111102.571000", "111102.574000", "111102.576000", "111102.579000", "111102.581000", "111102.584000", "111102.586000", "111102.589000"],
      "InstanceNumber": [1, 2, 3, 4, 5, 6, 7, 8, 9, 10, 11, 12, 13, 14, 15, 16, 17, 18, 19, 20, 21, 22, 23, 24, 25, 26, 27, 28, 29, 30, 31, 32, 33, 34, 35, 36, 37, 38, 39, 40, 41, 42, 43, 44, 45, 46, 47, 48, 49, 50, 51, 52, 53, 54, 55, 56, 57, 58, 59, 60, 61, 62, 63, 64, 65, 66, 67, 68, 69, 70, 71, 72, 73, 74, 75, 76, 77, 78, 79, 80, 81, 82, 83, 84, 85, 86, 87, 88, 89, 90, 91, 92, 93, 94, 95, 96, 97, 98, 99, 100, 101, 102, 103, 104, 105, 106, 107, 108, 109, 110, 111, 112, 113, 114, 115, 116, 117, 118, 119, 120, 121, 122, 123, 124, 125, 126, 127, 128, 129, 130, 131, 132, 133, 134, 135, 136, 137, 138, 139, 140, 141, 142, 143, 144, 145, 146, 147, 148, 149, 150, 151, 152, 153, 154, 155, 156, 157, 158, 159, 160, 161, 162, 163, 164, 165, 166, 167, 168, 169, 170, 171, 172, 173, 174, 175, 176, 177, 178, 179, 180, 181, 182, 183, 184, 185, 186, 187, 188, 189, 190],
      "WindowCenter": [4920.0, 4924.0, 4902.0, 4904.0, 4906.0, 4904.0, 4926.0, 4920.0, 4894.0, 4918.0, 4896.0, 4848.0, 4874.0, 4926.0, 4904.0, 4906.0, 4884.0, 4904.0, 4928.0, 4926.0, 4914.0, 4916.0, 4920.0, 4914.0, 4922.0, 4926.0, 4928.0, 4910.0, 4930.0, 4906.0, 4928.0, 4876.0, 4842.0, 4882.0, 4924.0, 4932.0, 4904.0, 4880.0, 4908.0, 4928.0, 4926.0, 4890.0, 4880.0, 4918.0, 4922.0, 4924.0, 4930.0, 4928.0, 4924.0, 4930.0, 4916.0, 4916.0, 4922.0, 4922.0, 4904.0, 4916.0, 4918.0, 4906.0, 4924.0, 4928.0, 4906.0, 4924.0, 4906.0, 4922.0, 4924.0, 4924.0, 4894.0, 4848.0, 4882.0, 4926.0, 4906.0, 4906.0, 4904.0, 4880.0, 4926.0, 4914.0, 4916.0, 4922.0, 4922.0, 4926.0, 4922.0, 4924.0, 4926.0, 4924.0, 4926.0, 4904.0, 4922.0, 4924.0, 4926.0, 4920.0, 4920.0, 4930.0, 4924.0, 4926.0, 4930.0, 4924.0, 4928.0, 4922.0, 4920.0, 4928.0, 4926.0, 4906.0, 4922.0, 4926.0, 4918.0, 4922.0, 4914.0, 4910.0, 4928.0, 4924.0, 4922.0, 4908.0, 4928.0, 4926.0, 4926.0, 4928.0, 4924.0, 4922.0, 4926.0, 4886.0, 4890.0, 4924.0, 4920.0, 4924.0, 4906.0, 4930.0, 4926.0, 4928.0, 4922.0, 4922.0, 4920.0, 4918.0, 4926.0, 4916.0, 4890.0, 4928.0, 4906.0, 4928.0, 4908.0, 4924.0, 4916.0, 4922.0, 4924.0, 4924.0, 4924.0, 4906.0, 4906.0, 4908.0, 4920.0, 4916.0, 4924.0, 4894.0, 4922.0, 4922.0, 4922.0, 4906.0, 4930.0, 4922.0, 4904.0, 4924.0, 4896.0, 4924.0, 4922.0, 4918.0, 4902.0, 4924.0, 4912.0, 4922.0, 4926.0, 4924.0, 4926.0, 4906.0, 4922.0, 4922.0, 4928.0, 4926.0, 4922.0, 4926.0, 4924.0, 4926.0, 4926.0, 4922.0, 4922.0, 4928.0, 4884.0, 4746.0, 4800.0, 4916.0, 4910.0, 4870.0],
      "WindowWidth": [18762.0, 18746.0, 18694.0, 18680.0, 18682.0, 18694.0, 18752.0, 18768.0, 18742.0, 18774.0, 18746.0, 18712.0, 18742.0, 18764.0, 18688.0, 18684.0, 18634.0, 18688.0, 18740.0, 18746.0, 18772.0, 18778.0, 18770.0, 18780.0, 18766.0, 18754.0, 18760.0, 18702.0, 18746.0, 18710.0, 18738.0, 18744.0, 18716.0, 18750.0, 18746.0, 18732.0, 18674.0, 18626.0, 18698.0, 18746.0, 18756.0, 18752.0, 18744.0, 18776.0, 18760.0, 18752.0, 18736.0, 18740.0, 18740.0, 18750.0, 18780.0, 18774.0, 18768.0, 18750.0, 18694.0, 18768.0, 18772.0, 18706.0, 18758.0, 18742.0, 18706.0, 18758.0, 18708.0, 18768.0, 18760.0, 18756.0, 18740.0, 18714.0, 18746.0, 18748.0, 18676.0, 18690.0, 18682.0, 18652.0, 18762.0, 18776.0, 18774.0, 18770.0, 18760.0, 18756.0, 18772.0, 18764.0, 18744.0, 18756.0, 18756.0, 18710.0, 18772.0, 18762.0, 18750.0, 18778.0, 18764.0, 18740.0, 18754.0, 18746.0, 18732.0, 18760.0, 18750.0, 18758.0, 18768.0, 18754.0, 18744.0, 18708.0, 18754.0, 18744.0, 18770.0, 18756.0, 18770.0, 18776.0, 18754.0, 18762.0, 18748.0, 18686.0, 18746.0, 18746.0, 18752.0, 18744.0, 18754.0, 18758.0, 18754.0, 18748.0, 18746.0, 18756.0, 18764.0, 18752.0, 18696.0, 18742.0, 18746.0, 18738.0, 18762.0, 18758.0, 18762.0, 18770.0, 18760.0, 18772.0, 18746.0, 18756.0, 18706.0, 18740.0, 18700.0, 18746.0, 18772.0, 18772.0, 18754.0, 18766.0, 18754.0, 18710.0, 18706.0, 18700.0, 18760.0, 18764.0, 18760.0, 18740.0, 18762.0, 18750.0, 18756.0, 18704.0, 18746.0, 18754.0, 18714.0, 18758.0, 18734.0, 18750.0, 18758.0, 18764.0, 18716.0, 18754.0, 18776.0, 18762.0, 18742.0, 18762.0, 18748.0, 18708.0, 18760.0, 18762.0, 18748.0, 18766.0, 18754.0, 18746.0, 18764.0, 18752.0, 18750.0, 18772.0, 18756.0, 18750.0, 18742.0, 18594.0, 18674.0, 18770.0, 18658.0, 18592.0]
    },
    "slices": {}
  }
}