{
  "AcquisitionMatrixPE": 104,
  "AcquisitionNumber": 1,
  "AcquisitionTime": "11:24:26.015000",
  "BandwidthPerPixelPhaseEncode": 17.17,
  "BaseResolution": 104,
  "BodyPartExamined": "BRAIN",
  "CoilString": "HC1-7;NC1_2",
  "ConsistencyInfo": "N4_VE11C_LATEST_20160120",
  "ConversionSoftware": "dcm2niix",
  "ConversionSoftwareVersion": "v1.0.20190902",
  "DerivedVendorReportedEchoSpacing": 0.000560011,
  "DeviceSerialNumber": "167006",
  "DwellTime": 2.1e-06,
  "EchoTime": 0.037,
  "EchoTrainLength": 104,
  "EffectiveEchoSpacing": 0.000560011,
  "FlipAngle": 52,
  "HeudiconvVersion": "0.10.0",
  "ImageComments": "Unaliased_MB4_PE3_LB",
  "ImageOrientationPatientDICOM": [0.999401, 0.00558198, 0.0341404, 0.0125595, 0.861009, -0.508435],
  "ImageType": [
    "ORIGINAL",
    "PRIMARY",
    "P",
    "MB",
    "ND",
    "MOSAIC"
],
  "ImagingFrequency": 123.259,
  "InPlanePhaseEncodingDirectionDICOM": "COL",
  "InstitutionAddress": "Chemin_Queen-Mary_4565_Montreal_District_CA_H3W_1W5",
  "InstitutionName": "IUGM",
  "InstitutionalDepartmentName": "Department",
  "MRAcquisitionType": "2D",
  "MagneticFieldStrength": 3,
  "Manufacturer": "Siemens",
  "ManufacturersModelName": "Prisma_fit",
  "Modality": "MR",
  "MultibandAccelerationFactor": 4,
  "PartialFourier": 1,
  "PatientPosition": "HFS",
  "PercentPhaseFOV": 100,
  "PhaseEncodingDirection": "j",
  "PhaseEncodingSteps": 104,
  "PhaseResolution": 1,
  "PixelBandwidth": 2290,
  "ProcedureStepDescription": "memory_things",
  "ProtocolName": "func_task-things_run-6",
  "PulseSequenceDetails": "%CustomerSeq%_cmrr_mbep2d_bold",
  "ReceiveCoilActiveElements": "HC1-7;NC1,2",
  "ReceiveCoilName": "HeadNeck_64",
  "ReconMatrixPE": 104,
  "RepetitionTime": 1.49,
  "SAR": 0.0502701,
  "ScanOptions": "FS",
  "ScanningSequence": "EP",
  "SequenceName": "epfid2d1_104",
  "SequenceVariant": "SK_SS",
  "SeriesDescription": "func_task-things_run-6",
  "SeriesNumber": 26,
  "ShimSetting": [626, -7173, -8858, 296, 35, -203, -82, -14],
  "SliceThickness": 2,
  "SliceTiming": [0, 0.7825, 0.0975, 0.88, 0.195, 0.98, 0.2925, 1.0775, 0.39, 1.175, 0.49, 1.2725, 0.5875, 1.37, 0.685, 0, 0.7825, 0.0975, 0.88, 0.195, 0.98, 0.2925, 1.0775, 0.39, 1.175, 0.49, 1.2725, 0.5875, 1.37, 0.685, 0, 0.7825, 0.0975, 0.88, 0.195, 0.98, 0.2925, 1.0775, 0.39, 1.175, 0.49, 1.2725, 0.5875, 1.37, 0.685, 0, 0.7825, 0.0975, 0.88, 0.195, 0.98, 0.2925, 1.0775, 0.39, 1.175, 0.49, 1.2725, 0.5875, 1.37, 0.685],
  "SoftwareVersions": "syngo_MR_E11",
  "SpacingBetweenSlices": 2,
  "StationName": "MRC35049",
  "TaskName": "things",
  "TotalReadoutTime": 0.0576811,
  "TxRefAmp": 289.108,
  "WipMemBlock": "dfd7cf25-955c-4ca8-b3f3-d8f008a74f64||Sequence: R016 ve11c/master r/e634e98; Dec 19 2017 11:00:25 by eja",
  "dcmmeta_affine": [
    [-1.998802900314331, 0.025119086727499962, 0.06446642428636551, 104.250244140625],
    [-0.011163950897753239, 1.7220172882080078, -1.017119288444519, -49.910179138183594],
    [0.06828070431947708, 1.016870379447937, 1.72084641456604, -104.97858428955078],
    [0.0, 0.0, 0.0, 1.0]
],
  "dcmmeta_reorient_transform": [
    [0.0, -1.0, 0.0, 103.0],
    [1.0, 0.0, 0.0, 0.0],
    [0.0, 0.0, 1.0, 0.0],
    [0.0, 0.0, 0.0, 1.0]
],
  "dcmmeta_shape": [104, 104, 60, 190],
  "dcmmeta_slice_dim": 2,
  "dcmmeta_version": 0.6,
  "global": {
    "const": {
      "AcquisitionMatrix": [104, 0, 0, 104],
      "AngioFlag": "N",
      "BitsAllocated": 16,
      "BitsStored": 16,
      "BodyPartExamined": "BRAIN",
      "Columns": 832,
      "EchoNumbers": 1,
      "EchoTime": 37.0,
      "EchoTrainLength": 104,
      "FlipAngle": 52.0,
      "HighBit": 15,
      "ImageOrientationPatient": [0.99940145987179, 0.00558197536118, 0.03414035086522, 0.01255954345239, 0.86100867083241, -0.5084351744516],
      "ImagePositionPatient": [-843.54511689188, -758.33559765626, 345.04569297366],
      "ImageType": [
        "ORIGINAL",
        "PRIMARY",
        "P",
        "MB",
        "ND",
        "MOSAIC"
],
      "ImagedNucleus": "1H",
      "ImagingFrequency": 123.258925,
      "InPlanePhaseEncodingDirection": "COL",
      "LargestImagePixelValue": 4095,
      "MRAcquisitionType": "2D",
      "MagneticFieldStrength": 3.0,
      "Manufacturer": "SIEMENS",
      "ManufacturerModelName": "Prisma_fit",
      "Modality": "MR",
      "NumberOfAverages": 1.0,
      "NumberOfPhaseEncodingSteps": 104,
      "PercentPhaseFieldOfView": 100.0,
      "PercentSampling": 100.0,
      "PerformedProcedureStepStartTime": "103257.114000",
      "PhotometricInterpretation": "MONOCHROME2",
      "PixelBandwidth": 2290.0,
      "PixelRepresentation": 0,
      "PixelSpacing": [2.0, 2.0],
      "ProtocolName": "func_task-things_run-6",
      "RepetitionTime": 1490.0,
      "RescaleIntercept": -4096.0,
      "RescaleSlope": 2.0,
      "RescaleType": "US",
      "Rows": 832,
      "SAR": 0.05027010179745,
      "SamplesPerPixel": 1,
      "ScanOptions": "FS",
      "ScanningSequence": "EP",
      "SequenceName": "epfid2d1_104",
      "SequenceVariant": [
        "SK",
        "SS"
],
      "SeriesDescription": "func_task-things_run-6",
      "SeriesNumber": 26,
      "SeriesTime": "112524.800000",
      "SliceLocation": -61.583388507777,
      "SliceThickness": 2.0,
      "SmallestImagePixelValue": 0,
      "SoftwareVersions": "syngo MR E11",
      "SpacingBetweenSlices": 1.9999999814001,
      "SpecificCharacterSet": "ISO_IR 100",
      "StudyID": "1",
      "StudyTime": "103256.979000",
      "TransmitCoilName": "Body",
      "VariableFlipAngleFlag": "N",
      "WindowCenterWidthExplanation": "Algo1",
      "dBdt": 0.0},
    "slices": {}
  },
  "time": {
    "samples": {
      "AcquisitionNumber": [1, 2, 3, 4, 5, 6, 7, 8, 9, 10, 11, 12, 13, 14, 15, 16, 17, 18, 19, 20, 21, 22, 23, 24, 25, 26, 27, 28, 29, 30, 31, 32, 33, 34, 35, 36, 37, 38, 39, 40, 41, 42, 43, 44, 45, 46, 47, 48, 49, 50, 51, 52, 53, 54, 55, 56, 57, 58, 59, 60, 61, 62, 63, 64, 65, 66, 67, 68, 69, 70, 71, 72, 73, 74, 75, 76, 77, 78, 79, 80, 81, 82, 83, 84, 85, 86, 87, 88, 89, 90, 91, 92, 93, 94, 95, 96, 97, 98, 99, 100, 101, 102, 103, 104, 105, 106, 107, 108, 109, 110, 111, 112, 113, 114, 115, 116, 117, 118, 119, 120, 121, 122, 123, 124, 125, 126, 127, 128, 129, 130, 131, 132, 133, 134, 135, 136, 137, 138, 139, 140, 141, 142, 143, 144, 145, 146, 147, 148, 149, 150, 151, 152, 153, 154, 155, 156, 157, 158, 159, 160, 161, 162, 163, 164, 165, 166, 167, 168, 169, 170, 171, 172, 173, 174, 175, 176, 177, 178, 179, 180, 181, 182, 183, 184, 185, 186, 187, 188, 189, 190],
      "AcquisitionTime": ["112426.015000", "112427.505000", "112428.995000", "112430.485000", "112431.975000", "112433.465000", "112434.955000", "112436.445000", "112437.935000", "112439.425000", "112440.915000", "112442.405000", "112443.895000", "112445.385000", "112446.875000", "112448.365000", "112449.855000", "112451.345000", "112452.835000", "112454.325000", "112455.815000", "112457.305000", "112458.795000", "112500.285000", "112501.775000", "112503.265000", "112504.755000", "112506.245000", "112507.735000", "112509.225000", "112510.715000", "112512.205000", "112513.695000", "112515.185000", "112516.675000", "112518.165000", "112519.655000", "112521.145000", "112522.635000", "112524.125000", "112525.615000", "112527.105000", "112528.595000", "112530.085000", "112531.575000", "112533.065000", "112534.555000", "112536.045000", "112537.535000", "112539.025000", "112540.515000", "112542.005000", "112543.495000", "112544.985000", "112546.475000", "112547.965000", "112549.455000", "112550.945000", "112552.435000", "112553.925000", "112555.415000", "112556.905000", "112558.395000", "112559.885000", "112601.375000", "112602.865000", "112604.355000", "112605.845000", "112607.335000", "112608.825000", "112610.315000", "112611.805000", "112613.295000", "112614.785000", "112616.275000", "112617.765000", "112619.255000", "112620.745000", "112622.235000", "112623.725000", "112625.215000", "112626.705000", "112628.195000", "112629.685000", "112631.175000", "112632.665000", "112634.155000", "112635.645000", "112637.135000", "112638.625000", "112640.115000", "112641.605000", "112643.095000", "112644.585000", "112646.075000", "112647.565000", "112649.055000", "112650.545000", "112652.035000", "112653.525000", "112655.015000", "112656.505000", "112657.995000", "112659.485000", "112700.975000", "112702.465000", "112703.955000", "112705.445000", "112706.935000", "112708.425000", "112709.915000", "112711.405000", "112712.895000", "112714.385000", "112715.875000", "112717.365000", "112718.855000", "112720.345000", "112721.835000", "112723.325000", "112724.815000", "112726.305000", "112727.795000", "112729.285000", "112730.775000", "112732.265000", "112733.755000", "112735.245000", "112736.735000", "112738.225000", "112739.715000", "112741.205000", "112742.695000", "112744.185000", "112745.675000", "112747.165000", "112748.655000", "112750.145000", "112751.635000", "112753.125000", "112754.615000", "112756.105000", "112757.595000", "112759.085000", "112800.575000", "112802.065000", "112803.555000", "112805.045000", "112806.535000", "112808.025000", "112809.515000", "112811.005000", "112812.495000", "112813.985000", "112815.475000", "112816.965000", "112818.455000", "112819.945000", "112821.435000", "112822.925000", "112824.415000", "112825.905000", "112827.395000", "112828.885000", "112830.375000", "112831.865000", "112833.355000", "112834.845000", "112836.335000", "112837.825000", "112839.315000", "112840.805000", "112842.295000", "112843.785000", "112845.275000", "112846.765000", "112848.255000", "112849.745000", "112851.235000", "112852.725000", "112854.215000", "112855.705000", "112857.195000", "112858.685000", "112900.175000", "112901.665000", "112903.155000", "112904.645000", "112906.135000", "112907.625000"],
      "ContentTime": ["112524.802000", "112524.805000", "112524.808000", "112524.810000", "112524.812000", "112544.822000", "112544.824000", "112544.827000", "112544.829000", "112544.832000", "112544.834000", "112544.837000", "112544.839000", "112544.842000", "112544.844000", "112544.847000", "112544.849000", "112544.852000", "112544.854000", "112544.857000", "112544.859000", "112544.861000", "112544.864000", "112544.866000", "112544.869000", "112604.821000", "112604.824000", "112604.826000", "112604.837000", "112604.840000", "112604.842000", "112604.845000", "112604.847000", "112604.850000", "112604.852000", "112604.855000", "112604.857000", "112604.860000", "112604.862000", "112604.865000", "112604.867000", "112604.870000", "112604.872000", "112604.875000", "112604.878000", "112624.832000", "112624.834000", "112624.837000", "112624.840000", "112624.842000", "112624.845000", "112624.847000", "112624.849000", "112624.852000", "112624.854000", "112624.857000", "112624.859000", "112624.862000", "112624.864000", "112624.867000", "112624.869000", "112624.872000", "112624.874000", "112624.877000", "112624.879000", "112644.848000", "112644.850000", "112644.853000", "112644.855000", "112644.858000", "112644.860000", "112644.863000", "112644.865000", "112644.869000", "112644.872000", "112644.874000", "112644.877000", "112644.879000", "112644.882000", "112644.884000", "112644.887000", "112644.890000", "112644.908000", "112644.911000", "112644.913000", "112704.807000", "112704.810000", "112704.813000", "112704.815000", "112704.818000", "112704.820000", "112704.823000", "112704.825000", "112704.828000", "112704.830000", "112704.833000", "112704.835000", "112704.838000", "112704.840000", "112704.843000", "112704.854000", "112704.856000", "112704.858000", "112704.861000", "112704.871000", "112744.837000", "112744.840000", "112744.843000", "112744.845000", "112744.848000", "112744.850000", "112744.861000", "112744.864000", "112744.867000", "112744.869000", "112744.872000", "112744.874000", "112744.877000", "112744.879000", "112744.882000", "112744.884000", "112744.887000", "112744.889000", "112744.892000", "112744.894000", "112744.897000", "112744.900000", "112744.903000", "112744.906000", "112744.909000", "112744.911000", "112744.914000", "112824.852000", "112824.855000", "112824.857000", "112824.860000", "112824.862000", "112824.865000", "112824.867000", "112824.870000", "112824.872000", "112824.875000", "112824.877000", "112824.880000", "112824.882000", "112824.885000", "112824.887000", "112824.890000", "112824.892000", "112824.895000", "112824.897000", "112824.900000", "112824.902000", "112824.905000", "112824.907000", "112824.910000", "112824.912000", "112824.915000", "112824.918000", "112904.842000", "112904.844000", "112904.847000", "112904.849000", "112904.852000", "112904.855000", "112904.857000", "112904.859000", "112904.862000", "112904.865000", "112904.867000", "112904.870000", "112904.872000", "112904.875000", "112904.877000", "112904.880000", "112904.882000", "112904.885000", "112904.887000", "112904.890000", "112904.892000", "112904.895000", "112904.897000", "112904.900000", "112904.902000", "112904.905000", "112904.907000", "112910.077000", "112910.079000", "112910.082000", "112910.084000"],
      "InstanceCreationTime": ["112524.802000", "112524.805000", "112524.808000", "112524.810000", "112524.812000", "112544.822000", "112544.824000", "112544.827000", "112544.829000", "112544.832000", "112544.834000", "112544.837000", "112544.839000", "112544.842000", "112544.844000", "112544.847000", "112544.849000", "112544.852000", "112544.854000", "112544.857000", "112544.859000", "112544.861000", "112544.864000", "112544.866000", "112544.869000", "112604.821000", "112604.824000", "112604.826000", "112604.837000", "112604.840000", "112604.842000", "112604.845000", "112604.847000", "112604.850000", "112604.852000", "112604.855000", "112604.857000", "112604.860000", "112604.862000", "112604.865000", "112604.867000", "112604.870000", "112604.872000", "112604.875000", "112604.878000", "112624.832000", "112624.834000", "112624.837000", "112624.840000", "112624.842000", "112624.845000", "112624.847000", "112624.849000", "112624.852000", "112624.854000", "112624.857000", "112624.859000", "112624.862000", "112624.864000", "112624.867000", "112624.869000", "112624.872000", "112624.874000", "112624.877000", "112624.879000", "112644.848000", "112644.850000", "112644.853000", "112644.855000", "112644.858000", "112644.860000", "112644.863000", "112644.865000", "112644.869000", "112644.872000", "112644.874000", "112644.877000", "112644.879000", "112644.882000", "112644.884000", "112644.887000", "112644.890000", "112644.908000", "112644.911000", "112644.913000", "112704.807000", "112704.810000", "112704.813000", "112704.815000", "112704.818000", "112704.820000", "112704.823000", "112704.825000", "112704.828000", "112704.830000", "112704.833000", "112704.835000", "112704.838000", "112704.840000", "112704.843000", "112704.854000", "112704.856000", "112704.858000", "112704.861000", "112704.871000", "112744.837000", "112744.840000", "112744.843000", "112744.845000", "112744.848000", "112744.850000", "112744.861000", "112744.864000", "112744.867000", "112744.869000", "112744.872000", "112744.874000", "112744.877000", "112744.879000", "112744.882000", "112744.884000", "112744.887000", "112744.889000", "112744.892000", "112744.894000", "112744.897000", "112744.900000", "112744.903000", "112744.906000", "112744.909000", "112744.911000", "112744.914000", "112824.852000", "112824.855000", "112824.857000", "112824.860000", "112824.862000", "112824.865000", "112824.867000", "112824.870000", "112824.872000", "112824.875000", "112824.877000", "112824.880000", "112824.882000", "112824.885000", "112824.887000", "112824.890000", "112824.892000", "112824.895000", "112824.897000", "112824.900000", "112824.902000", "112824.905000", "112824.907000", "112824.910000", "112824.912000", "112824.915000", "112824.918000", "112904.842000", "112904.844000", "112904.847000", "112904.849000", "112904.852000", "112904.855000", "112904.857000", "112904.859000", "112904.862000", "112904.865000", "112904.867000", "112904.870000", "112904.872000", "112904.875000", "112904.877000", "112904.880000", "112904.882000", "112904.885000", "112904.887000", "112904.890000", "112904.892000", "112904.895000", "112904.897000", "112904.900000", "112904.902000", "112904.905000", "112904.907000", "112910.077000", "112910.079000", "112910.082000", "112910.084000"],
      "InstanceNumber": [1, 2, 3, 4, 5, 6, 7, 8, 9, 10, 11, 12, 13, 14, 15, 16, 17, 18, 19, 20, 21, 22, 23, 24, 25, 26, 27, 28, 29, 30, 31, 32, 33, 34, 35, 36, 37, 38, 39, 40, 41, 42, 43, 44, 45, 46, 47, 48, 49, 50, 51, 52, 53, 54, 55, 56, 57, 58, 59, 60, 61, 62, 63, 64, 65, 66, 67, 68, 69, 70, 71, 72, 73, 74, 75, 76, 77, 78, 79, 80, 81, 82, 83, 84, 85, 86, 87, 88, 89, 90, 91, 92, 93, 94, 95, 96, 97, 98, 99, 100, 101, 102, 103, 104, 105, 106, 107, 108, 109, 110, 111, 112, 113, 114, 115, 116, 117, 118, 119, 120, 121, 122, 123, 124, 125, 126, 127, 128, 129, 130, 131, 132, 133, 134, 135, 136, 137, 138, 139, 140, 141, 142, 143, 144, 145, 146, 147, 148, 149, 150, 151, 152, 153, 154, 155, 156, 157, 158, 159, 160, 161, 162, 163, 164, 165, 166, 167, 168, 169, 170, 171, 172, 173, 174, 175, 176, 177, 178, 179, 180, 181, 182, 183, 184, 185, 186, 187, 188, 189, 190],
      "WindowCenter": [4874.0, 4908.0, 4920.0, 4920.0, 4922.0, 4924.0, 4890.0, 4780.0, 4718.0, 4746.0, 4842.0, 4918.0, 4926.0, 4930.0, 4914.0, 4846.0, 4842.0, 4846.0, 4876.0, 4884.0, 4890.0, 4890.0, 4888.0, 4750.0, 4718.0, 4810.0, 4912.0, 4926.0, 4906.0, 4928.0, 4918.0, 4874.0, 4814.0, 4758.0, 4710.0, 4692.0, 4718.0, 4880.0, 4930.0, 4892.0, 4890.0, 4882.0, 4926.0, 4820.0, 4754.0, 4712.0, 4704.0, 4688.0, 4752.0, 4916.0, 4910.0, 4888.0, 4884.0, 4916.0, 4816.0, 4754.0, 4752.0, 4776.0, 4810.0, 4850.0, 4886.0, 4920.0, 4924.0, 4920.0, 4878.0, 4726.0, 4724.0, 4814.0, 4846.0, 4886.0, 4922.0, 4912.0, 4914.0, 4918.0, 4848.0, 4842.0, 4846.0, 4808.0, 4840.0, 4854.0, 4782.0, 4804.0, 4874.0, 4914.0, 4924.0, 4928.0, 4924.0, 4878.0, 4702.0, 4682.0, 4696.0, 4840.0, 4926.0, 4884.0, 4880.0, 4904.0, 4922.0, 4786.0, 4718.0, 4690.0, 4702.0, 4812.0, 4918.0, 4910.0, 4882.0, 4906.0, 4926.0, 4890.0, 4816.0, 4756.0, 4688.0, 4686.0, 4748.0, 4912.0, 4910.0, 4926.0, 4908.0, 4882.0, 4914.0, 4886.0, 4910.0, 4880.0, 4852.0, 4812.0, 4700.0, 4678.0, 4720.0, 4880.0, 4910.0, 4888.0, 4886.0, 4908.0, 4918.0, 4810.0, 4710.0, 4698.0, 4704.0, 4808.0, 4916.0, 4908.0, 4886.0, 4906.0, 4932.0, 4884.0, 4782.0, 4696.0, 4688.0, 4748.0, 4910.0, 4906.0, 4884.0, 4886.0, 4908.0, 4918.0, 4786.0, 4690.0, 4716.0, 4724.0, 4852.0, 4928.0, 4906.0, 4910.0, 4928.0, 4910.0, 4874.0, 4784.0, 4704.0, 4702.0, 4746.0, 4908.0, 4906.0, 4906.0, 4910.0, 4888.0, 4846.0, 4812.0, 4784.0, 4812.0, 4810.0, 4754.0, 4812.0, 4886.0, 4924.0, 4932.0, 4918.0, 4782.0, 4698.0, 4678.0, 4716.0, 4906.0],
      "WindowWidth": [18754.0, 18784.0, 18774.0, 18770.0, 18770.0, 18772.0, 18748.0, 18628.0, 18544.0, 18588.0, 18712.0, 18772.0, 18746.0, 18742.0, 18774.0, 18714.0, 18710.0, 18714.0, 18742.0, 18748.0, 18748.0, 18746.0, 18746.0, 18592.0, 18544.0, 18678.0, 18768.0, 18742.0, 18706.0, 18754.0, 18770.0, 18740.0, 18664.0, 18588.0, 18500.0, 18470.0, 18552.0, 18752.0, 18718.0, 18628.0, 18618.0, 18632.0, 18760.0, 18670.0, 18584.0, 18512.0, 18464.0, 18478.0, 18594.0, 18772.0, 18678.0, 18620.0, 18630.0, 18772.0, 18676.0, 18594.0, 18588.0, 18622.0, 18668.0, 18712.0, 18740.0, 18764.0, 18758.0, 18758.0, 18742.0, 18554.0, 18550.0, 18674.0, 18712.0, 18746.0, 18768.0, 18776.0, 18768.0, 18766.0, 18712.0, 18704.0, 18706.0, 18664.0, 18704.0, 18714.0, 18636.0, 18668.0, 18748.0, 18764.0, 18752.0, 18744.0, 18748.0, 18740.0, 18510.0, 18472.0, 18514.0, 18714.0, 18746.0, 18628.0, 18612.0, 18684.0, 18766.0, 18626.0, 18502.0, 18466.0, 18512.0, 18672.0, 18766.0, 18692.0, 18636.0, 18680.0, 18756.0, 18744.0, 18672.0, 18592.0, 18470.0, 18476.0, 18588.0, 18772.0, 18694.0, 18754.0, 18774.0, 18744.0, 18770.0, 18740.0, 18774.0, 18740.0, 18714.0, 18672.0, 18510.0, 18476.0, 18552.0, 18746.0, 18694.0, 18626.0, 18622.0, 18690.0, 18766.0, 18662.0, 18502.0, 18470.0, 18510.0, 18666.0, 18766.0, 18684.0, 18634.0, 18678.0, 18758.0, 18746.0, 18624.0, 18470.0, 18472.0, 18588.0, 18772.0, 18692.0, 18632.0, 18634.0, 18702.0, 18770.0, 18632.0, 18464.0, 18504.0, 18546.0, 18714.0, 18750.0, 18670.0, 18696.0, 18760.0, 18770.0, 18742.0, 18630.0, 18506.0, 18514.0, 18586.0, 18770.0, 18694.0, 18662.0, 18702.0, 18740.0, 18708.0, 18670.0, 18626.0, 18664.0, 18660.0, 18594.0, 18670.0, 18746.0, 18752.0, 18744.0, 18766.0, 18640.0, 18518.0, 18482.0, 18558.0, 18782.0]
    },
    "slices": {}
  }
}