{
  "AcquisitionMatrixPE": 104,
  "AcquisitionNumber": 1,
  "AcquisitionTime": "10:54:7.615000",
  "BandwidthPerPixelPhaseEncode": 17.17,
  "BaseResolution": 104,
  "BodyPartExamined": "BRAIN",
  "CoilString": "HC1-7;NC1_2",
  "ConsistencyInfo": "N4_VE11C_LATEST_20160120",
  "ConversionSoftware": "dcm2niix",
  "ConversionSoftwareVersion": "v1.0.20190902",
  "DerivedVendorReportedEchoSpacing": 0.000560011,
  "DeviceSerialNumber": "167006",
  "DwellTime": 2.1e-06,
  "EchoTime": 0.037,
  "EchoTrainLength": 104,
  "EffectiveEchoSpacing": 0.000560011,
  "FlipAngle": 52,
  "HeudiconvVersion": "0.10.0",
  "ImageComments": "Unaliased_MB4_PE3_LB",
  "ImageOrientationPatientDICOM": [0.999401, 0.00558198, 0.0341404, 0.0125595, 0.861009, -0.508435],
  "ImageType": [
    "ORIGINAL",
    "PRIMARY",
    "P",
    "MB",
    "ND",
    "MOSAIC"
],
  "ImagingFrequency": 123.259,
  "InPlanePhaseEncodingDirectionDICOM": "COL",
  "InstitutionAddress": "Chemin_Queen-Mary_4565_Montreal_District_CA_H3W_1W5",
  "InstitutionName": "IUGM",
  "InstitutionalDepartmentName": "Department",
  "MRAcquisitionType": "2D",
  "MagneticFieldStrength": 3,
  "Manufacturer": "Siemens",
  "ManufacturersModelName": "Prisma_fit",
  "Modality": "MR",
  "MultibandAccelerationFactor": 4,
  "PartialFourier": 1,
  "PatientPosition": "HFS",
  "PercentPhaseFOV": 100,
  "PhaseEncodingDirection": "j",
  "PhaseEncodingSteps": 104,
  "PhaseResolution": 1,
  "PixelBandwidth": 2290,
  "ProcedureStepDescription": "memory_things",
  "ProtocolName": "func_task-things_run-1",
  "PulseSequenceDetails": "%CustomerSeq%_cmrr_mbep2d_bold",
  "ReceiveCoilActiveElements": "HC1-7;NC1,2",
  "ReceiveCoilName": "HeadNeck_64",
  "ReconMatrixPE": 104,
  "RepetitionTime": 1.49,
  "SAR": 0.0502701,
  "ScanOptions": "FS",
  "ScanningSequence": "EP",
  "SequenceName": "epfid2d1_104",
  "SequenceVariant": "SK_SS",
  "SeriesDescription": "func_task-things_run-1",
  "SeriesNumber": 11,
  "ShimSetting": [626, -7173, -8858, 296, 35, -203, -82, -14],
  "SliceThickness": 2,
  "SliceTiming": [0, 0.785, 0.0975, 0.8825, 0.1975, 0.98, 0.295, 1.0775, 0.3925, 1.175, 0.49, 1.275, 0.5875, 1.3725, 0.685, 0, 0.785, 0.0975, 0.8825, 0.1975, 0.98, 0.295, 1.0775, 0.3925, 1.175, 0.49, 1.275, 0.5875, 1.3725, 0.685, 0, 0.785, 0.0975, 0.8825, 0.1975, 0.98, 0.295, 1.0775, 0.3925, 1.175, 0.49, 1.275, 0.5875, 1.3725, 0.685, 0, 0.785, 0.0975, 0.8825, 0.1975, 0.98, 0.295, 1.0775, 0.3925, 1.175, 0.49, 1.275, 0.5875, 1.3725, 0.685],
  "SoftwareVersions": "syngo_MR_E11",
  "SpacingBetweenSlices": 2,
  "StationName": "MRC35049",
  "TaskName": "things",
  "TotalReadoutTime": 0.0576811,
  "TxRefAmp": 289.108,
  "WipMemBlock": "2961f5a0-31d7-45a0-951a-eb5a5b35fecc||Sequence: R016 ve11c/master r/e634e98; Dec 19 2017 11:00:25 by eja",
  "dcmmeta_affine": [
    [-1.998802900314331, 0.025119086727499962, 0.06446642428636551, 104.250244140625],
    [-0.011163950897753239, 1.7220172882080078, -1.017119288444519, -49.910179138183594],
    [0.06828070431947708, 1.016870379447937, 1.72084641456604, -104.97858428955078],
    [0.0, 0.0, 0.0, 1.0]
],
  "dcmmeta_reorient_transform": [
    [0.0, -1.0, 0.0, 103.0],
    [1.0, 0.0, 0.0, 0.0],
    [0.0, 0.0, 1.0, 0.0],
    [0.0, 0.0, 0.0, 1.0]
],
  "dcmmeta_shape": [104, 104, 60, 190],
  "dcmmeta_slice_dim": 2,
  "dcmmeta_version": 0.6,
  "global": {
    "const": {
      "AcquisitionMatrix": [104, 0, 0, 104],
      "AngioFlag": "N",
      "BitsAllocated": 16,
      "BitsStored": 16,
      "BodyPartExamined": "BRAIN",
      "Columns": 832,
      "EchoNumbers": 1,
      "EchoTime": 37.0,
      "EchoTrainLength": 104,
      "FlipAngle": 52.0,
      "HighBit": 15,
      "ImageOrientationPatient": [0.99940145987179, 0.00558197536118, 0.03414035086522, 0.01255954345239, 0.86100867083241, -0.5084351744516],
      "ImagePositionPatient": [-843.54511689188, -758.33559765626, 345.04569297366],
      "ImageType": [
        "ORIGINAL",
        "PRIMARY",
        "P",
        "MB",
        "ND",
        "MOSAIC"
],
      "ImagedNucleus": "1H",
      "ImagingFrequency": 123.258912,
      "InPlanePhaseEncodingDirection": "COL",
      "LargestImagePixelValue": 4095,
      "MRAcquisitionType": "2D",
      "MagneticFieldStrength": 3.0,
      "Manufacturer": "SIEMENS",
      "ManufacturerModelName": "Prisma_fit",
      "Modality": "MR",
      "NumberOfAverages": 1.0,
      "NumberOfPhaseEncodingSteps": 104,
      "PercentPhaseFieldOfView": 100.0,
      "PercentSampling": 100.0,
      "PerformedProcedureStepStartTime": "103257.114000",
      "PhotometricInterpretation": "MONOCHROME2",
      "PixelBandwidth": 2290.0,
      "PixelRepresentation": 0,
      "PixelSpacing": [2.0, 2.0],
      "ProtocolName": "func_task-things_run-1",
      "RepetitionTime": 1490.0,
      "RescaleIntercept": -4096.0,
      "RescaleSlope": 2.0,
      "RescaleType": "US",
      "Rows": 832,
      "SAR": 0.05027010179745,
      "SamplesPerPixel": 1,
      "ScanOptions": "FS",
      "ScanningSequence": "EP",
      "SequenceName": "epfid2d1_104",
      "SequenceVariant": [
        "SK",
        "SS"
],
      "SeriesDescription": "func_task-things_run-1",
      "SeriesNumber": 11,
      "SeriesTime": "105519.355000",
      "SliceLocation": -61.583388507777,
      "SliceThickness": 2.0,
      "SmallestImagePixelValue": 0,
      "SoftwareVersions": "syngo MR E11",
      "SpacingBetweenSlices": 1.9999999814001,
      "SpecificCharacterSet": "ISO_IR 100",
      "StudyID": "1",
      "StudyTime": "103256.979000",
      "TransmitCoilName": "Body",
      "VariableFlipAngleFlag": "N",
      "WindowCenterWidthExplanation": "Algo1",
      "dBdt": 0.0},
    "slices": {}
  },
  "time": {
    "samples": {
      "AcquisitionNumber": [1, 2, 3, 4, 5, 6, 7, 8, 9, 10, 11, 12, 13, 14, 15, 16, 17, 18, 19, 20, 21, 22, 23, 24, 25, 26, 27, 28, 29, 30, 31, 32, 33, 34, 35, 36, 37, 38, 39, 40, 41, 42, 43, 44, 45, 46, 47, 48, 49, 50, 51, 52, 53, 54, 55, 56, 57, 58, 59, 60, 61, 62, 63, 64, 65, 66, 67, 68, 69, 70, 71, 72, 73, 74, 75, 76, 77, 78, 79, 80, 81, 82, 83, 84, 85, 86, 87, 88, 89, 90, 91, 92, 93, 94, 95, 96, 97, 98, 99, 100, 101, 102, 103, 104, 105, 106, 107, 108, 109, 110, 111, 112, 113, 114, 115, 116, 117, 118, 119, 120, 121, 122, 123, 124, 125, 126, 127, 128, 129, 130, 131, 132, 133, 134, 135, 136, 137, 138, 139, 140, 141, 142, 143, 144, 145, 146, 147, 148, 149, 150, 151, 152, 153, 154, 155, 156, 157, 158, 159, 160, 161, 162, 163, 164, 165, 166, 167, 168, 169, 170, 171, 172, 173, 174, 175, 176, 177, 178, 179, 180, 181, 182, 183, 184, 185, 186, 187, 188, 189, 190],
      "AcquisitionTime": ["105407.615000", "105409.105000", "105410.595000", "105412.085000", "105413.575000", "105415.065000", "105416.555000", "105418.045000", "105419.535000", "105421.025000", "105422.515000", "105424.005000", "105425.495000", "105426.985000", "105428.475000", "105429.965000", "105431.455000", "105432.945000", "105434.435000", "105435.925000", "105437.415000", "105438.905000", "105440.395000", "105441.885000", "105443.375000", "105444.865000", "105446.355000", "105447.845000", "105449.335000", "105450.825000", "105452.315000", "105453.805000", "105455.295000", "105456.785000", "105458.275000", "105459.765000", "105501.255000", "105502.745000", "105504.235000", "105505.725000", "105507.215000", "105508.705000", "105510.195000", "105511.685000", "105513.175000", "105514.665000", "105516.155000", "105517.645000", "105519.135000", "105520.625000", "105522.115000", "105523.605000", "105525.095000", "105526.585000", "105528.075000", "105529.565000", "105531.055000", "105532.545000", "105534.035000", "105535.525000", "105537.015000", "105538.505000", "105539.995000", "105541.485000", "105542.975000", "105544.465000", "105545.955000", "105547.445000", "105548.935000", "105550.425000", "105551.915000", "105553.405000", "105554.895000", "105556.385000", "105557.875000", "105559.365000", "105600.855000", "105602.345000", "105603.835000", "105605.325000", "105606.815000", "105608.305000", "105609.795000", "105611.285000", "105612.775000", "105614.265000", "105615.755000", "105617.245000", "105618.735000", "105620.225000", "105621.715000", "105623.205000", "105624.695000", "105626.185000", "105627.675000", "105629.165000", "105630.655000", "105632.145000", "105633.635000", "105635.125000", "105636.615000", "105638.105000", "105639.595000", "105641.085000", "105642.575000", "105644.065000", "105645.555000", "105647.045000", "105648.535000", "105650.025000", "105651.515000", "105653.005000", "105654.495000", "105655.985000", "105657.475000", "105658.965000", "105700.455000", "105701.945000", "105703.435000", "105704.925000", "105706.415000", "105707.905000", "105709.395000", "105710.885000", "105712.375000", "105713.865000", "105715.355000", "105716.845000", "105718.335000", "105719.825000", "105721.315000", "105722.805000", "105724.295000", "105725.785000", "105727.275000", "105728.765000", "105730.255000", "105731.745000", "105733.235000", "105734.725000", "105736.215000", "105737.705000", "105739.195000", "105740.685000", "105742.175000", "105743.665000", "105745.155000", "105746.645000", "105748.135000", "105749.625000", "105751.115000", "105752.605000", "105754.095000", "105755.585000", "105757.075000", "105758.565000", "105800.055000", "105801.545000", "105803.035000", "105804.525000", "105806.015000", "105807.505000", "105808.995000", "105810.485000", "105811.975000", "105813.465000", "105814.955000", "105816.445000", "105817.935000", "105819.425000", "105820.915000", "105822.405000", "105823.895000", "105825.385000", "105826.875000", "105828.365000", "105829.855000", "105831.345000", "105832.835000", "105834.325000", "105835.815000", "105837.305000", "105838.795000", "105840.285000", "105841.775000", "105843.265000", "105844.755000", "105846.245000", "105847.735000", "105849.225000"],
      "ContentTime": ["105519.357000", "105519.362000", "105519.365000", "105519.367000", "105519.370000", "105519.372000", "105519.375000", "105519.377000", "105519.380000", "105519.382000", "105519.385000", "105519.387000", "105519.390000", "105519.392000", "105559.401000", "105559.404000", "105559.406000", "105559.409000", "105559.411000", "105559.414000", "105559.416000", "105559.419000", "105559.421000", "105559.424000", "105559.426000", "105559.429000", "105559.431000", "105559.433000", "105559.436000", "105559.438000", "105559.441000", "105559.443000", "105559.446000", "105559.448000", "105559.451000", "105559.453000", "105559.456000", "105559.458000", "105559.461000", "105559.463000", "105559.466000", "105559.468000", "105559.471000", "105559.473000", "105559.476000", "105559.478000", "105559.481000", "105559.483000", "105559.486000", "105559.488000", "105559.491000", "105559.493000", "105559.496000", "105619.331000", "105619.334000", "105619.336000", "105619.339000", "105619.341000", "105619.344000", "105619.346000", "105619.349000", "105619.351000", "105619.354000", "105619.356000", "105619.359000", "105619.361000", "105619.364000", "105619.366000", "105619.369000", "105619.371000", "105619.374000", "105619.376000", "105619.379000", "105619.381000", "105639.320000", "105639.322000", "105639.325000", "105639.327000", "105639.330000", "105639.332000", "105639.335000", "105639.338000", "105639.340000", "105639.342000", "105639.345000", "105639.347000", "105639.350000", "105639.352000", "105639.355000", "105639.358000", "105639.360000", "105639.363000", "105639.365000", "105639.368000", "105659.318000", "105659.321000", "105659.323000", "105659.326000", "105659.328000", "105659.331000", "105659.333000", "105659.336000", "105659.339000", "105659.341000", "105659.344000", "105659.346000", "105659.349000", "105659.351000", "105659.354000", "105659.356000", "105659.359000", "105659.361000", "105659.364000", "105659.366000", "105739.360000", "105739.363000", "105739.365000", "105739.368000", "105739.371000", "105739.373000", "105739.376000", "105739.378000", "105739.381000", "105739.383000", "105739.386000", "105739.389000", "105739.392000", "105739.394000", "105739.397000", "105739.399000", "105739.402000", "105739.404000", "105739.407000", "105739.409000", "105739.412000", "105739.414000", "105739.417000", "105739.419000", "105739.422000", "105739.425000", "105739.427000", "105819.345000", "105819.347000", "105819.350000", "105819.353000", "105819.355000", "105819.358000", "105819.360000", "105819.363000", "105819.365000", "105819.368000", "105819.370000", "105819.373000", "105819.375000", "105819.378000", "105819.380000", "105819.382000", "105819.385000", "105819.387000", "105819.390000", "105819.392000", "105819.395000", "105819.397000", "105819.400000", "105819.402000", "105819.405000", "105819.407000", "105819.410000", "105851.225000", "105851.228000", "105851.230000", "105851.233000", "105851.235000", "105851.248000", "105851.251000", "105851.253000", "105851.256000", "105851.258000", "105851.261000", "105851.263000", "105851.266000", "105851.268000", "105851.271000", "105851.273000", "105851.276000", "105851.279000", "105851.281000", "105851.284000", "105851.286000", "105851.289000"],
      "InstanceCreationTime": ["105519.357000", "105519.362000", "105519.365000", "105519.367000", "105519.370000", "105519.372000", "105519.375000", "105519.377000", "105519.380000", "105519.382000", "105519.385000", "105519.387000", "105519.390000", "105519.392000", "105559.401000", "105559.404000", "105559.406000", "105559.409000", "105559.411000", "105559.414000", "105559.416000", "105559.419000", "105559.421000", "105559.424000", "105559.426000", "105559.429000", "105559.431000", "105559.433000", "105559.436000", "105559.438000", "105559.441000", "105559.443000", "105559.446000", "105559.448000", "105559.451000", "105559.453000", "105559.456000", "105559.458000", "105559.461000", "105559.463000", "105559.466000", "105559.468000", "105559.471000", "105559.473000", "105559.476000", "105559.478000", "105559.481000", "105559.483000", "105559.486000", "105559.488000", "105559.491000", "105559.493000", "105559.496000", "105619.331000", "105619.334000", "105619.336000", "105619.339000", "105619.341000", "105619.344000", "105619.346000", "105619.349000", "105619.351000", "105619.354000", "105619.356000", "105619.359000", "105619.361000", "105619.364000", "105619.366000", "105619.369000", "105619.371000", "105619.374000", "105619.376000", "105619.379000", "105619.381000", "105639.320000", "105639.322000", "105639.325000", "105639.327000", "105639.330000", "105639.332000", "105639.335000", "105639.338000", "105639.340000", "105639.342000", "105639.345000", "105639.347000", "105639.350000", "105639.352000", "105639.355000", "105639.358000", "105639.360000", "105639.363000", "105639.365000", "105639.368000", "105659.318000", "105659.321000", "105659.323000", "105659.326000", "105659.328000", "105659.331000", "105659.333000", "105659.336000", "105659.339000", "105659.341000", "105659.344000", "105659.346000", "105659.349000", "105659.351000", "105659.354000", "105659.356000", "105659.359000", "105659.361000", "105659.364000", "105659.366000", "105739.360000", "105739.363000", "105739.365000", "105739.368000", "105739.371000", "105739.373000", "105739.376000", "105739.378000", "105739.381000", "105739.383000", "105739.386000", "105739.389000", "105739.392000", "105739.394000", "105739.397000", "105739.399000", "105739.402000", "105739.404000", "105739.407000", "105739.409000", "105739.412000", "105739.414000", "105739.417000", "105739.419000", "105739.422000", "105739.425000", "105739.427000", "105819.345000", "105819.347000", "105819.350000", "105819.353000", "105819.355000", "105819.358000", "105819.360000", "105819.363000", "105819.365000", "105819.368000", "105819.370000", "105819.373000", "105819.375000", "105819.378000", "105819.380000", "105819.382000", "105819.385000", "105819.387000", "105819.390000", "105819.392000", "105819.395000", "105819.397000", "105819.400000", "105819.402000", "105819.405000", "105819.407000", "105819.410000", "105851.225000", "105851.228000", "105851.230000", "105851.233000", "105851.235000", "105851.248000", "105851.251000", "105851.253000", "105851.256000", "105851.258000", "105851.261000", "105851.263000", "105851.266000", "105851.268000", "105851.271000", "105851.273000", "105851.276000", "105851.279000", "105851.281000", "105851.284000", "105851.286000", "105851.289000"],
      "InstanceNumber": [1, 2, 3, 4, 5, 6, 7, 8, 9, 10, 11, 12, 13, 14, 15, 16, 17, 18, 19, 20, 21, 22, 23, 24, 25, 26, 27, 28, 29, 30, 31, 32, 33, 34, 35, 36, 37, 38, 39, 40, 41, 42, 43, 44, 45, 46, 47, 48, 49, 50, 51, 52, 53, 54, 55, 56, 57, 58, 59, 60, 61, 62, 63, 64, 65, 66, 67, 68, 69, 70, 71, 72, 73, 74, 75, 76, 77, 78, 79, 80, 81, 82, 83, 84, 85, 86, 87, 88, 89, 90, 91, 92, 93, 94, 95, 96, 97, 98, 99, 100, 101, 102, 103, 104, 105, 106, 107, 108, 109, 110, 111, 112, 113, 114, 115, 116, 117, 118, 119, 120, 121, 122, 123, 124, 125, 126, 127, 128, 129, 130, 131, 132, 133, 134, 135, 136, 137, 138, 139, 140, 141, 142, 143, 144, 145, 146, 147, 148, 149, 150, 151, 152, 153, 154, 155, 156, 157, 158, 159, 160, 161, 162, 163, 164, 165, 166, 167, 168, 169, 170, 171, 172, 173, 174, 175, 176, 177, 178, 179, 180, 181, 182, 183, 184, 185, 186, 187, 188, 189, 190],
      "WindowCenter": [4880.0, 4856.0, 4858.0, 4860.0, 4878.0, 4878.0, 4876.0, 4880.0, 4904.0, 4882.0, 4858.0, 4886.0, 4884.0, 4862.0, 4884.0, 4882.0, 4878.0, 4882.0, 4880.0, 4882.0, 4882.0, 4860.0, 4880.0, 4860.0, 4860.0, 4882.0, 4902.0, 4880.0, 4856.0, 4860.0, 4856.0, 4880.0, 4880.0, 4856.0, 4880.0, 4856.0, 4862.0, 4860.0, 4858.0, 4856.0, 4858.0, 4878.0, 4856.0, 4856.0, 4882.0, 4856.0, 4880.0, 4876.0, 4858.0, 4906.0, 4920.0, 4902.0, 4864.0, 4864.0, 4864.0, 4864.0, 4860.0, 4854.0, 4880.0, 4904.0, 4880.0, 4878.0, 4878.0, 4854.0, 4882.0, 4904.0, 4884.0, 4860.0, 4866.0, 4864.0, 4862.0, 4882.0, 4880.0, 4880.0, 4882.0, 4854.0, 4884.0, 4882.0, 4858.0, 4862.0, 4884.0, 4860.0, 4860.0, 4860.0, 4856.0, 4928.0, 4926.0, 4880.0, 4880.0, 4862.0, 4866.0, 4862.0, 4864.0, 4858.0, 4904.0, 4878.0, 4856.0, 4906.0, 4880.0, 4858.0, 4860.0, 4884.0, 4862.0, 4858.0, 4858.0, 4856.0, 4880.0, 4904.0, 4876.0, 4858.0, 4862.0, 4860.0, 4860.0, 4856.0, 4860.0, 4880.0, 4852.0, 4876.0, 4906.0, 4882.0, 4882.0, 4860.0, 4860.0, 4862.0, 4862.0, 4858.0, 4882.0, 4882.0, 4878.0, 4854.0, 4856.0, 4882.0, 4852.0, 4880.0, 4882.0, 4860.0, 4882.0, 4860.0, 4860.0, 4858.0, 4858.0, 4876.0, 4854.0, 4880.0, 4878.0, 4878.0, 4880.0, 4856.0, 4882.0, 4904.0, 4862.0, 4862.0, 4864.0, 4864.0, 4880.0, 4856.0, 4856.0, 4906.0, 4882.0, 4880.0, 4882.0, 4882.0, 4860.0, 4860.0, 4858.0, 4858.0, 4882.0, 4878.0, 4882.0, 4882.0, 4880.0, 4856.0, 4856.0, 4884.0, 4860.0, 4882.0, 4884.0, 4860.0, 4862.0, 4862.0, 4878.0, 4904.0, 4880.0, 4882.0, 4902.0, 4918.0, 4926.0, 4892.0, 4870.0, 4838.0],
      "WindowWidth": [18624.0, 18590.0, 18594.0, 18594.0, 18630.0, 18638.0, 18626.0, 18634.0, 18678.0, 18626.0, 18592.0, 18628.0, 18620.0, 18592.0, 18622.0, 18622.0, 18622.0, 18630.0, 18622.0, 18632.0, 18632.0, 18594.0, 18624.0, 18586.0, 18590.0, 18638.0, 18672.0, 18624.0, 18588.0, 18592.0, 18590.0, 18630.0, 18634.0, 18592.0, 18628.0, 18586.0, 18592.0, 18592.0, 18592.0, 18586.0, 18596.0, 18638.0, 18596.0, 18596.0, 18622.0, 18584.0, 18626.0, 18628.0, 18592.0, 18674.0, 18776.0, 18684.0, 18592.0, 18614.0, 18610.0, 18594.0, 18598.0, 18594.0, 18654.0, 18702.0, 18666.0, 18644.0, 18638.0, 18594.0, 18642.0, 18668.0, 18620.0, 18586.0, 18596.0, 18594.0, 18594.0, 18626.0, 18636.0, 18640.0, 18650.0, 18602.0, 18642.0, 18646.0, 18590.0, 18592.0, 18620.0, 18588.0, 18590.0, 18592.0, 18596.0, 18750.0, 18740.0, 18630.0, 18626.0, 18592.0, 18600.0, 18594.0, 18598.0, 18586.0, 18674.0, 18638.0, 18594.0, 18682.0, 18634.0, 18592.0, 18594.0, 18624.0, 18594.0, 18592.0, 18590.0, 18592.0, 18642.0, 18694.0, 18630.0, 18594.0, 18590.0, 18588.0, 18590.0, 18590.0, 18598.0, 18628.0, 18590.0, 18624.0, 18698.0, 18644.0, 18626.0, 18590.0, 18590.0, 18594.0, 18594.0, 18592.0, 18638.0, 18642.0, 18622.0, 18592.0, 18600.0, 18634.0, 18588.0, 18644.0, 18640.0, 18592.0, 18622.0, 18590.0, 18590.0, 18592.0, 18592.0, 18618.0, 18592.0, 18636.0, 18628.0, 18638.0, 18634.0, 18588.0, 18642.0, 18666.0, 18592.0, 18586.0, 18592.0, 18594.0, 18622.0, 18592.0, 18596.0, 18686.0, 18650.0, 18624.0, 18624.0, 18626.0, 18586.0, 18586.0, 18586.0, 18590.0, 18630.0, 18628.0, 18628.0, 18646.0, 18638.0, 18592.0, 18594.0, 18618.0, 18586.0, 18622.0, 18624.0, 18592.0, 18590.0, 18590.0, 18626.0, 18686.0, 18624.0, 18628.0, 18694.0, 18766.0, 18726.0, 18616.0, 18604.0, 18578.0]
    },
    "slices": {}
  }
}