{
  "AcquisitionMatrixPE": 104,
  "AcquisitionNumber": 1,
  "AcquisitionTime": "11:12:17.427500",
  "BandwidthPerPixelPhaseEncode": 17.17,
  "BaseResolution": 104,
  "BodyPartExamined": "BRAIN",
  "CoilString": "HC1-7;NC1_2",
  "ConsistencyInfo": "N4_VE11C_LATEST_20160120",
  "ConversionSoftware": "dcm2niix",
  "ConversionSoftwareVersion": "v1.0.20190902",
  "DerivedVendorReportedEchoSpacing": 0.000560011,
  "DeviceSerialNumber": "167006",
  "DwellTime": 2.1e-06,
  "EchoTime": 0.037,
  "EchoTrainLength": 104,
  "EffectiveEchoSpacing": 0.000560011,
  "FlipAngle": 52,
  "HeudiconvVersion": "0.10.0",
  "ImageComments": "Unaliased_MB4_PE3_LB",
  "ImageOrientationPatientDICOM": [0.999401, 0.00558198, 0.0341404, 0.0125595, 0.861009, -0.508435],
  "ImageType": [
    "ORIGINAL",
    "PRIMARY",
    "P",
    "MB",
    "ND",
    "MOSAIC"
],
  "ImagingFrequency": 123.259,
  "InPlanePhaseEncodingDirectionDICOM": "COL",
  "InstitutionAddress": "Chemin_Queen-Mary_4565_Montreal_District_CA_H3W_1W5",
  "InstitutionName": "IUGM",
  "InstitutionalDepartmentName": "Department",
  "MRAcquisitionType": "2D",
  "MagneticFieldStrength": 3,
  "Manufacturer": "Siemens",
  "ManufacturersModelName": "Prisma_fit",
  "Modality": "MR",
  "MultibandAccelerationFactor": 4,
  "PartialFourier": 1,
  "PatientPosition": "HFS",
  "PercentPhaseFOV": 100,
  "PhaseEncodingDirection": "j",
  "PhaseEncodingSteps": 104,
  "PhaseResolution": 1,
  "PixelBandwidth": 2290,
  "ProcedureStepDescription": "memory_things",
  "ProtocolName": "func_task-things_run-4",
  "PulseSequenceDetails": "%CustomerSeq%_cmrr_mbep2d_bold",
  "ReceiveCoilActiveElements": "HC1-7;NC1,2",
  "ReceiveCoilName": "HeadNeck_64",
  "ReconMatrixPE": 104,
  "RepetitionTime": 1.49,
  "SAR": 0.0502701,
  "ScanOptions": "FS",
  "ScanningSequence": "EP",
  "SequenceName": "epfid2d1_104",
  "SequenceVariant": "SK_SS",
  "SeriesDescription": "func_task-things_run-4",
  "SeriesNumber": 20,
  "ShimSetting": [626, -7173, -8858, 296, 35, -203, -82, -14],
  "SliceThickness": 2,
  "SliceTiming": [0, 0.7825, 0.0975, 0.88, 0.195, 0.98, 0.2925, 1.0775, 0.3925, 1.175, 0.49, 1.2725, 0.5875, 1.37, 0.685, 0, 0.7825, 0.0975, 0.88, 0.195, 0.98, 0.2925, 1.0775, 0.3925, 1.175, 0.49, 1.2725, 0.5875, 1.37, 0.685, 0, 0.7825, 0.0975, 0.88, 0.195, 0.98, 0.2925, 1.0775, 0.3925, 1.175, 0.49, 1.2725, 0.5875, 1.37, 0.685, 0, 0.7825, 0.0975, 0.88, 0.195, 0.98, 0.2925, 1.0775, 0.3925, 1.175, 0.49, 1.2725, 0.5875, 1.37, 0.685],
  "SoftwareVersions": "syngo_MR_E11",
  "SpacingBetweenSlices": 2,
  "StationName": "MRC35049",
  "TaskName": "things",
  "TotalReadoutTime": 0.0576811,
  "TxRefAmp": 289.108,
  "WipMemBlock": "fd73b60b-a0e5-4937-8c2c-f47c9d5a4d42||Sequence: R016 ve11c/master r/e634e98; Dec 19 2017 11:00:25 by eja",
  "dcmmeta_affine": [
    [-1.998802900314331, 0.025119086727499962, 0.06446642428636551, 104.250244140625],
    [-0.011163950897753239, 1.7220172882080078, -1.017119288444519, -49.910179138183594],
    [0.06828070431947708, 1.016870379447937, 1.72084641456604, -104.97858428955078],
    [0.0, 0.0, 0.0, 1.0]
],
  "dcmmeta_reorient_transform": [
    [0.0, -1.0, 0.0, 103.0],
    [1.0, 0.0, 0.0, 0.0],
    [0.0, 0.0, 1.0, 0.0],
    [0.0, 0.0, 0.0, 1.0]
],
  "dcmmeta_shape": [104, 104, 60, 190],
  "dcmmeta_slice_dim": 2,
  "dcmmeta_version": 0.6,
  "global": {
    "const": {
      "AcquisitionMatrix": [104, 0, 0, 104],
      "AngioFlag": "N",
      "BitsAllocated": 16,
      "BitsStored": 16,
      "BodyPartExamined": "BRAIN",
      "Columns": 832,
      "EchoNumbers": 1,
      "EchoTime": 37.0,
      "EchoTrainLength": 104,
      "FlipAngle": 52.0,
      "HighBit": 15,
      "ImageOrientationPatient": [0.99940145987179, 0.00558197536118, 0.03414035086522, 0.01255954345239, 0.86100867083241, -0.5084351744516],
      "ImagePositionPatient": [-843.54511689188, -758.33559765626, 345.04569297366],
      "ImageType": [
        "ORIGINAL",
        "PRIMARY",
        "P",
        "MB",
        "ND",
        "MOSAIC"
],
      "ImagedNucleus": "1H",
      "ImagingFrequency": 123.258921,
      "InPlanePhaseEncodingDirection": "COL",
      "LargestImagePixelValue": 4095,
      "MRAcquisitionType": "2D",
      "MagneticFieldStrength": 3.0,
      "Manufacturer": "SIEMENS",
      "ManufacturerModelName": "Prisma_fit",
      "Modality": "MR",
      "NumberOfAverages": 1.0,
      "NumberOfPhaseEncodingSteps": 104,
      "PercentPhaseFieldOfView": 100.0,
      "PercentSampling": 100.0,
      "PerformedProcedureStepStartTime": "103257.114000",
      "PhotometricInterpretation": "MONOCHROME2",
      "PixelBandwidth": 2290.0,
      "PixelRepresentation": 0,
      "PixelSpacing": [2.0, 2.0],
      "ProtocolName": "func_task-things_run-4",
      "RepetitionTime": 1490.0,
      "RescaleIntercept": -4096.0,
      "RescaleSlope": 2.0,
      "RescaleType": "US",
      "Rows": 832,
      "SAR": 0.05027010179745,
      "SamplesPerPixel": 1,
      "ScanOptions": "FS",
      "ScanningSequence": "EP",
      "SequenceName": "epfid2d1_104",
      "SequenceVariant": [
        "SK",
        "SS"
],
      "SeriesDescription": "func_task-things_run-4",
      "SeriesNumber": 20,
      "SeriesTime": "111339.387000",
      "SliceLocation": -61.583388507777,
      "SliceThickness": 2.0,
      "SmallestImagePixelValue": 0,
      "SoftwareVersions": "syngo MR E11",
      "SpacingBetweenSlices": 1.9999999814001,
      "SpecificCharacterSet": "ISO_IR 100",
      "StudyID": "1",
      "StudyTime": "103256.979000",
      "TransmitCoilName": "Body",
      "VariableFlipAngleFlag": "N",
      "WindowCenterWidthExplanation": "Algo1",
      "dBdt": 0.0},
    "slices": {}
  },
  "time": {
    "samples": {
      "AcquisitionNumber": [1, 2, 3, 4, 5, 6, 7, 8, 9, 10, 11, 12, 13, 14, 15, 16, 17, 18, 19, 20, 21, 22, 23, 24, 25, 26, 27, 28, 29, 30, 31, 32, 33, 34, 35, 36, 37, 38, 39, 40, 41, 42, 43, 44, 45, 46, 47, 48, 49, 50, 51, 52, 53, 54, 55, 56, 57, 58, 59, 60, 61, 62, 63, 64, 65, 66, 67, 68, 69, 70, 71, 72, 73, 74, 75, 76, 77, 78, 79, 80, 81, 82, 83, 84, 85, 86, 87, 88, 89, 90, 91, 92, 93, 94, 95, 96, 97, 98, 99, 100, 101, 102, 103, 104, 105, 106, 107, 108, 109, 110, 111, 112, 113, 114, 115, 116, 117, 118, 119, 120, 121, 122, 123, 124, 125, 126, 127, 128, 129, 130, 131, 132, 133, 134, 135, 136, 137, 138, 139, 140, 141, 142, 143, 144, 145, 146, 147, 148, 149, 150, 151, 152, 153, 154, 155, 156, 157, 158, 159, 160, 161, 162, 163, 164, 165, 166, 167, 168, 169, 170, 171, 172, 173, 174, 175, 176, 177, 178, 179, 180, 181, 182, 183, 184, 185, 186, 187, 188, 189, 190],
      "AcquisitionTime": ["111217.427500", "111218.917500", "111220.407500", "111221.897500", "111223.387500", "111224.877500", "111226.367500", "111227.857500", "111229.347500", "111230.837500", "111232.327500", "111233.817500", "111235.307500", "111236.797500", "111238.287500", "111239.777500", "111241.267500", "111242.757500", "111244.247500", "111245.737500", "111247.227500", "111248.717500", "111250.207500", "111251.697500", "111253.187500", "111254.677500", "111256.167500", "111257.657500", "111259.147500", "111300.637500", "111302.127500", "111303.617500", "111305.107500", "111306.597500", "111308.087500", "111309.577500", "111311.067500", "111312.557500", "111314.047500", "111315.537500", "111317.027500", "111318.517500", "111320.007500", "111321.497500", "111322.987500", "111324.477500", "111325.967500", "111327.457500", "111328.947500", "111330.437500", "111331.927500", "111333.417500", "111334.907500", "111336.397500", "111337.887500", "111339.377500", "111340.867500", "111342.357500", "111343.847500", "111345.337500", "111346.827500", "111348.317500", "111349.807500", "111351.297500", "111352.787500", "111354.277500", "111355.767500", "111357.257500", "111358.747500", "111400.237500", "111401.727500", "111403.217500", "111404.707500", "111406.197500", "111407.687500", "111409.177500", "111410.667500", "111412.157500", "111413.647500", "111415.137500", "111416.627500", "111418.117500", "111419.607500", "111421.097500", "111422.587500", "111424.077500", "111425.567500", "111427.057500", "111428.547500", "111430.037500", "111431.527500", "111433.017500", "111434.507500", "111435.997500", "111437.487500", "111438.977500", "111440.467500", "111441.957500", "111443.447500", "111444.937500", "111446.427500", "111447.917500", "111449.407500", "111450.897500", "111452.387500", "111453.877500", "111455.367500", "111456.857500", "111458.347500", "111459.837500", "111501.327500", "111502.817500", "111504.307500", "111505.797500", "111507.287500", "111508.777500", "111510.267500", "111511.757500", "111513.247500", "111514.737500", "111516.227500", "111517.717500", "111519.207500", "111520.697500", "111522.187500", "111523.677500", "111525.167500", "111526.657500", "111528.147500", "111529.637500", "111531.127500", "111532.617500", "111534.107500", "111535.597500", "111537.087500", "111538.577500", "111540.067500", "111541.557500", "111543.047500", "111544.537500", "111546.027500", "111547.517500", "111549.007500", "111550.497500", "111551.987500", "111553.477500", "111554.967500", "111556.457500", "111557.947500", "111559.437500", "111600.927500", "111602.417500", "111603.907500", "111605.397500", "111606.887500", "111608.377500", "111609.867500", "111611.357500", "111612.847500", "111614.337500", "111615.827500", "111617.317500", "111618.807500", "111620.297500", "111621.787500", "111623.277500", "111624.767500", "111626.257500", "111627.747500", "111629.237500", "111630.727500", "111632.217500", "111633.707500", "111635.197500", "111636.687500", "111638.177500", "111639.667500", "111641.157500", "111642.647500", "111644.137500", "111645.627500", "111647.117500", "111648.607500", "111650.097500", "111651.587500", "111653.077500", "111654.567500", "111656.057500", "111657.547500", "111659.037500"],
      "ContentTime": ["111339.389000", "111339.392000", "111339.402000", "111339.404000", "111339.406000", "111339.409000", "111339.411000", "111339.414000", "111339.416000", "111339.419000", "111339.421000", "111339.424000", "111339.426000", "111339.429000", "111339.431000", "111339.434000", "111339.436000", "111339.439000", "111339.441000", "111339.444000", "111339.446000", "111339.449000", "111339.451000", "111339.454000", "111339.456000", "111339.458000", "111339.461000", "111339.463000", "111359.324000", "111359.326000", "111359.329000", "111359.331000", "111359.334000", "111359.336000", "111359.339000", "111359.341000", "111359.344000", "111359.346000", "111359.349000", "111359.351000", "111359.354000", "111359.356000", "111359.358000", "111359.361000", "111359.364000", "111359.366000", "111359.369000", "111359.371000", "111359.374000", "111419.317000", "111419.320000", "111419.322000", "111419.325000", "111419.327000", "111419.330000", "111419.332000", "111419.335000", "111419.337000", "111419.340000", "111419.342000", "111419.345000", "111419.347000", "111419.350000", "111419.352000", "111419.355000", "111419.358000", "111419.360000", "111419.362000", "111419.365000", "111439.310000", "111439.312000", "111439.315000", "111439.317000", "111439.320000", "111439.333000", "111439.335000", "111439.338000", "111439.340000", "111439.343000", "111439.345000", "111439.348000", "111439.350000", "111439.353000", "111439.355000", "111439.367000", "111439.370000", "111439.372000", "111439.375000", "111439.377000", "111459.309000", "111459.311000", "111459.314000", "111459.316000", "111459.319000", "111459.321000", "111459.324000", "111459.326000", "111459.329000", "111459.331000", "111459.334000", "111459.336000", "111459.346000", "111459.349000", "111459.351000", "111459.354000", "111459.356000", "111459.359000", "111459.361000", "111539.368000", "111539.371000", "111539.374000", "111539.376000", "111539.386000", "111539.389000", "111539.391000", "111539.394000", "111539.396000", "111539.399000", "111539.402000", "111539.404000", "111539.406000", "111539.409000", "111539.411000", "111539.414000", "111539.416000", "111539.419000", "111539.421000", "111539.424000", "111539.426000", "111539.429000", "111539.431000", "111539.434000", "111539.436000", "111539.439000", "111539.441000", "111619.364000", "111619.367000", "111619.370000", "111619.372000", "111619.375000", "111619.377000", "111619.380000", "111619.382000", "111619.385000", "111619.387000", "111619.390000", "111619.392000", "111619.394000", "111619.397000", "111619.399000", "111619.402000", "111619.404000", "111619.407000", "111619.410000", "111619.412000", "111619.414000", "111619.417000", "111619.419000", "111619.422000", "111619.424000", "111619.427000", "111619.429000", "111659.366000", "111659.369000", "111659.371000", "111659.382000", "111659.385000", "111659.387000", "111659.390000", "111659.392000", "111659.395000", "111659.397000", "111659.400000", "111659.402000", "111659.405000", "111659.407000", "111659.410000", "111659.413000", "111659.415000", "111659.417000", "111659.420000", "111659.423000", "111659.425000", "111659.428000", "111659.430000", "111659.433000", "111659.435000", "111659.438000", "111700.888000", "111700.891000"],
      "InstanceCreationTime": ["111339.389000", "111339.392000", "111339.402000", "111339.404000", "111339.406000", "111339.409000", "111339.411000", "111339.414000", "111339.416000", "111339.419000", "111339.421000", "111339.424000", "111339.426000", "111339.429000", "111339.431000", "111339.434000", "111339.436000", "111339.439000", "111339.441000", "111339.444000", "111339.446000", "111339.449000", "111339.451000", "111339.454000", "111339.456000", "111339.458000", "111339.461000", "111339.463000", "111359.324000", "111359.326000", "111359.329000", "111359.331000", "111359.334000", "111359.336000", "111359.339000", "111359.341000", "111359.344000", "111359.346000", "111359.349000", "111359.351000", "111359.354000", "111359.356000", "111359.358000", "111359.361000", "111359.364000", "111359.366000", "111359.369000", "111359.371000", "111359.374000", "111419.317000", "111419.320000", "111419.322000", "111419.325000", "111419.327000", "111419.330000", "111419.332000", "111419.335000", "111419.337000", "111419.340000", "111419.342000", "111419.345000", "111419.347000", "111419.350000", "111419.352000", "111419.355000", "111419.358000", "111419.360000", "111419.362000", "111419.365000", "111439.310000", "111439.312000", "111439.315000", "111439.317000", "111439.320000", "111439.333000", "111439.335000", "111439.338000", "111439.340000", "111439.343000", "111439.345000", "111439.348000", "111439.350000", "111439.353000", "111439.355000", "111439.367000", "111439.370000", "111439.372000", "111439.375000", "111439.377000", "111459.309000", "111459.311000", "111459.314000", "111459.316000", "111459.319000", "111459.321000", "111459.324000", "111459.326000", "111459.329000", "111459.331000", "111459.334000", "111459.336000", "111459.346000", "111459.349000", "111459.351000", "111459.354000", "111459.356000", "111459.359000", "111459.361000", "111539.368000", "111539.371000", "111539.374000", "111539.376000", "111539.386000", "111539.389000", "111539.391000", "111539.394000", "111539.396000", "111539.399000", "111539.402000", "111539.404000", "111539.406000", "111539.409000", "111539.411000", "111539.414000", "111539.416000", "111539.419000", "111539.421000", "111539.424000", "111539.426000", "111539.429000", "111539.431000", "111539.434000", "111539.436000", "111539.439000", "111539.441000", "111619.364000", "111619.367000", "111619.370000", "111619.372000", "111619.375000", "111619.377000", "111619.380000", "111619.382000", "111619.385000", "111619.387000", "111619.390000", "111619.392000", "111619.394000", "111619.397000", "111619.399000", "111619.402000", "111619.404000", "111619.407000", "111619.410000", "111619.412000", "111619.414000", "111619.417000", "111619.419000", "111619.422000", "111619.424000", "111619.427000", "111619.429000", "111659.366000", "111659.369000", "111659.371000", "111659.382000", "111659.385000", "111659.387000", "111659.390000", "111659.392000", "111659.395000", "111659.397000", "111659.400000", "111659.402000", "111659.405000", "111659.407000", "111659.410000", "111659.413000", "111659.415000", "111659.417000", "111659.420000", "111659.423000", "111659.425000", "111659.428000", "111659.430000", "111659.433000", "111659.435000", "111659.438000", "111700.888000", "111700.891000"],
      "InstanceNumber": [1, 2, 3, 4, 5, 6, 7, 8, 9, 10, 11, 12, 13, 14, 15, 16, 17, 18, 19, 20, 21, 22, 23, 24, 25, 26, 27, 28, 29, 30, 31, 32, 33, 34, 35, 36, 37, 38, 39, 40, 41, 42, 43, 44, 45, 46, 47, 48, 49, 50, 51, 52, 53, 54, 55, 56, 57, 58, 59, 60, 61, 62, 63, 64, 65, 66, 67, 68, 69, 70, 71, 72, 73, 74, 75, 76, 77, 78, 79, 80, 81, 82, 83, 84, 85, 86, 87, 88, 89, 90, 91, 92, 93, 94, 95, 96, 97, 98, 99, 100, 101, 102, 103, 104, 105, 106, 107, 108, 109, 110, 111, 112, 113, 114, 115, 116, 117, 118, 119, 120, 121, 122, 123, 124, 125, 126, 127, 128, 129, 130, 131, 132, 133, 134, 135, 136, 137, 138, 139, 140, 141, 142, 143, 144, 145, 146, 147, 148, 149, 150, 151, 152, 153, 154, 155, 156, 157, 158, 159, 160, 161, 162, 163, 164, 165, 166, 167, 168, 169, 170, 171, 172, 173, 174, 175, 176, 177, 178, 179, 180, 181, 182, 183, 184, 185, 186, 187, 188, 189, 190],
      "WindowCenter": [4906.0, 4882.0, 4880.0, 4878.0, 4882.0, 4904.0, 4882.0, 4906.0, 4920.0, 4922.0, 4904.0, 4902.0, 4886.0, 4886.0, 4886.0, 4888.0, 4906.0, 4906.0, 4904.0, 4928.0, 4926.0, 4904.0, 4882.0, 4882.0, 4880.0, 4906.0, 4902.0, 4904.0, 4924.0, 4926.0, 4884.0, 4906.0, 4886.0, 4884.0, 4884.0, 4882.0, 4906.0, 4904.0, 4906.0, 4902.0, 4906.0, 4902.0, 4884.0, 4906.0, 4882.0, 4882.0, 4924.0, 4928.0, 4884.0, 4886.0, 4886.0, 4884.0, 4928.0, 4930.0, 4908.0, 4904.0, 4882.0, 4882.0, 4908.0, 4924.0, 4902.0, 4904.0, 4906.0, 4882.0, 4906.0, 4904.0, 4882.0, 4904.0, 4880.0, 4904.0, 4928.0, 4926.0, 4882.0, 4884.0, 4904.0, 4880.0, 4902.0, 4906.0, 4882.0, 4928.0, 4902.0, 4900.0, 4928.0, 4904.0, 4880.0, 4906.0, 4884.0, 4882.0, 4902.0, 4904.0, 4882.0, 4906.0, 4904.0, 4906.0, 4928.0, 4928.0, 4908.0, 4884.0, 4882.0, 4882.0, 4926.0, 4926.0, 4906.0, 4884.0, 4884.0, 4882.0, 4902.0, 4904.0, 4904.0, 4906.0, 4932.0, 4904.0, 4902.0, 4908.0, 4906.0, 4904.0, 4906.0, 4882.0, 4904.0, 4926.0, 4906.0, 4884.0, 4882.0, 4884.0, 4906.0, 4926.0, 4906.0, 4880.0, 4906.0, 4924.0, 4906.0, 4884.0, 4884.0, 4884.0, 4906.0, 4908.0, 4908.0, 4928.0, 4924.0, 4904.0, 4904.0, 4904.0, 4884.0, 4928.0, 4926.0, 4906.0, 4888.0, 4888.0, 4910.0, 4928.0, 4928.0, 4906.0, 4886.0, 4882.0, 4882.0, 4908.0, 4924.0, 4906.0, 4904.0, 4886.0, 4926.0, 4924.0, 4906.0, 4888.0, 4886.0, 4890.0, 4886.0, 4882.0, 4884.0, 4928.0, 4920.0, 4926.0, 4902.0, 4882.0, 4904.0, 4880.0, 4884.0, 4884.0, 4882.0, 4906.0, 4904.0, 4908.0, 4920.0, 4808.0, 4874.0, 4906.0, 4904.0, 4842.0, 4840.0, 4874.0],
      "WindowWidth": [18666.0, 18628.0, 18630.0, 18632.0, 18634.0, 18676.0, 18648.0, 18692.0, 18766.0, 18762.0, 18676.0, 18678.0, 18628.0, 18620.0, 18622.0, 18622.0, 18676.0, 18704.0, 18696.0, 18732.0, 18730.0, 18672.0, 18630.0, 18628.0, 18620.0, 18698.0, 18686.0, 18682.0, 18756.0, 18744.0, 18630.0, 18668.0, 18620.0, 18618.0, 18626.0, 18630.0, 18678.0, 18680.0, 18702.0, 18694.0, 18700.0, 18692.0, 18644.0, 18692.0, 18636.0, 18634.0, 18758.0, 18724.0, 18620.0, 18628.0, 18624.0, 18624.0, 18726.0, 18732.0, 18694.0, 18678.0, 18638.0, 18630.0, 18688.0, 18740.0, 18672.0, 18674.0, 18682.0, 18632.0, 18676.0, 18680.0, 18628.0, 18668.0, 18638.0, 18676.0, 18756.0, 18728.0, 18626.0, 18636.0, 18664.0, 18616.0, 18666.0, 18666.0, 18638.0, 18746.0, 18694.0, 18676.0, 18736.0, 18684.0, 18626.0, 18678.0, 18640.0, 18622.0, 18678.0, 18670.0, 18632.0, 18700.0, 18678.0, 18682.0, 18758.0, 18730.0, 18664.0, 18626.0, 18618.0, 18626.0, 18764.0, 18758.0, 18686.0, 18626.0, 18628.0, 18614.0, 18664.0, 18684.0, 18682.0, 18690.0, 18730.0, 18680.0, 18684.0, 18690.0, 18668.0, 18668.0, 18686.0, 18630.0, 18674.0, 18752.0, 18700.0, 18634.0, 18624.0, 18616.0, 18672.0, 18754.0, 18688.0, 18628.0, 18690.0, 18732.0, 18660.0, 18620.0, 18620.0, 18618.0, 18676.0, 18702.0, 18692.0, 18742.0, 18752.0, 18684.0, 18674.0, 18664.0, 18618.0, 18732.0, 18768.0, 18692.0, 18618.0, 18614.0, 18680.0, 18728.0, 18720.0, 18662.0, 18616.0, 18614.0, 18622.0, 18706.0, 18752.0, 18710.0, 18674.0, 18634.0, 18762.0, 18754.0, 18678.0, 18618.0, 18616.0, 18614.0, 18620.0, 18624.0, 18640.0, 18744.0, 18772.0, 18754.0, 18692.0, 18628.0, 18668.0, 18628.0, 18624.0, 18628.0, 18628.0, 18686.0, 18696.0, 18694.0, 18770.0, 18680.0, 18752.0, 18674.0, 18622.0, 18568.0, 18574.0, 18610.0]
    },
    "slices": {}
  }
}