{
  "AcquisitionMatrixPE": 104,
  "AcquisitionNumber": 1,
  "AcquisitionTime": "11:06:19.012500",
  "BandwidthPerPixelPhaseEncode": 17.17,
  "BaseResolution": 104,
  "BodyPartExamined": "BRAIN",
  "CoilString": "HC1-7;NC1_2",
  "ConsistencyInfo": "N4_VE11C_LATEST_20160120",
  "ConversionSoftware": "dcm2niix",
  "ConversionSoftwareVersion": "v1.0.20190902",
  "DerivedVendorReportedEchoSpacing": 0.000560011,
  "DeviceSerialNumber": "167006",
  "DwellTime": 2.1e-06,
  "EchoTime": 0.037,
  "EchoTrainLength": 104,
  "EffectiveEchoSpacing": 0.000560011,
  "FlipAngle": 52,
  "HeudiconvVersion": "0.10.0",
  "ImageComments": "Unaliased_MB4_PE3_LB",
  "ImageOrientationPatientDICOM": [0.999401, 0.00558198, 0.0341404, 0.0125595, 0.861009, -0.508435],
  "ImageType": [
    "ORIGINAL",
    "PRIMARY",
    "M",
    "MB",
    "ND",
    "MOSAIC"
],
  "ImagingFrequency": 123.259,
  "InPlanePhaseEncodingDirectionDICOM": "COL",
  "InstitutionAddress": "Chemin_Queen-Mary_4565_Montreal_District_CA_H3W_1W5",
  "InstitutionName": "IUGM",
  "InstitutionalDepartmentName": "Department",
  "MRAcquisitionType": "2D",
  "MagneticFieldStrength": 3,
  "Manufacturer": "Siemens",
  "ManufacturersModelName": "Prisma_fit",
  "Modality": "MR",
  "MultibandAccelerationFactor": 4,
  "PartialFourier": 1,
  "PatientPosition": "HFS",
  "PercentPhaseFOV": 100,
  "PhaseEncodingDirection": "j",
  "PhaseEncodingSteps": 104,
  "PhaseResolution": 1,
  "PixelBandwidth": 2290,
  "ProcedureStepDescription": "memory_things",
  "ProtocolName": "func_task-things_run-3",
  "PulseSequenceDetails": "%CustomerSeq%_cmrr_mbep2d_bold",
  "ReceiveCoilActiveElements": "HC1-7;NC1,2",
  "ReceiveCoilName": "HeadNeck_64",
  "ReconMatrixPE": 104,
  "RepetitionTime": 1.49,
  "SAR": 0.0502701,
  "ScanOptions": "FS",
  "ScanningSequence": "EP",
  "SequenceName": "epfid2d1_104",
  "SequenceVariant": "SK_SS",
  "SeriesDescription": "func_task-things_run-3",
  "SeriesNumber": 16,
  "ShimSetting": [626, -7173, -8858, 296, 35, -203, -82, -14],
  "SliceThickness": 2,
  "SliceTiming": [0, 0.7825, 0.0975, 0.88, 0.195, 0.98, 0.2925, 1.0775, 0.39, 1.175, 0.49, 1.2725, 0.5875, 1.37, 0.685, 0, 0.7825, 0.0975, 0.88, 0.195, 0.98, 0.2925, 1.0775, 0.39, 1.175, 0.49, 1.2725, 0.5875, 1.37, 0.685, 0, 0.7825, 0.0975, 0.88, 0.195, 0.98, 0.2925, 1.0775, 0.39, 1.175, 0.49, 1.2725, 0.5875, 1.37, 0.685, 0, 0.7825, 0.0975, 0.88, 0.195, 0.98, 0.2925, 1.0775, 0.39, 1.175, 0.49, 1.2725, 0.5875, 1.37, 0.685],
  "SoftwareVersions": "syngo_MR_E11",
  "SpacingBetweenSlices": 2,
  "StationName": "MRC35049",
  "TaskName": "things",
  "TotalReadoutTime": 0.0576811,
  "TxRefAmp": 289.108,
  "WipMemBlock": "3cb3348e-1704-4aac-94a5-6398fc167bd2||Sequence: R016 ve11c/master r/e634e98; Dec 19 2017 11:00:25 by eja",
  "dcmmeta_affine": [
    [-1.998802900314331, 0.025119086727499962, 0.06446642428636551, 104.250244140625],
    [-0.011163950897753239, 1.7220172882080078, -1.017119288444519, -49.910179138183594],
    [0.06828070431947708, 1.016870379447937, 1.72084641456604, -104.97858428955078],
    [0.0, 0.0, 0.0, 1.0]
],
  "dcmmeta_reorient_transform": [
    [0.0, -1.0, 0.0, 103.0],
    [1.0, 0.0, 0.0, 0.0],
    [0.0, 0.0, 1.0, 0.0],
    [0.0, 0.0, 0.0, 1.0]
],
  "dcmmeta_shape": [104, 104, 60, 190],
  "dcmmeta_slice_dim": 2,
  "dcmmeta_version": 0.6,
  "global": {
    "const": {
      "AcquisitionMatrix": [104, 0, 0, 104],
      "AngioFlag": "N",
      "BitsAllocated": 16,
      "BitsStored": 16,
      "BodyPartExamined": "BRAIN",
      "Columns": 832,
      "EchoNumbers": 1,
      "EchoTime": 37.0,
      "EchoTrainLength": 104,
      "FlipAngle": 52.0,
      "HighBit": 15,
      "ImageOrientationPatient": [0.99940145987179, 0.00558197536118, 0.03414035086522, 0.01255954345239, 0.86100867083241, -0.5084351744516],
      "ImagePositionPatient": [-843.54511689188, -758.33559765626, 345.04569297366],
      "ImageType": [
        "ORIGINAL",
        "PRIMARY",
        "M",
        "MB",
        "ND",
        "MOSAIC"
],
      "ImagedNucleus": "1H",
      "ImagingFrequency": 123.258919,
      "InPlanePhaseEncodingDirection": "COL",
      "MRAcquisitionType": "2D",
      "MagneticFieldStrength": 3.0,
      "Manufacturer": "SIEMENS",
      "ManufacturerModelName": "Prisma_fit",
      "Modality": "MR",
      "NumberOfAverages": 1.0,
      "NumberOfPhaseEncodingSteps": 104,
      "PercentPhaseFieldOfView": 100.0,
      "PercentSampling": 100.0,
      "PerformedProcedureStepStartTime": "103257.114000",
      "PhotometricInterpretation": "MONOCHROME2",
      "PixelBandwidth": 2290.0,
      "PixelRepresentation": 0,
      "PixelSpacing": [2.0, 2.0],
      "ProtocolName": "func_task-things_run-3",
      "RepetitionTime": 1490.0,
      "Rows": 832,
      "SAR": 0.05027010179745,
      "SamplesPerPixel": 1,
      "ScanOptions": "FS",
      "ScanningSequence": "EP",
      "SequenceName": "epfid2d1_104",
      "SequenceVariant": [
        "SK",
        "SS"
],
      "SeriesDescription": "func_task-things_run-3",
      "SeriesNumber": 16,
      "SeriesTime": "110744.736000",
      "SliceLocation": -61.583388507777,
      "SliceThickness": 2.0,
      "SmallestImagePixelValue": 0,
      "SoftwareVersions": "syngo MR E11",
      "SpacingBetweenSlices": 1.9999999814001,
      "SpecificCharacterSet": "ISO_IR 100",
      "StudyID": "1",
      "StudyTime": "103256.979000",
      "TransmitCoilName": "Body",
      "VariableFlipAngleFlag": "N",
      "WindowCenterWidthExplanation": "Algo1",
      "dBdt": 0.0},
    "slices": {}
  },
  "time": {
    "samples": {
      "AcquisitionNumber": [1, 2, 3, 4, 5, 6, 7, 8, 9, 10, 11, 12, 13, 14, 15, 16, 17, 18, 19, 20, 21, 22, 23, 24, 25, 26, 27, 28, 29, 30, 31, 32, 33, 34, 35, 36, 37, 38, 39, 40, 41, 42, 43, 44, 45, 46, 47, 48, 49, 50, 51, 52, 53, 54, 55, 56, 57, 58, 59, 60, 61, 62, 63, 64, 65, 66, 67, 68, 69, 70, 71, 72, 73, 74, 75, 76, 77, 78, 79, 80, 81, 82, 83, 84, 85, 86, 87, 88, 89, 90, 91, 92, 93, 94, 95, 96, 97, 98, 99, 100, 101, 102, 103, 104, 105, 106, 107, 108, 109, 110, 111, 112, 113, 114, 115, 116, 117, 118, 119, 120, 121, 122, 123, 124, 125, 126, 127, 128, 129, 130, 131, 132, 133, 134, 135, 136, 137, 138, 139, 140, 141, 142, 143, 144, 145, 146, 147, 148, 149, 150, 151, 152, 153, 154, 155, 156, 157, 158, 159, 160, 161, 162, 163, 164, 165, 166, 167, 168, 169, 170, 171, 172, 173, 174, 175, 176, 177, 178, 179, 180, 181, 182, 183, 184, 185, 186, 187, 188, 189, 190],
      "AcquisitionTime": ["110619.012500", "110620.502500", "110621.992500", "110623.482500", "110624.972500", "110626.462500", "110627.952500", "110629.442500", "110630.932500", "110632.422500", "110633.912500", "110635.402500", "110636.892500", "110638.382500", "110639.872500", "110641.362500", "110642.852500", "110644.342500", "110645.832500", "110647.322500", "110648.812500", "110650.302500", "110651.792500", "110653.282500", "110654.772500", "110656.262500", "110657.752500", "110659.242500", "110700.732500", "110702.222500", "110703.712500", "110705.202500", "110706.692500", "110708.182500", "110709.672500", "110711.162500", "110712.652500", "110714.142500", "110715.632500", "110717.122500", "110718.612500", "110720.102500", "110721.592500", "110723.082500", "110724.572500", "110726.062500", "110727.552500", "110729.042500", "110730.532500", "110732.022500", "110733.512500", "110735.002500", "110736.492500", "110737.982500", "110739.472500", "110740.962500", "110742.452500", "110743.942500", "110745.432500", "110746.922500", "110748.412500", "110749.902500", "110751.392500", "110752.882500", "110754.372500", "110755.862500", "110757.352500", "110758.842500", "110800.332500", "110801.822500", "110803.312500", "110804.802500", "110806.292500", "110807.782500", "110809.272500", "110810.762500", "110812.252500", "110813.742500", "110815.232500", "110816.722500", "110818.212500", "110819.702500", "110821.192500", "110822.682500", "110824.172500", "110825.662500", "110827.152500", "110828.642500", "110830.132500", "110831.622500", "110833.112500", "110834.602500", "110836.092500", "110837.582500", "110839.072500", "110840.562500", "110842.052500", "110843.542500", "110845.032500", "110846.522500", "110848.012500", "110849.502500", "110850.992500", "110852.482500", "110853.972500", "110855.462500", "110856.952500", "110858.442500", "110859.932500", "110901.422500", "110902.912500", "110904.402500", "110905.892500", "110907.382500", "110908.872500", "110910.362500", "110911.852500", "110913.342500", "110914.832500", "110916.322500", "110917.812500", "110919.302500", "110920.792500", "110922.282500", "110923.772500", "110925.262500", "110926.752500", "110928.242500", "110929.732500", "110931.222500", "110932.712500", "110934.202500", "110935.692500", "110937.182500", "110938.672500", "110940.162500", "110941.652500", "110943.142500", "110944.632500", "110946.122500", "110947.612500", "110949.102500", "110950.592500", "110952.082500", "110953.572500", "110955.062500", "110956.552500", "110958.042500", "110959.532500", "111001.022500", "111002.512500", "111004.002500", "111005.492500", "111006.982500", "111008.472500", "111009.962500", "111011.452500", "111012.942500", "111014.432500", "111015.922500", "111017.412500", "111018.902500", "111020.392500", "111021.882500", "111023.372500", "111024.862500", "111026.352500", "111027.842500", "111029.332500", "111030.822500", "111032.312500", "111033.802500", "111035.292500", "111036.782500", "111038.272500", "111039.762500", "111041.252500", "111042.742500", "111044.232500", "111045.722500", "111047.212500", "111048.702500", "111050.192500", "111051.682500", "111053.172500", "111054.662500", "111056.152500", "111057.642500", "111059.132500", "111100.622500"],
      "ContentTime": ["110744.739000", "110744.743000", "110744.746000", "110744.756000", "110744.759000", "110744.762000", "110744.766000", "110744.842000", "110744.845000", "110744.848000", "110744.852000", "110744.855000", "110744.900000", "110744.903000", "110744.907000", "110744.910000", "110744.913000", "110744.917000", "110744.920000", "110744.923000", "110744.926000", "110744.930000", "110744.933000", "110744.936000", "110744.940000", "110744.943000", "110744.946000", "110744.949000", "110744.953000", "110744.956000", "110744.959000", "110804.704000", "110804.723000", "110804.726000", "110804.729000", "110804.733000", "110804.736000", "110804.739000", "110804.742000", "110804.746000", "110804.749000", "110804.752000", "110804.760000", "110804.763000", "110804.767000", "110804.770000", "110804.773000", "110804.777000", "110804.780000", "110804.783000", "110804.786000", "110804.790000", "110824.704000", "110824.708000", "110824.711000", "110824.714000", "110824.718000", "110824.721000", "110824.724000", "110824.727000", "110824.731000", "110824.734000", "110824.737000", "110824.741000", "110824.744000", "110824.747000", "110824.750000", "110824.754000", "110824.757000", "110824.760000", "110824.764000", "110824.767000", "110844.703000", "110844.707000", "110844.710000", "110844.713000", "110844.717000", "110844.720000", "110844.723000", "110844.727000", "110844.730000", "110844.733000", "110844.737000", "110844.740000", "110844.743000", "110844.747000", "110844.750000", "110844.753000", "110844.757000", "110844.760000", "110844.763000", "110844.767000", "110924.703000", "110924.707000", "110924.710000", "110924.713000", "110924.717000", "110924.720000", "110924.723000", "110924.727000", "110924.730000", "110924.733000", "110924.737000", "110924.740000", "110924.743000", "110924.747000", "110924.750000", "110924.753000", "110924.757000", "110924.760000", "110924.763000", "110924.767000", "110924.770000", "110924.773000", "110924.777000", "110924.780000", "110924.783000", "110924.786000", "110924.790000", "110924.793000", "110924.796000", "110924.800000", "110924.803000", "110924.806000", "111004.704000", "111004.708000", "111004.711000", "111004.715000", "111004.718000", "111004.721000", "111004.725000", "111004.728000", "111004.732000", "111004.735000", "111004.738000", "111004.742000", "111004.745000", "111004.748000", "111004.751000", "111004.755000", "111004.758000", "111004.786000", "111004.790000", "111004.793000", "111004.797000", "111004.800000", "111004.803000", "111004.807000", "111004.810000", "111004.813000", "111004.817000", "111044.704000", "111044.708000", "111044.711000", "111044.714000", "111044.718000", "111044.721000", "111044.725000", "111044.728000", "111044.731000", "111044.735000", "111044.738000", "111044.741000", "111044.745000", "111044.748000", "111044.751000", "111044.754000", "111044.758000", "111044.761000", "111044.764000", "111044.768000", "111044.782000", "111044.785000", "111044.789000", "111044.792000", "111044.795000", "111044.799000", "111044.802000", "111102.487000", "111102.490000", "111102.494000", "111102.497000", "111102.500000", "111102.504000", "111102.507000", "111102.510000", "111102.514000", "111102.517000", "111102.520000", "111102.524000"],
      "InstanceCreationTime": ["110744.739000", "110744.743000", "110744.746000", "110744.756000", "110744.759000", "110744.762000", "110744.766000", "110744.842000", "110744.845000", "110744.848000", "110744.852000", "110744.855000", "110744.900000", "110744.903000", "110744.907000", "110744.910000", "110744.913000", "110744.917000", "110744.920000", "110744.923000", "110744.926000", "110744.930000", "110744.933000", "110744.936000", "110744.940000", "110744.943000", "110744.946000", "110744.949000", "110744.953000", "110744.956000", "110744.959000", "110804.704000", "110804.723000", "110804.726000", "110804.729000", "110804.733000", "110804.736000", "110804.739000", "110804.742000", "110804.746000", "110804.749000", "110804.752000", "110804.760000", "110804.763000", "110804.767000", "110804.770000", "110804.773000", "110804.777000", "110804.780000", "110804.783000", "110804.786000", "110804.790000", "110824.704000", "110824.708000", "110824.711000", "110824.714000", "110824.718000", "110824.721000", "110824.724000", "110824.727000", "110824.731000", "110824.734000", "110824.737000", "110824.741000", "110824.744000", "110824.747000", "110824.750000", "110824.754000", "110824.757000", "110824.760000", "110824.764000", "110824.767000", "110844.703000", "110844.707000", "110844.710000", "110844.713000", "110844.717000", "110844.720000", "110844.723000", "110844.727000", "110844.730000", "110844.733000", "110844.737000", "110844.740000", "110844.743000", "110844.747000", "110844.750000", "110844.753000", "110844.757000", "110844.760000", "110844.763000", "110844.767000", "110924.703000", "110924.707000", "110924.710000", "110924.713000", "110924.717000", "110924.720000", "110924.723000", "110924.727000", "110924.730000", "110924.733000", "110924.737000", "110924.740000", "110924.743000", "110924.747000", "110924.750000", "110924.753000", "110924.757000", "110924.760000", "110924.763000", "110924.767000", "110924.770000", "110924.773000", "110924.777000", "110924.780000", "110924.783000", "110924.786000", "110924.790000", "110924.793000", "110924.796000", "110924.800000", "110924.803000", "110924.806000", "111004.704000", "111004.708000", "111004.711000", "111004.715000", "111004.718000", "111004.721000", "111004.725000", "111004.728000", "111004.732000", "111004.735000", "111004.738000", "111004.742000", "111004.745000", "111004.748000", "111004.751000", "111004.755000", "111004.758000", "111004.786000", "111004.790000", "111004.793000", "111004.797000", "111004.800000", "111004.803000", "111004.807000", "111004.810000", "111004.813000", "111004.817000", "111044.704000", "111044.708000", "111044.711000", "111044.714000", "111044.718000", "111044.721000", "111044.725000", "111044.728000", "111044.731000", "111044.735000", "111044.738000", "111044.741000", "111044.745000", "111044.748000", "111044.751000", "111044.754000", "111044.758000", "111044.761000", "111044.764000", "111044.768000", "111044.782000", "111044.785000", "111044.789000", "111044.792000", "111044.795000", "111044.799000", "111044.802000", "111102.487000", "111102.490000", "111102.494000", "111102.497000", "111102.500000", "111102.504000", "111102.507000", "111102.510000", "111102.514000", "111102.517000", "111102.520000", "111102.524000"],
      "InstanceNumber": [1, 2, 3, 4, 5, 6, 7, 8, 9, 10, 11, 12, 13, 14, 15, 16, 17, 18, 19, 20, 21, 22, 23, 24, 25, 26, 27, 28, 29, 30, 31, 32, 33, 34, 35, 36, 37, 38, 39, 40, 41, 42, 43, 44, 45, 46, 47, 48, 49, 50, 51, 52, 53, 54, 55, 56, 57, 58, 59, 60, 61, 62, 63, 64, 65, 66, 67, 68, 69, 70, 71, 72, 73, 74, 75, 76, 77, 78, 79, 80, 81, 82, 83, 84, 85, 86, 87, 88, 89, 90, 91, 92, 93, 94, 95, 96, 97, 98, 99, 100, 101, 102, 103, 104, 105, 106, 107, 108, 109, 110, 111, 112, 113, 114, 115, 116, 117, 118, 119, 120, 121, 122, 123, 124, 125, 126, 127, 128, 129, 130, 131, 132, 133, 134, 135, 136, 137, 138, 139, 140, 141, 142, 143, 144, 145, 146, 147, 148, 149, 150, 151, 152, 153, 154, 155, 156, 157, 158, 159, 160, 161, 162, 163, 164, 165, 166, 167, 168, 169, 170, 171, 172, 173, 174, 175, 176, 177, 178, 179, 180, 181, 182, 183, 184, 185, 186, 187, 188, 189, 190],
      "LargestImagePixelValue": [43443, 43788, 43351, 42852, 42802, 42605, 42167, 42805, 42724, 42768, 42103, 42053, 42724, 43013, 42732, 42557, 42377, 41591, 41718, 42997, 41231, 42163, 41208, 42991, 43159, 42688, 42280, 42615, 41883, 42523, 42894, 41561, 42532, 42172, 42340, 42198, 42038, 41910, 41564, 42725, 41749, 41535, 41647, 41971, 41940, 42744, 42506, 42344, 42735, 42429, 42270, 42306, 42453, 42108, 42879, 42799, 41352, 42345, 42079, 42679, 42532, 42757, 42850, 42111, 42237, 42746, 42391, 42854, 42896, 42654, 42711, 42285, 42546, 42866, 42479, 42218, 42436, 42513, 42480, 42486, 42233, 42409, 41745, 43521, 43367, 43029, 42446, 42630, 43036, 42027, 42914, 41808, 42367, 42992, 42189, 42161, 41892, 42487, 42695, 41557, 42977, 42858, 42263, 42214, 42409, 42808, 42648, 42539, 41409, 41481, 42209, 41941, 41794, 42546, 42646, 41925, 42275, 42191, 42730, 42236, 42983, 42671, 42409, 40337, 44383, 42537, 42882, 42371, 41601, 42246, 42881, 42403, 39838, 40734, 41218, 42113, 41953, 41899, 42393, 42508, 41210, 42760, 42555, 42106, 42560, 42476, 42101, 41824, 41912, 42695, 42846, 43075, 42301, 42413, 42613, 42606, 42591, 42241, 42340, 42141, 42241, 42608, 42421, 42953, 42411, 42434, 41994, 42080, 42767, 42068, 42626, 43212, 41899, 42251, 42798, 42662, 42575, 42308, 42173, 42150, 42280, 42153, 42774, 43666, 43283, 43711, 45211, 45767, 47637, 42131],
      "WindowCenter": [10699.0, 10646.0, 10595.0, 10583.0, 10519.0, 10518.0, 10537.0, 10556.0, 10544.0, 10534.0, 10519.0, 10518.0, 10537.0, 10545.0, 10529.0, 10528.0, 10546.0, 10564.0, 10571.0, 10580.0, 10557.0, 10539.0, 10531.0, 10566.0, 10598.0, 10584.0, 10570.0, 10557.0, 10542.0, 10538.0, 10546.0, 10545.0, 10576.0, 10574.0, 10546.0, 10522.0, 10502.0, 10520.0, 10528.0, 10560.0, 10548.0, 10534.0, 10534.0, 10526.0, 10515.0, 10517.0, 10528.0, 10541.0, 10557.0, 10550.0, 10544.0, 10544.0, 10543.0, 10530.0, 10534.0, 10547.0, 10565.0, 10585.0, 10548.0, 10548.0, 10550.0, 10555.0, 10557.0, 10545.0, 10541.0, 10541.0, 10527.0, 10545.0, 10556.0, 10535.0, 10503.0, 10484.0, 10516.0, 10544.0, 10543.0, 10544.0, 10542.0, 10525.0, 10505.0, 10503.0, 10513.0, 10531.0, 10530.0, 10534.0, 10532.0, 10527.0, 10530.0, 10540.0, 10556.0, 10537.0, 10556.0, 10545.0, 10536.0, 10545.0, 10534.0, 10526.0, 10527.0, 10532.0, 10532.0, 10529.0, 10527.0, 10529.0, 10543.0, 10549.0, 10552.0, 10547.0, 10540.0, 10531.0, 10516.0, 10526.0, 10541.0, 10547.0, 10544.0, 10550.0, 10549.0, 10524.0, 10506.0, 10504.0, 10527.0, 10524.0, 10541.0, 10526.0, 10527.0, 10499.0, 10541.0, 10521.0, 10528.0, 10533.0, 10529.0, 10535.0, 10537.0, 10515.0, 10487.0, 10497.0, 10512.0, 10532.0, 10517.0, 10506.0, 10521.0, 10531.0, 10524.0, 10547.0, 10524.0, 10498.0, 10503.0, 10518.0, 10522.0, 10536.0, 10535.0, 10542.0, 10539.0, 10519.0, 10497.0, 10510.0, 10520.0, 10545.0, 10550.0, 10545.0, 10546.0, 10538.0, 10534.0, 10532.0, 10523.0, 10520.0, 10528.0, 10521.0, 10509.0, 10522.0, 10527.0, 10505.0, 10514.0, 10529.0, 10523.0, 10532.0, 10536.0, 10513.0, 10510.0, 10503.0, 10509.0, 10519.0, 10522.0, 10515.0, 10533.0, 10546.0, 10526.0, 10554.0, 10588.0, 10579.0, 10557.0, 10475.0],
      "WindowWidth": [22919.0, 22759.0, 22623.0, 22587.0, 22430.0, 22427.0, 22472.0, 22508.0, 22485.0, 22459.0, 22427.0, 22428.0, 22467.0, 22482.0, 22451.0, 22448.0, 22487.0, 22529.0, 22551.0, 22563.0, 22519.0, 22474.0, 22458.0, 22528.0, 22599.0, 22569.0, 22542.0, 22509.0, 22479.0, 22466.0, 22484.0, 22489.0, 22551.0, 22551.0, 22488.0, 22431.0, 22387.0, 22426.0, 22450.0, 22523.0, 22490.0, 22458.0, 22466.0, 22438.0, 22414.0, 22413.0, 22441.0, 22471.0, 22504.0, 22493.0, 22481.0, 22478.0, 22478.0, 22453.0, 22460.0, 22487.0, 22531.0, 22578.0, 22493.0, 22485.0, 22490.0, 22499.0, 22503.0, 22481.0, 22466.0, 22468.0, 22439.0, 22476.0, 22500.0, 22455.0, 22383.0, 22343.0, 22412.0, 22472.0, 22478.0, 22473.0, 22466.0, 22432.0, 22387.0, 22383.0, 22405.0, 22447.0, 22455.0, 22451.0, 22443.0, 22436.0, 22444.0, 22466.0, 22503.0, 22466.0, 22501.0, 22481.0, 22462.0, 22477.0, 22455.0, 22437.0, 22441.0, 22449.0, 22448.0, 22446.0, 22437.0, 22440.0, 22475.0, 22485.0, 22494.0, 22480.0, 22468.0, 22449.0, 22428.0, 22444.0, 22473.0, 22488.0, 22480.0, 22489.0, 22486.0, 22431.0, 22392.0, 22385.0, 22438.0, 22433.0, 22468.0, 22439.0, 22437.0, 22389.0, 22460.0, 22425.0, 22437.0, 22453.0, 22446.0, 22459.0, 22459.0, 22413.0, 22362.0, 22380.0, 22411.0, 22451.0, 22423.0, 22395.0, 22426.0, 22446.0, 22438.0, 22479.0, 22431.0, 22376.0, 22390.0, 22416.0, 22434.0, 22465.0, 22458.0, 22472.0, 22463.0, 22420.0, 22376.0, 22402.0, 22426.0, 22478.0, 22495.0, 22485.0, 22486.0, 22468.0, 22456.0, 22454.0, 22432.0, 22424.0, 22440.0, 22428.0, 22405.0, 22427.0, 22439.0, 22392.0, 22408.0, 22439.0, 22434.0, 22454.0, 22456.0, 22410.0, 22402.0, 22390.0, 22401.0, 22424.0, 22428.0, 22412.0, 22447.0, 22494.0, 22437.0, 22522.0, 22585.0, 22572.0, 22513.0, 22348.0]
    },
    "slices": {}
  }
}