{
  "AcquisitionMatrixPE": 104,
  "AcquisitionNumber": 1,
  "AcquisitionTime": "11:45:52.747500",
  "BandwidthPerPixelPhaseEncode": 17.17,
  "BaseResolution": 104,
  "BodyPartExamined": "BRAIN",
  "CoilString": "HC1-7;NC1_2",
  "ConsistencyInfo": "N4_VE11C_LATEST_20160120",
  "ConversionSoftware": "dcm2niix",
  "ConversionSoftwareVersion": "v1.0.20190902",
  "DerivedVendorReportedEchoSpacing": 0.000560011,
  "DeviceSerialNumber": "167006",
  "DwellTime": 2.1e-06,
  "EchoTime": 0.037,
  "EchoTrainLength": 104,
  "EffectiveEchoSpacing": 0.000560011,
  "FlipAngle": 52,
  "ImageComments": "Unaliased_MB4_PE3_LB",
  "ImageOrientationPatientDICOM": [0.999637, 0.0114581, 0.0243726, 0.00174469, 0.875529, -0.483162],
  "ImageType": [
    "ORIGINAL",
    "PRIMARY",
    "M",
    "MB",
    "ND",
    "MOSAIC"
],
  "ImagingFrequency": 123.259,
  "InPlanePhaseEncodingDirectionDICOM": "COL",
  "InstitutionAddress": "Chemin_Queen-Mary_4565_Montreal_District_CA_H3W_1W5",
  "InstitutionName": "IUGM",
  "InstitutionalDepartmentName": "Department",
  "MRAcquisitionType": "2D",
  "MagneticFieldStrength": 3,
  "Manufacturer": "Siemens",
  "ManufacturersModelName": "Prisma_fit",
  "Modality": "MR",
  "MultibandAccelerationFactor": 4,
  "PartialFourier": 1,
  "PatientPosition": "HFS",
  "PercentPhaseFOV": 100,
  "PhaseEncodingDirection": "j",
  "PhaseEncodingSteps": 104,
  "PhaseResolution": 1,
  "PixelBandwidth": 2290,
  "ProcedureStepDescription": "memory_things",
  "ProtocolName": "func_task-things_run-4",
  "PulseSequenceDetails": "%CustomerSeq%_cmrr_mbep2d_bold",
  "ReceiveCoilActiveElements": "HC1-7;NC1,2",
  "ReceiveCoilName": "HeadNeck_64",
  "ReconMatrixPE": 104,
  "RepetitionTime": 1.49,
  "SAR": 0.048632,
  "ScanOptions": "FS",
  "ScanningSequence": "EP",
  "SequenceName": "epfid2d1_104",
  "SequenceVariant": "SK_SS",
  "SeriesDescription": "func_task-things_run-4",
  "SeriesNumber": 19,
  "ShimSetting": [615, -7191, -8855, 307, -15, -147, -32, -22],
  "SliceThickness": 2,
  "SliceTiming": [0, 0.7825, 0.0975, 0.88, 0.195, 0.98, 0.2925, 1.0775, 0.39, 1.175, 0.49, 1.2725, 0.5875, 1.37, 0.685, 0, 0.7825, 0.0975, 0.88, 0.195, 0.98, 0.2925, 1.0775, 0.39, 1.175, 0.49, 1.2725, 0.5875, 1.37, 0.685, 0, 0.7825, 0.0975, 0.88, 0.195, 0.98, 0.2925, 1.0775, 0.39, 1.175, 0.49, 1.2725, 0.5875, 1.37, 0.685, 0, 0.7825, 0.0975, 0.88, 0.195, 0.98, 0.2925, 1.0775, 0.39, 1.175, 0.49, 1.2725, 0.5875, 1.37, 0.685],
  "SoftwareVersions": "syngo_MR_E11",
  "SpacingBetweenSlices": 2,
  "StationName": "MRC35049",
  "TaskName": "things",
  "TotalReadoutTime": 0.0576811,
  "TxRefAmp": 271.441,
  "WipMemBlock": "2d4d4adf-1ef3-4233-979b-b5c70d2c994f||Sequence: R016 ve11c/master r/e634e98; Dec 19 2017 11:00:25 by eja",
  "dcmmeta_affine": [
    [-1.9992746114730835, 0.003489370457828045, 0.053750116378068924, 105.19254302978516],
    [-0.022916128858923912, 1.75105881690979, -0.9660578966140747, -52.837371826171875],
    [0.04874527454376221, 0.9663233757019043, 1.7503836154937744, -95.67288970947266],
    [0.0, 0.0, 0.0, 1.0]
],
  "dcmmeta_reorient_transform": [
    [0.0, -1.0, 0.0, 103.0],
    [1.0, 0.0, 0.0, 0.0],
    [0.0, 0.0, 1.0, 0.0],
    [0.0, 0.0, 0.0, 1.0]
],
  "dcmmeta_shape": [104, 104, 60, 190],
  "dcmmeta_slice_dim": 2,
  "dcmmeta_version": 0.6,
  "global": {
    "const": {
      "AcquisitionMatrix": [104, 0, 0, 104],
      "AngioFlag": "N",
      "BitsAllocated": 16,
      "BitsStored": 16,
      "BodyPartExamined": "BRAIN",
      "Columns": 832,
      "EchoNumbers": 1,
      "EchoTime": 37.0,
      "EchoTrainLength": 104,
      "FlipAngle": 52.0,
      "HighBit": 15,
      "ImageOrientationPatient": [0.99963727785834, 0.01145806480388, 0.02437263766863, 0.00174468517942, 0.87552940070271, -0.4831616961006],
      "ImagePositionPatient": [-834.55801628036, -773.24856138327, 337.85685620399],
      "ImageType": [
        "ORIGINAL",
        "PRIMARY",
        "M",
        "MB",
        "ND",
        "MOSAIC"
],
      "ImagedNucleus": "1H",
      "ImagingFrequency": 123.258929,
      "InPlanePhaseEncodingDirection": "COL",
      "MRAcquisitionType": "2D",
      "MagneticFieldStrength": 3.0,
      "Manufacturer": "SIEMENS",
      "ManufacturerModelName": "Prisma_fit",
      "Modality": "MR",
      "NumberOfAverages": 1.0,
      "NumberOfPhaseEncodingSteps": 104,
      "PercentPhaseFieldOfView": 100.0,
      "PercentSampling": 100.0,
      "PerformedProcedureStepStartTime": "102616.540000",
      "PhotometricInterpretation": "MONOCHROME2",
      "PixelBandwidth": 2290.0,
      "PixelRepresentation": 0,
      "PixelSpacing": [2.0, 2.0],
      "ProtocolName": "func_task-things_run-4",
      "RepetitionTime": 1490.0,
      "Rows": 832,
      "SAR": 0.04863195515636,
      "SamplesPerPixel": 1,
      "ScanOptions": "FS",
      "ScanningSequence": "EP",
      "SequenceName": "epfid2d1_104",
      "SequenceVariant": [
        "SK",
        "SS"
],
      "SeriesDescription": "func_task-things_run-4",
      "SeriesNumber": 19,
      "SeriesTime": "114655.172000",
      "SliceLocation": -55.383094335391,
      "SliceThickness": 2.0,
      "SmallestImagePixelValue": 0,
      "SoftwareVersions": "syngo MR E11",
      "SpacingBetweenSlices": 1.9999999613424,
      "SpecificCharacterSet": "ISO_IR 100",
      "StudyID": "1",
      "StudyTime": "102616.426000",
      "TransmitCoilName": "Body",
      "VariableFlipAngleFlag": "N",
      "WindowCenterWidthExplanation": "Algo1",
      "dBdt": 0.0},
    "slices": {}
  },
  "time": {
    "samples": {
      "AcquisitionNumber": [1, 2, 3, 4, 5, 6, 7, 8, 9, 10, 11, 12, 13, 14, 15, 16, 17, 18, 19, 20, 21, 22, 23, 24, 25, 26, 27, 28, 29, 30, 31, 32, 33, 34, 35, 36, 37, 38, 39, 40, 41, 42, 43, 44, 45, 46, 47, 48, 49, 50, 51, 52, 53, 54, 55, 56, 57, 58, 59, 60, 61, 62, 63, 64, 65, 66, 67, 68, 69, 70, 71, 72, 73, 74, 75, 76, 77, 78, 79, 80, 81, 82, 83, 84, 85, 86, 87, 88, 89, 90, 91, 92, 93, 94, 95, 96, 97, 98, 99, 100, 101, 102, 103, 104, 105, 106, 107, 108, 109, 110, 111, 112, 113, 114, 115, 116, 117, 118, 119, 120, 121, 122, 123, 124, 125, 126, 127, 128, 129, 130, 131, 132, 133, 134, 135, 136, 137, 138, 139, 140, 141, 142, 143, 144, 145, 146, 147, 148, 149, 150, 151, 152, 153, 154, 155, 156, 157, 158, 159, 160, 161, 162, 163, 164, 165, 166, 167, 168, 169, 170, 171, 172, 173, 174, 175, 176, 177, 178, 179, 180, 181, 182, 183, 184, 185, 186, 187, 188, 189, 190],
      "AcquisitionTime": ["114552.747500", "114554.237500", "114555.727500", "114557.217500", "114558.707500", "114600.197500", "114601.687500", "114603.177500", "114604.667500", "114606.157500", "114607.647500", "114609.137500", "114610.627500", "114612.117500", "114613.607500", "114615.097500", "114616.587500", "114618.077500", "114619.567500", "114621.057500", "114622.547500", "114624.037500", "114625.527500", "114627.017500", "114628.507500", "114629.997500", "114631.487500", "114632.977500", "114634.467500", "114635.957500", "114637.447500", "114638.937500", "114640.427500", "114641.917500", "114643.407500", "114644.897500", "114646.387500", "114647.877500", "114649.367500", "114650.857500", "114652.347500", "114653.837500", "114655.327500", "114656.817500", "114658.307500", "114659.797500", "114701.287500", "114702.777500", "114704.267500", "114705.757500", "114707.247500", "114708.737500", "114710.227500", "114711.717500", "114713.207500", "114714.697500", "114716.187500", "114717.677500", "114719.167500", "114720.657500", "114722.147500", "114723.637500", "114725.127500", "114726.617500", "114728.107500", "114729.597500", "114731.087500", "114732.577500", "114734.067500", "114735.557500", "114737.047500", "114738.537500", "114740.027500", "114741.517500", "114743.007500", "114744.497500", "114745.987500", "114747.477500", "114748.967500", "114750.457500", "114751.947500", "114753.437500", "114754.927500", "114756.417500", "114757.907500", "114759.397500", "114800.887500", "114802.377500", "114803.867500", "114805.357500", "114806.847500", "114808.337500", "114809.827500", "114811.317500", "114812.807500", "114814.297500", "114815.787500", "114817.277500", "114818.767500", "114820.257500", "114821.747500", "114823.237500", "114824.727500", "114826.217500", "114827.707500", "114829.197500", "114830.687500", "114832.177500", "114833.667500", "114835.157500", "114836.647500", "114838.137500", "114839.627500", "114841.117500", "114842.607500", "114844.097500", "114845.587500", "114847.077500", "114848.567500", "114850.057500", "114851.547500", "114853.037500", "114854.527500", "114856.017500", "114857.507500", "114858.997500", "114900.487500", "114901.977500", "114903.467500", "114904.957500", "114906.447500", "114907.937500", "114909.427500", "114910.917500", "114912.407500", "114913.897500", "114915.387500", "114916.877500", "114918.367500", "114919.857500", "114921.347500", "114922.837500", "114924.327500", "114925.817500", "114927.307500", "114928.797500", "114930.287500", "114931.777500", "114933.267500", "114934.757500", "114936.247500", "114937.737500", "114939.227500", "114940.717500", "114942.207500", "114943.697500", "114945.187500", "114946.677500", "114948.167500", "114949.657500", "114951.147500", "114952.637500", "114954.127500", "114955.617500", "114957.107500", "114958.597500", "115000.087500", "115001.577500", "115003.067500", "115004.557500", "115006.047500", "115007.537500", "115009.027500", "115010.517500", "115012.007500", "115013.497500", "115014.987500", "115016.477500", "115017.967500", "115019.457500", "115020.947500", "115022.437500", "115023.927500", "115025.417500", "115026.907500", "115028.397500", "115029.887500", "115031.377500", "115032.867500", "115034.357500"],
      "ContentTime": ["114655.176000", "114655.180000", "114655.183000", "114655.186000", "114655.189000", "114655.192000", "114655.196000", "114655.199000", "114715.127000", "114715.131000", "114715.137000", "114715.140000", "114715.144000", "114715.147000", "114715.150000", "114715.153000", "114715.157000", "114715.160000", "114715.163000", "114715.167000", "114715.170000", "114715.173000", "114715.176000", "114715.180000", "114715.183000", "114715.186000", "114715.189000", "114715.193000", "114735.127000", "114735.131000", "114735.134000", "114735.137000", "114735.140000", "114735.146000", "114735.149000", "114735.152000", "114735.156000", "114735.159000", "114735.162000", "114735.165000", "114735.169000", "114735.172000", "114735.175000", "114735.178000", "114735.181000", "114735.185000", "114735.188000", "114735.191000", "114735.195000", "114755.127000", "114755.131000", "114755.134000", "114755.137000", "114755.140000", "114755.144000", "114755.147000", "114755.150000", "114755.153000", "114755.157000", "114755.160000", "114755.163000", "114755.167000", "114755.170000", "114755.173000", "114755.177000", "114755.180000", "114755.183000", "114755.186000", "114755.190000", "114815.127000", "114815.131000", "114815.134000", "114815.137000", "114815.141000", "114815.144000", "114815.147000", "114815.150000", "114815.154000", "114815.157000", "114815.160000", "114815.181000", "114815.184000", "114815.187000", "114815.191000", "114815.194000", "114815.197000", "114815.200000", "114815.204000", "114815.207000", "114855.126000", "114855.130000", "114855.133000", "114855.136000", "114855.140000", "114855.143000", "114855.147000", "114855.150000", "114855.153000", "114855.157000", "114855.160000", "114855.163000", "114855.167000", "114855.182000", "114855.185000", "114855.188000", "114855.191000", "114855.195000", "114855.198000", "114855.201000", "114855.205000", "114855.208000", "114855.211000", "114855.215000", "114855.218000", "114855.221000", "114855.225000", "114855.228000", "114855.231000", "114855.234000", "114855.238000", "114855.241000", "114935.127000", "114935.131000", "114935.134000", "114935.137000", "114935.141000", "114935.144000", "114935.147000", "114935.150000", "114935.154000", "114935.157000", "114935.238000", "114935.241000", "114935.244000", "114935.247000", "114935.251000", "114935.254000", "114935.257000", "114935.260000", "114935.264000", "114935.267000", "114935.270000", "114935.274000", "114935.277000", "114935.280000", "114935.283000", "114935.287000", "114935.290000", "115015.127000", "115015.131000", "115015.134000", "115015.137000", "115015.141000", "115015.144000", "115015.147000", "115015.151000", "115015.154000", "115015.157000", "115015.239000", "115015.243000", "115015.246000", "115015.249000", "115015.253000", "115015.256000", "115015.259000", "115015.262000", "115015.265000", "115015.269000", "115015.272000", "115015.275000", "115015.279000", "115015.282000", "115015.285000", "115015.288000", "115015.292000", "115036.672000", "115036.676000", "115036.680000", "115036.683000", "115036.698000", "115036.701000", "115036.705000", "115036.708000", "115036.711000", "115036.715000", "115036.719000", "115036.722000", "115036.725000", "115036.729000", "115036.732000"],
      "InstanceCreationTime": ["114655.176000", "114655.180000", "114655.183000", "114655.186000", "114655.189000", "114655.192000", "114655.196000", "114655.199000", "114715.127000", "114715.131000", "114715.137000", "114715.140000", "114715.144000", "114715.147000", "114715.150000", "114715.153000", "114715.157000", "114715.160000", "114715.163000", "114715.167000", "114715.170000", "114715.173000", "114715.176000", "114715.180000", "114715.183000", "114715.186000", "114715.189000", "114715.193000", "114735.127000", "114735.131000", "114735.134000", "114735.137000", "114735.140000", "114735.146000", "114735.149000", "114735.152000", "114735.156000", "114735.159000", "114735.162000", "114735.165000", "114735.169000", "114735.172000", "114735.175000", "114735.178000", "114735.181000", "114735.185000", "114735.188000", "114735.191000", "114735.195000", "114755.127000", "114755.131000", "114755.134000", "114755.137000", "114755.140000", "114755.144000", "114755.147000", "114755.150000", "114755.153000", "114755.157000", "114755.160000", "114755.163000", "114755.167000", "114755.170000", "114755.173000", "114755.177000", "114755.180000", "114755.183000", "114755.186000", "114755.190000", "114815.127000", "114815.131000", "114815.134000", "114815.137000", "114815.141000", "114815.144000", "114815.147000", "114815.150000", "114815.154000", "114815.157000", "114815.160000", "114815.181000", "114815.184000", "114815.187000", "114815.191000", "114815.194000", "114815.197000", "114815.200000", "114815.204000", "114815.207000", "114855.126000", "114855.130000", "114855.133000", "114855.136000", "114855.140000", "114855.143000", "114855.147000", "114855.150000", "114855.153000", "114855.157000", "114855.160000", "114855.163000", "114855.167000", "114855.182000", "114855.185000", "114855.188000", "114855.191000", "114855.195000", "114855.198000", "114855.201000", "114855.205000", "114855.208000", "114855.211000", "114855.215000", "114855.218000", "114855.221000", "114855.225000", "114855.228000", "114855.231000", "114855.234000", "114855.238000", "114855.241000", "114935.127000", "114935.131000", "114935.134000", "114935.137000", "114935.141000", "114935.144000", "114935.147000", "114935.150000", "114935.154000", "114935.157000", "114935.238000", "114935.241000", "114935.244000", "114935.247000", "114935.251000", "114935.254000", "114935.257000", "114935.260000", "114935.264000", "114935.267000", "114935.270000", "114935.274000", "114935.277000", "114935.280000", "114935.283000", "114935.287000", "114935.290000", "115015.127000", "115015.131000", "115015.134000", "115015.137000", "115015.141000", "115015.144000", "115015.147000", "115015.151000", "115015.154000", "115015.157000", "115015.239000", "115015.243000", "115015.246000", "115015.249000", "115015.253000", "115015.256000", "115015.259000", "115015.262000", "115015.265000", "115015.269000", "115015.272000", "115015.275000", "115015.279000", "115015.282000", "115015.285000", "115015.288000", "115015.292000", "115036.672000", "115036.676000", "115036.680000", "115036.683000", "115036.698000", "115036.701000", "115036.705000", "115036.708000", "115036.711000", "115036.715000", "115036.719000", "115036.722000", "115036.725000", "115036.729000", "115036.732000"],
      "InstanceNumber": [1, 2, 3, 4, 5, 6, 7, 8, 9, 10, 11, 12, 13, 14, 15, 16, 17, 18, 19, 20, 21, 22, 23, 24, 25, 26, 27, 28, 29, 30, 31, 32, 33, 34, 35, 36, 37, 38, 39, 40, 41, 42, 43, 44, 45, 46, 47, 48, 49, 50, 51, 52, 53, 54, 55, 56, 57, 58, 59, 60, 61, 62, 63, 64, 65, 66, 67, 68, 69, 70, 71, 72, 73, 74, 75, 76, 77, 78, 79, 80, 81, 82, 83, 84, 85, 86, 87, 88, 89, 90, 91, 92, 93, 94, 95, 96, 97, 98, 99, 100, 101, 102, 103, 104, 105, 106, 107, 108, 109, 110, 111, 112, 113, 114, 115, 116, 117, 118, 119, 120, 121, 122, 123, 124, 125, 126, 127, 128, 129, 130, 131, 132, 133, 134, 135, 136, 137, 138, 139, 140, 141, 142, 143, 144, 145, 146, 147, 148, 149, 150, 151, 152, 153, 154, 155, 156, 157, 158, 159, 160, 161, 162, 163, 164, 165, 166, 167, 168, 169, 170, 171, 172, 173, 174, 175, 176, 177, 178, 179, 180, 181, 182, 183, 184, 185, 186, 187, 188, 189, 190],
      "LargestImagePixelValue": [40544, 40050, 38945, 38875, 39141, 38048, 38979, 39333, 37888, 38171, 38832, 38637, 38382, 38491, 38468, 38069, 38636, 39020, 38118, 38424, 39409, 38471, 38161, 38783, 38621, 38692, 37742, 38705, 38858, 38433, 38664, 38034, 38141, 38165, 39069, 37515, 38082, 38396, 38976, 38553, 41065, 38518, 37822, 38168, 39171, 38245, 37993, 37771, 38115, 38692, 37957, 38681, 38856, 37592, 38207, 38291, 40033, 38668, 38635, 38132, 37606, 38078, 38157, 38267, 39381, 38066, 37911, 39438, 38150, 37540, 37725, 38496, 38746, 38070, 38217, 37590, 37398, 38400, 38131, 37835, 37523, 37420, 38038, 40084, 37727, 38184, 38905, 38225, 37713, 37972, 37982, 38439, 38105, 37368, 37182, 38094, 37797, 39487, 38074, 37293, 37203, 38581, 38287, 37731, 37801, 38070, 38268, 37956, 37581, 38866, 38331, 40508, 40722, 37896, 38086, 38317, 38780, 38184, 38242, 38265, 38777, 37641, 38430, 38872, 37671, 38392, 38216, 39069, 38230, 37838, 38126, 37828, 38605, 38636, 38115, 41667, 40831, 39738, 38153, 38402, 39599, 37984, 38486, 38421, 38033, 37524, 37320, 38381, 37999, 38373, 38197, 38597, 37607, 38350, 39484, 39549, 40097, 38509, 38682, 39024, 39340, 38913, 39629, 38875, 39462, 40193, 39522, 39636, 41359, 40932, 40030, 40020, 39130, 40638, 41017, 39804, 40223, 39879, 39902, 40965, 40405, 40832, 40399, 40348, 39250, 38428, 41189, 40877, 41039, 40476],
      "WindowCenter": [10668.0, 10641.0, 10624.0, 10607.0, 10600.0, 10606.0, 10606.0, 10579.0, 10531.0, 10537.0, 10576.0, 10600.0, 10605.0, 10574.0, 10540.0, 10560.0, 10571.0, 10558.0, 10538.0, 10552.0, 10574.0, 10576.0, 10562.0, 10530.0, 10505.0, 10518.0, 10548.0, 10582.0, 10587.0, 10581.0, 10576.0, 10563.0, 10544.0, 10544.0, 10560.0, 10556.0, 10570.0, 10543.0, 10540.0, 10572.0, 10622.0, 10575.0, 10548.0, 10565.0, 10574.0, 10569.0, 10542.0, 10525.0, 10513.0, 10524.0, 10529.0, 10535.0, 10524.0, 10484.0, 10506.0, 10552.0, 10606.0, 10614.0, 10601.0, 10530.0, 10478.0, 10458.0, 10523.0, 10599.0, 10618.0, 10580.0, 10588.0, 10558.0, 10505.0, 10502.0, 10490.0, 10509.0, 10548.0, 10558.0, 10550.0, 10515.0, 10515.0, 10535.0, 10529.0, 10527.0, 10521.0, 10514.0, 10510.0, 10554.0, 10540.0, 10557.0, 10568.0, 10546.0, 10530.0, 10531.0, 10531.0, 10528.0, 10521.0, 10525.0, 10519.0, 10530.0, 10552.0, 10562.0, 10523.0, 10505.0, 10517.0, 10554.0, 10567.0, 10553.0, 10535.0, 10538.0, 10539.0, 10544.0, 10529.0, 10543.0, 10564.0, 10581.0, 10549.0, 10490.0, 10519.0, 10567.0, 10594.0, 10581.0, 10553.0, 10534.0, 10528.0, 10507.0, 10504.0, 10506.0, 10486.0, 10500.0, 10523.0, 10535.0, 10503.0, 10503.0, 10549.0, 10579.0, 10600.0, 10577.0, 10592.0, 10601.0, 10571.0, 10528.0, 10488.0, 10525.0, 10593.0, 10597.0, 10546.0, 10481.0, 10457.0, 10477.0, 10513.0, 10528.0, 10503.0, 10496.0, 10483.0, 10493.0, 10498.0, 10517.0, 10543.0, 10547.0, 10544.0, 10515.0, 10521.0, 10539.0, 10546.0, 10558.0, 10562.0, 10533.0, 10518.0, 10496.0, 10513.0, 10549.0, 10568.0, 10534.0, 10527.0, 10557.0, 10584.0, 10593.0, 10564.0, 10524.0, 10537.0, 10566.0, 10579.0, 10574.0, 10557.0, 10549.0, 10534.0, 10525.0, 10518.0, 10523.0, 10556.0, 10533.0, 10504.0, 10485.0],
      "WindowWidth": [22878.0, 22783.0, 22730.0, 22685.0, 22661.0, 22674.0, 22674.0, 22610.0, 22511.0, 22520.0, 22600.0, 22653.0, 22666.0, 22598.0, 22518.0, 22570.0, 22586.0, 22560.0, 22519.0, 22544.0, 22589.0, 22602.0, 22570.0, 22499.0, 22441.0, 22466.0, 22539.0, 22610.0, 22627.0, 22610.0, 22595.0, 22578.0, 22531.0, 22535.0, 22559.0, 22560.0, 22590.0, 22531.0, 22517.0, 22589.0, 22695.0, 22606.0, 22545.0, 22582.0, 22591.0, 22584.0, 22525.0, 22487.0, 22459.0, 22477.0, 22494.0, 22510.0, 22487.0, 22404.0, 22445.0, 22545.0, 22655.0, 22681.0, 22652.0, 22503.0, 22388.0, 22337.0, 22480.0, 22651.0, 22691.0, 22608.0, 22632.0, 22560.0, 22445.0, 22440.0, 22412.0, 22445.0, 22531.0, 22558.0, 22540.0, 22472.0, 22466.0, 22507.0, 22497.0, 22493.0, 22480.0, 22467.0, 22452.0, 22537.0, 22518.0, 22558.0, 22580.0, 22538.0, 22501.0, 22503.0, 22504.0, 22496.0, 22483.0, 22497.0, 22483.0, 22502.0, 22551.0, 22567.0, 22488.0, 22448.0, 22475.0, 22548.0, 22581.0, 22555.0, 22514.0, 22514.0, 22516.0, 22529.0, 22505.0, 22523.0, 22571.0, 22606.0, 22532.0, 22415.0, 22473.0, 22575.0, 22635.0, 22608.0, 22541.0, 22496.0, 22482.0, 22444.0, 22439.0, 22441.0, 22405.0, 22430.0, 22486.0, 22506.0, 22440.0, 22437.0, 22539.0, 22610.0, 22652.0, 22597.0, 22634.0, 22643.0, 22581.0, 22489.0, 22403.0, 22480.0, 22625.0, 22650.0, 22533.0, 22388.0, 22335.0, 22381.0, 22461.0, 22498.0, 22443.0, 22418.0, 22399.0, 22409.0, 22424.0, 22471.0, 22518.0, 22528.0, 22526.0, 22465.0, 22473.0, 22512.0, 22524.0, 22556.0, 22560.0, 22500.0, 22460.0, 22422.0, 22456.0, 22532.0, 22567.0, 22495.0, 22480.0, 22547.0, 22615.0, 22628.0, 22562.0, 22478.0, 22503.0, 22574.0, 22609.0, 22587.0, 22549.0, 22526.0, 22499.0, 22481.0, 22475.0, 22490.0, 22539.0, 22493.0, 22429.0, 22386.0]
    },
    "slices": {}
  }
}