{
  "AcquisitionMatrixPE": 104,
  "AcquisitionNumber": 1,
  "AcquisitionTime": "11:02:46.480000",
  "BandwidthPerPixelPhaseEncode": 17.17,
  "BaseResolution": 104,
  "BodyPartExamined": "BRAIN",
  "CoilString": "HC1-7;NC1_2",
  "ConsistencyInfo": "N4_VE11C_LATEST_20160120",
  "ConversionSoftware": "dcm2niix",
  "ConversionSoftwareVersion": "v1.0.20190902",
  "DerivedVendorReportedEchoSpacing": 0.000560011,
  "DeviceSerialNumber": "167006",
  "DwellTime": 2.1e-06,
  "EchoTime": 0.037,
  "EchoTrainLength": 104,
  "EffectiveEchoSpacing": 0.000560011,
  "FlipAngle": 52,
  "ImageComments": "Unaliased_MB4_PE3_LB",
  "ImageOrientationPatientDICOM": [0.999637, 0.0114581, 0.0243726, 0.00174469, 0.875529, -0.483162],
  "ImageType": [
    "ORIGINAL",
    "PRIMARY",
    "M",
    "MB",
    "ND",
    "MOSAIC"
],
  "ImagingFrequency": 123.259,
  "InPlanePhaseEncodingDirectionDICOM": "COL",
  "InstitutionAddress": "Chemin_Queen-Mary_4565_Montreal_District_CA_H3W_1W5",
  "InstitutionName": "IUGM",
  "InstitutionalDepartmentName": "Department",
  "MRAcquisitionType": "2D",
  "MagneticFieldStrength": 3,
  "Manufacturer": "Siemens",
  "ManufacturersModelName": "Prisma_fit",
  "Modality": "MR",
  "MultibandAccelerationFactor": 4,
  "PartialFourier": 1,
  "PatientPosition": "HFS",
  "PercentPhaseFOV": 100,
  "PhaseEncodingDirection": "j",
  "PhaseEncodingSteps": 104,
  "PhaseResolution": 1,
  "PixelBandwidth": 2290,
  "ProcedureStepDescription": "memory_things",
  "ProtocolName": "func_task-things_run-1",
  "PulseSequenceDetails": "%CustomerSeq%_cmrr_mbep2d_bold",
  "ReceiveCoilActiveElements": "HC1-7;NC1,2",
  "ReceiveCoilName": "HeadNeck_64",
  "ReconMatrixPE": 104,
  "RepetitionTime": 1.49,
  "SAR": 0.048632,
  "ScanOptions": "FS",
  "ScanningSequence": "EP",
  "SequenceName": "epfid2d1_104",
  "SequenceVariant": "SK_SS",
  "SeriesDescription": "func_task-things_run-1",
  "SeriesNumber": 10,
  "ShimSetting": [615, -7191, -8855, 307, -15, -147, -32, -22],
  "SliceThickness": 2,
  "SliceTiming": [0, 0.7825, 0.0975, 0.8825, 0.195, 0.98, 0.2925, 1.0775, 0.3925, 1.175, 0.49, 1.2725, 0.5875, 1.3725, 0.685, 0, 0.7825, 0.0975, 0.8825, 0.195, 0.98, 0.2925, 1.0775, 0.3925, 1.175, 0.49, 1.2725, 0.5875, 1.3725, 0.685, 0, 0.7825, 0.0975, 0.8825, 0.195, 0.98, 0.2925, 1.0775, 0.3925, 1.175, 0.49, 1.2725, 0.5875, 1.3725, 0.685, 0, 0.7825, 0.0975, 0.8825, 0.195, 0.98, 0.2925, 1.0775, 0.3925, 1.175, 0.49, 1.2725, 0.5875, 1.3725, 0.685],
  "SoftwareVersions": "syngo_MR_E11",
  "SpacingBetweenSlices": 2,
  "StationName": "MRC35049",
  "TaskName": "things",
  "TotalReadoutTime": 0.0576811,
  "TxRefAmp": 271.441,
  "WipMemBlock": "b16a5cf6-33a0-47b4-9694-0c5f85f9705a||Sequence: R016 ve11c/master r/e634e98; Dec 19 2017 11:00:25 by eja",
  "dcmmeta_affine": [
    [-1.9992746114730835, 0.003489370457828045, 0.053750116378068924, 105.19254302978516],
    [-0.022916128858923912, 1.75105881690979, -0.9660578966140747, -52.837371826171875],
    [0.04874527454376221, 0.9663233757019043, 1.7503836154937744, -95.67288970947266],
    [0.0, 0.0, 0.0, 1.0]
],
  "dcmmeta_reorient_transform": [
    [0.0, -1.0, 0.0, 103.0],
    [1.0, 0.0, 0.0, 0.0],
    [0.0, 0.0, 1.0, 0.0],
    [0.0, 0.0, 0.0, 1.0]
],
  "dcmmeta_shape": [104, 104, 60, 190],
  "dcmmeta_slice_dim": 2,
  "dcmmeta_version": 0.6,
  "global": {
    "const": {
      "AcquisitionMatrix": [104, 0, 0, 104],
      "AngioFlag": "N",
      "BitsAllocated": 16,
      "BitsStored": 16,
      "BodyPartExamined": "BRAIN",
      "Columns": 832,
      "EchoNumbers": 1,
      "EchoTime": 37.0,
      "EchoTrainLength": 104,
      "FlipAngle": 52.0,
      "HighBit": 15,
      "ImageOrientationPatient": [0.99963727785834, 0.01145806480388, 0.02437263766863, 0.00174468517942, 0.87552940070271, -0.4831616961006],
      "ImagePositionPatient": [-834.55801628036, -773.24856138327, 337.85685620399],
      "ImageType": [
        "ORIGINAL",
        "PRIMARY",
        "M",
        "MB",
        "ND",
        "MOSAIC"
],
      "ImagedNucleus": "1H",
      "ImagingFrequency": 123.258915,
      "InPlanePhaseEncodingDirection": "COL",
      "MRAcquisitionType": "2D",
      "MagneticFieldStrength": 3.0,
      "Manufacturer": "SIEMENS",
      "ManufacturerModelName": "Prisma_fit",
      "Modality": "MR",
      "NumberOfAverages": 1.0,
      "NumberOfPhaseEncodingSteps": 104,
      "PercentPhaseFieldOfView": 100.0,
      "PercentSampling": 100.0,
      "PerformedProcedureStepStartTime": "102616.540000",
      "PhotometricInterpretation": "MONOCHROME2",
      "PixelBandwidth": 2290.0,
      "PixelRepresentation": 0,
      "PixelSpacing": [2.0, 2.0],
      "ProtocolName": "func_task-things_run-1",
      "RepetitionTime": 1490.0,
      "Rows": 832,
      "SAR": 0.04863195515636,
      "SamplesPerPixel": 1,
      "ScanOptions": "FS",
      "ScanningSequence": "EP",
      "SequenceName": "epfid2d1_104",
      "SequenceVariant": [
        "SK",
        "SS"
],
      "SeriesDescription": "func_task-things_run-1",
      "SeriesNumber": 10,
      "SeriesTime": "110415.152000",
      "SliceLocation": -55.383094335391,
      "SliceThickness": 2.0,
      "SmallestImagePixelValue": 0,
      "SoftwareVersions": "syngo MR E11",
      "SpacingBetweenSlices": 1.9999999613424,
      "SpecificCharacterSet": "ISO_IR 100",
      "StudyID": "1",
      "StudyTime": "102616.426000",
      "TransmitCoilName": "Body",
      "VariableFlipAngleFlag": "N",
      "WindowCenterWidthExplanation": "Algo1",
      "dBdt": 0.0},
    "slices": {}
  },
  "time": {
    "samples": {
      "AcquisitionNumber": [1, 2, 3, 4, 5, 6, 7, 8, 9, 10, 11, 12, 13, 14, 15, 16, 17, 18, 19, 20, 21, 22, 23, 24, 25, 26, 27, 28, 29, 30, 31, 32, 33, 34, 35, 36, 37, 38, 39, 40, 41, 42, 43, 44, 45, 46, 47, 48, 49, 50, 51, 52, 53, 54, 55, 56, 57, 58, 59, 60, 61, 62, 63, 64, 65, 66, 67, 68, 69, 70, 71, 72, 73, 74, 75, 76, 77, 78, 79, 80, 81, 82, 83, 84, 85, 86, 87, 88, 89, 90, 91, 92, 93, 94, 95, 96, 97, 98, 99, 100, 101, 102, 103, 104, 105, 106, 107, 108, 109, 110, 111, 112, 113, 114, 115, 116, 117, 118, 119, 120, 121, 122, 123, 124, 125, 126, 127, 128, 129, 130, 131, 132, 133, 134, 135, 136, 137, 138, 139, 140, 141, 142, 143, 144, 145, 146, 147, 148, 149, 150, 151, 152, 153, 154, 155, 156, 157, 158, 159, 160, 161, 162, 163, 164, 165, 166, 167, 168, 169, 170, 171, 172, 173, 174, 175, 176, 177, 178, 179, 180, 181, 182, 183, 184, 185, 186, 187, 188, 189, 190],
      "AcquisitionTime": ["110246.480000", "110247.970000", "110249.460000", "110250.950000", "110252.440000", "110253.930000", "110255.420000", "110256.910000", "110258.400000", "110259.890000", "110301.380000", "110302.870000", "110304.360000", "110305.850000", "110307.340000", "110308.830000", "110310.320000", "110311.810000", "110313.300000", "110314.790000", "110316.280000", "110317.770000", "110319.260000", "110320.750000", "110322.240000", "110323.730000", "110325.220000", "110326.710000", "110328.200000", "110329.690000", "110331.180000", "110332.670000", "110334.160000", "110335.650000", "110337.140000", "110338.630000", "110340.120000", "110341.610000", "110343.100000", "110344.590000", "110346.080000", "110347.570000", "110349.060000", "110350.550000", "110352.040000", "110353.530000", "110355.020000", "110356.510000", "110358.000000", "110359.490000", "110400.980000", "110402.470000", "110403.960000", "110405.450000", "110406.940000", "110408.430000", "110409.920000", "110411.410000", "110412.900000", "110414.390000", "110415.880000", "110417.370000", "110418.860000", "110420.350000", "110421.840000", "110423.330000", "110424.820000", "110426.310000", "110427.800000", "110429.290000", "110430.780000", "110432.270000", "110433.760000", "110435.250000", "110436.740000", "110438.230000", "110439.720000", "110441.210000", "110442.700000", "110444.190000", "110445.680000", "110447.170000", "110448.660000", "110450.150000", "110451.640000", "110453.130000", "110454.620000", "110456.110000", "110457.600000", "110459.090000", "110500.580000", "110502.070000", "110503.560000", "110505.050000", "110506.540000", "110508.030000", "110509.520000", "110511.010000", "110512.500000", "110513.990000", "110515.480000", "110516.970000", "110518.460000", "110519.950000", "110521.440000", "110522.930000", "110524.420000", "110525.910000", "110527.400000", "110528.890000", "110530.380000", "110531.870000", "110533.360000", "110534.850000", "110536.340000", "110537.830000", "110539.320000", "110540.810000", "110542.300000", "110543.790000", "110545.280000", "110546.770000", "110548.260000", "110549.750000", "110551.240000", "110552.730000", "110554.220000", "110555.710000", "110557.200000", "110558.690000", "110600.180000", "110601.670000", "110603.160000", "110604.650000", "110606.140000", "110607.630000", "110609.120000", "110610.610000", "110612.100000", "110613.590000", "110615.080000", "110616.570000", "110618.060000", "110619.550000", "110621.040000", "110622.530000", "110624.020000", "110625.510000", "110627.000000", "110628.490000", "110629.980000", "110631.470000", "110632.960000", "110634.450000", "110635.940000", "110637.430000", "110638.920000", "110640.410000", "110641.900000", "110643.390000", "110644.880000", "110646.370000", "110647.860000", "110649.350000", "110650.840000", "110652.330000", "110653.820000", "110655.310000", "110656.800000", "110658.290000", "110659.780000", "110701.270000", "110702.760000", "110704.250000", "110705.740000", "110707.230000", "110708.720000", "110710.210000", "110711.700000", "110713.190000", "110714.680000", "110716.170000", "110717.660000", "110719.150000", "110720.640000", "110722.130000", "110723.620000", "110725.110000", "110726.600000", "110728.090000"],
      "ContentTime": ["110415.155000", "110415.159000", "110415.163000", "110415.166000", "110415.169000", "110415.173000", "110415.176000", "110415.179000", "110415.182000", "110415.186000", "110415.189000", "110415.192000", "110415.196000", "110415.209000", "110415.212000", "110415.215000", "110415.218000", "110415.222000", "110415.225000", "110415.228000", "110415.232000", "110415.235000", "110415.238000", "110415.242000", "110415.245000", "110415.250000", "110415.253000", "110415.256000", "110415.259000", "110415.263000", "110415.266000", "110415.270000", "110435.126000", "110435.130000", "110435.133000", "110435.137000", "110435.140000", "110435.144000", "110435.147000", "110435.151000", "110435.154000", "110435.157000", "110435.161000", "110435.164000", "110435.167000", "110435.171000", "110435.175000", "110435.178000", "110435.182000", "110435.185000", "110435.188000", "110435.192000", "110455.126000", "110455.130000", "110455.133000", "110455.136000", "110455.140000", "110455.143000", "110455.146000", "110455.150000", "110455.153000", "110455.156000", "110455.160000", "110455.163000", "110455.166000", "110455.170000", "110455.173000", "110455.194000", "110455.198000", "110455.201000", "110455.204000", "110455.215000", "110515.127000", "110515.131000", "110515.134000", "110515.137000", "110515.141000", "110515.144000", "110515.147000", "110515.151000", "110515.155000", "110515.159000", "110515.163000", "110515.166000", "110515.169000", "110515.174000", "110515.177000", "110515.180000", "110515.184000", "110515.187000", "110515.190000", "110515.194000", "110535.127000", "110535.131000", "110535.134000", "110535.137000", "110535.141000", "110535.144000", "110535.147000", "110535.150000", "110535.154000", "110535.157000", "110535.178000", "110535.181000", "110535.185000", "110535.188000", "110535.191000", "110535.195000", "110535.198000", "110535.201000", "110535.205000", "110535.209000", "110615.127000", "110615.131000", "110615.134000", "110615.137000", "110615.141000", "110615.144000", "110615.147000", "110615.150000", "110615.154000", "110615.157000", "110615.188000", "110615.191000", "110615.195000", "110615.198000", "110615.201000", "110615.204000", "110615.208000", "110615.211000", "110615.214000", "110615.217000", "110615.221000", "110615.224000", "110615.227000", "110615.230000", "110615.234000", "110615.237000", "110615.240000", "110655.126000", "110655.130000", "110655.133000", "110655.136000", "110655.140000", "110655.143000", "110655.146000", "110655.149000", "110655.153000", "110655.156000", "110655.180000", "110655.184000", "110655.187000", "110655.190000", "110655.193000", "110655.197000", "110655.200000", "110655.203000", "110655.207000", "110655.210000", "110655.213000", "110655.217000", "110655.220000", "110655.223000", "110655.227000", "110655.230000", "110655.233000", "110730.142000", "110730.146000", "110730.149000", "110730.153000", "110730.156000", "110730.159000", "110730.163000", "110730.166000", "110730.169000", "110730.173000", "110730.176000", "110730.179000", "110730.183000", "110730.186000", "110730.190000", "110730.193000", "110730.196000", "110730.199000", "110730.203000", "110730.206000", "110730.209000", "110730.212000", "110730.216000", "110730.219000"],
      "InstanceCreationTime": ["110415.155000", "110415.159000", "110415.163000", "110415.166000", "110415.169000", "110415.173000", "110415.176000", "110415.179000", "110415.182000", "110415.186000", "110415.189000", "110415.192000", "110415.196000", "110415.209000", "110415.212000", "110415.215000", "110415.218000", "110415.222000", "110415.225000", "110415.228000", "110415.232000", "110415.235000", "110415.238000", "110415.242000", "110415.245000", "110415.250000", "110415.253000", "110415.256000", "110415.259000", "110415.263000", "110415.266000", "110415.270000", "110435.126000", "110435.130000", "110435.133000", "110435.137000", "110435.140000", "110435.144000", "110435.147000", "110435.151000", "110435.154000", "110435.157000", "110435.161000", "110435.164000", "110435.167000", "110435.171000", "110435.175000", "110435.178000", "110435.182000", "110435.185000", "110435.188000", "110435.192000", "110455.126000", "110455.130000", "110455.133000", "110455.136000", "110455.140000", "110455.143000", "110455.146000", "110455.150000", "110455.153000", "110455.156000", "110455.160000", "110455.163000", "110455.166000", "110455.170000", "110455.173000", "110455.194000", "110455.198000", "110455.201000", "110455.204000", "110455.215000", "110515.127000", "110515.131000", "110515.134000", "110515.137000", "110515.141000", "110515.144000", "110515.147000", "110515.151000", "110515.155000", "110515.159000", "110515.163000", "110515.166000", "110515.169000", "110515.174000", "110515.177000", "110515.180000", "110515.184000", "110515.187000", "110515.190000", "110515.194000", "110535.127000", "110535.131000", "110535.134000", "110535.137000", "110535.141000", "110535.144000", "110535.147000", "110535.150000", "110535.154000", "110535.157000", "110535.178000", "110535.181000", "110535.185000", "110535.188000", "110535.191000", "110535.195000", "110535.198000", "110535.201000", "110535.205000", "110535.209000", "110615.127000", "110615.131000", "110615.134000", "110615.137000", "110615.141000", "110615.144000", "110615.147000", "110615.150000", "110615.154000", "110615.157000", "110615.188000", "110615.191000", "110615.195000", "110615.198000", "110615.201000", "110615.204000", "110615.208000", "110615.211000", "110615.214000", "110615.217000", "110615.221000", "110615.224000", "110615.227000", "110615.230000", "110615.234000", "110615.237000", "110615.240000", "110655.126000", "110655.130000", "110655.133000", "110655.136000", "110655.140000", "110655.143000", "110655.146000", "110655.149000", "110655.153000", "110655.156000", "110655.180000", "110655.184000", "110655.187000", "110655.190000", "110655.193000", "110655.197000", "110655.200000", "110655.203000", "110655.207000", "110655.210000", "110655.213000", "110655.217000", "110655.220000", "110655.223000", "110655.227000", "110655.230000", "110655.233000", "110730.142000", "110730.146000", "110730.149000", "110730.153000", "110730.156000", "110730.159000", "110730.163000", "110730.166000", "110730.169000", "110730.173000", "110730.176000", "110730.179000", "110730.183000", "110730.186000", "110730.190000", "110730.193000", "110730.196000", "110730.199000", "110730.203000", "110730.206000", "110730.209000", "110730.212000", "110730.216000", "110730.219000"],
      "InstanceNumber": [1, 2, 3, 4, 5, 6, 7, 8, 9, 10, 11, 12, 13, 14, 15, 16, 17, 18, 19, 20, 21, 22, 23, 24, 25, 26, 27, 28, 29, 30, 31, 32, 33, 34, 35, 36, 37, 38, 39, 40, 41, 42, 43, 44, 45, 46, 47, 48, 49, 50, 51, 52, 53, 54, 55, 56, 57, 58, 59, 60, 61, 62, 63, 64, 65, 66, 67, 68, 69, 70, 71, 72, 73, 74, 75, 76, 77, 78, 79, 80, 81, 82, 83, 84, 85, 86, 87, 88, 89, 90, 91, 92, 93, 94, 95, 96, 97, 98, 99, 100, 101, 102, 103, 104, 105, 106, 107, 108, 109, 110, 111, 112, 113, 114, 115, 116, 117, 118, 119, 120, 121, 122, 123, 124, 125, 126, 127, 128, 129, 130, 131, 132, 133, 134, 135, 136, 137, 138, 139, 140, 141, 142, 143, 144, 145, 146, 147, 148, 149, 150, 151, 152, 153, 154, 155, 156, 157, 158, 159, 160, 161, 162, 163, 164, 165, 166, 167, 168, 169, 170, 171, 172, 173, 174, 175, 176, 177, 178, 179, 180, 181, 182, 183, 184, 185, 186, 187, 188, 189, 190],
      "LargestImagePixelValue": [45761, 45342, 44900, 44469, 43527, 44316, 44074, 43246, 43101, 43889, 43520, 43540, 43907, 43754, 43763, 43728, 43399, 43919, 43070, 43385, 43313, 43431, 42773, 43325, 43229, 42826, 43662, 42896, 42906, 42850, 43361, 42747, 43125, 43464, 43729, 42693, 43206, 42533, 43218, 43492, 42976, 43552, 42966, 43110, 42983, 43174, 42917, 43151, 42240, 42491, 43234, 43605, 42891, 42558, 42259, 42548, 42297, 42857, 42246, 43053, 42473, 42026, 43220, 42500, 42955, 42421, 42709, 42591, 42763, 43369, 41994, 43365, 42639, 42740, 43119, 42774, 42278, 42192, 42919, 41859, 42979, 42586, 42949, 42420, 42680, 42208, 42125, 43401, 42885, 43060, 42623, 42741, 42377, 41870, 42649, 42301, 41779, 42228, 42540, 42243, 41992, 42170, 42311, 41395, 42883, 42296, 42272, 42030, 43131, 41692, 43011, 42102, 41679, 42300, 42126, 42272, 41928, 41976, 41826, 42595, 42223, 42028, 43184, 42580, 42187, 41946, 41813, 41529, 42432, 42184, 41970, 42426, 41936, 41730, 42039, 41913, 41863, 41444, 42731, 42113, 42643, 42264, 42073, 41988, 42421, 41818, 42044, 41760, 42251, 41836, 42000, 41967, 42429, 42306, 41702, 42613, 41699, 42227, 42021, 42466, 41943, 42538, 42096, 42259, 41929, 41988, 41614, 42262, 42425, 41929, 42768, 41650, 42527, 41623, 42168, 42287, 42325, 41766, 42333, 42002, 41802, 42217, 41775, 42254, 42032, 41975, 42006, 42237, 42015, 42552],
      "WindowCenter": [10860.0, 10814.0, 10786.0, 10784.0, 10772.0, 10767.0, 10773.0, 10772.0, 10773.0, 10771.0, 10755.0, 10750.0, 10767.0, 10791.0, 10803.0, 10804.0, 10774.0, 10748.0, 10769.0, 10796.0, 10790.0, 10763.0, 10716.0, 10705.0, 10737.0, 10760.0, 10756.0, 10744.0, 10748.0, 10788.0, 10771.0, 10743.0, 10743.0, 10721.0, 10690.0, 10696.0, 10736.0, 10750.0, 10752.0, 10732.0, 10708.0, 10708.0, 10737.0, 10762.0, 10754.0, 10739.0, 10715.0, 10718.0, 10743.0, 10771.0, 10779.0, 10750.0, 10718.0, 10707.0, 10706.0, 10713.0, 10718.0, 10723.0, 10712.0, 10721.0, 10709.0, 10695.0, 10712.0, 10715.0, 10723.0, 10725.0, 10745.0, 10757.0, 10765.0, 10767.0, 10735.0, 10744.0, 10737.0, 10733.0, 10740.0, 10740.0, 10736.0, 10731.0, 10735.0, 10717.0, 10715.0, 10700.0, 10706.0, 10715.0, 10727.0, 10747.0, 10757.0, 10768.0, 10738.0, 10724.0, 10709.0, 10715.0, 10718.0, 10730.0, 10739.0, 10741.0, 10723.0, 10725.0, 10723.0, 10704.0, 10703.0, 10719.0, 10739.0, 10729.0, 10735.0, 10748.0, 10760.0, 10756.0, 10718.0, 10699.0, 10710.0, 10667.0, 10645.0, 10687.0, 10731.0, 10705.0, 10678.0, 10711.0, 10734.0, 10728.0, 10717.0, 10710.0, 10708.0, 10702.0, 10690.0, 10660.0, 10644.0, 10665.0, 10717.0, 10722.0, 10680.0, 10652.0, 10663.0, 10702.0, 10686.0, 10660.0, 10656.0, 10694.0, 10717.0, 10713.0, 10708.0, 10693.0, 10683.0, 10704.0, 10717.0, 10711.0, 10698.0, 10672.0, 10665.0, 10669.0, 10679.0, 10696.0, 10706.0, 10708.0, 10699.0, 10702.0, 10691.0, 10700.0, 10697.0, 10707.0, 10704.0, 10709.0, 10703.0, 10695.0, 10679.0, 10679.0, 10681.0, 10695.0, 10701.0, 10688.0, 10696.0, 10687.0, 10697.0, 10691.0, 10703.0, 10702.0, 10694.0, 10680.0, 10679.0, 10686.0, 10687.0, 10695.0, 10689.0, 10687.0, 10679.0, 10679.0, 10673.0, 10668.0, 10672.0, 10701.0],
      "WindowWidth": [23316.0, 23164.0, 23087.0, 23073.0, 23045.0, 23028.0, 23038.0, 23040.0, 23037.0, 23035.0, 23002.0, 22989.0, 23026.0, 23080.0, 23109.0, 23113.0, 23051.0, 22983.0, 23031.0, 23091.0, 23081.0, 23018.0, 22910.0, 22884.0, 22954.0, 23011.0, 23001.0, 22980.0, 22982.0, 23073.0, 23037.0, 22970.0, 22971.0, 22918.0, 22850.0, 22866.0, 22955.0, 22991.0, 22992.0, 22947.0, 22896.0, 22890.0, 22957.0, 23013.0, 22999.0, 22963.0, 22912.0, 22916.0, 22977.0, 23040.0, 23054.0, 22988.0, 22917.0, 22893.0, 22891.0, 22906.0, 22919.0, 22927.0, 22910.0, 22919.0, 22897.0, 22870.0, 22900.0, 22912.0, 22927.0, 22934.0, 22977.0, 23008.0, 23024.0, 23022.0, 22960.0, 22969.0, 22965.0, 22948.0, 22965.0, 22964.0, 22958.0, 22949.0, 22951.0, 22924.0, 22906.0, 22877.0, 22886.0, 22908.0, 22935.0, 22981.0, 23004.0, 23025.0, 22962.0, 22925.0, 22894.0, 22910.0, 22916.0, 22945.0, 22965.0, 22969.0, 22937.0, 22931.0, 22927.0, 22886.0, 22884.0, 22919.0, 22964.0, 22948.0, 22954.0, 22983.0, 23012.0, 23004.0, 22912.0, 22875.0, 22894.0, 22801.0, 22758.0, 22843.0, 22945.0, 22889.0, 22827.0, 22897.0, 22956.0, 22933.0, 22917.0, 22905.0, 22888.0, 22881.0, 22853.0, 22789.0, 22749.0, 22798.0, 22912.0, 22928.0, 22834.0, 22764.0, 22790.0, 22879.0, 22845.0, 22787.0, 22777.0, 22861.0, 22909.0, 22908.0, 22893.0, 22863.0, 22839.0, 22887.0, 22913.0, 22906.0, 22871.0, 22812.0, 22794.0, 22807.0, 22830.0, 22872.0, 22886.0, 22891.0, 22874.0, 22878.0, 22859.0, 22872.0, 22870.0, 22889.0, 22887.0, 22896.0, 22882.0, 22865.0, 22833.0, 22829.0, 22837.0, 22864.0, 22877.0, 22852.0, 22861.0, 22846.0, 22866.0, 22857.0, 22883.0, 22877.0, 22860.0, 22831.0, 22830.0, 22844.0, 22852.0, 22863.0, 22851.0, 22846.0, 22825.0, 22826.0, 22821.0, 22803.0, 22820.0, 22872.0]
    },
    "slices": {}
  }
}