{
  "AcquisitionMatrixPE": 104,
  "AcquisitionNumber": 1,
  "AcquisitionTime": "12:04:17.247500",
  "BandwidthPerPixelPhaseEncode": 17.17,
  "BaseResolution": 104,
  "BodyPartExamined": "BRAIN",
  "CoilString": "HC1-7;NC1_2",
  "ConsistencyInfo": "N4_VE11C_LATEST_20160120",
  "ConversionSoftware": "dcm2niix",
  "ConversionSoftwareVersion": "v1.0.20190902",
  "DerivedVendorReportedEchoSpacing": 0.000560011,
  "DeviceSerialNumber": "167006",
  "DwellTime": 2.1e-06,
  "EchoTime": 0.037,
  "EchoTrainLength": 104,
  "EffectiveEchoSpacing": 0.000560011,
  "FlipAngle": 52,
  "ImageComments": "Unaliased_MB4_PE3_LB",
  "ImageOrientationPatientDICOM": [0.999637, 0.0114581, 0.0243726, 0.00174469, 0.875529, -0.483162],
  "ImageType": [
    "ORIGINAL",
    "PRIMARY",
    "P",
    "MB",
    "ND",
    "MOSAIC"
],
  "ImagingFrequency": 123.259,
  "InPlanePhaseEncodingDirectionDICOM": "COL",
  "InstitutionAddress": "Chemin_Queen-Mary_4565_Montreal_District_CA_H3W_1W5",
  "InstitutionName": "IUGM",
  "InstitutionalDepartmentName": "Department",
  "MRAcquisitionType": "2D",
  "MagneticFieldStrength": 3,
  "Manufacturer": "Siemens",
  "ManufacturersModelName": "Prisma_fit",
  "Modality": "MR",
  "MultibandAccelerationFactor": 4,
  "PartialFourier": 1,
  "PatientPosition": "HFS",
  "PercentPhaseFOV": 100,
  "PhaseEncodingDirection": "j",
  "PhaseEncodingSteps": 104,
  "PhaseResolution": 1,
  "PixelBandwidth": 2290,
  "ProcedureStepDescription": "memory_things",
  "ProtocolName": "func_task-things_run-6",
  "PulseSequenceDetails": "%CustomerSeq%_cmrr_mbep2d_bold",
  "ReceiveCoilActiveElements": "HC1-7;NC1,2",
  "ReceiveCoilName": "HeadNeck_64",
  "ReconMatrixPE": 104,
  "RepetitionTime": 1.49,
  "SAR": 0.048632,
  "ScanOptions": "FS",
  "ScanningSequence": "EP",
  "SequenceName": "epfid2d1_104",
  "SequenceVariant": "SK_SS",
  "SeriesDescription": "func_task-things_run-6",
  "SeriesNumber": 26,
  "ShimSetting": [615, -7191, -8855, 307, -15, -147, -32, -22],
  "SliceThickness": 2,
  "SliceTiming": [0, 0.7825, 0.0975, 0.88, 0.195, 0.98, 0.2925, 1.0775, 0.39, 1.175, 0.49, 1.2725, 0.5875, 1.37, 0.685, 0, 0.7825, 0.0975, 0.88, 0.195, 0.98, 0.2925, 1.0775, 0.39, 1.175, 0.49, 1.2725, 0.5875, 1.37, 0.685, 0, 0.7825, 0.0975, 0.88, 0.195, 0.98, 0.2925, 1.0775, 0.39, 1.175, 0.49, 1.2725, 0.5875, 1.37, 0.685, 0, 0.7825, 0.0975, 0.88, 0.195, 0.98, 0.2925, 1.0775, 0.39, 1.175, 0.49, 1.2725, 0.5875, 1.37, 0.685],
  "SoftwareVersions": "syngo_MR_E11",
  "SpacingBetweenSlices": 2,
  "StationName": "MRC35049",
  "TaskName": "things",
  "TotalReadoutTime": 0.0576811,
  "TxRefAmp": 271.441,
  "WipMemBlock": "3a9fa9c1-aeee-48a7-97ae-5698a22dd311||Sequence: R016 ve11c/master r/e634e98; Dec 19 2017 11:00:25 by eja",
  "dcmmeta_affine": [
    [-1.9992746114730835, 0.003489370457828045, 0.053750116378068924, 105.19254302978516],
    [-0.022916128858923912, 1.75105881690979, -0.9660578966140747, -52.837371826171875],
    [0.04874527454376221, 0.9663233757019043, 1.7503836154937744, -95.67288970947266],
    [0.0, 0.0, 0.0, 1.0]
],
  "dcmmeta_reorient_transform": [
    [0.0, -1.0, 0.0, 103.0],
    [1.0, 0.0, 0.0, 0.0],
    [0.0, 0.0, 1.0, 0.0],
    [0.0, 0.0, 0.0, 1.0]
],
  "dcmmeta_shape": [104, 104, 60, 190],
  "dcmmeta_slice_dim": 2,
  "dcmmeta_version": 0.6,
  "global": {
    "const": {
      "AcquisitionMatrix": [104, 0, 0, 104],
      "AngioFlag": "N",
      "BitsAllocated": 16,
      "BitsStored": 16,
      "BodyPartExamined": "BRAIN",
      "Columns": 832,
      "EchoNumbers": 1,
      "EchoTime": 37.0,
      "EchoTrainLength": 104,
      "FlipAngle": 52.0,
      "HighBit": 15,
      "ImageOrientationPatient": [0.99963727785834, 0.01145806480388, 0.02437263766863, 0.00174468517942, 0.87552940070271, -0.4831616961006],
      "ImagePositionPatient": [-834.55801628036, -773.24856138327, 337.85685620399],
      "ImageType": [
        "ORIGINAL",
        "PRIMARY",
        "P",
        "MB",
        "ND",
        "MOSAIC"
],
      "ImagedNucleus": "1H",
      "ImagingFrequency": 123.258927,
      "InPlanePhaseEncodingDirection": "COL",
      "LargestImagePixelValue": 4095,
      "MRAcquisitionType": "2D",
      "MagneticFieldStrength": 3.0,
      "Manufacturer": "SIEMENS",
      "ManufacturerModelName": "Prisma_fit",
      "Modality": "MR",
      "NumberOfAverages": 1.0,
      "NumberOfPhaseEncodingSteps": 104,
      "PercentPhaseFieldOfView": 100.0,
      "PercentSampling": 100.0,
      "PerformedProcedureStepStartTime": "102616.540000",
      "PhotometricInterpretation": "MONOCHROME2",
      "PixelBandwidth": 2290.0,
      "PixelRepresentation": 0,
      "PixelSpacing": [2.0, 2.0],
      "ProtocolName": "func_task-things_run-6",
      "RepetitionTime": 1490.0,
      "RescaleIntercept": -4096.0,
      "RescaleSlope": 2.0,
      "RescaleType": "US",
      "Rows": 832,
      "SAR": 0.04863195515636,
      "SamplesPerPixel": 1,
      "ScanOptions": "FS",
      "ScanningSequence": "EP",
      "SequenceName": "epfid2d1_104",
      "SequenceVariant": [
        "SK",
        "SS"
],
      "SeriesDescription": "func_task-things_run-6",
      "SeriesNumber": 26,
      "SeriesTime": "120515.255000",
      "SliceLocation": -55.383094335391,
      "SliceThickness": 2.0,
      "SmallestImagePixelValue": 0,
      "SoftwareVersions": "syngo MR E11",
      "SpacingBetweenSlices": 1.9999999613424,
      "SpecificCharacterSet": "ISO_IR 100",
      "StudyID": "1",
      "StudyTime": "102616.426000",
      "TransmitCoilName": "Body",
      "VariableFlipAngleFlag": "N",
      "WindowCenterWidthExplanation": "Algo1",
      "dBdt": 0.0},
    "slices": {}
  },
  "time": {
    "samples": {
      "AcquisitionNumber": [1, 2, 3, 4, 5, 6, 7, 8, 9, 10, 11, 12, 13, 14, 15, 16, 17, 18, 19, 20, 21, 22, 23, 24, 25, 26, 27, 28, 29, 30, 31, 32, 33, 34, 35, 36, 37, 38, 39, 40, 41, 42, 43, 44, 45, 46, 47, 48, 49, 50, 51, 52, 53, 54, 55, 56, 57, 58, 59, 60, 61, 62, 63, 64, 65, 66, 67, 68, 69, 70, 71, 72, 73, 74, 75, 76, 77, 78, 79, 80, 81, 82, 83, 84, 85, 86, 87, 88, 89, 90, 91, 92, 93, 94, 95, 96, 97, 98, 99, 100, 101, 102, 103, 104, 105, 106, 107, 108, 109, 110, 111, 112, 113, 114, 115, 116, 117, 118, 119, 120, 121, 122, 123, 124, 125, 126, 127, 128, 129, 130, 131, 132, 133, 134, 135, 136, 137, 138, 139, 140, 141, 142, 143, 144, 145, 146, 147, 148, 149, 150, 151, 152, 153, 154, 155, 156, 157, 158, 159, 160, 161, 162, 163, 164, 165, 166, 167, 168, 169, 170, 171, 172, 173, 174, 175, 176, 177, 178, 179, 180, 181, 182, 183, 184, 185, 186, 187, 188, 189, 190],
      "AcquisitionTime": ["120417.247500", "120418.737500", "120420.227500", "120421.717500", "120423.207500", "120424.697500", "120426.187500", "120427.677500", "120429.167500", "120430.657500", "120432.147500", "120433.637500", "120435.127500", "120436.617500", "120438.107500", "120439.597500", "120441.087500", "120442.577500", "120444.067500", "120445.557500", "120447.047500", "120448.537500", "120450.027500", "120451.517500", "120453.007500", "120454.497500", "120455.987500", "120457.477500", "120458.967500", "120500.457500", "120501.947500", "120503.437500", "120504.927500", "120506.417500", "120507.907500", "120509.397500", "120510.887500", "120512.377500", "120513.867500", "120515.357500", "120516.847500", "120518.337500", "120519.827500", "120521.317500", "120522.807500", "120524.297500", "120525.787500", "120527.277500", "120528.767500", "120530.257500", "120531.747500", "120533.237500", "120534.727500", "120536.217500", "120537.707500", "120539.197500", "120540.687500", "120542.177500", "120543.667500", "120545.157500", "120546.647500", "120548.137500", "120549.627500", "120551.117500", "120552.607500", "120554.097500", "120555.587500", "120557.077500", "120558.567500", "120600.057500", "120601.547500", "120603.037500", "120604.527500", "120606.017500", "120607.507500", "120608.997500", "120610.487500", "120611.977500", "120613.467500", "120614.957500", "120616.447500", "120617.937500", "120619.427500", "120620.917500", "120622.407500", "120623.897500", "120625.387500", "120626.877500", "120628.367500", "120629.857500", "120631.347500", "120632.837500", "120634.327500", "120635.817500", "120637.307500", "120638.797500", "120640.287500", "120641.777500", "120643.267500", "120644.757500", "120646.247500", "120647.737500", "120649.227500", "120650.717500", "120652.207500", "120653.697500", "120655.187500", "120656.677500", "120658.167500", "120659.657500", "120701.147500", "120702.637500", "120704.127500", "120705.617500", "120707.107500", "120708.597500", "120710.087500", "120711.577500", "120713.067500", "120714.557500", "120716.047500", "120717.537500", "120719.027500", "120720.517500", "120722.007500", "120723.497500", "120724.987500", "120726.477500", "120727.967500", "120729.457500", "120730.947500", "120732.437500", "120733.927500", "120735.417500", "120736.907500", "120738.397500", "120739.887500", "120741.377500", "120742.867500", "120744.357500", "120745.847500", "120747.337500", "120748.827500", "120750.317500", "120751.807500", "120753.297500", "120754.787500", "120756.277500", "120757.767500", "120759.257500", "120800.747500", "120802.237500", "120803.727500", "120805.217500", "120806.707500", "120808.197500", "120809.687500", "120811.177500", "120812.667500", "120814.157500", "120815.647500", "120817.137500", "120818.627500", "120820.117500", "120821.607500", "120823.097500", "120824.587500", "120826.077500", "120827.567500", "120829.057500", "120830.547500", "120832.037500", "120833.527500", "120835.017500", "120836.507500", "120837.997500", "120839.487500", "120840.977500", "120842.467500", "120843.957500", "120845.447500", "120846.937500", "120848.427500", "120849.917500", "120851.407500", "120852.897500", "120854.387500", "120855.877500", "120857.367500", "120858.857500"],
      "ContentTime": ["120515.257000", "120515.260000", "120515.262000", "120515.265000", "120515.267000", "120535.285000", "120535.287000", "120535.290000", "120535.292000", "120535.295000", "120535.297000", "120535.300000", "120535.302000", "120535.305000", "120535.307000", "120535.310000", "120535.312000", "120535.315000", "120535.317000", "120535.320000", "120535.322000", "120535.325000", "120535.327000", "120535.330000", "120535.332000", "120535.335000", "120555.278000", "120555.281000", "120555.290000", "120555.292000", "120555.295000", "120555.297000", "120555.300000", "120555.302000", "120555.305000", "120555.307000", "120555.310000", "120555.312000", "120555.315000", "120555.317000", "120555.320000", "120555.322000", "120555.325000", "120555.327000", "120555.329000", "120555.332000", "120615.282000", "120615.285000", "120615.288000", "120615.290000", "120615.292000", "120615.295000", "120615.297000", "120615.300000", "120615.302000", "120615.305000", "120615.308000", "120615.310000", "120615.312000", "120615.315000", "120615.317000", "120615.320000", "120615.322000", "120615.325000", "120615.327000", "120615.330000", "120635.287000", "120635.290000", "120635.292000", "120635.295000", "120635.297000", "120635.300000", "120635.302000", "120635.304000", "120635.307000", "120635.310000", "120635.312000", "120635.315000", "120635.317000", "120635.320000", "120635.322000", "120635.331000", "120635.333000", "120635.336000", "120635.339000", "120635.341000", "120635.343000", "120715.352000", "120715.355000", "120715.358000", "120715.360000", "120715.363000", "120715.365000", "120715.368000", "120715.370000", "120715.373000", "120715.375000", "120715.378000", "120715.380000", "120715.383000", "120715.385000", "120715.388000", "120715.390000", "120715.393000", "120715.395000", "120715.398000", "120715.400000", "120715.403000", "120715.405000", "120715.408000", "120715.410000", "120715.413000", "120715.415000", "120715.418000", "120715.420000", "120715.423000", "120715.425000", "120715.428000", "120715.430000", "120755.321000", "120755.323000", "120755.326000", "120755.328000", "120755.331000", "120755.334000", "120755.336000", "120755.338000", "120755.341000", "120755.344000", "120755.346000", "120755.349000", "120755.351000", "120755.354000", "120755.356000", "120755.359000", "120755.361000", "120755.364000", "120755.366000", "120755.369000", "120755.371000", "120755.374000", "120755.376000", "120755.379000", "120755.381000", "120755.384000", "120755.386000", "120835.356000", "120835.359000", "120835.361000", "120835.364000", "120835.373000", "120835.376000", "120835.378000", "120835.381000", "120835.383000", "120835.386000", "120835.388000", "120835.391000", "120835.393000", "120835.396000", "120835.398000", "120835.401000", "120835.403000", "120835.406000", "120835.408000", "120835.411000", "120835.413000", "120835.416000", "120835.418000", "120835.421000", "120835.423000", "120835.426000", "120900.768000", "120900.771000", "120900.773000", "120900.776000", "120900.784000", "120900.786000", "120900.789000", "120900.791000", "120900.794000", "120900.796000", "120900.799000", "120900.801000", "120900.804000", "120900.806000", "120900.809000", "120900.811000", "120900.814000", "120900.816000"],
      "InstanceCreationTime": ["120515.257000", "120515.260000", "120515.262000", "120515.265000", "120515.267000", "120535.285000", "120535.287000", "120535.290000", "120535.292000", "120535.295000", "120535.297000", "120535.300000", "120535.302000", "120535.305000", "120535.307000", "120535.310000", "120535.312000", "120535.315000", "120535.317000", "120535.320000", "120535.322000", "120535.325000", "120535.327000", "120535.330000", "120535.332000", "120535.335000", "120555.278000", "120555.281000", "120555.290000", "120555.292000", "120555.295000", "120555.297000", "120555.300000", "120555.302000", "120555.305000", "120555.307000", "120555.310000", "120555.312000", "120555.315000", "120555.317000", "120555.320000", "120555.322000", "120555.325000", "120555.327000", "120555.329000", "120555.332000", "120615.282000", "120615.285000", "120615.288000", "120615.290000", "120615.292000", "120615.295000", "120615.297000", "120615.300000", "120615.302000", "120615.305000", "120615.308000", "120615.310000", "120615.312000", "120615.315000", "120615.317000", "120615.320000", "120615.322000", "120615.325000", "120615.327000", "120615.330000", "120635.287000", "120635.290000", "120635.292000", "120635.295000", "120635.297000", "120635.300000", "120635.302000", "120635.304000", "120635.307000", "120635.310000", "120635.312000", "120635.315000", "120635.317000", "120635.320000", "120635.322000", "120635.331000", "120635.333000", "120635.336000", "120635.339000", "120635.341000", "120635.343000", "120715.352000", "120715.355000", "120715.358000", "120715.360000", "120715.363000", "120715.365000", "120715.368000", "120715.370000", "120715.373000", "120715.375000", "120715.378000", "120715.380000", "120715.383000", "120715.385000", "120715.388000", "120715.390000", "120715.393000", "120715.395000", "120715.398000", "120715.400000", "120715.403000", "120715.405000", "120715.408000", "120715.410000", "120715.413000", "120715.415000", "120715.418000", "120715.420000", "120715.423000", "120715.425000", "120715.428000", "120715.430000", "120755.321000", "120755.323000", "120755.326000", "120755.328000", "120755.331000", "120755.334000", "120755.336000", "120755.338000", "120755.341000", "120755.344000", "120755.346000", "120755.349000", "120755.351000", "120755.354000", "120755.356000", "120755.359000", "120755.361000", "120755.364000", "120755.366000", "120755.369000", "120755.371000", "120755.374000", "120755.376000", "120755.379000", "120755.381000", "120755.384000", "120755.386000", "120835.356000", "120835.359000", "120835.361000", "120835.364000", "120835.373000", "120835.376000", "120835.378000", "120835.381000", "120835.383000", "120835.386000", "120835.388000", "120835.391000", "120835.393000", "120835.396000", "120835.398000", "120835.401000", "120835.403000", "120835.406000", "120835.408000", "120835.411000", "120835.413000", "120835.416000", "120835.418000", "120835.421000", "120835.423000", "120835.426000", "120900.768000", "120900.771000", "120900.773000", "120900.776000", "120900.784000", "120900.786000", "120900.789000", "120900.791000", "120900.794000", "120900.796000", "120900.799000", "120900.801000", "120900.804000", "120900.806000", "120900.809000", "120900.811000", "120900.814000", "120900.816000"],
      "InstanceNumber": [1, 2, 3, 4, 5, 6, 7, 8, 9, 10, 11, 12, 13, 14, 15, 16, 17, 18, 19, 20, 21, 22, 23, 24, 25, 26, 27, 28, 29, 30, 31, 32, 33, 34, 35, 36, 37, 38, 39, 40, 41, 42, 43, 44, 45, 46, 47, 48, 49, 50, 51, 52, 53, 54, 55, 56, 57, 58, 59, 60, 61, 62, 63, 64, 65, 66, 67, 68, 69, 70, 71, 72, 73, 74, 75, 76, 77, 78, 79, 80, 81, 82, 83, 84, 85, 86, 87, 88, 89, 90, 91, 92, 93, 94, 95, 96, 97, 98, 99, 100, 101, 102, 103, 104, 105, 106, 107, 108, 109, 110, 111, 112, 113, 114, 115, 116, 117, 118, 119, 120, 121, 122, 123, 124, 125, 126, 127, 128, 129, 130, 131, 132, 133, 134, 135, 136, 137, 138, 139, 140, 141, 142, 143, 144, 145, 146, 147, 148, 149, 150, 151, 152, 153, 154, 155, 156, 157, 158, 159, 160, 161, 162, 163, 164, 165, 166, 167, 168, 169, 170, 171, 172, 173, 174, 175, 176, 177, 178, 179, 180, 181, 182, 183, 184, 185, 186, 187, 188, 189, 190],
      "WindowCenter": [4858.0, 4882.0, 4856.0, 4854.0, 4858.0, 4854.0, 4856.0, 4886.0, 4880.0, 4854.0, 4882.0, 4886.0, 4880.0, 4856.0, 4856.0, 4884.0, 4930.0, 4906.0, 4858.0, 4860.0, 4862.0, 4834.0, 4854.0, 4856.0, 4886.0, 4910.0, 4884.0, 4886.0, 4884.0, 4856.0, 4834.0, 4834.0, 4834.0, 4856.0, 4878.0, 4882.0, 4860.0, 4910.0, 4884.0, 4854.0, 4878.0, 4858.0, 4834.0, 4834.0, 4854.0, 4854.0, 4854.0, 4882.0, 4882.0, 4858.0, 4884.0, 4852.0, 4856.0, 4860.0, 4856.0, 4832.0, 4832.0, 4852.0, 4906.0, 4912.0, 4882.0, 4858.0, 4858.0, 4832.0, 4856.0, 4908.0, 4946.0, 4884.0, 4838.0, 4836.0, 4838.0, 4832.0, 4828.0, 4858.0, 4888.0, 4912.0, 4888.0, 4884.0, 4858.0, 4906.0, 4888.0, 4854.0, 4856.0, 4836.0, 4834.0, 4830.0, 4854.0, 4856.0, 4858.0, 4882.0, 4882.0, 4910.0, 4904.0, 4852.0, 4856.0, 4856.0, 4832.0, 4858.0, 4884.0, 4852.0, 4852.0, 4856.0, 4852.0, 4858.0, 4882.0, 4854.0, 4854.0, 4858.0, 4852.0, 4852.0, 4858.0, 4856.0, 4856.0, 4880.0, 4882.0, 4856.0, 4908.0, 4860.0, 4856.0, 4832.0, 4830.0, 4908.0, 4910.0, 4860.0, 4830.0, 4830.0, 4828.0, 4830.0, 4830.0, 4852.0, 4884.0, 4926.0, 4912.0, 4880.0, 4836.0, 4832.0, 4836.0, 4830.0, 4832.0, 4882.0, 4930.0, 4914.0, 4880.0, 4858.0, 4828.0, 4856.0, 4858.0, 4854.0, 4832.0, 4880.0, 4880.0, 4854.0, 4854.0, 4852.0, 4856.0, 4908.0, 4878.0, 4850.0, 4830.0, 4830.0, 4856.0, 4884.0, 4880.0, 4858.0, 4854.0, 4850.0, 4854.0, 4858.0, 4854.0, 4854.0, 4856.0, 4852.0, 4856.0, 4878.0, 4854.0, 4858.0, 4832.0, 4856.0, 4910.0, 4886.0, 4858.0, 4854.0, 4858.0, 4828.0, 4856.0, 4930.0, 4922.0, 4908.0, 4856.0, 4862.0],
      "WindowWidth": [18596.0, 18640.0, 18586.0, 18582.0, 18588.0, 18582.0, 18588.0, 18652.0, 18632.0, 18594.0, 18648.0, 18654.0, 18622.0, 18584.0, 18590.0, 18634.0, 18748.0, 18676.0, 18584.0, 18592.0, 18604.0, 18558.0, 18584.0, 18584.0, 18656.0, 18700.0, 18658.0, 18648.0, 18642.0, 18590.0, 18556.0, 18560.0, 18564.0, 18582.0, 18630.0, 18638.0, 18610.0, 18708.0, 18644.0, 18588.0, 18630.0, 18584.0, 18560.0, 18560.0, 18586.0, 18586.0, 18592.0, 18642.0, 18634.0, 18594.0, 18636.0, 18586.0, 18592.0, 18596.0, 18584.0, 18556.0, 18556.0, 18588.0, 18702.0, 18716.0, 18636.0, 18598.0, 18592.0, 18560.0, 18588.0, 18692.0, 18802.0, 18630.0, 18564.0, 18588.0, 18588.0, 18564.0, 18556.0, 18604.0, 18666.0, 18704.0, 18672.0, 18656.0, 18606.0, 18684.0, 18646.0, 18580.0, 18582.0, 18558.0, 18568.0, 18550.0, 18580.0, 18596.0, 18606.0, 18646.0, 18648.0, 18724.0, 18704.0, 18586.0, 18584.0, 18578.0, 18560.0, 18588.0, 18630.0, 18584.0, 18584.0, 18592.0, 18584.0, 18606.0, 18640.0, 18596.0, 18590.0, 18586.0, 18584.0, 18586.0, 18592.0, 18594.0, 18590.0, 18634.0, 18632.0, 18604.0, 18706.0, 18600.0, 18588.0, 18560.0, 18552.0, 18676.0, 18682.0, 18592.0, 18552.0, 18554.0, 18552.0, 18558.0, 18552.0, 18590.0, 18660.0, 18770.0, 18714.0, 18624.0, 18560.0, 18556.0, 18566.0, 18554.0, 18554.0, 18632.0, 18754.0, 18710.0, 18634.0, 18594.0, 18552.0, 18586.0, 18590.0, 18578.0, 18556.0, 18626.0, 18628.0, 18586.0, 18584.0, 18586.0, 18594.0, 18688.0, 18630.0, 18576.0, 18558.0, 18558.0, 18594.0, 18646.0, 18622.0, 18592.0, 18590.0, 18582.0, 18596.0, 18594.0, 18586.0, 18592.0, 18592.0, 18588.0, 18598.0, 18624.0, 18586.0, 18588.0, 18556.0, 18606.0, 18710.0, 18652.0, 18586.0, 18590.0, 18586.0, 18552.0, 18590.0, 18736.0, 18774.0, 18700.0, 18576.0, 18596.0]
    },
    "slices": {}
  }
}