{
  "AcquisitionMatrixPE": 104,
  "AcquisitionNumber": 1,
  "AcquisitionTime": "12:04:17.247500",
  "BandwidthPerPixelPhaseEncode": 17.17,
  "BaseResolution": 104,
  "BodyPartExamined": "BRAIN",
  "CoilString": "HC1-7;NC1_2",
  "ConsistencyInfo": "N4_VE11C_LATEST_20160120",
  "ConversionSoftware": "dcm2niix",
  "ConversionSoftwareVersion": "v1.0.20190902",
  "DerivedVendorReportedEchoSpacing": 0.000560011,
  "DeviceSerialNumber": "167006",
  "DwellTime": 2.1e-06,
  "EchoTime": 0.037,
  "EchoTrainLength": 104,
  "EffectiveEchoSpacing": 0.000560011,
  "FlipAngle": 52,
  "ImageComments": "Unaliased_MB4_PE3_LB",
  "ImageOrientationPatientDICOM": [0.999637, 0.0114581, 0.0243726, 0.00174469, 0.875529, -0.483162],
  "ImageType": [
    "ORIGINAL",
    "PRIMARY",
    "M",
    "MB",
    "ND",
    "MOSAIC"
],
  "ImagingFrequency": 123.259,
  "InPlanePhaseEncodingDirectionDICOM": "COL",
  "InstitutionAddress": "Chemin_Queen-Mary_4565_Montreal_District_CA_H3W_1W5",
  "InstitutionName": "IUGM",
  "InstitutionalDepartmentName": "Department",
  "MRAcquisitionType": "2D",
  "MagneticFieldStrength": 3,
  "Manufacturer": "Siemens",
  "ManufacturersModelName": "Prisma_fit",
  "Modality": "MR",
  "MultibandAccelerationFactor": 4,
  "PartialFourier": 1,
  "PatientPosition": "HFS",
  "PercentPhaseFOV": 100,
  "PhaseEncodingDirection": "j",
  "PhaseEncodingSteps": 104,
  "PhaseResolution": 1,
  "PixelBandwidth": 2290,
  "ProcedureStepDescription": "memory_things",
  "ProtocolName": "func_task-things_run-6",
  "PulseSequenceDetails": "%CustomerSeq%_cmrr_mbep2d_bold",
  "ReceiveCoilActiveElements": "HC1-7;NC1,2",
  "ReceiveCoilName": "HeadNeck_64",
  "ReconMatrixPE": 104,
  "RepetitionTime": 1.49,
  "SAR": 0.048632,
  "ScanOptions": "FS",
  "ScanningSequence": "EP",
  "SequenceName": "epfid2d1_104",
  "SequenceVariant": "SK_SS",
  "SeriesDescription": "func_task-things_run-6",
  "SeriesNumber": 25,
  "ShimSetting": [615, -7191, -8855, 307, -15, -147, -32, -22],
  "SliceThickness": 2,
  "SliceTiming": [0, 0.7825, 0.0975, 0.88, 0.195, 0.98, 0.2925, 1.0775, 0.39, 1.175, 0.49, 1.2725, 0.5875, 1.37, 0.685, 0, 0.7825, 0.0975, 0.88, 0.195, 0.98, 0.2925, 1.0775, 0.39, 1.175, 0.49, 1.2725, 0.5875, 1.37, 0.685, 0, 0.7825, 0.0975, 0.88, 0.195, 0.98, 0.2925, 1.0775, 0.39, 1.175, 0.49, 1.2725, 0.5875, 1.37, 0.685, 0, 0.7825, 0.0975, 0.88, 0.195, 0.98, 0.2925, 1.0775, 0.39, 1.175, 0.49, 1.2725, 0.5875, 1.37, 0.685],
  "SoftwareVersions": "syngo_MR_E11",
  "SpacingBetweenSlices": 2,
  "StationName": "MRC35049",
  "TaskName": "things",
  "TotalReadoutTime": 0.0576811,
  "TxRefAmp": 271.441,
  "WipMemBlock": "3a9fa9c1-aeee-48a7-97ae-5698a22dd311||Sequence: R016 ve11c/master r/e634e98; Dec 19 2017 11:00:25 by eja",
  "dcmmeta_affine": [
    [-1.9992746114730835, 0.003489370457828045, 0.053750116378068924, 105.19254302978516],
    [-0.022916128858923912, 1.75105881690979, -0.9660578966140747, -52.837371826171875],
    [0.04874527454376221, 0.9663233757019043, 1.7503836154937744, -95.67288970947266],
    [0.0, 0.0, 0.0, 1.0]
],
  "dcmmeta_reorient_transform": [
    [0.0, -1.0, 0.0, 103.0],
    [1.0, 0.0, 0.0, 0.0],
    [0.0, 0.0, 1.0, 0.0],
    [0.0, 0.0, 0.0, 1.0]
],
  "dcmmeta_shape": [104, 104, 60, 190],
  "dcmmeta_slice_dim": 2,
  "dcmmeta_version": 0.6,
  "global": {
    "const": {
      "AcquisitionMatrix": [104, 0, 0, 104],
      "AngioFlag": "N",
      "BitsAllocated": 16,
      "BitsStored": 16,
      "BodyPartExamined": "BRAIN",
      "Columns": 832,
      "EchoNumbers": 1,
      "EchoTime": 37.0,
      "EchoTrainLength": 104,
      "FlipAngle": 52.0,
      "HighBit": 15,
      "ImageOrientationPatient": [0.99963727785834, 0.01145806480388, 0.02437263766863, 0.00174468517942, 0.87552940070271, -0.4831616961006],
      "ImagePositionPatient": [-834.55801628036, -773.24856138327, 337.85685620399],
      "ImageType": [
        "ORIGINAL",
        "PRIMARY",
        "M",
        "MB",
        "ND",
        "MOSAIC"
],
      "ImagedNucleus": "1H",
      "ImagingFrequency": 123.258927,
      "InPlanePhaseEncodingDirection": "COL",
      "MRAcquisitionType": "2D",
      "MagneticFieldStrength": 3.0,
      "Manufacturer": "SIEMENS",
      "ManufacturerModelName": "Prisma_fit",
      "Modality": "MR",
      "NumberOfAverages": 1.0,
      "NumberOfPhaseEncodingSteps": 104,
      "PercentPhaseFieldOfView": 100.0,
      "PercentSampling": 100.0,
      "PerformedProcedureStepStartTime": "102616.540000",
      "PhotometricInterpretation": "MONOCHROME2",
      "PixelBandwidth": 2290.0,
      "PixelRepresentation": 0,
      "PixelSpacing": [2.0, 2.0],
      "ProtocolName": "func_task-things_run-6",
      "RepetitionTime": 1490.0,
      "Rows": 832,
      "SAR": 0.04863195515636,
      "SamplesPerPixel": 1,
      "ScanOptions": "FS",
      "ScanningSequence": "EP",
      "SequenceName": "epfid2d1_104",
      "SequenceVariant": [
        "SK",
        "SS"
],
      "SeriesDescription": "func_task-things_run-6",
      "SeriesNumber": 25,
      "SeriesTime": "120515.204000",
      "SliceLocation": -55.383094335391,
      "SliceThickness": 2.0,
      "SmallestImagePixelValue": 0,
      "SoftwareVersions": "syngo MR E11",
      "SpacingBetweenSlices": 1.9999999613424,
      "SpecificCharacterSet": "ISO_IR 100",
      "StudyID": "1",
      "StudyTime": "102616.426000",
      "TransmitCoilName": "Body",
      "VariableFlipAngleFlag": "N",
      "WindowCenterWidthExplanation": "Algo1",
      "dBdt": 0.0},
    "slices": {}
  },
  "time": {
    "samples": {
      "AcquisitionNumber": [1, 2, 3, 4, 5, 6, 7, 8, 9, 10, 11, 12, 13, 14, 15, 16, 17, 18, 19, 20, 21, 22, 23, 24, 25, 26, 27, 28, 29, 30, 31, 32, 33, 34, 35, 36, 37, 38, 39, 40, 41, 42, 43, 44, 45, 46, 47, 48, 49, 50, 51, 52, 53, 54, 55, 56, 57, 58, 59, 60, 61, 62, 63, 64, 65, 66, 67, 68, 69, 70, 71, 72, 73, 74, 75, 76, 77, 78, 79, 80, 81, 82, 83, 84, 85, 86, 87, 88, 89, 90, 91, 92, 93, 94, 95, 96, 97, 98, 99, 100, 101, 102, 103, 104, 105, 106, 107, 108, 109, 110, 111, 112, 113, 114, 115, 116, 117, 118, 119, 120, 121, 122, 123, 124, 125, 126, 127, 128, 129, 130, 131, 132, 133, 134, 135, 136, 137, 138, 139, 140, 141, 142, 143, 144, 145, 146, 147, 148, 149, 150, 151, 152, 153, 154, 155, 156, 157, 158, 159, 160, 161, 162, 163, 164, 165, 166, 167, 168, 169, 170, 171, 172, 173, 174, 175, 176, 177, 178, 179, 180, 181, 182, 183, 184, 185, 186, 187, 188, 189, 190],
      "AcquisitionTime": ["120417.247500", "120418.737500", "120420.227500", "120421.717500", "120423.207500", "120424.697500", "120426.187500", "120427.677500", "120429.167500", "120430.657500", "120432.147500", "120433.637500", "120435.127500", "120436.617500", "120438.107500", "120439.597500", "120441.087500", "120442.577500", "120444.067500", "120445.557500", "120447.047500", "120448.537500", "120450.027500", "120451.517500", "120453.007500", "120454.497500", "120455.987500", "120457.477500", "120458.967500", "120500.457500", "120501.947500", "120503.437500", "120504.927500", "120506.417500", "120507.907500", "120509.397500", "120510.887500", "120512.377500", "120513.867500", "120515.357500", "120516.847500", "120518.337500", "120519.827500", "120521.317500", "120522.807500", "120524.297500", "120525.787500", "120527.277500", "120528.767500", "120530.257500", "120531.747500", "120533.237500", "120534.727500", "120536.217500", "120537.707500", "120539.197500", "120540.687500", "120542.177500", "120543.667500", "120545.157500", "120546.647500", "120548.137500", "120549.627500", "120551.117500", "120552.607500", "120554.097500", "120555.587500", "120557.077500", "120558.567500", "120600.057500", "120601.547500", "120603.037500", "120604.527500", "120606.017500", "120607.507500", "120608.997500", "120610.487500", "120611.977500", "120613.467500", "120614.957500", "120616.447500", "120617.937500", "120619.427500", "120620.917500", "120622.407500", "120623.897500", "120625.387500", "120626.877500", "120628.367500", "120629.857500", "120631.347500", "120632.837500", "120634.327500", "120635.817500", "120637.307500", "120638.797500", "120640.287500", "120641.777500", "120643.267500", "120644.757500", "120646.247500", "120647.737500", "120649.227500", "120650.717500", "120652.207500", "120653.697500", "120655.187500", "120656.677500", "120658.167500", "120659.657500", "120701.147500", "120702.637500", "120704.127500", "120705.617500", "120707.107500", "120708.597500", "120710.087500", "120711.577500", "120713.067500", "120714.557500", "120716.047500", "120717.537500", "120719.027500", "120720.517500", "120722.007500", "120723.497500", "120724.987500", "120726.477500", "120727.967500", "120729.457500", "120730.947500", "120732.437500", "120733.927500", "120735.417500", "120736.907500", "120738.397500", "120739.887500", "120741.377500", "120742.867500", "120744.357500", "120745.847500", "120747.337500", "120748.827500", "120750.317500", "120751.807500", "120753.297500", "120754.787500", "120756.277500", "120757.767500", "120759.257500", "120800.747500", "120802.237500", "120803.727500", "120805.217500", "120806.707500", "120808.197500", "120809.687500", "120811.177500", "120812.667500", "120814.157500", "120815.647500", "120817.137500", "120818.627500", "120820.117500", "120821.607500", "120823.097500", "120824.587500", "120826.077500", "120827.567500", "120829.057500", "120830.547500", "120832.037500", "120833.527500", "120835.017500", "120836.507500", "120837.997500", "120839.487500", "120840.977500", "120842.467500", "120843.957500", "120845.447500", "120846.937500", "120848.427500", "120849.917500", "120851.407500", "120852.897500", "120854.387500", "120855.877500", "120857.367500", "120858.857500"],
      "ContentTime": ["120515.207000", "120515.226000", "120515.230000", "120515.233000", "120515.236000", "120535.176000", "120535.180000", "120535.183000", "120535.186000", "120535.190000", "120535.193000", "120535.196000", "120535.199000", "120535.203000", "120535.206000", "120535.216000", "120535.219000", "120535.223000", "120535.226000", "120535.229000", "120535.232000", "120535.236000", "120535.239000", "120535.242000", "120535.245000", "120535.249000", "120555.176000", "120555.180000", "120555.183000", "120555.186000", "120555.189000", "120555.193000", "120555.196000", "120555.199000", "120555.203000", "120555.206000", "120555.209000", "120555.212000", "120555.223000", "120555.226000", "120555.230000", "120555.233000", "120555.236000", "120555.239000", "120555.243000", "120555.246000", "120615.176000", "120615.180000", "120615.183000", "120615.186000", "120615.190000", "120615.193000", "120615.196000", "120615.199000", "120615.203000", "120615.206000", "120615.209000", "120615.220000", "120615.224000", "120615.227000", "120615.230000", "120615.234000", "120615.237000", "120615.240000", "120615.243000", "120615.247000", "120635.176000", "120635.180000", "120635.183000", "120635.186000", "120635.190000", "120635.193000", "120635.196000", "120635.200000", "120635.203000", "120635.206000", "120635.210000", "120635.213000", "120635.216000", "120635.219000", "120635.223000", "120635.226000", "120635.229000", "120635.233000", "120635.236000", "120635.239000", "120635.242000", "120715.175000", "120715.179000", "120715.182000", "120715.185000", "120715.189000", "120715.192000", "120715.195000", "120715.199000", "120715.202000", "120715.205000", "120715.208000", "120715.212000", "120715.215000", "120715.236000", "120715.239000", "120715.242000", "120715.246000", "120715.249000", "120715.252000", "120715.255000", "120715.259000", "120715.262000", "120715.265000", "120715.269000", "120715.272000", "120715.275000", "120715.279000", "120715.282000", "120715.285000", "120715.289000", "120715.292000", "120715.295000", "120755.176000", "120755.180000", "120755.183000", "120755.186000", "120755.190000", "120755.193000", "120755.196000", "120755.200000", "120755.203000", "120755.206000", "120755.210000", "120755.213000", "120755.216000", "120755.220000", "120755.223000", "120755.226000", "120755.230000", "120755.233000", "120755.236000", "120755.239000", "120755.249000", "120755.252000", "120755.256000", "120755.259000", "120755.262000", "120755.266000", "120755.269000", "120835.176000", "120835.180000", "120835.183000", "120835.187000", "120835.190000", "120835.193000", "120835.197000", "120835.209000", "120835.212000", "120835.216000", "120835.219000", "120835.222000", "120835.226000", "120835.229000", "120835.232000", "120835.236000", "120835.239000", "120835.242000", "120835.246000", "120835.249000", "120835.252000", "120835.256000", "120835.260000", "120835.263000", "120835.266000", "120835.271000", "120900.662000", "120900.666000", "120900.669000", "120900.673000", "120900.676000", "120900.679000", "120900.682000", "120900.686000", "120900.689000", "120900.692000", "120900.696000", "120900.699000", "120900.702000", "120900.705000", "120900.709000", "120900.712000", "120900.715000", "120900.718000"],
      "InstanceCreationTime": ["120515.207000", "120515.226000", "120515.230000", "120515.233000", "120515.236000", "120535.176000", "120535.180000", "120535.183000", "120535.186000", "120535.190000", "120535.193000", "120535.196000", "120535.199000", "120535.203000", "120535.206000", "120535.216000", "120535.219000", "120535.223000", "120535.226000", "120535.229000", "120535.232000", "120535.236000", "120535.239000", "120535.242000", "120535.245000", "120535.249000", "120555.176000", "120555.180000", "120555.183000", "120555.186000", "120555.189000", "120555.193000", "120555.196000", "120555.199000", "120555.203000", "120555.206000", "120555.209000", "120555.212000", "120555.223000", "120555.226000", "120555.230000", "120555.233000", "120555.236000", "120555.239000", "120555.243000", "120555.246000", "120615.176000", "120615.180000", "120615.183000", "120615.186000", "120615.190000", "120615.193000", "120615.196000", "120615.199000", "120615.203000", "120615.206000", "120615.209000", "120615.220000", "120615.224000", "120615.227000", "120615.230000", "120615.234000", "120615.237000", "120615.240000", "120615.243000", "120615.247000", "120635.176000", "120635.180000", "120635.183000", "120635.186000", "120635.190000", "120635.193000", "120635.196000", "120635.200000", "120635.203000", "120635.206000", "120635.210000", "120635.213000", "120635.216000", "120635.219000", "120635.223000", "120635.226000", "120635.229000", "120635.233000", "120635.236000", "120635.239000", "120635.242000", "120715.175000", "120715.179000", "120715.182000", "120715.185000", "120715.189000", "120715.192000", "120715.195000", "120715.199000", "120715.202000", "120715.205000", "120715.208000", "120715.212000", "120715.215000", "120715.236000", "120715.239000", "120715.242000", "120715.246000", "120715.249000", "120715.252000", "120715.255000", "120715.259000", "120715.262000", "120715.265000", "120715.269000", "120715.272000", "120715.275000", "120715.279000", "120715.282000", "120715.285000", "120715.289000", "120715.292000", "120715.295000", "120755.176000", "120755.180000", "120755.183000", "120755.186000", "120755.190000", "120755.193000", "120755.196000", "120755.200000", "120755.203000", "120755.206000", "120755.210000", "120755.213000", "120755.216000", "120755.220000", "120755.223000", "120755.226000", "120755.230000", "120755.233000", "120755.236000", "120755.239000", "120755.249000", "120755.252000", "120755.256000", "120755.259000", "120755.262000", "120755.266000", "120755.269000", "120835.176000", "120835.180000", "120835.183000", "120835.187000", "120835.190000", "120835.193000", "120835.197000", "120835.209000", "120835.212000", "120835.216000", "120835.219000", "120835.222000", "120835.226000", "120835.229000", "120835.232000", "120835.236000", "120835.239000", "120835.242000", "120835.246000", "120835.249000", "120835.252000", "120835.256000", "120835.260000", "120835.263000", "120835.266000", "120835.271000", "120900.662000", "120900.666000", "120900.669000", "120900.673000", "120900.676000", "120900.679000", "120900.682000", "120900.686000", "120900.689000", "120900.692000", "120900.696000", "120900.699000", "120900.702000", "120900.705000", "120900.709000", "120900.712000", "120900.715000", "120900.718000"],
      "InstanceNumber": [1, 2, 3, 4, 5, 6, 7, 8, 9, 10, 11, 12, 13, 14, 15, 16, 17, 18, 19, 20, 21, 22, 23, 24, 25, 26, 27, 28, 29, 30, 31, 32, 33, 34, 35, 36, 37, 38, 39, 40, 41, 42, 43, 44, 45, 46, 47, 48, 49, 50, 51, 52, 53, 54, 55, 56, 57, 58, 59, 60, 61, 62, 63, 64, 65, 66, 67, 68, 69, 70, 71, 72, 73, 74, 75, 76, 77, 78, 79, 80, 81, 82, 83, 84, 85, 86, 87, 88, 89, 90, 91, 92, 93, 94, 95, 96, 97, 98, 99, 100, 101, 102, 103, 104, 105, 106, 107, 108, 109, 110, 111, 112, 113, 114, 115, 116, 117, 118, 119, 120, 121, 122, 123, 124, 125, 126, 127, 128, 129, 130, 131, 132, 133, 134, 135, 136, 137, 138, 139, 140, 141, 142, 143, 144, 145, 146, 147, 148, 149, 150, 151, 152, 153, 154, 155, 156, 157, 158, 159, 160, 161, 162, 163, 164, 165, 166, 167, 168, 169, 170, 171, 172, 173, 174, 175, 176, 177, 178, 179, 180, 181, 182, 183, 184, 185, 186, 187, 188, 189, 190],
      "LargestImagePixelValue": [43370, 42250, 41962, 41866, 41364, 41211, 41554, 41607, 41984, 41541, 41634, 42005, 41372, 41217, 41193, 41338, 41231, 41811, 40953, 40515, 40905, 40840, 40792, 41260, 41987, 42435, 41985, 41306, 41641, 41268, 41022, 41298, 41100, 41064, 41067, 41205, 41534, 40405, 41051, 40977, 40965, 41323, 40980, 41008, 41183, 41134, 41470, 40763, 41232, 40899, 40489, 41476, 41605, 40191, 41304, 41072, 40586, 40269, 39526, 40521, 39764, 40827, 41270, 40438, 40669, 40179, 40490, 40547, 40158, 40724, 39589, 40340, 39810, 40628, 40935, 41416, 40514, 40505, 40513, 40672, 39983, 40691, 40794, 40424, 40673, 40729, 40262, 40507, 41045, 40775, 41189, 40485, 40303, 39628, 40650, 40252, 40748, 40518, 40263, 39635, 40512, 40194, 40252, 40294, 39876, 40466, 41122, 40751, 40901, 41360, 40381, 41085, 41043, 40753, 40516, 40932, 40744, 40246, 40771, 41298, 41412, 40643, 40832, 41720, 41167, 40837, 41230, 41013, 41148, 41222, 40846, 40874, 41855, 40861, 40799, 40983, 40616, 40919, 41184, 41017, 40754, 39959, 40696, 41614, 41329, 40945, 41135, 40511, 41054, 40868, 40710, 41052, 41262, 41683, 41193, 41000, 40443, 40649, 40745, 40774, 40021, 40445, 39594, 40437, 40218, 40371, 41255, 40145, 40007, 40682, 40817, 40984, 40429, 40197, 40429, 39511, 40658, 40241, 40648, 39833, 40046, 40115, 40270, 40110, 40057, 39493, 39467, 39033, 39887, 39701],
      "WindowCenter": [10613.0, 10556.0, 10545.0, 10525.0, 10507.0, 10505.0, 10542.0, 10574.0, 10588.0, 10561.0, 10536.0, 10528.0, 10538.0, 10541.0, 10524.0, 10530.0, 10568.0, 10595.0, 10573.0, 10531.0, 10510.0, 10516.0, 10546.0, 10564.0, 10544.0, 10524.0, 10522.0, 10506.0, 10500.0, 10520.0, 10530.0, 10523.0, 10533.0, 10544.0, 10551.0, 10549.0, 10534.0, 10498.0, 10506.0, 10536.0, 10549.0, 10572.0, 10577.0, 10551.0, 10538.0, 10545.0, 10543.0, 10520.0, 10532.0, 10536.0, 10532.0, 10555.0, 10543.0, 10516.0, 10527.0, 10502.0, 10489.0, 10517.0, 10536.0, 10556.0, 10543.0, 10520.0, 10498.0, 10491.0, 10508.0, 10529.0, 10562.0, 10565.0, 10508.0, 10472.0, 10464.0, 10491.0, 10498.0, 10498.0, 10485.0, 10480.0, 10458.0, 10466.0, 10480.0, 10491.0, 10509.0, 10534.0, 10510.0, 10489.0, 10500.0, 10532.0, 10574.0, 10595.0, 10576.0, 10511.0, 10518.0, 10552.0, 10595.0, 10565.0, 10542.0, 10536.0, 10533.0, 10506.0, 10534.0, 10552.0, 10567.0, 10534.0, 10493.0, 10504.0, 10530.0, 10537.0, 10520.0, 10497.0, 10503.0, 10527.0, 10536.0, 10534.0, 10496.0, 10486.0, 10485.0, 10529.0, 10565.0, 10588.0, 10544.0, 10528.0, 10537.0, 10543.0, 10541.0, 10522.0, 10508.0, 10511.0, 10533.0, 10545.0, 10541.0, 10532.0, 10521.0, 10515.0, 10544.0, 10524.0, 10495.0, 10482.0, 10508.0, 10539.0, 10565.0, 10566.0, 10568.0, 10566.0, 10549.0, 10530.0, 10516.0, 10527.0, 10548.0, 10555.0, 10544.0, 10520.0, 10525.0, 10533.0, 10530.0, 10529.0, 10540.0, 10549.0, 10555.0, 10539.0, 10519.0, 10508.0, 10510.0, 10529.0, 10533.0, 10529.0, 10511.0, 10517.0, 10548.0, 10552.0, 10564.0, 10533.0, 10488.0, 10481.0, 10519.0, 10552.0, 10593.0, 10533.0, 10511.0, 10503.0, 10525.0, 10563.0, 10559.0, 10507.0, 10490.0, 10489.0, 10468.0, 10496.0, 10574.0, 10571.0, 10522.0, 10463.0],
      "WindowWidth": [22733.0, 22578.0, 22529.0, 22477.0, 22434.0, 22424.0, 22510.0, 22578.0, 22606.0, 22552.0, 22492.0, 22472.0, 22504.0, 22505.0, 22468.0, 22483.0, 22566.0, 22621.0, 22577.0, 22486.0, 22440.0, 22449.0, 22518.0, 22552.0, 22505.0, 22467.0, 22457.0, 22424.0, 22403.0, 22450.0, 22477.0, 22462.0, 22484.0, 22509.0, 22530.0, 22519.0, 22487.0, 22410.0, 22422.0, 22491.0, 22527.0, 22571.0, 22589.0, 22534.0, 22496.0, 22513.0, 22504.0, 22458.0, 22480.0, 22491.0, 22486.0, 22536.0, 22505.0, 22451.0, 22468.0, 22416.0, 22387.0, 22453.0, 22500.0, 22541.0, 22523.0, 22463.0, 22411.0, 22396.0, 22433.0, 22482.0, 22561.0, 22559.0, 22434.0, 22350.0, 22335.0, 22393.0, 22412.0, 22409.0, 22374.0, 22357.0, 22315.0, 22335.0, 22364.0, 22391.0, 22435.0, 22490.0, 22439.0, 22389.0, 22408.0, 22486.0, 22578.0, 22625.0, 22581.0, 22438.0, 22445.0, 22527.0, 22624.0, 22568.0, 22508.0, 22496.0, 22488.0, 22427.0, 22489.0, 22535.0, 22566.0, 22495.0, 22405.0, 22420.0, 22485.0, 22499.0, 22456.0, 22406.0, 22420.0, 22471.0, 22496.0, 22488.0, 22404.0, 22383.0, 22378.0, 22479.0, 22561.0, 22616.0, 22521.0, 22473.0, 22492.0, 22512.0, 22506.0, 22468.0, 22429.0, 22437.0, 22480.0, 22510.0, 22502.0, 22484.0, 22457.0, 22446.0, 22508.0, 22465.0, 22402.0, 22372.0, 22432.0, 22497.0, 22554.0, 22558.0, 22564.0, 22568.0, 22523.0, 22477.0, 22442.0, 22470.0, 22517.0, 22540.0, 22513.0, 22459.0, 22466.0, 22484.0, 22478.0, 22473.0, 22501.0, 22523.0, 22542.0, 22504.0, 22459.0, 22433.0, 22439.0, 22481.0, 22494.0, 22482.0, 22443.0, 22454.0, 22520.0, 22536.0, 22565.0, 22498.0, 22388.0, 22368.0, 22454.0, 22531.0, 22623.0, 22501.0, 22441.0, 22429.0, 22468.0, 22560.0, 22556.0, 22436.0, 22392.0, 22392.0, 22345.0, 22407.0, 22579.0, 22582.0, 22465.0, 22341.0]
    },
    "slices": {}
  }
}