{
  "AcquisitionMatrixPE": 104,
  "AcquisitionNumber": 1,
  "AcquisitionTime": "11:18:58.625000",
  "BandwidthPerPixelPhaseEncode": 17.17,
  "BaseResolution": 104,
  "BodyPartExamined": "BRAIN",
  "CoilString": "HC1-7;NC1_2",
  "ConsistencyInfo": "N4_VE11C_LATEST_20160120",
  "ConversionSoftware": "dcm2niix",
  "ConversionSoftwareVersion": "v1.0.20190902",
  "DerivedVendorReportedEchoSpacing": 0.000560011,
  "DeviceSerialNumber": "167006",
  "DwellTime": 2.1e-06,
  "EchoTime": 0.037,
  "EchoTrainLength": 104,
  "EffectiveEchoSpacing": 0.000560011,
  "FlipAngle": 52,
  "ImageComments": "Unaliased_MB4_PE3_LB",
  "ImageOrientationPatientDICOM": [0.999637, 0.0114581, 0.0243726, 0.00174469, 0.875529, -0.483162],
  "ImageType": [
    "ORIGINAL",
    "PRIMARY",
    "M",
    "MB",
    "ND",
    "MOSAIC"
],
  "ImagingFrequency": 123.259,
  "InPlanePhaseEncodingDirectionDICOM": "COL",
  "InstitutionAddress": "Chemin_Queen-Mary_4565_Montreal_District_CA_H3W_1W5",
  "InstitutionName": "IUGM",
  "InstitutionalDepartmentName": "Department",
  "MRAcquisitionType": "2D",
  "MagneticFieldStrength": 3,
  "Manufacturer": "Siemens",
  "ManufacturersModelName": "Prisma_fit",
  "Modality": "MR",
  "MultibandAccelerationFactor": 4,
  "PartialFourier": 1,
  "PatientPosition": "HFS",
  "PercentPhaseFOV": 100,
  "PhaseEncodingDirection": "j",
  "PhaseEncodingSteps": 104,
  "PhaseResolution": 1,
  "PixelBandwidth": 2290,
  "ProcedureStepDescription": "memory_things",
  "ProtocolName": "func_task-things_run-3",
  "PulseSequenceDetails": "%CustomerSeq%_cmrr_mbep2d_bold",
  "ReceiveCoilActiveElements": "HC1-7;NC1,2",
  "ReceiveCoilName": "HeadNeck_64",
  "ReconMatrixPE": 104,
  "RepetitionTime": 1.49,
  "SAR": 0.048632,
  "ScanOptions": "FS",
  "ScanningSequence": "EP",
  "SequenceName": "epfid2d1_104",
  "SequenceVariant": "SK_SS",
  "SeriesDescription": "func_task-things_run-3",
  "SeriesNumber": 16,
  "ShimSetting": [615, -7191, -8855, 307, -15, -147, -32, -22],
  "SliceThickness": 2,
  "SliceTiming": [0, 0.785, 0.0975, 0.8825, 0.1975, 0.98, 0.295, 1.0775, 0.3925, 1.175, 0.49, 1.275, 0.5875, 1.3725, 0.6875, 0, 0.785, 0.0975, 0.8825, 0.1975, 0.98, 0.295, 1.0775, 0.3925, 1.175, 0.49, 1.275, 0.5875, 1.3725, 0.6875, 0, 0.785, 0.0975, 0.8825, 0.1975, 0.98, 0.295, 1.0775, 0.3925, 1.175, 0.49, 1.275, 0.5875, 1.3725, 0.6875, 0, 0.785, 0.0975, 0.8825, 0.1975, 0.98, 0.295, 1.0775, 0.3925, 1.175, 0.49, 1.275, 0.5875, 1.3725, 0.6875],
  "SoftwareVersions": "syngo_MR_E11",
  "SpacingBetweenSlices": 2,
  "StationName": "MRC35049",
  "TaskName": "things",
  "TotalReadoutTime": 0.0576811,
  "TxRefAmp": 271.441,
  "WipMemBlock": "f07f7cc1-52e7-41e0-9cf8-6f4036c7abfc||Sequence: R016 ve11c/master r/e634e98; Dec 19 2017 11:00:25 by eja",
  "dcmmeta_affine": [
    [-1.9992746114730835, 0.003489370457828045, 0.053750116378068924, 105.19254302978516],
    [-0.022916128858923912, 1.75105881690979, -0.9660578966140747, -52.837371826171875],
    [0.04874527454376221, 0.9663233757019043, 1.7503836154937744, -95.67288970947266],
    [0.0, 0.0, 0.0, 1.0]
],
  "dcmmeta_reorient_transform": [
    [0.0, -1.0, 0.0, 103.0],
    [1.0, 0.0, 0.0, 0.0],
    [0.0, 0.0, 1.0, 0.0],
    [0.0, 0.0, 0.0, 1.0]
],
  "dcmmeta_shape": [104, 104, 60, 190],
  "dcmmeta_slice_dim": 2,
  "dcmmeta_version": 0.6,
  "global": {
    "const": {
      "AcquisitionMatrix": [104, 0, 0, 104],
      "AngioFlag": "N",
      "BitsAllocated": 16,
      "BitsStored": 16,
      "BodyPartExamined": "BRAIN",
      "Columns": 832,
      "EchoNumbers": 1,
      "EchoTime": 37.0,
      "EchoTrainLength": 104,
      "FlipAngle": 52.0,
      "HighBit": 15,
      "ImageOrientationPatient": [0.99963727785834, 0.01145806480388, 0.02437263766863, 0.00174468517942, 0.87552940070271, -0.4831616961006],
      "ImagePositionPatient": [-834.55801628036, -773.24856138327, 337.85685620399],
      "ImageType": [
        "ORIGINAL",
        "PRIMARY",
        "M",
        "MB",
        "ND",
        "MOSAIC"
],
      "ImagedNucleus": "1H",
      "ImagingFrequency": 123.258925,
      "InPlanePhaseEncodingDirection": "COL",
      "MRAcquisitionType": "2D",
      "MagneticFieldStrength": 3.0,
      "Manufacturer": "SIEMENS",
      "ManufacturerModelName": "Prisma_fit",
      "Modality": "MR",
      "NumberOfAverages": 1.0,
      "NumberOfPhaseEncodingSteps": 104,
      "PercentPhaseFieldOfView": 100.0,
      "PercentSampling": 100.0,
      "PerformedProcedureStepStartTime": "102616.540000",
      "PhotometricInterpretation": "MONOCHROME2",
      "PixelBandwidth": 2290.0,
      "PixelRepresentation": 0,
      "PixelSpacing": [2.0, 2.0],
      "ProtocolName": "func_task-things_run-3",
      "RepetitionTime": 1490.0,
      "Rows": 832,
      "SAR": 0.04863195515636,
      "SamplesPerPixel": 1,
      "ScanOptions": "FS",
      "ScanningSequence": "EP",
      "SequenceName": "epfid2d1_104",
      "SequenceVariant": [
        "SK",
        "SS"
],
      "SeriesDescription": "func_task-things_run-3",
      "SeriesNumber": 16,
      "SeriesTime": "112015.214000",
      "SliceLocation": -55.383094335391,
      "SliceThickness": 2.0,
      "SmallestImagePixelValue": 0,
      "SoftwareVersions": "syngo MR E11",
      "SpacingBetweenSlices": 1.9999999613424,
      "SpecificCharacterSet": "ISO_IR 100",
      "StudyID": "1",
      "StudyTime": "102616.426000",
      "TransmitCoilName": "Body",
      "VariableFlipAngleFlag": "N",
      "WindowCenterWidthExplanation": "Algo1",
      "dBdt": 0.0},
    "slices": {}
  },
  "time": {
    "samples": {
      "AcquisitionNumber": [1, 2, 3, 4, 5, 6, 7, 8, 9, 10, 11, 12, 13, 14, 15, 16, 17, 18, 19, 20, 21, 22, 23, 24, 25, 26, 27, 28, 29, 30, 31, 32, 33, 34, 35, 36, 37, 38, 39, 40, 41, 42, 43, 44, 45, 46, 47, 48, 49, 50, 51, 52, 53, 54, 55, 56, 57, 58, 59, 60, 61, 62, 63, 64, 65, 66, 67, 68, 69, 70, 71, 72, 73, 74, 75, 76, 77, 78, 79, 80, 81, 82, 83, 84, 85, 86, 87, 88, 89, 90, 91, 92, 93, 94, 95, 96, 97, 98, 99, 100, 101, 102, 103, 104, 105, 106, 107, 108, 109, 110, 111, 112, 113, 114, 115, 116, 117, 118, 119, 120, 121, 122, 123, 124, 125, 126, 127, 128, 129, 130, 131, 132, 133, 134, 135, 136, 137, 138, 139, 140, 141, 142, 143, 144, 145, 146, 147, 148, 149, 150, 151, 152, 153, 154, 155, 156, 157, 158, 159, 160, 161, 162, 163, 164, 165, 166, 167, 168, 169, 170, 171, 172, 173, 174, 175, 176, 177, 178, 179, 180, 181, 182, 183, 184, 185, 186, 187, 188, 189, 190],
      "AcquisitionTime": ["111858.625000", "111900.115000", "111901.605000", "111903.095000", "111904.585000", "111906.075000", "111907.565000", "111909.055000", "111910.545000", "111912.035000", "111913.525000", "111915.015000", "111916.505000", "111917.995000", "111919.485000", "111920.975000", "111922.465000", "111923.955000", "111925.445000", "111926.935000", "111928.425000", "111929.915000", "111931.405000", "111932.895000", "111934.385000", "111935.875000", "111937.365000", "111938.855000", "111940.345000", "111941.835000", "111943.325000", "111944.815000", "111946.305000", "111947.795000", "111949.285000", "111950.775000", "111952.265000", "111953.755000", "111955.245000", "111956.735000", "111958.225000", "111959.715000", "112001.205000", "112002.695000", "112004.185000", "112005.675000", "112007.165000", "112008.655000", "112010.145000", "112011.635000", "112013.125000", "112014.615000", "112016.105000", "112017.595000", "112019.085000", "112020.575000", "112022.065000", "112023.555000", "112025.045000", "112026.535000", "112028.025000", "112029.515000", "112031.005000", "112032.495000", "112033.985000", "112035.475000", "112036.965000", "112038.455000", "112039.945000", "112041.435000", "112042.925000", "112044.415000", "112045.905000", "112047.395000", "112048.885000", "112050.375000", "112051.865000", "112053.355000", "112054.845000", "112056.335000", "112057.825000", "112059.315000", "112100.805000", "112102.295000", "112103.785000", "112105.275000", "112106.765000", "112108.255000", "112109.745000", "112111.235000", "112112.725000", "112114.215000", "112115.705000", "112117.195000", "112118.685000", "112120.175000", "112121.665000", "112123.155000", "112124.645000", "112126.135000", "112127.625000", "112129.115000", "112130.605000", "112132.095000", "112133.585000", "112135.075000", "112136.565000", "112138.055000", "112139.545000", "112141.035000", "112142.525000", "112144.015000", "112145.505000", "112146.995000", "112148.485000", "112149.975000", "112151.465000", "112152.955000", "112154.445000", "112155.935000", "112157.425000", "112158.915000", "112200.405000", "112201.895000", "112203.385000", "112204.875000", "112206.365000", "112207.855000", "112209.345000", "112210.835000", "112212.325000", "112213.815000", "112215.305000", "112216.795000", "112218.285000", "112219.775000", "112221.265000", "112222.755000", "112224.245000", "112225.735000", "112227.225000", "112228.715000", "112230.205000", "112231.695000", "112233.185000", "112234.675000", "112236.165000", "112237.655000", "112239.145000", "112240.635000", "112242.125000", "112243.615000", "112245.105000", "112246.595000", "112248.085000", "112249.575000", "112251.065000", "112252.555000", "112254.045000", "112255.535000", "112257.025000", "112258.515000", "112300.005000", "112301.495000", "112302.985000", "112304.475000", "112305.965000", "112307.455000", "112308.945000", "112310.435000", "112311.925000", "112313.415000", "112314.905000", "112316.395000", "112317.885000", "112319.375000", "112320.865000", "112322.355000", "112323.845000", "112325.335000", "112326.825000", "112328.315000", "112329.805000", "112331.295000", "112332.785000", "112334.275000", "112335.765000", "112337.255000", "112338.745000", "112340.235000"],
      "ContentTime": ["112015.217000", "112015.220000", "112015.224000", "112015.227000", "112015.230000", "112015.233000", "112015.237000", "112015.240000", "112015.243000", "112015.247000", "112015.250000", "112015.253000", "112015.257000", "112015.260000", "112015.263000", "112015.266000", "112015.269000", "112015.273000", "112015.276000", "112015.279000", "112015.282000", "112035.176000", "112035.180000", "112035.183000", "112035.186000", "112035.189000", "112035.193000", "112035.196000", "112035.199000", "112035.202000", "112035.206000", "112035.209000", "112035.212000", "112035.215000", "112035.218000", "112035.222000", "112035.225000", "112035.228000", "112035.231000", "112035.235000", "112035.238000", "112055.175000", "112055.179000", "112055.182000", "112055.185000", "112055.188000", "112055.192000", "112055.195000", "112055.198000", "112055.201000", "112055.205000", "112055.208000", "112055.211000", "112055.214000", "112055.218000", "112055.221000", "112055.232000", "112055.235000", "112055.238000", "112055.241000", "112055.245000", "112055.248000", "112115.175000", "112115.179000", "112115.182000", "112115.185000", "112115.188000", "112115.192000", "112115.195000", "112115.198000", "112115.201000", "112115.205000", "112115.208000", "112115.211000", "112115.214000", "112115.218000", "112115.221000", "112115.224000", "112115.227000", "112115.236000", "112115.239000", "112115.258000", "112135.176000", "112135.180000", "112135.183000", "112135.186000", "112135.190000", "112135.193000", "112135.196000", "112135.199000", "112135.203000", "112135.206000", "112135.209000", "112135.212000", "112135.216000", "112135.219000", "112135.222000", "112135.225000", "112135.229000", "112135.232000", "112135.235000", "112135.238000", "112215.176000", "112215.180000", "112215.183000", "112215.186000", "112215.190000", "112215.193000", "112215.196000", "112215.199000", "112215.203000", "112215.206000", "112215.209000", "112215.212000", "112215.216000", "112215.219000", "112215.222000", "112215.226000", "112215.229000", "112215.232000", "112215.235000", "112215.239000", "112215.242000", "112215.245000", "112215.248000", "112215.252000", "112215.255000", "112215.258000", "112215.261000", "112215.265000", "112215.268000", "112255.176000", "112255.180000", "112255.183000", "112255.186000", "112255.190000", "112255.193000", "112255.196000", "112255.200000", "112255.203000", "112255.206000", "112255.210000", "112255.213000", "112255.216000", "112255.219000", "112255.222000", "112255.226000", "112255.229000", "112255.232000", "112255.236000", "112255.239000", "112255.242000", "112255.245000", "112255.249000", "112255.252000", "112255.255000", "112255.258000", "112255.262000", "112335.175000", "112335.179000", "112335.182000", "112335.185000", "112335.189000", "112335.192000", "112335.195000", "112335.198000", "112335.202000", "112335.205000", "112335.208000", "112335.212000", "112335.215000", "112335.218000", "112335.221000", "112335.225000", "112335.228000", "112335.231000", "112335.234000", "112335.238000", "112335.241000", "112335.244000", "112335.247000", "112335.251000", "112335.270000", "112335.273000", "112335.276000", "112342.388000", "112342.391000", "112342.394000", "112342.398000", "112342.401000"],
      "InstanceCreationTime": ["112015.217000", "112015.220000", "112015.224000", "112015.227000", "112015.230000", "112015.233000", "112015.237000", "112015.240000", "112015.243000", "112015.247000", "112015.250000", "112015.253000", "112015.257000", "112015.260000", "112015.263000", "112015.266000", "112015.269000", "112015.273000", "112015.276000", "112015.279000", "112015.282000", "112035.176000", "112035.180000", "112035.183000", "112035.186000", "112035.189000", "112035.193000", "112035.196000", "112035.199000", "112035.202000", "112035.206000", "112035.209000", "112035.212000", "112035.215000", "112035.218000", "112035.222000", "112035.225000", "112035.228000", "112035.231000", "112035.235000", "112035.238000", "112055.175000", "112055.179000", "112055.182000", "112055.185000", "112055.188000", "112055.192000", "112055.195000", "112055.198000", "112055.201000", "112055.205000", "112055.208000", "112055.211000", "112055.214000", "112055.218000", "112055.221000", "112055.232000", "112055.235000", "112055.238000", "112055.241000", "112055.245000", "112055.248000", "112115.175000", "112115.179000", "112115.182000", "112115.185000", "112115.188000", "112115.192000", "112115.195000", "112115.198000", "112115.201000", "112115.205000", "112115.208000", "112115.211000", "112115.214000", "112115.218000", "112115.221000", "112115.224000", "112115.227000", "112115.236000", "112115.239000", "112115.258000", "112135.176000", "112135.180000", "112135.183000", "112135.186000", "112135.190000", "112135.193000", "112135.196000", "112135.199000", "112135.203000", "112135.206000", "112135.209000", "112135.212000", "112135.216000", "112135.219000", "112135.222000", "112135.225000", "112135.229000", "112135.232000", "112135.235000", "112135.238000", "112215.176000", "112215.180000", "112215.183000", "112215.186000", "112215.190000", "112215.193000", "112215.196000", "112215.199000", "112215.203000", "112215.206000", "112215.209000", "112215.212000", "112215.216000", "112215.219000", "112215.222000", "112215.226000", "112215.229000", "112215.232000", "112215.235000", "112215.239000", "112215.242000", "112215.245000", "112215.248000", "112215.252000", "112215.255000", "112215.258000", "112215.261000", "112215.265000", "112215.268000", "112255.176000", "112255.180000", "112255.183000", "112255.186000", "112255.190000", "112255.193000", "112255.196000", "112255.200000", "112255.203000", "112255.206000", "112255.210000", "112255.213000", "112255.216000", "112255.219000", "112255.222000", "112255.226000", "112255.229000", "112255.232000", "112255.236000", "112255.239000", "112255.242000", "112255.245000", "112255.249000", "112255.252000", "112255.255000", "112255.258000", "112255.262000", "112335.175000", "112335.179000", "112335.182000", "112335.185000", "112335.189000", "112335.192000", "112335.195000", "112335.198000", "112335.202000", "112335.205000", "112335.208000", "112335.212000", "112335.215000", "112335.218000", "112335.221000", "112335.225000", "112335.228000", "112335.231000", "112335.234000", "112335.238000", "112335.241000", "112335.244000", "112335.247000", "112335.251000", "112335.270000", "112335.273000", "112335.276000", "112342.388000", "112342.391000", "112342.394000", "112342.398000", "112342.401000"],
      "InstanceNumber": [1, 2, 3, 4, 5, 6, 7, 8, 9, 10, 11, 12, 13, 14, 15, 16, 17, 18, 19, 20, 21, 22, 23, 24, 25, 26, 27, 28, 29, 30, 31, 32, 33, 34, 35, 36, 37, 38, 39, 40, 41, 42, 43, 44, 45, 46, 47, 48, 49, 50, 51, 52, 53, 54, 55, 56, 57, 58, 59, 60, 61, 62, 63, 64, 65, 66, 67, 68, 69, 70, 71, 72, 73, 74, 75, 76, 77, 78, 79, 80, 81, 82, 83, 84, 85, 86, 87, 88, 89, 90, 91, 92, 93, 94, 95, 96, 97, 98, 99, 100, 101, 102, 103, 104, 105, 106, 107, 108, 109, 110, 111, 112, 113, 114, 115, 116, 117, 118, 119, 120, 121, 122, 123, 124, 125, 126, 127, 128, 129, 130, 131, 132, 133, 134, 135, 136, 137, 138, 139, 140, 141, 142, 143, 144, 145, 146, 147, 148, 149, 150, 151, 152, 153, 154, 155, 156, 157, 158, 159, 160, 161, 162, 163, 164, 165, 166, 167, 168, 169, 170, 171, 172, 173, 174, 175, 176, 177, 178, 179, 180, 181, 182, 183, 184, 185, 186, 187, 188, 189, 190],
      "LargestImagePixelValue": [41815, 40999, 40399, 39954, 40630, 40884, 39919, 40683, 40304, 40295, 40621, 40198, 40880, 40166, 41037, 40117, 40877, 40056, 40471, 39874, 41038, 39848, 40849, 40454, 41067, 39948, 40458, 40123, 41102, 40327, 39635, 40400, 40008, 40565, 40009, 40480, 40276, 40071, 40728, 40148, 40177, 40639, 39979, 40268, 39984, 39998, 40052, 40468, 40490, 40503, 40653, 40019, 40724, 39951, 40288, 39866, 40289, 40403, 40593, 40243, 40306, 40147, 40224, 40226, 40488, 40370, 40592, 40159, 39927, 40435, 39972, 40420, 40173, 40415, 40152, 39912, 40491, 40397, 39976, 39686, 39812, 40189, 40309, 40479, 40459, 40328, 40269, 39990, 40549, 40533, 40658, 40173, 39989, 40135, 39932, 40654, 40176, 39905, 40379, 39817, 39792, 39597, 40104, 39888, 40771, 39762, 39849, 40517, 40348, 40253, 39838, 39768, 39596, 40469, 40293, 39973, 40339, 39992, 39810, 40353, 39883, 39757, 40642, 40087, 40421, 40697, 39984, 39913, 40099, 39696, 40294, 39892, 40058, 39984, 40206, 39769, 39666, 39710, 40389, 39896, 40264, 39927, 40409, 40672, 40099, 40614, 40395, 40320, 40360, 40473, 40274, 39907, 39640, 39455, 40354, 39622, 40166, 39881, 40222, 40139, 39842, 39780, 40153, 39919, 39615, 39864, 39841, 40408, 40014, 40540, 39976, 40091, 40395, 40237, 39625, 39564, 39476, 40029, 39507, 39878, 40146, 40457, 40413, 40228, 40313, 39903, 39901, 40321, 40423, 39962],
      "WindowCenter": [10763.0, 10702.0, 10674.0, 10674.0, 10706.0, 10690.0, 10686.0, 10695.0, 10680.0, 10661.0, 10647.0, 10627.0, 10631.0, 10622.0, 10630.0, 10633.0, 10632.0, 10625.0, 10630.0, 10623.0, 10637.0, 10628.0, 10646.0, 10635.0, 10638.0, 10626.0, 10623.0, 10583.0, 10616.0, 10641.0, 10648.0, 10647.0, 10641.0, 10633.0, 10617.0, 10621.0, 10624.0, 10617.0, 10621.0, 10607.0, 10602.0, 10610.0, 10615.0, 10622.0, 10619.0, 10628.0, 10636.0, 10652.0, 10646.0, 10633.0, 10624.0, 10625.0, 10641.0, 10634.0, 10637.0, 10630.0, 10634.0, 10625.0, 10633.0, 10634.0, 10641.0, 10636.0, 10633.0, 10632.0, 10624.0, 10625.0, 10599.0, 10579.0, 10623.0, 10671.0, 10652.0, 10622.0, 10637.0, 10658.0, 10632.0, 10616.0, 10620.0, 10632.0, 10677.0, 10671.0, 10670.0, 10642.0, 10602.0, 10596.0, 10631.0, 10611.0, 10595.0, 10576.0, 10597.0, 10610.0, 10610.0, 10604.0, 10607.0, 10610.0, 10617.0, 10621.0, 10623.0, 10615.0, 10633.0, 10648.0, 10639.0, 10601.0, 10572.0, 10568.0, 10619.0, 10624.0, 10629.0, 10614.0, 10599.0, 10635.0, 10644.0, 10625.0, 10586.0, 10585.0, 10626.0, 10648.0, 10649.0, 10631.0, 10607.0, 10609.0, 10595.0, 10592.0, 10605.0, 10601.0, 10607.0, 10611.0, 10595.0, 10609.0, 10635.0, 10636.0, 10651.0, 10628.0, 10623.0, 10607.0, 10613.0, 10616.0, 10616.0, 10618.0, 10622.0, 10620.0, 10621.0, 10614.0, 10605.0, 10610.0, 10613.0, 10636.0, 10645.0, 10637.0, 10604.0, 10584.0, 10599.0, 10613.0, 10634.0, 10640.0, 10645.0, 10631.0, 10626.0, 10606.0, 10604.0, 10600.0, 10598.0, 10601.0, 10615.0, 10601.0, 10592.0, 10576.0, 10608.0, 10637.0, 10631.0, 10605.0, 10569.0, 10566.0, 10612.0, 10659.0, 10697.0, 10653.0, 10646.0, 10632.0, 10612.0, 10627.0, 10600.0, 10570.0, 10563.0, 10602.0, 10641.0, 10629.0, 10608.0, 10594.0, 10583.0, 10593.0],
      "WindowWidth": [23106.0, 22934.0, 22857.0, 22845.0, 22912.0, 22863.0, 22857.0, 22874.0, 22839.0, 22799.0, 22767.0, 22720.0, 22725.0, 22705.0, 22722.0, 22732.0, 22729.0, 22713.0, 22721.0, 22706.0, 22733.0, 22727.0, 22755.0, 22736.0, 22735.0, 22712.0, 22705.0, 22626.0, 22688.0, 22744.0, 22761.0, 22758.0, 22750.0, 22723.0, 22694.0, 22696.0, 22715.0, 22693.0, 22698.0, 22670.0, 22654.0, 22671.0, 22687.0, 22703.0, 22696.0, 22715.0, 22733.0, 22768.0, 22771.0, 22728.0, 22708.0, 22709.0, 22751.0, 22728.0, 22743.0, 22725.0, 22728.0, 22708.0, 22731.0, 22728.0, 22742.0, 22733.0, 22723.0, 22724.0, 22704.0, 22707.0, 22651.0, 22608.0, 22703.0, 22807.0, 22779.0, 22703.0, 22736.0, 22785.0, 22729.0, 22695.0, 22694.0, 22721.0, 22830.0, 22813.0, 22808.0, 22745.0, 22660.0, 22639.0, 22715.0, 22676.0, 22639.0, 22596.0, 22638.0, 22670.0, 22671.0, 22661.0, 22666.0, 22676.0, 22691.0, 22698.0, 22706.0, 22689.0, 22725.0, 22761.0, 22741.0, 22656.0, 22592.0, 22582.0, 22691.0, 22712.0, 22722.0, 22681.0, 22653.0, 22729.0, 22756.0, 22716.0, 22628.0, 22615.0, 22709.0, 22761.0, 22763.0, 22723.0, 22669.0, 22671.0, 22643.0, 22636.0, 22660.0, 22655.0, 22668.0, 22678.0, 22647.0, 22673.0, 22728.0, 22736.0, 22771.0, 22717.0, 22708.0, 22671.0, 22684.0, 22698.0, 22691.0, 22697.0, 22699.0, 22694.0, 22696.0, 22680.0, 22664.0, 22670.0, 22677.0, 22731.0, 22753.0, 22737.0, 22664.0, 22618.0, 22647.0, 22681.0, 22727.0, 22744.0, 22748.0, 22718.0, 22710.0, 22659.0, 22656.0, 22650.0, 22647.0, 22654.0, 22683.0, 22653.0, 22632.0, 22591.0, 22672.0, 22732.0, 22725.0, 22660.0, 22581.0, 22573.0, 22678.0, 22779.0, 22872.0, 22774.0, 22755.0, 22722.0, 22675.0, 22707.0, 22651.0, 22584.0, 22562.0, 22655.0, 22737.0, 22716.0, 22666.0, 22632.0, 22606.0, 22631.0]
    },
    "slices": {}
  }
}