{
  "AcquisitionMatrixPE": 104,
  "AcquisitionNumber": 1,
  "AcquisitionTime": "17:56:15.055000",
  "BandwidthPerPixelPhaseEncode": 17.17,
  "BaseResolution": 104,
  "BodyPartExamined": "BRAIN",
  "CoilString": "HC1-7;NC1_2",
  "ConsistencyInfo": "N4_VE11C_LATEST_20160120",
  "ConversionSoftware": "dcm2niix",
  "ConversionSoftwareVersion": "v1.0.20190902",
  "DerivedVendorReportedEchoSpacing": 0.000560011,
  "DeviceSerialNumber": "167006",
  "DwellTime": 2.1e-06,
  "EchoTime": 0.037,
  "EchoTrainLength": 104,
  "EffectiveEchoSpacing": 0.000560011,
  "FlipAngle": 52,
  "ImageComments": "Unaliased_MB4_PE3_LB",
  "ImageOrientationPatientDICOM": [0.997817, 0.0581765, 0.0312655, -0.0437401, 0.936784, -0.347163],
  "ImageType": [
    "ORIGINAL",
    "PRIMARY",
    "M",
    "MB",
    "ND",
    "MOSAIC"
],
  "ImagingFrequency": 123.259,
  "InPlanePhaseEncodingDirectionDICOM": "COL",
  "InstitutionAddress": "Chemin_Queen-Mary_4565_Montreal_District_CA_H3W_1W5",
  "InstitutionName": "IUGM",
  "InstitutionalDepartmentName": "Department",
  "MRAcquisitionType": "2D",
  "MagneticFieldStrength": 3,
  "Manufacturer": "Siemens",
  "ManufacturersModelName": "Prisma_fit",
  "Modality": "MR",
  "MultibandAccelerationFactor": 4,
  "PartialFourier": 1,
  "PatientPosition": "HFS",
  "PercentPhaseFOV": 100,
  "PhaseEncodingDirection": "j",
  "PhaseEncodingSteps": 104,
  "PhaseResolution": 1,
  "PixelBandwidth": 2290,
  "ProcedureStepDescription": "memory_things",
  "ProtocolName": "func_task-things_run-3",
  "PulseSequenceDetails": "%CustomerSeq%_cmrr_mbep2d_bold",
  "ReceiveCoilActiveElements": "HC1-7;NC1,2",
  "ReceiveCoilName": "HeadNeck_64",
  "ReconMatrixPE": 104,
  "RepetitionTime": 1.49,
  "SAR": 0.067781,
  "ScanOptions": "FS",
  "ScanningSequence": "EP",
  "SequenceName": "epfid2d1_104",
  "SequenceVariant": "SK_SS",
  "SeriesDescription": "func_task-things_run-3",
  "SeriesNumber": 16,
  "ShimSetting": [631, -7192, -8798, 654, 71, 8, -12, -17],
  "SliceThickness": 2,
  "SliceTiming": [0, 0.7825, 0.0975, 0.88, 0.195, 0.98, 0.2925, 1.0775, 0.39, 1.175, 0.49, 1.2725, 0.5875, 1.37, 0.685, 0, 0.7825, 0.0975, 0.88, 0.195, 0.98, 0.2925, 1.0775, 0.39, 1.175, 0.49, 1.2725, 0.5875, 1.37, 0.685, 0, 0.7825, 0.0975, 0.88, 0.195, 0.98, 0.2925, 1.0775, 0.39, 1.175, 0.49, 1.2725, 0.5875, 1.37, 0.685, 0, 0.7825, 0.0975, 0.88, 0.195, 0.98, 0.2925, 1.0775, 0.39, 1.175, 0.49, 1.2725, 0.5875, 1.37, 0.685],
  "SoftwareVersions": "syngo_MR_E11",
  "SpacingBetweenSlices": 2,
  "StationName": "MRC35049",
  "TaskName": "things",
  "TotalReadoutTime": 0.0576811,
  "TxRefAmp": 307.033,
  "WipMemBlock": "d8a44e5a-1da0-442b-8021-2dbbac90ba21||Sequence: R016 ve11c/master r/e634e98; Dec 19 2017 11:00:25 by eja",
  "dcmmeta_affine": [
    [-1.9956332445144653, -0.08748020976781845, 0.09897150844335556, 108.80305480957031],
    [-0.11635300517082214, 1.8735684156417847, -0.6900750398635864, -54.38020324707031],
    [0.0625309869647026, 0.6943261027336121, 1.874566912651062, -58.32596969604492],
    [0.0, 0.0, 0.0, 1.0]
],
  "dcmmeta_reorient_transform": [
    [0.0, -1.0, 0.0, 103.0],
    [1.0, 0.0, 0.0, 0.0],
    [0.0, 0.0, 1.0, 0.0],
    [0.0, 0.0, 0.0, 1.0]
],
  "dcmmeta_shape": [104, 104, 60, 190],
  "dcmmeta_slice_dim": 2,
  "dcmmeta_version": 0.6,
  "global": {
    "const": {
      "AcquisitionMatrix": [104, 0, 0, 104],
      "AngioFlag": "N",
      "BitsAllocated": 16,
      "BitsStored": 16,
      "BodyPartExamined": "BRAIN",
      "Columns": 832,
      "EchoNumbers": 1,
      "EchoTime": 37.0,
      "EchoTrainLength": 104,
      "FlipAngle": 52.0,
      "HighBit": 15,
      "ImageOrientationPatient": [0.99781659802493, 0.05817650356073, 0.0312654943893, -0.0437401061503, 0.93678418717107, -0.3471630593542],
      "ImagePositionPatient": [-794.36028004124, -862.92872031752, 243.16304724419],
      "ImageType": [
        "ORIGINAL",
        "PRIMARY",
        "M",
        "MB",
        "ND",
        "MOSAIC"
],
      "ImagedNucleus": "1H",
      "ImagingFrequency": 123.258919,
      "InPlanePhaseEncodingDirection": "COL",
      "MRAcquisitionType": "2D",
      "MagneticFieldStrength": 3.0,
      "Manufacturer": "SIEMENS",
      "ManufacturerModelName": "Prisma_fit",
      "Modality": "MR",
      "NumberOfAverages": 1.0,
      "NumberOfPhaseEncodingSteps": 104,
      "PercentPhaseFieldOfView": 100.0,
      "PercentSampling": 100.0,
      "PerformedProcedureStepStartTime": "164731.334000",
      "PhotometricInterpretation": "MONOCHROME2",
      "PixelBandwidth": 2290.0,
      "PixelRepresentation": 0,
      "PixelSpacing": [2.0, 2.0],
      "ProtocolName": "func_task-things_run-3",
      "RepetitionTime": 1490.0,
      "Rows": 832,
      "SAR": 0.0677810290785,
      "SamplesPerPixel": 1,
      "ScanOptions": "FS",
      "ScanningSequence": "EP",
      "SequenceName": "epfid2d1_104",
      "SequenceVariant": [
        "SK",
        "SS"
],
      "SeriesDescription": "func_task-things_run-3",
      "SeriesNumber": 16,
      "SeriesTime": "175734.964000",
      "SliceLocation": -30.520555456671,
      "SliceThickness": 2.0,
      "SmallestImagePixelValue": 0,
      "SoftwareVersions": "syngo MR E11",
      "SpacingBetweenSlices": 2.0000000037583,
      "SpecificCharacterSet": "ISO_IR 100",
      "StudyID": "1",
      "StudyTime": "164731.220000",
      "TransmitCoilName": "Body",
      "VariableFlipAngleFlag": "N",
      "WindowCenterWidthExplanation": "Algo1",
      "dBdt": 0.0},
    "slices": {}
  },
  "time": {
    "samples": {
      "AcquisitionNumber": [1, 2, 3, 4, 5, 6, 7, 8, 9, 10, 11, 12, 13, 14, 15, 16, 17, 18, 19, 20, 21, 22, 23, 24, 25, 26, 27, 28, 29, 30, 31, 32, 33, 34, 35, 36, 37, 38, 39, 40, 41, 42, 43, 44, 45, 46, 47, 48, 49, 50, 51, 52, 53, 54, 55, 56, 57, 58, 59, 60, 61, 62, 63, 64, 65, 66, 67, 68, 69, 70, 71, 72, 73, 74, 75, 76, 77, 78, 79, 80, 81, 82, 83, 84, 85, 86, 87, 88, 89, 90, 91, 92, 93, 94, 95, 96, 97, 98, 99, 100, 101, 102, 103, 104, 105, 106, 107, 108, 109, 110, 111, 112, 113, 114, 115, 116, 117, 118, 119, 120, 121, 122, 123, 124, 125, 126, 127, 128, 129, 130, 131, 132, 133, 134, 135, 136, 137, 138, 139, 140, 141, 142, 143, 144, 145, 146, 147, 148, 149, 150, 151, 152, 153, 154, 155, 156, 157, 158, 159, 160, 161, 162, 163, 164, 165, 166, 167, 168, 169, 170, 171, 172, 173, 174, 175, 176, 177, 178, 179, 180, 181, 182, 183, 184, 185, 186, 187, 188, 189, 190],
      "AcquisitionTime": ["175615.055000", "175616.545000", "175618.035000", "175619.525000", "175621.015000", "175622.505000", "175623.995000", "175625.485000", "175626.975000", "175628.465000", "175629.955000", "175631.445000", "175632.935000", "175634.425000", "175635.915000", "175637.405000", "175638.895000", "175640.385000", "175641.875000", "175643.365000", "175644.855000", "175646.345000", "175647.835000", "175649.325000", "175650.815000", "175652.305000", "175653.795000", "175655.285000", "175656.775000", "175658.265000", "175659.755000", "175701.245000", "175702.735000", "175704.225000", "175705.715000", "175707.205000", "175708.695000", "175710.185000", "175711.675000", "175713.165000", "175714.655000", "175716.145000", "175717.635000", "175719.125000", "175720.615000", "175722.105000", "175723.595000", "175725.085000", "175726.575000", "175728.065000", "175729.555000", "175731.045000", "175732.535000", "175734.025000", "175735.515000", "175737.005000", "175738.495000", "175739.985000", "175741.475000", "175742.965000", "175744.455000", "175745.945000", "175747.435000", "175748.925000", "175750.415000", "175751.905000", "175753.395000", "175754.885000", "175756.375000", "175757.865000", "175759.355000", "175800.845000", "175802.335000", "175803.825000", "175805.315000", "175806.805000", "175808.295000", "175809.785000", "175811.275000", "175812.765000", "175814.255000", "175815.745000", "175817.235000", "175818.725000", "175820.215000", "175821.705000", "175823.195000", "175824.685000", "175826.175000", "175827.665000", "175829.155000", "175830.645000", "175832.135000", "175833.625000", "175835.115000", "175836.605000", "175838.095000", "175839.585000", "175841.075000", "175842.565000", "175844.055000", "175845.545000", "175847.035000", "175848.525000", "175850.015000", "175851.505000", "175852.995000", "175854.485000", "175855.975000", "175857.465000", "175858.955000", "175900.445000", "175901.935000", "175903.425000", "175904.915000", "175906.405000", "175907.895000", "175909.385000", "175910.875000", "175912.365000", "175913.855000", "175915.345000", "175916.835000", "175918.325000", "175919.815000", "175921.305000", "175922.795000", "175924.285000", "175925.775000", "175927.265000", "175928.755000", "175930.245000", "175931.735000", "175933.225000", "175934.715000", "175936.205000", "175937.695000", "175939.185000", "175940.675000", "175942.165000", "175943.655000", "175945.145000", "175946.635000", "175948.125000", "175949.615000", "175951.105000", "175952.595000", "175954.085000", "175955.575000", "175957.065000", "175958.555000", "180000.045000", "180001.535000", "180003.025000", "180004.515000", "180006.005000", "180007.495000", "180008.985000", "180010.475000", "180011.965000", "180013.455000", "180014.945000", "180016.435000", "180017.925000", "180019.415000", "180020.905000", "180022.395000", "180023.885000", "180025.375000", "180026.865000", "180028.355000", "180029.845000", "180031.335000", "180032.825000", "180034.315000", "180035.805000", "180037.295000", "180038.785000", "180040.275000", "180041.765000", "180043.255000", "180044.745000", "180046.235000", "180047.725000", "180049.215000", "180050.705000", "180052.195000", "180053.685000", "180055.175000", "180056.665000"],
      "ContentTime": ["175734.967000", "175734.971000", "175734.975000", "175734.978000", "175734.981000", "175734.985000", "175735.001000", "175735.004000", "175735.008000", "175735.011000", "175735.015000", "175735.018000", "175735.021000", "175735.025000", "175735.028000", "175735.032000", "175735.035000", "175735.038000", "175735.042000", "175735.045000", "175735.048000", "175735.052000", "175735.056000", "175735.059000", "175735.062000", "175735.066000", "175754.932000", "175754.936000", "175754.939000", "175754.943000", "175754.946000", "175754.949000", "175754.953000", "175754.956000", "175754.960000", "175754.969000", "175754.972000", "175754.976000", "175754.979000", "175754.982000", "175754.986000", "175754.989000", "175754.993000", "175754.996000", "175755.000000", "175755.004000", "175755.007000", "175814.932000", "175814.944000", "175814.947000", "175814.950000", "175814.954000", "175814.957000", "175814.961000", "175814.964000", "175814.967000", "175814.971000", "175814.974000", "175814.977000", "175814.981000", "175814.984000", "175814.988000", "175814.991000", "175814.994000", "175814.998000", "175815.002000", "175815.005000", "175834.932000", "175834.936000", "175834.939000", "175834.943000", "175834.946000", "175834.949000", "175834.953000", "175834.956000", "175834.960000", "175834.963000", "175834.966000", "175834.970000", "175834.973000", "175834.977000", "175834.980000", "175834.983000", "175834.987000", "175834.990000", "175834.994000", "175834.997000", "175914.931000", "175914.935000", "175914.938000", "175914.942000", "175914.952000", "175914.955000", "175914.958000", "175914.962000", "175914.965000", "175914.969000", "175914.972000", "175914.975000", "175914.979000", "175914.982000", "175914.986000", "175914.989000", "175914.992000", "175914.996000", "175915.011000", "175915.014000", "175915.018000", "175915.021000", "175915.024000", "175915.028000", "175915.031000", "175915.035000", "175915.038000", "175915.042000", "175915.045000", "175915.048000", "175915.052000", "175915.055000", "175915.059000", "175954.932000", "175954.936000", "175954.940000", "175954.943000", "175954.946000", "175954.950000", "175954.953000", "175954.957000", "175954.960000", "175954.963000", "175954.967000", "175954.970000", "175954.974000", "175954.977000", "175954.980000", "175954.984000", "175954.987000", "175954.991000", "175954.994000", "175954.998000", "175955.002000", "175955.005000", "175955.009000", "175955.012000", "175955.016000", "175955.019000", "175955.023000", "180014.933000", "180014.937000", "180014.940000", "180014.944000", "180014.948000", "180014.952000", "180014.955000", "180014.959000", "180014.962000", "180014.966000", "180014.969000", "180014.973000", "180014.976000", "180054.932000", "180054.936000", "180054.940000", "180054.943000", "180054.947000", "180054.950000", "180054.953000", "180054.957000", "180054.960000", "180054.964000", "180054.967000", "180054.971000", "180054.974000", "180054.977000", "180054.981000", "180054.984000", "180054.988000", "180054.991000", "180054.995000", "180054.998000", "180055.003000", "180055.006000", "180055.009000", "180055.013000", "180055.017000", "180055.020000", "180055.023000", "180058.778000", "180058.782000", "180058.786000"],
      "InstanceCreationTime": ["175734.967000", "175734.971000", "175734.975000", "175734.978000", "175734.981000", "175734.985000", "175735.001000", "175735.004000", "175735.008000", "175735.011000", "175735.015000", "175735.018000", "175735.021000", "175735.025000", "175735.028000", "175735.032000", "175735.035000", "175735.038000", "175735.042000", "175735.045000", "175735.048000", "175735.052000", "175735.056000", "175735.059000", "175735.062000", "175735.066000", "175754.932000", "175754.936000", "175754.939000", "175754.943000", "175754.946000", "175754.949000", "175754.953000", "175754.956000", "175754.960000", "175754.969000", "175754.972000", "175754.976000", "175754.979000", "175754.982000", "175754.986000", "175754.989000", "175754.993000", "175754.996000", "175755.000000", "175755.004000", "175755.007000", "175814.932000", "175814.944000", "175814.947000", "175814.950000", "175814.954000", "175814.957000", "175814.961000", "175814.964000", "175814.967000", "175814.971000", "175814.974000", "175814.977000", "175814.981000", "175814.984000", "175814.988000", "175814.991000", "175814.994000", "175814.998000", "175815.002000", "175815.005000", "175834.932000", "175834.936000", "175834.939000", "175834.943000", "175834.946000", "175834.949000", "175834.953000", "175834.956000", "175834.960000", "175834.963000", "175834.966000", "175834.970000", "175834.973000", "175834.977000", "175834.980000", "175834.983000", "175834.987000", "175834.990000", "175834.994000", "175834.997000", "175914.931000", "175914.935000", "175914.938000", "175914.942000", "175914.952000", "175914.955000", "175914.958000", "175914.962000", "175914.965000", "175914.969000", "175914.972000", "175914.975000", "175914.979000", "175914.982000", "175914.986000", "175914.989000", "175914.992000", "175914.996000", "175915.011000", "175915.014000", "175915.018000", "175915.021000", "175915.024000", "175915.028000", "175915.031000", "175915.035000", "175915.038000", "175915.042000", "175915.045000", "175915.048000", "175915.052000", "175915.055000", "175915.059000", "175954.932000", "175954.936000", "175954.940000", "175954.943000", "175954.946000", "175954.950000", "175954.953000", "175954.957000", "175954.960000", "175954.963000", "175954.967000", "175954.970000", "175954.974000", "175954.977000", "175954.980000", "175954.984000", "175954.987000", "175954.991000", "175954.994000", "175954.998000", "175955.002000", "175955.005000", "175955.009000", "175955.012000", "175955.016000", "175955.019000", "175955.023000", "180014.933000", "180014.937000", "180014.940000", "180014.944000", "180014.948000", "180014.952000", "180014.955000", "180014.959000", "180014.962000", "180014.966000", "180014.969000", "180014.973000", "180014.976000", "180054.932000", "180054.936000", "180054.940000", "180054.943000", "180054.947000", "180054.950000", "180054.953000", "180054.957000", "180054.960000", "180054.964000", "180054.967000", "180054.971000", "180054.974000", "180054.977000", "180054.981000", "180054.984000", "180054.988000", "180054.991000", "180054.995000", "180054.998000", "180055.003000", "180055.006000", "180055.009000", "180055.013000", "180055.017000", "180055.020000", "180055.023000", "180058.778000", "180058.782000", "180058.786000"],
      "InstanceNumber": [1, 2, 3, 4, 5, 6, 7, 8, 9, 10, 11, 12, 13, 14, 15, 16, 17, 18, 19, 20, 21, 22, 23, 24, 25, 26, 27, 28, 29, 30, 31, 32, 33, 34, 35, 36, 37, 38, 39, 40, 41, 42, 43, 44, 45, 46, 47, 48, 49, 50, 51, 52, 53, 54, 55, 56, 57, 58, 59, 60, 61, 62, 63, 64, 65, 66, 67, 68, 69, 70, 71, 72, 73, 74, 75, 76, 77, 78, 79, 80, 81, 82, 83, 84, 85, 86, 87, 88, 89, 90, 91, 92, 93, 94, 95, 96, 97, 98, 99, 100, 101, 102, 103, 104, 105, 106, 107, 108, 109, 110, 111, 112, 113, 114, 115, 116, 117, 118, 119, 120, 121, 122, 123, 124, 125, 126, 127, 128, 129, 130, 131, 132, 133, 134, 135, 136, 137, 138, 139, 140, 141, 142, 143, 144, 145, 146, 147, 148, 149, 150, 151, 152, 153, 154, 155, 156, 157, 158, 159, 160, 161, 162, 163, 164, 165, 166, 167, 168, 169, 170, 171, 172, 173, 174, 175, 176, 177, 178, 179, 180, 181, 182, 183, 184, 185, 186, 187, 188, 189, 190],
      "LargestImagePixelValue": [44319, 43997, 44118, 44942, 43222, 42043, 41896, 41707, 41589, 41634, 41480, 43541, 44664, 42671, 42079, 49833, 42342, 42111, 44488, 43111, 41992, 47068, 42663, 42005, 44609, 41867, 42185, 42669, 42306, 42536, 46634, 41917, 41659, 41913, 43819, 39533, 41757, 40436, 41939, 41645, 45702, 39683, 42317, 42529, 42476, 40854, 41167, 41009, 48226, 46278, 45846, 44415, 45435, 42286, 39964, 39867, 39967, 40193, 50628, 44629, 39269, 40088, 40021, 40323, 39761, 41154, 45860, 40278, 41469, 43560, 44253, 43141, 43268, 41228, 42023, 42505, 44359, 41114, 44248, 40886, 40688, 39975, 40794, 43040, 43857, 43832, 42700, 43706, 41501, 40719, 44266, 42649, 41926, 51122, 41906, 42972, 43379, 41490, 41118, 40180, 45724, 40204, 41815, 41185, 40658, 39908, 40305, 40647, 40138, 39810, 40143, 40236, 41941, 49020, 42455, 42878, 41922, 43234, 44518, 41333, 41083, 40196, 38629, 44345, 40227, 43421, 42417, 42559, 42050, 41865, 41740, 41983, 43362, 44084, 43941, 44091, 43778, 40745, 41549, 46020, 41788, 48400, 43868, 43900, 42992, 44659, 39711, 43935, 43831, 42974, 43370, 42450, 40758, 42254, 39865, 41013, 41025, 45785, 43022, 44272, 43416, 43043, 46208, 43203, 43547, 43879, 44540, 45149, 40754, 39352, 42008, 42427, 40422, 45611, 39983, 40697, 39519, 40753, 39581, 52322, 45003, 47537, 40625, 40656, 40939, 41004, 43645, 41263, 41564, 42061],
      "WindowCenter": [10663.0, 10608.0, 10589.0, 10595.0, 10597.0, 10569.0, 10553.0, 10546.0, 10533.0, 10523.0, 10532.0, 10558.0, 10590.0, 10581.0, 10567.0, 10630.0, 10564.0, 10573.0, 10593.0, 10568.0, 10564.0, 10628.0, 10590.0, 10582.0, 10579.0, 10567.0, 10588.0, 10613.0, 10627.0, 10626.0, 10649.0, 10598.0, 10587.0, 10593.0, 10618.0, 10584.0, 10608.0, 10604.0, 10641.0, 10633.0, 10669.0, 10599.0, 10630.0, 10649.0, 10659.0, 10640.0, 10645.0, 10593.0, 10656.0, 10666.0, 10658.0, 10642.0, 10645.0, 10620.0, 10607.0, 10622.0, 10648.0, 10667.0, 10745.0, 10697.0, 10618.0, 10608.0, 10606.0, 10620.0, 10622.0, 10634.0, 10670.0, 10635.0, 10640.0, 10648.0, 10662.0, 10673.0, 10688.0, 10663.0, 10664.0, 10655.0, 10668.0, 10636.0, 10662.0, 10644.0, 10640.0, 10639.0, 10654.0, 10646.0, 10629.0, 10640.0, 10669.0, 10707.0, 10681.0, 10629.0, 10641.0, 10610.0, 10608.0, 10672.0, 10609.0, 10630.0, 10663.0, 10660.0, 10643.0, 10621.0, 10642.0, 10578.0, 10598.0, 10617.0, 10667.0, 10689.0, 10680.0, 10627.0, 10611.0, 10603.0, 10598.0, 10606.0, 10618.0, 10681.0, 10616.0, 10604.0, 10586.0, 10592.0, 10622.0, 10596.0, 10583.0, 10577.0, 10561.0, 10597.0, 10610.0, 10631.0, 10651.0, 10677.0, 10668.0, 10644.0, 10618.0, 10634.0, 10660.0, 10656.0, 10641.0, 10658.0, 10660.0, 10613.0, 10601.0, 10645.0, 10599.0, 10634.0, 10595.0, 10604.0, 10602.0, 10619.0, 10556.0, 10594.0, 10604.0, 10607.0, 10639.0, 10630.0, 10597.0, 10619.0, 10591.0, 10598.0, 10604.0, 10659.0, 10647.0, 10683.0, 10699.0, 10693.0, 10719.0, 10664.0, 10643.0, 10636.0, 10646.0, 10664.0, 10650.0, 10634.0, 10628.0, 10622.0, 10607.0, 10661.0, 10631.0, 10646.0, 10618.0, 10618.0, 10582.0, 10660.0, 10606.0, 10622.0, 10584.0, 10604.0, 10637.0, 10633.0, 10642.0, 10604.0, 10590.0, 10590.0],
      "WindowWidth": [22700.0, 22548.0, 22485.0, 22495.0, 22507.0, 22440.0, 22400.0, 22390.0, 22355.0, 22331.0, 22352.0, 22409.0, 22478.0, 22471.0, 22436.0, 22567.0, 22428.0, 22455.0, 22498.0, 22430.0, 22428.0, 22570.0, 22498.0, 22483.0, 22467.0, 22439.0, 22486.0, 22545.0, 22580.0, 22572.0, 22621.0, 22513.0, 22486.0, 22504.0, 22565.0, 22496.0, 22543.0, 22539.0, 22627.0, 22599.0, 22675.0, 22531.0, 22589.0, 22629.0, 22658.0, 22623.0, 22624.0, 22504.0, 22646.0, 22661.0, 22645.0, 22609.0, 22618.0, 22567.0, 22538.0, 22577.0, 22636.0, 22680.0, 22844.0, 22749.0, 22576.0, 22542.0, 22537.0, 22569.0, 22588.0, 22598.0, 22685.0, 22620.0, 22625.0, 22622.0, 22657.0, 22684.0, 22715.0, 22675.0, 22668.0, 22646.0, 22679.0, 22619.0, 22663.0, 22634.0, 22623.0, 22627.0, 22657.0, 22623.0, 22568.0, 22600.0, 22680.0, 22770.0, 22717.0, 22596.0, 22603.0, 22541.0, 22543.0, 22665.0, 22536.0, 22589.0, 22664.0, 22673.0, 22634.0, 22583.0, 22607.0, 22473.0, 22507.0, 22559.0, 22684.0, 22736.0, 22713.0, 22578.0, 22550.0, 22534.0, 22515.0, 22543.0, 22553.0, 22691.0, 22550.0, 22523.0, 22479.0, 22487.0, 22558.0, 22512.0, 22477.0, 22472.0, 22441.0, 22505.0, 22543.0, 22575.0, 22629.0, 22690.0, 22669.0, 22610.0, 22550.0, 22595.0, 22651.0, 22638.0, 22600.0, 22648.0, 22649.0, 22534.0, 22507.0, 22598.0, 22519.0, 22570.0, 22486.0, 22514.0, 22511.0, 22555.0, 22423.0, 22481.0, 22509.0, 22526.0, 22598.0, 22591.0, 22510.0, 22564.0, 22503.0, 22518.0, 22530.0, 22638.0, 22612.0, 22697.0, 22739.0, 22724.0, 22786.0, 22662.0, 22600.0, 22598.0, 22609.0, 22663.0, 22647.0, 22612.0, 22582.0, 22556.0, 22527.0, 22638.0, 22590.0, 22625.0, 22563.0, 22566.0, 22480.0, 22624.0, 22517.0, 22545.0, 22472.0, 22527.0, 22596.0, 22587.0, 22601.0, 22519.0, 22478.0, 22484.0]
    },
    "slices": {}
  }
}