{
  "AcquisitionMatrixPE": 104,
  "AcquisitionNumber": 1,
  "AcquisitionTime": "18:09:18.650000",
  "BandwidthPerPixelPhaseEncode": 17.17,
  "BaseResolution": 104,
  "BodyPartExamined": "BRAIN",
  "CoilString": "HC1-7;NC1_2",
  "ConsistencyInfo": "N4_VE11C_LATEST_20160120",
  "ConversionSoftware": "dcm2niix",
  "ConversionSoftwareVersion": "v1.0.20190902",
  "DerivedVendorReportedEchoSpacing": 0.000560011,
  "DeviceSerialNumber": "167006",
  "DwellTime": 2.1e-06,
  "EchoTime": 0.037,
  "EchoTrainLength": 104,
  "EffectiveEchoSpacing": 0.000560011,
  "FlipAngle": 52,
  "ImageComments": "Unaliased_MB4_PE3_LB",
  "ImageOrientationPatientDICOM": [0.997817, 0.0581765, 0.0312655, -0.0437401, 0.936784, -0.347163],
  "ImageType": [
    "ORIGINAL",
    "PRIMARY",
    "P",
    "MB",
    "ND",
    "MOSAIC"
],
  "ImagingFrequency": 123.259,
  "InPlanePhaseEncodingDirectionDICOM": "COL",
  "InstitutionAddress": "Chemin_Queen-Mary_4565_Montreal_District_CA_H3W_1W5",
  "InstitutionName": "IUGM",
  "InstitutionalDepartmentName": "Department",
  "MRAcquisitionType": "2D",
  "MagneticFieldStrength": 3,
  "Manufacturer": "Siemens",
  "ManufacturersModelName": "Prisma_fit",
  "Modality": "MR",
  "MultibandAccelerationFactor": 4,
  "PartialFourier": 1,
  "PatientPosition": "HFS",
  "PercentPhaseFOV": 100,
  "PhaseEncodingDirection": "j",
  "PhaseEncodingSteps": 104,
  "PhaseResolution": 1,
  "PixelBandwidth": 2290,
  "ProcedureStepDescription": "memory_things",
  "ProtocolName": "func_task-things_run-5",
  "PulseSequenceDetails": "%CustomerSeq%_cmrr_mbep2d_bold",
  "ReceiveCoilActiveElements": "HC1-7;NC1,2",
  "ReceiveCoilName": "HeadNeck_64",
  "ReconMatrixPE": 104,
  "RepetitionTime": 1.49,
  "SAR": 0.067781,
  "ScanOptions": "FS",
  "ScanningSequence": "EP",
  "SequenceName": "epfid2d1_104",
  "SequenceVariant": "SK_SS",
  "SeriesDescription": "func_task-things_run-5",
  "SeriesNumber": 23,
  "ShimSetting": [631, -7192, -8798, 654, 71, 8, -12, -17],
  "SliceThickness": 2,
  "SliceTiming": [0, 0.785, 0.1, 0.8825, 0.1975, 0.98, 0.295, 1.08, 0.3925, 1.1775, 0.49, 1.275, 0.59, 1.3725, 0.6875, 0, 0.785, 0.1, 0.8825, 0.1975, 0.98, 0.295, 1.08, 0.3925, 1.1775, 0.49, 1.275, 0.59, 1.3725, 0.6875, 0, 0.785, 0.1, 0.8825, 0.1975, 0.98, 0.295, 1.08, 0.3925, 1.1775, 0.49, 1.275, 0.59, 1.3725, 0.6875, 0, 0.785, 0.1, 0.8825, 0.1975, 0.98, 0.295, 1.08, 0.3925, 1.1775, 0.49, 1.275, 0.59, 1.3725, 0.6875],
  "SoftwareVersions": "syngo_MR_E11",
  "SpacingBetweenSlices": 2,
  "StationName": "MRC35049",
  "TaskName": "things",
  "TotalReadoutTime": 0.0576811,
  "TxRefAmp": 307.033,
  "WipMemBlock": "107c3f6e-1d5c-40d5-a066-77d226abad78||Sequence: R016 ve11c/master r/e634e98; Dec 19 2017 11:00:25 by eja",
  "dcmmeta_affine": [
    [-1.9956332445144653, -0.08748020976781845, 0.09897150844335556, 108.80305480957031],
    [-0.11635300517082214, 1.8735684156417847, -0.6900750398635864, -54.38020324707031],
    [0.0625309869647026, 0.6943261027336121, 1.874566912651062, -58.32596969604492],
    [0.0, 0.0, 0.0, 1.0]
],
  "dcmmeta_reorient_transform": [
    [0.0, -1.0, 0.0, 103.0],
    [1.0, 0.0, 0.0, 0.0],
    [0.0, 0.0, 1.0, 0.0],
    [0.0, 0.0, 0.0, 1.0]
],
  "dcmmeta_shape": [104, 104, 60, 190],
  "dcmmeta_slice_dim": 2,
  "dcmmeta_version": 0.6,
  "global": {
    "const": {
      "AcquisitionMatrix": [104, 0, 0, 104],
      "AngioFlag": "N",
      "BitsAllocated": 16,
      "BitsStored": 16,
      "BodyPartExamined": "BRAIN",
      "Columns": 832,
      "EchoNumbers": 1,
      "EchoTime": 37.0,
      "EchoTrainLength": 104,
      "FlipAngle": 52.0,
      "HighBit": 15,
      "ImageOrientationPatient": [0.99781659802493, 0.05817650356073, 0.0312654943893, -0.0437401061503, 0.93678418717107, -0.3471630593542],
      "ImagePositionPatient": [-794.36028004124, -862.92872031752, 243.16304724419],
      "ImageType": [
        "ORIGINAL",
        "PRIMARY",
        "P",
        "MB",
        "ND",
        "MOSAIC"
],
      "ImagedNucleus": "1H",
      "ImagingFrequency": 123.258924,
      "InPlanePhaseEncodingDirection": "COL",
      "LargestImagePixelValue": 4095,
      "MRAcquisitionType": "2D",
      "MagneticFieldStrength": 3.0,
      "Manufacturer": "SIEMENS",
      "ManufacturerModelName": "Prisma_fit",
      "Modality": "MR",
      "NumberOfAverages": 1.0,
      "NumberOfPhaseEncodingSteps": 104,
      "PercentPhaseFieldOfView": 100.0,
      "PercentSampling": 100.0,
      "PerformedProcedureStepStartTime": "164731.334000",
      "PhotometricInterpretation": "MONOCHROME2",
      "PixelBandwidth": 2290.0,
      "PixelRepresentation": 0,
      "PixelSpacing": [2.0, 2.0],
      "ProtocolName": "func_task-things_run-5",
      "RepetitionTime": 1490.0,
      "RescaleIntercept": -4096.0,
      "RescaleSlope": 2.0,
      "RescaleType": "US",
      "Rows": 832,
      "SAR": 0.0677810290785,
      "SamplesPerPixel": 1,
      "ScanOptions": "FS",
      "ScanningSequence": "EP",
      "SequenceName": "epfid2d1_104",
      "SequenceVariant": [
        "SK",
        "SS"
],
      "SeriesDescription": "func_task-things_run-5",
      "SeriesNumber": 23,
      "SeriesTime": "181014.722000",
      "SliceLocation": -30.520555456671,
      "SliceThickness": 2.0,
      "SmallestImagePixelValue": 0,
      "SoftwareVersions": "syngo MR E11",
      "SpacingBetweenSlices": 2.0000000037583,
      "SpecificCharacterSet": "ISO_IR 100",
      "StudyID": "1",
      "StudyTime": "164731.220000",
      "TransmitCoilName": "Body",
      "VariableFlipAngleFlag": "N",
      "WindowCenterWidthExplanation": "Algo1",
      "dBdt": 0.0},
    "slices": {}
  },
  "time": {
    "samples": {
      "AcquisitionNumber": [1, 2, 3, 4, 5, 6, 7, 8, 9, 10, 11, 12, 13, 14, 15, 16, 17, 18, 19, 20, 21, 22, 23, 24, 25, 26, 27, 28, 29, 30, 31, 32, 33, 34, 35, 36, 37, 38, 39, 40, 41, 42, 43, 44, 45, 46, 47, 48, 49, 50, 51, 52, 53, 54, 55, 56, 57, 58, 59, 60, 61, 62, 63, 64, 65, 66, 67, 68, 69, 70, 71, 72, 73, 74, 75, 76, 77, 78, 79, 80, 81, 82, 83, 84, 85, 86, 87, 88, 89, 90, 91, 92, 93, 94, 95, 96, 97, 98, 99, 100, 101, 102, 103, 104, 105, 106, 107, 108, 109, 110, 111, 112, 113, 114, 115, 116, 117, 118, 119, 120, 121, 122, 123, 124, 125, 126, 127, 128, 129, 130, 131, 132, 133, 134, 135, 136, 137, 138, 139, 140, 141, 142, 143, 144, 145, 146, 147, 148, 149, 150, 151, 152, 153, 154, 155, 156, 157, 158, 159, 160, 161, 162, 163, 164, 165, 166, 167, 168, 169, 170, 171, 172, 173, 174, 175, 176, 177, 178, 179, 180, 181, 182, 183, 184, 185, 186, 187, 188, 189, 190],
      "AcquisitionTime": ["180918.650000", "180920.140000", "180921.630000", "180923.120000", "180924.610000", "180926.100000", "180927.590000", "180929.080000", "180930.570000", "180932.060000", "180933.550000", "180935.040000", "180936.530000", "180938.020000", "180939.510000", "180941.000000", "180942.490000", "180943.980000", "180945.470000", "180946.960000", "180948.450000", "180949.940000", "180951.430000", "180952.920000", "180954.410000", "180955.900000", "180957.390000", "180958.880000", "181000.370000", "181001.860000", "181003.350000", "181004.840000", "181006.330000", "181007.820000", "181009.310000", "181010.800000", "181012.290000", "181013.780000", "181015.270000", "181016.760000", "181018.250000", "181019.740000", "181021.230000", "181022.720000", "181024.210000", "181025.700000", "181027.190000", "181028.680000", "181030.170000", "181031.660000", "181033.150000", "181034.640000", "181036.130000", "181037.620000", "181039.110000", "181040.600000", "181042.090000", "181043.580000", "181045.070000", "181046.560000", "181048.050000", "181049.540000", "181051.030000", "181052.520000", "181054.010000", "181055.500000", "181056.990000", "181058.480000", "181059.970000", "181101.460000", "181102.950000", "181104.440000", "181105.930000", "181107.420000", "181108.910000", "181110.400000", "181111.890000", "181113.380000", "181114.870000", "181116.360000", "181117.850000", "181119.340000", "181120.830000", "181122.320000", "181123.810000", "181125.300000", "181126.790000", "181128.280000", "181129.770000", "181131.260000", "181132.750000", "181134.240000", "181135.730000", "181137.220000", "181138.710000", "181140.200000", "181141.690000", "181143.180000", "181144.670000", "181146.160000", "181147.650000", "181149.140000", "181150.630000", "181152.120000", "181153.610000", "181155.100000", "181156.590000", "181158.080000", "181159.570000", "181201.060000", "181202.550000", "181204.040000", "181205.530000", "181207.020000", "181208.510000", "181210.000000", "181211.490000", "181212.980000", "181214.470000", "181215.960000", "181217.450000", "181218.940000", "181220.430000", "181221.920000", "181223.410000", "181224.900000", "181226.390000", "181227.880000", "181229.370000", "181230.860000", "181232.350000", "181233.840000", "181235.330000", "181236.820000", "181238.310000", "181239.800000", "181241.290000", "181242.780000", "181244.270000", "181245.760000", "181247.250000", "181248.740000", "181250.230000", "181251.720000", "181253.210000", "181254.700000", "181256.190000", "181257.680000", "181259.170000", "181300.660000", "181302.150000", "181303.640000", "181305.130000", "181306.620000", "181308.110000", "181309.600000", "181311.090000", "181312.580000", "181314.070000", "181315.560000", "181317.050000", "181318.540000", "181320.030000", "181321.520000", "181323.010000", "181324.500000", "181325.990000", "181327.480000", "181328.970000", "181330.460000", "181331.950000", "181333.440000", "181334.930000", "181336.420000", "181337.910000", "181339.400000", "181340.890000", "181342.380000", "181343.870000", "181345.360000", "181346.850000", "181348.340000", "181349.830000", "181351.320000", "181352.810000", "181354.300000", "181355.790000", "181357.280000", "181358.770000", "181400.260000"],
      "ContentTime": ["181014.724000", "181014.727000", "181034.774000", "181034.776000", "181034.779000", "181034.782000", "181034.784000", "181034.787000", "181034.789000", "181034.792000", "181034.794000", "181034.797000", "181034.799000", "181034.802000", "181034.805000", "181034.807000", "181034.810000", "181034.812000", "181034.815000", "181034.818000", "181034.820000", "181034.823000", "181054.785000", "181054.788000", "181054.790000", "181054.798000", "181054.801000", "181054.803000", "181054.806000", "181054.808000", "181054.811000", "181054.813000", "181054.816000", "181054.819000", "181054.821000", "181054.824000", "181054.826000", "181054.829000", "181054.832000", "181054.834000", "181054.837000", "181054.839000", "181114.801000", "181114.804000", "181114.806000", "181114.809000", "181114.811000", "181114.814000", "181114.816000", "181114.819000", "181114.821000", "181114.824000", "181114.826000", "181114.829000", "181114.831000", "181114.834000", "181114.837000", "181114.839000", "181114.842000", "181114.844000", "181114.847000", "181114.855000", "181134.783000", "181134.786000", "181134.789000", "181134.791000", "181134.794000", "181134.796000", "181134.799000", "181134.801000", "181134.804000", "181134.807000", "181134.809000", "181134.812000", "181134.814000", "181134.827000", "181134.829000", "181134.832000", "181134.834000", "181134.837000", "181134.839000", "181134.842000", "181134.845000", "181154.793000", "181154.796000", "181154.799000", "181154.801000", "181154.804000", "181154.806000", "181154.809000", "181154.811000", "181154.814000", "181154.816000", "181154.819000", "181154.822000", "181154.824000", "181154.827000", "181154.829000", "181154.832000", "181154.834000", "181154.837000", "181154.839000", "181154.842000", "181234.824000", "181234.827000", "181234.829000", "181234.832000", "181234.834000", "181234.837000", "181234.839000", "181234.842000", "181234.845000", "181234.847000", "181234.850000", "181234.852000", "181234.855000", "181234.857000", "181234.860000", "181234.862000", "181234.865000", "181234.868000", "181234.870000", "181234.873000", "181234.875000", "181234.878000", "181234.880000", "181234.883000", "181234.885000", "181234.888000", "181234.891000", "181234.893000", "181314.810000", "181314.813000", "181314.815000", "181314.818000", "181314.820000", "181314.823000", "181314.826000", "181314.828000", "181314.831000", "181314.833000", "181314.836000", "181314.838000", "181314.841000", "181314.844000", "181314.846000", "181314.849000", "181314.851000", "181314.854000", "181314.856000", "181314.859000", "181314.861000", "181314.864000", "181314.867000", "181314.869000", "181314.872000", "181314.874000", "181355.068000", "181355.071000", "181355.073000", "181355.076000", "181355.078000", "181355.081000", "181355.084000", "181355.086000", "181355.089000", "181355.091000", "181355.094000", "181355.096000", "181355.099000", "181355.101000", "181355.104000", "181355.107000", "181355.109000", "181355.112000", "181355.114000", "181355.117000", "181355.119000", "181355.122000", "181355.125000", "181355.127000", "181355.130000", "181355.132000", "181355.135000", "181402.506000", "181402.509000", "181402.511000", "181402.514000", "181402.516000", "181402.519000"],
      "InstanceCreationTime": ["181014.724000", "181014.727000", "181034.774000", "181034.776000", "181034.779000", "181034.782000", "181034.784000", "181034.787000", "181034.789000", "181034.792000", "181034.794000", "181034.797000", "181034.799000", "181034.802000", "181034.805000", "181034.807000", "181034.810000", "181034.812000", "181034.815000", "181034.818000", "181034.820000", "181034.823000", "181054.785000", "181054.788000", "181054.790000", "181054.798000", "181054.801000", "181054.803000", "181054.806000", "181054.808000", "181054.811000", "181054.813000", "181054.816000", "181054.819000", "181054.821000", "181054.824000", "181054.826000", "181054.829000", "181054.832000", "181054.834000", "181054.837000", "181054.839000", "181114.801000", "181114.804000", "181114.806000", "181114.809000", "181114.811000", "181114.814000", "181114.816000", "181114.819000", "181114.821000", "181114.824000", "181114.826000", "181114.829000", "181114.831000", "181114.834000", "181114.837000", "181114.839000", "181114.842000", "181114.844000", "181114.847000", "181114.855000", "181134.783000", "181134.786000", "181134.789000", "181134.791000", "181134.794000", "181134.796000", "181134.799000", "181134.801000", "181134.804000", "181134.807000", "181134.809000", "181134.812000", "181134.814000", "181134.827000", "181134.829000", "181134.832000", "181134.834000", "181134.837000", "181134.839000", "181134.842000", "181134.845000", "181154.793000", "181154.796000", "181154.799000", "181154.801000", "181154.804000", "181154.806000", "181154.809000", "181154.811000", "181154.814000", "181154.816000", "181154.819000", "181154.822000", "181154.824000", "181154.827000", "181154.829000", "181154.832000", "181154.834000", "181154.837000", "181154.839000", "181154.842000", "181234.824000", "181234.827000", "181234.829000", "181234.832000", "181234.834000", "181234.837000", "181234.839000", "181234.842000", "181234.845000", "181234.847000", "181234.850000", "181234.852000", "181234.855000", "181234.857000", "181234.860000", "181234.862000", "181234.865000", "181234.868000", "181234.870000", "181234.873000", "181234.875000", "181234.878000", "181234.880000", "181234.883000", "181234.885000", "181234.888000", "181234.891000", "181234.893000", "181314.810000", "181314.813000", "181314.815000", "181314.818000", "181314.820000", "181314.823000", "181314.826000", "181314.828000", "181314.831000", "181314.833000", "181314.836000", "181314.838000", "181314.841000", "181314.844000", "181314.846000", "181314.849000", "181314.851000", "181314.854000", "181314.856000", "181314.859000", "181314.861000", "181314.864000", "181314.867000", "181314.869000", "181314.872000", "181314.874000", "181355.068000", "181355.071000", "181355.073000", "181355.076000", "181355.078000", "181355.081000", "181355.084000", "181355.086000", "181355.089000", "181355.091000", "181355.094000", "181355.096000", "181355.099000", "181355.101000", "181355.104000", "181355.107000", "181355.109000", "181355.112000", "181355.114000", "181355.117000", "181355.119000", "181355.122000", "181355.125000", "181355.127000", "181355.130000", "181355.132000", "181355.135000", "181402.506000", "181402.509000", "181402.511000", "181402.514000", "181402.516000", "181402.519000"],
      "InstanceNumber": [1, 2, 3, 4, 5, 6, 7, 8, 9, 10, 11, 12, 13, 14, 15, 16, 17, 18, 19, 20, 21, 22, 23, 24, 25, 26, 27, 28, 29, 30, 31, 32, 33, 34, 35, 36, 37, 38, 39, 40, 41, 42, 43, 44, 45, 46, 47, 48, 49, 50, 51, 52, 53, 54, 55, 56, 57, 58, 59, 60, 61, 62, 63, 64, 65, 66, 67, 68, 69, 70, 71, 72, 73, 74, 75, 76, 77, 78, 79, 80, 81, 82, 83, 84, 85, 86, 87, 88, 89, 90, 91, 92, 93, 94, 95, 96, 97, 98, 99, 100, 101, 102, 103, 104, 105, 106, 107, 108, 109, 110, 111, 112, 113, 114, 115, 116, 117, 118, 119, 120, 121, 122, 123, 124, 125, 126, 127, 128, 129, 130, 131, 132, 133, 134, 135, 136, 137, 138, 139, 140, 141, 142, 143, 144, 145, 146, 147, 148, 149, 150, 151, 152, 153, 154, 155, 156, 157, 158, 159, 160, 161, 162, 163, 164, 165, 166, 167, 168, 169, 170, 171, 172, 173, 174, 175, 176, 177, 178, 179, 180, 181, 182, 183, 184, 185, 186, 187, 188, 189, 190],
      "WindowCenter": [4834.0, 4834.0, 4834.0, 4834.0, 4834.0, 4832.0, 4836.0, 4836.0, 4832.0, 4836.0, 4836.0, 4836.0, 4838.0, 4836.0, 4838.0, 4834.0, 4834.0, 4838.0, 4836.0, 4832.0, 4836.0, 4836.0, 4836.0, 4838.0, 4836.0, 4838.0, 4834.0, 4834.0, 4834.0, 4840.0, 4836.0, 4838.0, 4838.0, 4832.0, 4834.0, 4838.0, 4834.0, 4836.0, 4832.0, 4836.0, 4834.0, 4836.0, 4832.0, 4838.0, 4832.0, 4838.0, 4834.0, 4836.0, 4836.0, 4834.0, 4832.0, 4834.0, 4834.0, 4836.0, 4838.0, 4834.0, 4836.0, 4834.0, 4836.0, 4834.0, 4834.0, 4834.0, 4834.0, 4838.0, 4836.0, 4834.0, 4836.0, 4840.0, 4838.0, 4836.0, 4838.0, 4836.0, 4860.0, 4838.0, 4840.0, 4840.0, 4838.0, 4838.0, 4840.0, 4836.0, 4836.0, 4836.0, 4836.0, 4836.0, 4836.0, 4838.0, 4836.0, 4836.0, 4836.0, 4836.0, 4834.0, 4838.0, 4838.0, 4836.0, 4838.0, 4838.0, 4836.0, 4840.0, 4834.0, 4836.0, 4838.0, 4836.0, 4836.0, 4838.0, 4836.0, 4838.0, 4832.0, 4836.0, 4838.0, 4836.0, 4834.0, 4834.0, 4832.0, 4834.0, 4836.0, 4836.0, 4836.0, 4834.0, 4836.0, 4834.0, 4838.0, 4834.0, 4838.0, 4840.0, 4838.0, 4838.0, 4834.0, 4836.0, 4834.0, 4836.0, 4836.0, 4838.0, 4838.0, 4838.0, 4836.0, 4834.0, 4836.0, 4836.0, 4834.0, 4836.0, 4838.0, 4836.0, 4836.0, 4834.0, 4840.0, 4836.0, 4838.0, 4860.0, 4840.0, 4838.0, 4860.0, 4832.0, 4838.0, 4836.0, 4838.0, 4838.0, 4836.0, 4836.0, 4838.0, 4836.0, 4836.0, 4836.0, 4834.0, 4838.0, 4840.0, 4836.0, 4838.0, 4836.0, 4838.0, 4838.0, 4834.0, 4838.0, 4834.0, 4860.0, 4836.0, 4834.0, 4832.0, 4862.0, 4838.0, 4836.0, 4834.0, 4838.0, 4834.0, 4836.0, 4836.0, 4836.0, 4836.0, 4838.0, 4838.0, 4858.0],
      "WindowWidth": [18650.0, 18652.0, 18654.0, 18652.0, 18648.0, 18648.0, 18650.0, 18646.0, 18646.0, 18652.0, 18656.0, 18654.0, 18652.0, 18652.0, 18650.0, 18650.0, 18650.0, 18650.0, 18648.0, 18648.0, 18652.0, 18654.0, 18658.0, 18648.0, 18650.0, 18654.0, 18652.0, 18650.0, 18648.0, 18652.0, 18656.0, 18654.0, 18652.0, 18644.0, 18648.0, 18652.0, 18652.0, 18652.0, 18652.0, 18652.0, 18654.0, 18650.0, 18650.0, 18654.0, 18652.0, 18652.0, 18652.0, 18652.0, 18652.0, 18656.0, 18652.0, 18654.0, 18652.0, 18654.0, 18658.0, 18648.0, 18652.0, 18652.0, 18656.0, 18654.0, 18652.0, 18652.0, 18652.0, 18652.0, 18656.0, 18654.0, 18660.0, 18658.0, 18660.0, 18660.0, 18658.0, 18660.0, 18688.0, 18656.0, 18656.0, 18648.0, 18652.0, 18656.0, 18652.0, 18656.0, 18650.0, 18654.0, 18656.0, 18656.0, 18652.0, 18654.0, 18654.0, 18654.0, 18652.0, 18652.0, 18648.0, 18656.0, 18658.0, 18654.0, 18660.0, 18658.0, 18656.0, 18656.0, 18652.0, 18652.0, 18650.0, 18656.0, 18652.0, 18658.0, 18650.0, 18654.0, 18652.0, 18652.0, 18654.0, 18654.0, 18654.0, 18656.0, 18656.0, 18658.0, 18658.0, 18652.0, 18652.0, 18654.0, 18648.0, 18654.0, 18660.0, 18652.0, 18660.0, 18658.0, 18650.0, 18658.0, 18650.0, 18654.0, 18658.0, 18656.0, 18656.0, 18654.0, 18658.0, 18656.0, 18654.0, 18650.0, 18656.0, 18650.0, 18648.0, 18652.0, 18654.0, 18656.0, 18656.0, 18654.0, 18662.0, 18660.0, 18666.0, 18684.0, 18666.0, 18658.0, 18684.0, 18650.0, 18656.0, 18658.0, 18660.0, 18652.0, 18656.0, 18660.0, 18658.0, 18658.0, 18656.0, 18658.0, 18654.0, 18650.0, 18650.0, 18650.0, 18652.0, 18658.0, 18666.0, 18664.0, 18658.0, 18662.0, 18658.0, 18684.0, 18652.0, 18656.0, 18656.0, 18692.0, 18658.0, 18656.0, 18652.0, 18658.0, 18650.0, 18650.0, 18662.0, 18662.0, 18660.0, 18664.0, 18660.0, 18678.0]
    },
    "slices": {}
  }
}