{
  "AcquisitionMatrixPE": 104,
  "AcquisitionNumber": 1,
  "AcquisitionTime": "13:26:20.577500",
  "BandwidthPerPixelPhaseEncode": 17.17,
  "BaseResolution": 104,
  "BodyPartExamined": "BRAIN",
  "CoilString": "HC1-7;NC1_2",
  "ConsistencyInfo": "N4_VE11C_LATEST_20160120",
  "ConversionSoftware": "dcm2niix",
  "ConversionSoftwareVersion": "v1.0.20190902",
  "DerivedVendorReportedEchoSpacing": 0.000560011,
  "DeviceSerialNumber": "167006",
  "DwellTime": 2.1e-06,
  "EchoTime": 0.037,
  "EchoTrainLength": 104,
  "EffectiveEchoSpacing": 0.000560011,
  "FlipAngle": 52,
  "HeudiconvVersion": "0.10.0",
  "ImageComments": "Unaliased_MB4_PE3_LB",
  "ImageOrientationPatientDICOM": [0.999268, 0.034136, 0.0172437, -0.0287848, 0.968186, -0.248572],
  "ImageType": [
    "ORIGINAL",
    "PRIMARY",
    "M",
    "MB",
    "ND",
    "MOSAIC"
],
  "ImagingFrequency": 123.259,
  "InPlanePhaseEncodingDirectionDICOM": "COL",
  "InstitutionAddress": "Chemin_Queen-Mary_4565_Montreal_District_CA_H3W_1W5",
  "InstitutionName": "IUGM",
  "InstitutionalDepartmentName": "Department",
  "MRAcquisitionType": "2D",
  "MagneticFieldStrength": 3,
  "Manufacturer": "Siemens",
  "ManufacturersModelName": "Prisma_fit",
  "Modality": "MR",
  "MultibandAccelerationFactor": 4,
  "PartialFourier": 1,
  "PatientPosition": "HFS",
  "PercentPhaseFOV": 100,
  "PhaseEncodingDirection": "j",
  "PhaseEncodingSteps": 104,
  "PhaseResolution": 1,
  "PixelBandwidth": 2290,
  "ProcedureStepDescription": "memory_things",
  "ProtocolName": "func_task-things_run-1",
  "PulseSequenceDetails": "%CustomerSeq%_cmrr_mbep2d_bold",
  "ReceiveCoilActiveElements": "HC1-7;NC1,2",
  "ReceiveCoilName": "HeadNeck_64",
  "ReconMatrixPE": 104,
  "RepetitionTime": 1.49,
  "SAR": 0.0566244,
  "ScanOptions": "FS",
  "ScanningSequence": "EP",
  "SequenceName": "epfid2d1_104",
  "SequenceVariant": "SK_SS",
  "SeriesDescription": "func_task-things_run-1",
  "SeriesNumber": 10,
  "ShimSetting": [628, -7207, -8760, 716, 13, 4, 70, -23],
  "SliceThickness": 2,
  "SliceTiming": [0, 0.7825, 0.0975, 0.88, 0.195, 0.98, 0.2925, 1.0775, 0.39, 1.175, 0.49, 1.2725, 0.5875, 1.37, 0.685, 0, 0.7825, 0.0975, 0.88, 0.195, 0.98, 0.2925, 1.0775, 0.39, 1.175, 0.49, 1.2725, 0.5875, 1.37, 0.685, 0, 0.7825, 0.0975, 0.88, 0.195, 0.98, 0.2925, 1.0775, 0.39, 1.175, 0.49, 1.2725, 0.5875, 1.37, 0.685, 0, 0.7825, 0.0975, 0.88, 0.195, 0.98, 0.2925, 1.0775, 0.39, 1.175, 0.49, 1.2725, 0.5875, 1.37, 0.685],
  "SoftwareVersions": "syngo_MR_E11",
  "SpacingBetweenSlices": 2,
  "StationName": "MRC35049",
  "TaskName": "things",
  "TotalReadoutTime": 0.0576811,
  "TxRefAmp": 248.376,
  "WipMemBlock": "25b4bacc-6b24-4853-9649-1ad4070be8ab||Sequence: R016 ve11c/master r/e634e98; Dec 19 2017 11:00:25 by eja",
  "dcmmeta_affine": [
    [-1.9985368251800537, -0.057569585740566254, 0.05036061629652977, 109.9699478149414],
    [-0.06827206164598465, 1.9363714456558228, -0.4957869350910187, -70.93350982666016],
    [0.03448730334639549, 0.49714332818984985, 1.9369200468063354, -55.228050231933594],
    [0.0, 0.0, 0.0, 1.0]
],
  "dcmmeta_reorient_transform": [
    [0.0, -1.0, 0.0, 103.0],
    [1.0, 0.0, 0.0, 0.0],
    [0.0, 0.0, 1.0, 0.0],
    [0.0, 0.0, 0.0, 1.0]
],
  "dcmmeta_shape": [104, 104, 60, 190],
  "dcmmeta_slice_dim": 2,
  "dcmmeta_version": 0.6,
  "global": {
    "const": {
      "AcquisitionMatrix": [104, 0, 0, 104],
      "AngioFlag": "N",
      "BitsAllocated": 16,
      "BitsStored": 16,
      "BodyPartExamined": "BRAIN",
      "Columns": 832,
      "EchoNumbers": 1,
      "EchoTime": 37.0,
      "EchoTrainLength": 104,
      "FlipAngle": 52.0,
      "HighBit": 15,
      "ImageOrientationPatient": [0.99926842628605, 0.03413603226815, 0.01724365184045, -0.0287847936627, 0.96818570867189, -0.2485716580331],
      "ImagePositionPatient": [-810.55236221059, -858.20297447286, 164.38450068534],
      "ImageType": [
        "ORIGINAL",
        "PRIMARY",
        "M",
        "MB",
        "ND",
        "MOSAIC"
],
      "ImagedNucleus": "1H",
      "ImagingFrequency": 123.258878,
      "InPlanePhaseEncodingDirection": "COL",
      "MRAcquisitionType": "2D",
      "MagneticFieldStrength": 3.0,
      "Manufacturer": "SIEMENS",
      "ManufacturerModelName": "Prisma_fit",
      "Modality": "MR",
      "NumberOfAverages": 1.0,
      "NumberOfPhaseEncodingSteps": 104,
      "PercentPhaseFieldOfView": 100.0,
      "PercentSampling": 100.0,
      "PerformedProcedureStepStartTime": "123653.108000",
      "PhotometricInterpretation": "MONOCHROME2",
      "PixelBandwidth": 2290.0,
      "PixelRepresentation": 0,
      "PixelSpacing": [2.0, 2.0],
      "ProtocolName": "func_task-things_run-1",
      "RepetitionTime": 1490.0,
      "Rows": 832,
      "SAR": 0.05662440600189,
      "SamplesPerPixel": 1,
      "ScanOptions": "FS",
      "ScanningSequence": "EP",
      "SequenceName": "epfid2d1_104",
      "SequenceVariant": [
        "SK",
        "SS"
],
      "SeriesDescription": "func_task-things_run-1",
      "SeriesNumber": 10,
      "SeriesTime": "132742.515000",
      "SliceLocation": -33.133127550925,
      "SliceThickness": 2.0,
      "SmallestImagePixelValue": 0,
      "SoftwareVersions": "syngo MR E11",
      "SpacingBetweenSlices": 2.000000049507,
      "SpecificCharacterSet": "ISO_IR 100",
      "StudyID": "1",
      "StudyTime": "123652.913000",
      "TransmitCoilName": "Body",
      "VariableFlipAngleFlag": "N",
      "WindowCenterWidthExplanation": "Algo1",
      "dBdt": 0.0},
    "slices": {}
  },
  "time": {
    "samples": {
      "AcquisitionNumber": [1, 2, 3, 4, 5, 6, 7, 8, 9, 10, 11, 12, 13, 14, 15, 16, 17, 18, 19, 20, 21, 22, 23, 24, 25, 26, 27, 28, 29, 30, 31, 32, 33, 34, 35, 36, 37, 38, 39, 40, 41, 42, 43, 44, 45, 46, 47, 48, 49, 50, 51, 52, 53, 54, 55, 56, 57, 58, 59, 60, 61, 62, 63, 64, 65, 66, 67, 68, 69, 70, 71, 72, 73, 74, 75, 76, 77, 78, 79, 80, 81, 82, 83, 84, 85, 86, 87, 88, 89, 90, 91, 92, 93, 94, 95, 96, 97, 98, 99, 100, 101, 102, 103, 104, 105, 106, 107, 108, 109, 110, 111, 112, 113, 114, 115, 116, 117, 118, 119, 120, 121, 122, 123, 124, 125, 126, 127, 128, 129, 130, 131, 132, 133, 134, 135, 136, 137, 138, 139, 140, 141, 142, 143, 144, 145, 146, 147, 148, 149, 150, 151, 152, 153, 154, 155, 156, 157, 158, 159, 160, 161, 162, 163, 164, 165, 166, 167, 168, 169, 170, 171, 172, 173, 174, 175, 176, 177, 178, 179, 180, 181, 182, 183, 184, 185, 186, 187, 188, 189, 190],
      "AcquisitionTime": ["132620.577500", "132622.067500", "132623.557500", "132625.047500", "132626.537500", "132628.027500", "132629.517500", "132631.007500", "132632.497500", "132633.987500", "132635.477500", "132636.967500", "132638.457500", "132639.947500", "132641.437500", "132642.927500", "132644.417500", "132645.907500", "132647.397500", "132648.887500", "132650.377500", "132651.867500", "132653.357500", "132654.847500", "132656.337500", "132657.827500", "132659.317500", "132700.807500", "132702.297500", "132703.787500", "132705.277500", "132706.767500", "132708.257500", "132709.747500", "132711.237500", "132712.727500", "132714.217500", "132715.707500", "132717.197500", "132718.687500", "132720.177500", "132721.667500", "132723.157500", "132724.647500", "132726.137500", "132727.627500", "132729.117500", "132730.607500", "132732.097500", "132733.587500", "132735.077500", "132736.567500", "132738.057500", "132739.547500", "132741.037500", "132742.527500", "132744.017500", "132745.507500", "132746.997500", "132748.487500", "132749.977500", "132751.467500", "132752.957500", "132754.447500", "132755.937500", "132757.427500", "132758.917500", "132800.407500", "132801.897500", "132803.387500", "132804.877500", "132806.367500", "132807.857500", "132809.347500", "132810.837500", "132812.327500", "132813.817500", "132815.307500", "132816.797500", "132818.287500", "132819.777500", "132821.267500", "132822.757500", "132824.247500", "132825.737500", "132827.227500", "132828.717500", "132830.207500", "132831.697500", "132833.187500", "132834.677500", "132836.167500", "132837.657500", "132839.147500", "132840.637500", "132842.127500", "132843.617500", "132845.107500", "132846.597500", "132848.087500", "132849.577500", "132851.067500", "132852.557500", "132854.047500", "132855.537500", "132857.027500", "132858.517500", "132900.007500", "132901.497500", "132902.987500", "132904.477500", "132905.967500", "132907.457500", "132908.947500", "132910.437500", "132911.927500", "132913.417500", "132914.907500", "132916.397500", "132917.887500", "132919.377500", "132920.867500", "132922.357500", "132923.847500", "132925.337500", "132926.827500", "132928.317500", "132929.807500", "132931.297500", "132932.787500", "132934.277500", "132935.767500", "132937.257500", "132938.747500", "132940.237500", "132941.727500", "132943.217500", "132944.707500", "132946.197500", "132947.687500", "132949.177500", "132950.667500", "132952.157500", "132953.647500", "132955.137500", "132956.627500", "132958.117500", "132959.607500", "133001.097500", "133002.587500", "133004.077500", "133005.567500", "133007.057500", "133008.547500", "133010.037500", "133011.527500", "133013.017500", "133014.507500", "133015.997500", "133017.487500", "133018.977500", "133020.467500", "133021.957500", "133023.447500", "133024.937500", "133026.427500", "133027.917500", "133029.407500", "133030.897500", "133032.387500", "133033.877500", "133035.367500", "133036.857500", "133038.347500", "133039.837500", "133041.327500", "133042.817500", "133044.307500", "133045.797500", "133047.287500", "133048.777500", "133050.267500", "133051.757500", "133053.247500", "133054.737500", "133056.227500", "133057.717500", "133059.207500", "133100.697500", "133102.187500"],
      "ContentTime": ["132742.518000", "132742.522000", "132742.525000", "132742.529000", "132742.532000", "132742.535000", "132742.539000", "132742.542000", "132742.545000", "132742.548000", "132742.552000", "132742.555000", "132742.558000", "132742.561000", "132742.565000", "132742.568000", "132742.572000", "132742.575000", "132742.578000", "132742.581000", "132742.585000", "132742.588000", "132742.591000", "132742.594000", "132742.598000", "132742.611000", "132742.614000", "132742.618000", "132802.481000", "132802.485000", "132802.488000", "132802.491000", "132802.494000", "132802.498000", "132802.501000", "132802.504000", "132802.507000", "132802.511000", "132802.514000", "132802.517000", "132802.521000", "132802.524000", "132802.527000", "132802.530000", "132802.534000", "132802.537000", "132802.540000", "132802.543000", "132822.482000", "132822.486000", "132822.489000", "132822.492000", "132822.495000", "132822.499000", "132822.502000", "132822.505000", "132822.508000", "132822.512000", "132822.515000", "132822.518000", "132822.522000", "132822.525000", "132822.528000", "132822.531000", "132822.535000", "132822.538000", "132822.541000", "132822.544000", "132842.481000", "132842.485000", "132842.488000", "132842.491000", "132842.495000", "132842.498000", "132842.501000", "132842.504000", "132842.507000", "132842.511000", "132842.514000", "132842.519000", "132842.522000", "132842.525000", "132842.528000", "132842.532000", "132842.535000", "132842.538000", "132842.542000", "132842.545000", "132842.548000", "132922.481000", "132922.485000", "132922.488000", "132922.491000", "132922.495000", "132922.498000", "132922.501000", "132922.505000", "132922.508000", "132922.511000", "132922.515000", "132922.518000", "132922.521000", "132922.524000", "132922.528000", "132922.531000", "132922.534000", "132922.538000", "132922.541000", "132922.544000", "132922.547000", "132922.550000", "132922.554000", "132922.557000", "132922.560000", "132922.563000", "132922.567000", "132922.570000", "132922.573000", "132922.577000", "132922.580000", "132922.583000", "133002.481000", "133002.485000", "133002.488000", "133002.492000", "133002.495000", "133002.498000", "133002.502000", "133002.505000", "133002.508000", "133002.511000", "133002.515000", "133002.518000", "133002.521000", "133002.525000", "133002.528000", "133002.531000", "133002.535000", "133002.538000", "133002.541000", "133002.544000", "133002.548000", "133002.551000", "133002.554000", "133002.557000", "133002.561000", "133002.564000", "133002.567000", "133042.482000", "133042.486000", "133042.489000", "133042.492000", "133042.496000", "133042.499000", "133042.502000", "133042.506000", "133042.509000", "133042.512000", "133042.515000", "133042.518000", "133042.522000", "133042.525000", "133042.528000", "133042.532000", "133042.535000", "133042.538000", "133042.541000", "133042.545000", "133042.548000", "133042.551000", "133042.554000", "133042.558000", "133042.561000", "133042.564000", "133042.568000", "133104.750000", "133104.754000", "133104.758000", "133104.761000", "133104.765000", "133104.769000", "133104.773000", "133104.776000", "133104.780000", "133104.784000", "133104.787000", "133104.791000", "133104.794000", "133104.797000", "133104.815000"],
      "InstanceCreationTime": ["132742.518000", "132742.522000", "132742.525000", "132742.529000", "132742.532000", "132742.535000", "132742.539000", "132742.542000", "132742.545000", "132742.548000", "132742.552000", "132742.555000", "132742.558000", "132742.561000", "132742.565000", "132742.568000", "132742.572000", "132742.575000", "132742.578000", "132742.581000", "132742.585000", "132742.588000", "132742.591000", "132742.594000", "132742.598000", "132742.611000", "132742.614000", "132742.618000", "132802.481000", "132802.485000", "132802.488000", "132802.491000", "132802.494000", "132802.498000", "132802.501000", "132802.504000", "132802.507000", "132802.511000", "132802.514000", "132802.517000", "132802.521000", "132802.524000", "132802.527000", "132802.530000", "132802.534000", "132802.537000", "132802.540000", "132802.543000", "132822.482000", "132822.486000", "132822.489000", "132822.492000", "132822.495000", "132822.499000", "132822.502000", "132822.505000", "132822.508000", "132822.512000", "132822.515000", "132822.518000", "132822.522000", "132822.525000", "132822.528000", "132822.531000", "132822.535000", "132822.538000", "132822.541000", "132822.544000", "132842.481000", "132842.485000", "132842.488000", "132842.491000", "132842.495000", "132842.498000", "132842.501000", "132842.504000", "132842.507000", "132842.511000", "132842.514000", "132842.519000", "132842.522000", "132842.525000", "132842.528000", "132842.532000", "132842.535000", "132842.538000", "132842.542000", "132842.545000", "132842.548000", "132922.481000", "132922.485000", "132922.488000", "132922.491000", "132922.495000", "132922.498000", "132922.501000", "132922.505000", "132922.508000", "132922.511000", "132922.515000", "132922.518000", "132922.521000", "132922.524000", "132922.528000", "132922.531000", "132922.534000", "132922.538000", "132922.541000", "132922.544000", "132922.547000", "132922.550000", "132922.554000", "132922.557000", "132922.560000", "132922.563000", "132922.567000", "132922.570000", "132922.573000", "132922.577000", "132922.580000", "132922.583000", "133002.481000", "133002.485000", "133002.488000", "133002.492000", "133002.495000", "133002.498000", "133002.502000", "133002.505000", "133002.508000", "133002.511000", "133002.515000", "133002.518000", "133002.521000", "133002.525000", "133002.528000", "133002.531000", "133002.535000", "133002.538000", "133002.541000", "133002.544000", "133002.548000", "133002.551000", "133002.554000", "133002.557000", "133002.561000", "133002.564000", "133002.567000", "133042.482000", "133042.486000", "133042.489000", "133042.492000", "133042.496000", "133042.499000", "133042.502000", "133042.506000", "133042.509000", "133042.512000", "133042.515000", "133042.518000", "133042.522000", "133042.525000", "133042.528000", "133042.532000", "133042.535000", "133042.538000", "133042.541000", "133042.545000", "133042.548000", "133042.551000", "133042.554000", "133042.558000", "133042.561000", "133042.564000", "133042.568000", "133104.750000", "133104.754000", "133104.758000", "133104.761000", "133104.765000", "133104.769000", "133104.773000", "133104.776000", "133104.780000", "133104.784000", "133104.787000", "133104.791000", "133104.794000", "133104.797000", "133104.815000"],
      "InstanceNumber": [1, 2, 3, 4, 5, 6, 7, 8, 9, 10, 11, 12, 13, 14, 15, 16, 17, 18, 19, 20, 21, 22, 23, 24, 25, 26, 27, 28, 29, 30, 31, 32, 33, 34, 35, 36, 37, 38, 39, 40, 41, 42, 43, 44, 45, 46, 47, 48, 49, 50, 51, 52, 53, 54, 55, 56, 57, 58, 59, 60, 61, 62, 63, 64, 65, 66, 67, 68, 69, 70, 71, 72, 73, 74, 75, 76, 77, 78, 79, 80, 81, 82, 83, 84, 85, 86, 87, 88, 89, 90, 91, 92, 93, 94, 95, 96, 97, 98, 99, 100, 101, 102, 103, 104, 105, 106, 107, 108, 109, 110, 111, 112, 113, 114, 115, 116, 117, 118, 119, 120, 121, 122, 123, 124, 125, 126, 127, 128, 129, 130, 131, 132, 133, 134, 135, 136, 137, 138, 139, 140, 141, 142, 143, 144, 145, 146, 147, 148, 149, 150, 151, 152, 153, 154, 155, 156, 157, 158, 159, 160, 161, 162, 163, 164, 165, 166, 167, 168, 169, 170, 171, 172, 173, 174, 175, 176, 177, 178, 179, 180, 181, 182, 183, 184, 185, 186, 187, 188, 189, 190],
      "LargestImagePixelValue": [41689, 40464, 39889, 39555, 39664, 39485, 39302, 39367, 38861, 39095, 38581, 38702, 38848, 38903, 38221, 38995, 38627, 39271, 39216, 39547, 39211, 39054, 38817, 38856, 38511, 39053, 38664, 38814, 39070, 38672, 39308, 38993, 38793, 38584, 38810, 38866, 39306, 38715, 39145, 39033, 38731, 39075, 38902, 39053, 38682, 38894, 39145, 38961, 38662, 38893, 38400, 38711, 38528, 39051, 39135, 38707, 38631, 38741, 38732, 38809, 38812, 38487, 38286, 38224, 38628, 38382, 39268, 39037, 38947, 38576, 38565, 38573, 38818, 38579, 39120, 38704, 38864, 38821, 38570, 38786, 38301, 38785, 38253, 38033, 38233, 38439, 38622, 38703, 39032, 39358, 38556, 38649, 38689, 38523, 38343, 38320, 38687, 38631, 38600, 38907, 38855, 38625, 38565, 38664, 38938, 39109, 38130, 38568, 38516, 38636, 38709, 38585, 39108, 38674, 38581, 38734, 38566, 38248, 38562, 38352, 38368, 37934, 38352, 38190, 38563, 38568, 38391, 38441, 37996, 38386, 38467, 38187, 38420, 38208, 38415, 38379, 38489, 38510, 38508, 38544, 38605, 38503, 38957, 38795, 39097, 38541, 38902, 38756, 38599, 38476, 38509, 38010, 38524, 38603, 38180, 38225, 38372, 38186, 38452, 38403, 38179, 38646, 38627, 38018, 37915, 38088, 37877, 38774, 38774, 38436, 38358, 38012, 38413, 38400, 38179, 38128, 38271, 38428, 38398, 38177, 38436, 38441, 38278, 38641, 37879, 37645, 38314, 37816, 37884, 37979],
      "WindowCenter": [10281.0, 10231.0, 10196.0, 10175.0, 10165.0, 10161.0, 10170.0, 10188.0, 10201.0, 10218.0, 10215.0, 10221.0, 10220.0, 10206.0, 10184.0, 10182.0, 10168.0, 10172.0, 10178.0, 10187.0, 10195.0, 10185.0, 10184.0, 10186.0, 10192.0, 10195.0, 10187.0, 10182.0, 10184.0, 10178.0, 10187.0, 10185.0, 10180.0, 10170.0, 10158.0, 10151.0, 10154.0, 10149.0, 10140.0, 10137.0, 10131.0, 10145.0, 10155.0, 10165.0, 10166.0, 10157.0, 10148.0, 10147.0, 10164.0, 10174.0, 10169.0, 10175.0, 10162.0, 10158.0, 10162.0, 10166.0, 10168.0, 10162.0, 10161.0, 10160.0, 10160.0, 10161.0, 10168.0, 10179.0, 10177.0, 10162.0, 10156.0, 10148.0, 10154.0, 10159.0, 10178.0, 10179.0, 10161.0, 10150.0, 10156.0, 10159.0, 10169.0, 10170.0, 10178.0, 10179.0, 10185.0, 10184.0, 10182.0, 10174.0, 10174.0, 10163.0, 10154.0, 10142.0, 10141.0, 10148.0, 10151.0, 10158.0, 10169.0, 10171.0, 10172.0, 10169.0, 10171.0, 10170.0, 10171.0, 10169.0, 10170.0, 10161.0, 10154.0, 10144.0, 10150.0, 10166.0, 10174.0, 10181.0, 10165.0, 10154.0, 10144.0, 10143.0, 10151.0, 10163.0, 10171.0, 10181.0, 10178.0, 10167.0, 10163.0, 10165.0, 10174.0, 10183.0, 10181.0, 10160.0, 10162.0, 10155.0, 10170.0, 10174.0, 10176.0, 10173.0, 10157.0, 10148.0, 10154.0, 10157.0, 10172.0, 10169.0, 10159.0, 10148.0, 10145.0, 10139.0, 10137.0, 10128.0, 10125.0, 10127.0, 10135.0, 10138.0, 10143.0, 10144.0, 10146.0, 10161.0, 10155.0, 10150.0, 10138.0, 10127.0, 10123.0, 10140.0, 10158.0, 10157.0, 10149.0, 10133.0, 10124.0, 10135.0, 10152.0, 10158.0, 10156.0, 10144.0, 10127.0, 10127.0, 10135.0, 10153.0, 10155.0, 10149.0, 10138.0, 10131.0, 10121.0, 10124.0, 10137.0, 10150.0, 10151.0, 10152.0, 10155.0, 10157.0, 10165.0, 10188.0, 10187.0, 10171.0, 10144.0, 10119.0, 10123.0, 10146.0],
      "WindowWidth": [21929.0, 21792.0, 21695.0, 21638.0, 21610.0, 21597.0, 21620.0, 21660.0, 21693.0, 21732.0, 21729.0, 21741.0, 21736.0, 21703.0, 21655.0, 21643.0, 21613.0, 21620.0, 21635.0, 21657.0, 21674.0, 21656.0, 21653.0, 21657.0, 21672.0, 21679.0, 21658.0, 21649.0, 21650.0, 21642.0, 21656.0, 21657.0, 21647.0, 21623.0, 21590.0, 21578.0, 21579.0, 21571.0, 21549.0, 21540.0, 21526.0, 21558.0, 21584.0, 21608.0, 21610.0, 21588.0, 21565.0, 21565.0, 21602.0, 21629.0, 21620.0, 21632.0, 21602.0, 21591.0, 21596.0, 21609.0, 21614.0, 21604.0, 21599.0, 21597.0, 21595.0, 21601.0, 21616.0, 21643.0, 21634.0, 21602.0, 21580.0, 21565.0, 21579.0, 21596.0, 21639.0, 21640.0, 21599.0, 21570.0, 21582.0, 21594.0, 21618.0, 21619.0, 21639.0, 21641.0, 21652.0, 21650.0, 21649.0, 21631.0, 21628.0, 21601.0, 21580.0, 21547.0, 21549.0, 21563.0, 21575.0, 21590.0, 21617.0, 21623.0, 21626.0, 21616.0, 21623.0, 21618.0, 21622.0, 21614.0, 21616.0, 21594.0, 21579.0, 21555.0, 21569.0, 21603.0, 21626.0, 21642.0, 21605.0, 21579.0, 21555.0, 21551.0, 21571.0, 21602.0, 21621.0, 21645.0, 21635.0, 21612.0, 21601.0, 21608.0, 21631.0, 21649.0, 21643.0, 21597.0, 21597.0, 21583.0, 21616.0, 21629.0, 21635.0, 21624.0, 21587.0, 21566.0, 21580.0, 21590.0, 21622.0, 21615.0, 21589.0, 21563.0, 21555.0, 21545.0, 21538.0, 21518.0, 21509.0, 21517.0, 21534.0, 21545.0, 21553.0, 21555.0, 21560.0, 21593.0, 21580.0, 21573.0, 21541.0, 21514.0, 21509.0, 21549.0, 21591.0, 21584.0, 21567.0, 21532.0, 21514.0, 21535.0, 21574.0, 21590.0, 21590.0, 21560.0, 21520.0, 21516.0, 21536.0, 21577.0, 21583.0, 21569.0, 21540.0, 21526.0, 21504.0, 21514.0, 21542.0, 21574.0, 21575.0, 21578.0, 21580.0, 21587.0, 21606.0, 21657.0, 21656.0, 21619.0, 21552.0, 21500.0, 21506.0, 21558.0]
    },
    "slices": {}
  }
}