{
  "AcquisitionMatrixPE": 104,
  "AcquisitionNumber": 1,
  "AcquisitionTime": "13:44:48.242500",
  "BandwidthPerPixelPhaseEncode": 17.17,
  "BaseResolution": 104,
  "BodyPartExamined": "BRAIN",
  "CoilString": "HC1-7;NC1_2",
  "ConsistencyInfo": "N4_VE11C_LATEST_20160120",
  "ConversionSoftware": "dcm2niix",
  "ConversionSoftwareVersion": "v1.0.20190902",
  "DerivedVendorReportedEchoSpacing": 0.000560011,
  "DeviceSerialNumber": "167006",
  "DwellTime": 2.1e-06,
  "EchoTime": 0.037,
  "EchoTrainLength": 104,
  "EffectiveEchoSpacing": 0.000560011,
  "FlipAngle": 52,
  "HeudiconvVersion": "0.10.0",
  "ImageComments": "Unaliased_MB4_PE3_LB",
  "ImageOrientationPatientDICOM": [0.999268, 0.034136, 0.0172437, -0.0287848, 0.968186, -0.248572],
  "ImageType": [
    "ORIGINAL",
    "PRIMARY",
    "M",
    "MB",
    "ND",
    "MOSAIC"
],
  "ImagingFrequency": 123.259,
  "InPlanePhaseEncodingDirectionDICOM": "COL",
  "InstitutionAddress": "Chemin_Queen-Mary_4565_Montreal_District_CA_H3W_1W5",
  "InstitutionName": "IUGM",
  "InstitutionalDepartmentName": "Department",
  "MRAcquisitionType": "2D",
  "MagneticFieldStrength": 3,
  "Manufacturer": "Siemens",
  "ManufacturersModelName": "Prisma_fit",
  "Modality": "MR",
  "MultibandAccelerationFactor": 4,
  "PartialFourier": 1,
  "PatientPosition": "HFS",
  "PercentPhaseFOV": 100,
  "PhaseEncodingDirection": "j",
  "PhaseEncodingSteps": 104,
  "PhaseResolution": 1,
  "PixelBandwidth": 2290,
  "ProcedureStepDescription": "memory_things",
  "ProtocolName": "func_task-things_run-4",
  "PulseSequenceDetails": "%CustomerSeq%_cmrr_mbep2d_bold",
  "ReceiveCoilActiveElements": "HC1-7;NC1,2",
  "ReceiveCoilName": "HeadNeck_64",
  "ReconMatrixPE": 104,
  "RepetitionTime": 1.49,
  "SAR": 0.0566244,
  "ScanOptions": "FS",
  "ScanningSequence": "EP",
  "SequenceName": "epfid2d1_104",
  "SequenceVariant": "SK_SS",
  "SeriesDescription": "func_task-things_run-4",
  "SeriesNumber": 19,
  "ShimSetting": [628, -7207, -8760, 716, 13, 4, 70, -23],
  "SliceThickness": 2,
  "SliceTiming": [0, 0.7825, 0.0975, 0.8825, 0.195, 0.98, 0.295, 1.0775, 0.3925, 1.175, 0.49, 1.2725, 0.5875, 1.3725, 0.685, 0, 0.7825, 0.0975, 0.8825, 0.195, 0.98, 0.295, 1.0775, 0.3925, 1.175, 0.49, 1.2725, 0.5875, 1.3725, 0.685, 0, 0.7825, 0.0975, 0.8825, 0.195, 0.98, 0.295, 1.0775, 0.3925, 1.175, 0.49, 1.2725, 0.5875, 1.3725, 0.685, 0, 0.7825, 0.0975, 0.8825, 0.195, 0.98, 0.295, 1.0775, 0.3925, 1.175, 0.49, 1.2725, 0.5875, 1.3725, 0.685],
  "SoftwareVersions": "syngo_MR_E11",
  "SpacingBetweenSlices": 2,
  "StationName": "MRC35049",
  "TaskName": "things",
  "TotalReadoutTime": 0.0576811,
  "TxRefAmp": 248.376,
  "WipMemBlock": "d1dc8405-27fe-4e9c-a352-348deef3d78d||Sequence: R016 ve11c/master r/e634e98; Dec 19 2017 11:00:25 by eja",
  "dcmmeta_affine": [
    [-1.9985368251800537, -0.057569585740566254, 0.05036061629652977, 109.9699478149414],
    [-0.06827206164598465, 1.9363714456558228, -0.4957869350910187, -70.93350982666016],
    [0.03448730334639549, 0.49714332818984985, 1.9369200468063354, -55.228050231933594],
    [0.0, 0.0, 0.0, 1.0]
],
  "dcmmeta_reorient_transform": [
    [0.0, -1.0, 0.0, 103.0],
    [1.0, 0.0, 0.0, 0.0],
    [0.0, 0.0, 1.0, 0.0],
    [0.0, 0.0, 0.0, 1.0]
],
  "dcmmeta_shape": [104, 104, 60, 190],
  "dcmmeta_slice_dim": 2,
  "dcmmeta_version": 0.6,
  "global": {
    "const": {
      "AcquisitionMatrix": [104, 0, 0, 104],
      "AngioFlag": "N",
      "BitsAllocated": 16,
      "BitsStored": 16,
      "BodyPartExamined": "BRAIN",
      "Columns": 832,
      "EchoNumbers": 1,
      "EchoTime": 37.0,
      "EchoTrainLength": 104,
      "FlipAngle": 52.0,
      "HighBit": 15,
      "ImageOrientationPatient": [0.99926842628605, 0.03413603226815, 0.01724365184045, -0.0287847936627, 0.96818570867189, -0.2485716580331],
      "ImagePositionPatient": [-810.55236221059, -858.20297447286, 164.38450068534],
      "ImageType": [
        "ORIGINAL",
        "PRIMARY",
        "M",
        "MB",
        "ND",
        "MOSAIC"
],
      "ImagedNucleus": "1H",
      "ImagingFrequency": 123.258889,
      "InPlanePhaseEncodingDirection": "COL",
      "MRAcquisitionType": "2D",
      "MagneticFieldStrength": 3.0,
      "Manufacturer": "SIEMENS",
      "ManufacturerModelName": "Prisma_fit",
      "Modality": "MR",
      "NumberOfAverages": 1.0,
      "NumberOfPhaseEncodingSteps": 104,
      "PercentPhaseFieldOfView": 100.0,
      "PercentSampling": 100.0,
      "PerformedProcedureStepStartTime": "123653.108000",
      "PhotometricInterpretation": "MONOCHROME2",
      "PixelBandwidth": 2290.0,
      "PixelRepresentation": 0,
      "PixelSpacing": [2.0, 2.0],
      "ProtocolName": "func_task-things_run-4",
      "RepetitionTime": 1490.0,
      "Rows": 832,
      "SAR": 0.05662440600189,
      "SamplesPerPixel": 1,
      "ScanOptions": "FS",
      "ScanningSequence": "EP",
      "SequenceName": "epfid2d1_104",
      "SequenceVariant": [
        "SK",
        "SS"
],
      "SeriesDescription": "func_task-things_run-4",
      "SeriesNumber": 19,
      "SeriesTime": "134602.511000",
      "SliceLocation": -33.133127550925,
      "SliceThickness": 2.0,
      "SmallestImagePixelValue": 0,
      "SoftwareVersions": "syngo MR E11",
      "SpacingBetweenSlices": 2.000000049507,
      "SpecificCharacterSet": "ISO_IR 100",
      "StudyID": "1",
      "StudyTime": "123652.913000",
      "TransmitCoilName": "Body",
      "VariableFlipAngleFlag": "N",
      "WindowCenterWidthExplanation": "Algo1",
      "dBdt": 0.0},
    "slices": {}
  },
  "time": {
    "samples": {
      "AcquisitionNumber": [1, 2, 3, 4, 5, 6, 7, 8, 9, 10, 11, 12, 13, 14, 15, 16, 17, 18, 19, 20, 21, 22, 23, 24, 25, 26, 27, 28, 29, 30, 31, 32, 33, 34, 35, 36, 37, 38, 39, 40, 41, 42, 43, 44, 45, 46, 47, 48, 49, 50, 51, 52, 53, 54, 55, 56, 57, 58, 59, 60, 61, 62, 63, 64, 65, 66, 67, 68, 69, 70, 71, 72, 73, 74, 75, 76, 77, 78, 79, 80, 81, 82, 83, 84, 85, 86, 87, 88, 89, 90, 91, 92, 93, 94, 95, 96, 97, 98, 99, 100, 101, 102, 103, 104, 105, 106, 107, 108, 109, 110, 111, 112, 113, 114, 115, 116, 117, 118, 119, 120, 121, 122, 123, 124, 125, 126, 127, 128, 129, 130, 131, 132, 133, 134, 135, 136, 137, 138, 139, 140, 141, 142, 143, 144, 145, 146, 147, 148, 149, 150, 151, 152, 153, 154, 155, 156, 157, 158, 159, 160, 161, 162, 163, 164, 165, 166, 167, 168, 169, 170, 171, 172, 173, 174, 175, 176, 177, 178, 179, 180, 181, 182, 183, 184, 185, 186, 187, 188, 189, 190],
      "AcquisitionTime": ["134448.242500", "134449.732500", "134451.222500", "134452.712500", "134454.202500", "134455.692500", "134457.182500", "134458.672500", "134500.162500", "134501.652500", "134503.142500", "134504.632500", "134506.122500", "134507.612500", "134509.102500", "134510.592500", "134512.082500", "134513.572500", "134515.062500", "134516.552500", "134518.042500", "134519.532500", "134521.022500", "134522.512500", "134524.002500", "134525.492500", "134526.982500", "134528.472500", "134529.962500", "134531.452500", "134532.942500", "134534.432500", "134535.922500", "134537.412500", "134538.902500", "134540.392500", "134541.882500", "134543.372500", "134544.862500", "134546.352500", "134547.842500", "134549.332500", "134550.822500", "134552.312500", "134553.802500", "134555.292500", "134556.782500", "134558.272500", "134559.762500", "134601.252500", "134602.742500", "134604.232500", "134605.722500", "134607.212500", "134608.702500", "134610.192500", "134611.682500", "134613.172500", "134614.662500", "134616.152500", "134617.642500", "134619.132500", "134620.622500", "134622.112500", "134623.602500", "134625.092500", "134626.582500", "134628.072500", "134629.562500", "134631.052500", "134632.542500", "134634.032500", "134635.522500", "134637.012500", "134638.502500", "134639.992500", "134641.482500", "134642.972500", "134644.462500", "134645.952500", "134647.442500", "134648.932500", "134650.422500", "134651.912500", "134653.402500", "134654.892500", "134656.382500", "134657.872500", "134659.362500", "134700.852500", "134702.342500", "134703.832500", "134705.322500", "134706.812500", "134708.302500", "134709.792500", "134711.282500", "134712.772500", "134714.262500", "134715.752500", "134717.242500", "134718.732500", "134720.222500", "134721.712500", "134723.202500", "134724.692500", "134726.182500", "134727.672500", "134729.162500", "134730.652500", "134732.142500", "134733.632500", "134735.122500", "134736.612500", "134738.102500", "134739.592500", "134741.082500", "134742.572500", "134744.062500", "134745.552500", "134747.042500", "134748.532500", "134750.022500", "134751.512500", "134753.002500", "134754.492500", "134755.982500", "134757.472500", "134758.962500", "134800.452500", "134801.942500", "134803.432500", "134804.922500", "134806.412500", "134807.902500", "134809.392500", "134810.882500", "134812.372500", "134813.862500", "134815.352500", "134816.842500", "134818.332500", "134819.822500", "134821.312500", "134822.802500", "134824.292500", "134825.782500", "134827.272500", "134828.762500", "134830.252500", "134831.742500", "134833.232500", "134834.722500", "134836.212500", "134837.702500", "134839.192500", "134840.682500", "134842.172500", "134843.662500", "134845.152500", "134846.642500", "134848.132500", "134849.622500", "134851.112500", "134852.602500", "134854.092500", "134855.582500", "134857.072500", "134858.562500", "134900.052500", "134901.542500", "134903.032500", "134904.522500", "134906.012500", "134907.502500", "134908.992500", "134910.482500", "134911.972500", "134913.462500", "134914.952500", "134916.442500", "134917.932500", "134919.422500", "134920.912500", "134922.402500", "134923.892500", "134925.382500", "134926.872500", "134928.362500", "134929.852500"],
      "ContentTime": ["134602.514000", "134602.517000", "134602.521000", "134602.532000", "134602.535000", "134602.538000", "134602.542000", "134602.550000", "134602.553000", "134602.556000", "134602.560000", "134602.563000", "134602.566000", "134602.570000", "134602.573000", "134602.576000", "134602.580000", "134602.583000", "134602.586000", "134602.589000", "134602.593000", "134622.481000", "134622.485000", "134622.488000", "134622.493000", "134622.497000", "134622.501000", "134622.504000", "134622.507000", "134622.511000", "134622.515000", "134622.518000", "134622.522000", "134622.525000", "134622.529000", "134622.532000", "134622.535000", "134622.539000", "134622.542000", "134622.545000", "134622.549000", "134642.482000", "134642.486000", "134642.489000", "134642.492000", "134642.495000", "134642.499000", "134642.502000", "134642.505000", "134642.508000", "134642.512000", "134642.515000", "134642.518000", "134642.521000", "134642.525000", "134642.528000", "134642.531000", "134642.534000", "134642.538000", "134642.541000", "134642.544000", "134642.548000", "134702.482000", "134702.486000", "134702.489000", "134702.492000", "134702.496000", "134702.499000", "134702.502000", "134702.505000", "134702.509000", "134702.512000", "134702.515000", "134702.519000", "134702.522000", "134702.525000", "134702.528000", "134702.531000", "134702.535000", "134702.538000", "134702.541000", "134702.545000", "134722.481000", "134722.505000", "134722.508000", "134722.511000", "134722.515000", "134722.518000", "134722.521000", "134722.525000", "134722.528000", "134722.531000", "134722.535000", "134722.538000", "134722.541000", "134722.544000", "134722.548000", "134722.551000", "134722.554000", "134722.558000", "134722.561000", "134722.564000", "134802.481000", "134802.485000", "134802.488000", "134802.491000", "134802.495000", "134802.498000", "134802.501000", "134802.504000", "134802.508000", "134802.511000", "134802.514000", "134802.518000", "134802.521000", "134802.524000", "134802.527000", "134802.530000", "134802.534000", "134802.537000", "134802.540000", "134802.544000", "134802.547000", "134802.550000", "134802.553000", "134802.557000", "134802.560000", "134802.563000", "134802.567000", "134802.570000", "134842.481000", "134842.485000", "134842.488000", "134842.491000", "134842.495000", "134842.498000", "134842.501000", "134842.505000", "134842.508000", "134842.511000", "134842.514000", "134842.518000", "134842.521000", "134842.524000", "134842.528000", "134842.531000", "134842.534000", "134842.538000", "134842.541000", "134842.544000", "134842.548000", "134842.559000", "134842.562000", "134842.566000", "134842.569000", "134842.572000", "134922.482000", "134922.486000", "134922.489000", "134922.492000", "134922.500000", "134922.503000", "134922.506000", "134922.510000", "134922.513000", "134922.516000", "134922.520000", "134922.523000", "134922.526000", "134922.530000", "134922.533000", "134922.536000", "134922.540000", "134922.543000", "134922.546000", "134922.550000", "134922.553000", "134922.556000", "134922.559000", "134922.563000", "134922.566000", "134922.569000", "134922.573000", "134931.768000", "134931.771000", "134931.775000", "134931.778000", "134931.781000", "134931.793000", "134931.797000"],
      "InstanceCreationTime": ["134602.514000", "134602.517000", "134602.521000", "134602.532000", "134602.535000", "134602.538000", "134602.542000", "134602.550000", "134602.553000", "134602.556000", "134602.560000", "134602.563000", "134602.566000", "134602.570000", "134602.573000", "134602.576000", "134602.580000", "134602.583000", "134602.586000", "134602.589000", "134602.593000", "134622.481000", "134622.485000", "134622.488000", "134622.493000", "134622.497000", "134622.501000", "134622.504000", "134622.507000", "134622.511000", "134622.515000", "134622.518000", "134622.522000", "134622.525000", "134622.529000", "134622.532000", "134622.535000", "134622.539000", "134622.542000", "134622.545000", "134622.549000", "134642.482000", "134642.486000", "134642.489000", "134642.492000", "134642.495000", "134642.499000", "134642.502000", "134642.505000", "134642.508000", "134642.512000", "134642.515000", "134642.518000", "134642.521000", "134642.525000", "134642.528000", "134642.531000", "134642.534000", "134642.538000", "134642.541000", "134642.544000", "134642.548000", "134702.482000", "134702.486000", "134702.489000", "134702.492000", "134702.496000", "134702.499000", "134702.502000", "134702.505000", "134702.509000", "134702.512000", "134702.515000", "134702.519000", "134702.522000", "134702.525000", "134702.528000", "134702.531000", "134702.535000", "134702.538000", "134702.541000", "134702.545000", "134722.481000", "134722.505000", "134722.508000", "134722.511000", "134722.515000", "134722.518000", "134722.521000", "134722.525000", "134722.528000", "134722.531000", "134722.535000", "134722.538000", "134722.541000", "134722.544000", "134722.548000", "134722.551000", "134722.554000", "134722.558000", "134722.561000", "134722.564000", "134802.481000", "134802.485000", "134802.488000", "134802.491000", "134802.495000", "134802.498000", "134802.501000", "134802.504000", "134802.508000", "134802.511000", "134802.514000", "134802.518000", "134802.521000", "134802.524000", "134802.527000", "134802.530000", "134802.534000", "134802.537000", "134802.540000", "134802.544000", "134802.547000", "134802.550000", "134802.553000", "134802.557000", "134802.560000", "134802.563000", "134802.567000", "134802.570000", "134842.481000", "134842.485000", "134842.488000", "134842.491000", "134842.495000", "134842.498000", "134842.501000", "134842.505000", "134842.508000", "134842.511000", "134842.514000", "134842.518000", "134842.521000", "134842.524000", "134842.528000", "134842.531000", "134842.534000", "134842.538000", "134842.541000", "134842.544000", "134842.548000", "134842.559000", "134842.562000", "134842.566000", "134842.569000", "134842.572000", "134922.482000", "134922.486000", "134922.489000", "134922.492000", "134922.500000", "134922.503000", "134922.506000", "134922.510000", "134922.513000", "134922.516000", "134922.520000", "134922.523000", "134922.526000", "134922.530000", "134922.533000", "134922.536000", "134922.540000", "134922.543000", "134922.546000", "134922.550000", "134922.553000", "134922.556000", "134922.559000", "134922.563000", "134922.566000", "134922.569000", "134922.573000", "134931.768000", "134931.771000", "134931.775000", "134931.778000", "134931.781000", "134931.793000", "134931.797000"],
      "InstanceNumber": [1, 2, 3, 4, 5, 6, 7, 8, 9, 10, 11, 12, 13, 14, 15, 16, 17, 18, 19, 20, 21, 22, 23, 24, 25, 26, 27, 28, 29, 30, 31, 32, 33, 34, 35, 36, 37, 38, 39, 40, 41, 42, 43, 44, 45, 46, 47, 48, 49, 50, 51, 52, 53, 54, 55, 56, 57, 58, 59, 60, 61, 62, 63, 64, 65, 66, 67, 68, 69, 70, 71, 72, 73, 74, 75, 76, 77, 78, 79, 80, 81, 82, 83, 84, 85, 86, 87, 88, 89, 90, 91, 92, 93, 94, 95, 96, 97, 98, 99, 100, 101, 102, 103, 104, 105, 106, 107, 108, 109, 110, 111, 112, 113, 114, 115, 116, 117, 118, 119, 120, 121, 122, 123, 124, 125, 126, 127, 128, 129, 130, 131, 132, 133, 134, 135, 136, 137, 138, 139, 140, 141, 142, 143, 144, 145, 146, 147, 148, 149, 150, 151, 152, 153, 154, 155, 156, 157, 158, 159, 160, 161, 162, 163, 164, 165, 166, 167, 168, 169, 170, 171, 172, 173, 174, 175, 176, 177, 178, 179, 180, 181, 182, 183, 184, 185, 186, 187, 188, 189, 190],
      "LargestImagePixelValue": [40652, 39607, 38869, 38099, 37663, 38029, 37839, 38086, 38160, 38048, 37703, 38082, 37676, 37524, 37105, 37470, 37806, 38520, 37633, 38168, 37465, 37813, 37770, 37818, 38103, 37913, 38334, 38034, 38070, 37998, 37967, 37715, 37701, 37646, 37293, 38029, 37945, 37925, 38154, 37743, 37808, 37772, 37648, 37680, 37888, 38062, 37954, 37613, 37535, 37672, 38206, 38041, 37889, 38078, 37691, 37755, 37851, 38157, 37451, 37581, 37495, 37428, 37723, 37895, 37838, 37470, 37681, 37462, 37590, 38006, 37694, 37639, 37219, 37979, 38214, 37841, 37605, 37876, 37881, 37701, 37252, 37413, 37499, 37491, 38234, 38075, 37540, 37563, 37432, 37514, 37691, 37583, 37415, 37901, 37647, 37834, 37534, 37696, 37506, 37618, 37353, 37479, 37201, 37185, 37025, 37758, 37532, 37769, 37705, 37364, 37401, 37999, 37522, 37921, 37250, 37312, 37373, 37296, 37656, 37864, 37595, 37138, 37233, 37660, 37603, 37643, 37438, 36920, 37542, 37799, 37271, 37384, 37416, 37183, 37432, 37028, 37038, 37336, 37342, 37263, 37555, 37429, 37447, 37397, 37411, 37151, 37268, 37119, 37418, 37164, 37450, 36952, 37181, 37326, 37461, 37402, 37136, 37041, 37127, 37174, 37436, 37507, 37475, 37301, 37105, 37139, 36884, 37257, 37149, 36863, 37053, 37501, 37385, 37300, 37588, 37311, 37207, 37123, 36844, 36977, 37171, 37260, 37467, 36933, 37077, 37147, 36874, 37063, 37001, 37361],
      "WindowCenter": [10176.0, 10147.0, 10129.0, 10117.0, 10098.0, 10093.0, 10086.0, 10084.0, 10091.0, 10094.0, 10102.0, 10111.0, 10119.0, 10123.0, 10110.0, 10090.0, 10076.0, 10090.0, 10094.0, 10108.0, 10087.0, 10084.0, 10077.0, 10086.0, 10083.0, 10076.0, 10073.0, 10073.0, 10083.0, 10090.0, 10099.0, 10095.0, 10095.0, 10085.0, 10071.0, 10081.0, 10081.0, 10083.0, 10084.0, 10077.0, 10093.0, 10094.0, 10095.0, 10085.0, 10078.0, 10091.0, 10100.0, 10089.0, 10074.0, 10075.0, 10088.0, 10102.0, 10102.0, 10094.0, 10069.0, 10051.0, 10040.0, 10063.0, 10084.0, 10103.0, 10105.0, 10105.0, 10095.0, 10087.0, 10102.0, 10107.0, 10089.0, 10073.0, 10068.0, 10072.0, 10090.0, 10119.0, 10118.0, 10121.0, 10095.0, 10067.0, 10051.0, 10057.0, 10091.0, 10111.0, 10102.0, 10081.0, 10061.0, 10050.0, 10061.0, 10087.0, 10097.0, 10098.0, 10089.0, 10079.0, 10068.0, 10068.0, 10076.0, 10085.0, 10095.0, 10103.0, 10104.0, 10105.0, 10114.0, 10122.0, 10133.0, 10134.0, 10109.0, 10090.0, 10073.0, 10077.0, 10078.0, 10088.0, 10095.0, 10075.0, 10071.0, 10068.0, 10071.0, 10084.0, 10081.0, 10079.0, 10080.0, 10089.0, 10102.0, 10105.0, 10116.0, 10098.0, 10081.0, 10084.0, 10094.0, 10106.0, 10100.0, 10083.0, 10065.0, 10077.0, 10081.0, 10097.0, 10091.0, 10080.0, 10078.0, 10074.0, 10088.0, 10089.0, 10080.0, 10074.0, 10088.0, 10095.0, 10096.0, 10091.0, 10096.0, 10097.0, 10097.0, 10097.0, 10106.0, 10116.0, 10116.0, 10094.0, 10067.0, 10061.0, 10052.0, 10060.0, 10079.0, 10097.0, 10091.0, 10073.0, 10062.0, 10059.0, 10067.0, 10078.0, 10082.0, 10089.0, 10092.0, 10100.0, 10102.0, 10091.0, 10091.0, 10097.0, 10091.0, 10081.0, 10078.0, 10078.0, 10082.0, 10082.0, 10092.0, 10092.0, 10090.0, 10081.0, 10080.0, 10067.0, 10065.0, 10070.0, 10075.0, 10072.0, 10056.0, 10060.0],
      "WindowWidth": [21670.0, 21581.0, 21531.0, 21498.0, 21451.0, 21435.0, 21417.0, 21412.0, 21427.0, 21439.0, 21454.0, 21477.0, 21496.0, 21508.0, 21478.0, 21429.0, 21394.0, 21423.0, 21436.0, 21466.0, 21420.0, 21411.0, 21395.0, 21415.0, 21407.0, 21393.0, 21385.0, 21384.0, 21408.0, 21425.0, 21444.0, 21440.0, 21438.0, 21412.0, 21383.0, 21399.0, 21403.0, 21408.0, 21413.0, 21398.0, 21433.0, 21435.0, 21434.0, 21410.0, 21397.0, 21423.0, 21446.0, 21427.0, 21392.0, 21390.0, 21417.0, 21454.0, 21453.0, 21435.0, 21376.0, 21334.0, 21311.0, 21364.0, 21414.0, 21459.0, 21465.0, 21463.0, 21437.0, 21421.0, 21454.0, 21468.0, 21424.0, 21387.0, 21374.0, 21382.0, 21425.0, 21492.0, 21496.0, 21493.0, 21432.0, 21368.0, 21334.0, 21350.0, 21427.0, 21474.0, 21456.0, 21406.0, 21358.0, 21334.0, 21356.0, 21416.0, 21445.0, 21446.0, 21424.0, 21398.0, 21373.0, 21374.0, 21393.0, 21415.0, 21438.0, 21456.0, 21458.0, 21461.0, 21482.0, 21501.0, 21528.0, 21528.0, 21470.0, 21425.0, 21386.0, 21394.0, 21398.0, 21421.0, 21434.0, 21392.0, 21379.0, 21373.0, 21383.0, 21409.0, 21408.0, 21402.0, 21405.0, 21423.0, 21452.0, 21460.0, 21486.0, 21445.0, 21405.0, 21405.0, 21433.0, 21462.0, 21449.0, 21409.0, 21368.0, 21393.0, 21407.0, 21441.0, 21428.0, 21401.0, 21393.0, 21389.0, 21421.0, 21423.0, 21404.0, 21391.0, 21422.0, 21436.0, 21439.0, 21430.0, 21439.0, 21442.0, 21444.0, 21443.0, 21464.0, 21488.0, 21486.0, 21437.0, 21376.0, 21357.0, 21339.0, 21359.0, 21402.0, 21444.0, 21429.0, 21386.0, 21358.0, 21353.0, 21372.0, 21400.0, 21411.0, 21426.0, 21435.0, 21453.0, 21456.0, 21431.0, 21431.0, 21442.0, 21429.0, 21405.0, 21396.0, 21396.0, 21411.0, 21408.0, 21433.0, 21432.0, 21426.0, 21404.0, 21401.0, 21376.0, 21369.0, 21379.0, 21394.0, 21383.0, 21347.0, 21354.0]
    },
    "slices": {}
  }
}