{
  "AcquisitionMatrixPE": 104,
  "AcquisitionNumber": 1,
  "AcquisitionTime": "13:32:25.805000",
  "BandwidthPerPixelPhaseEncode": 17.17,
  "BaseResolution": 104,
  "BodyPartExamined": "BRAIN",
  "CoilString": "HC1-7;NC1_2",
  "ConsistencyInfo": "N4_VE11C_LATEST_20160120",
  "ConversionSoftware": "dcm2niix",
  "ConversionSoftwareVersion": "v1.0.20190902",
  "DerivedVendorReportedEchoSpacing": 0.000560011,
  "DeviceSerialNumber": "167006",
  "DwellTime": 2.1e-06,
  "EchoTime": 0.037,
  "EchoTrainLength": 104,
  "EffectiveEchoSpacing": 0.000560011,
  "FlipAngle": 52,
  "HeudiconvVersion": "0.10.0",
  "ImageComments": "Unaliased_MB4_PE3_LB",
  "ImageOrientationPatientDICOM": [0.999268, 0.034136, 0.0172437, -0.0287848, 0.968186, -0.248572],
  "ImageType": [
    "ORIGINAL",
    "PRIMARY",
    "P",
    "MB",
    "ND",
    "MOSAIC"
],
  "ImagingFrequency": 123.259,
  "InPlanePhaseEncodingDirectionDICOM": "COL",
  "InstitutionAddress": "Chemin_Queen-Mary_4565_Montreal_District_CA_H3W_1W5",
  "InstitutionName": "IUGM",
  "InstitutionalDepartmentName": "Department",
  "MRAcquisitionType": "2D",
  "MagneticFieldStrength": 3,
  "Manufacturer": "Siemens",
  "ManufacturersModelName": "Prisma_fit",
  "Modality": "MR",
  "MultibandAccelerationFactor": 4,
  "PartialFourier": 1,
  "PatientPosition": "HFS",
  "PercentPhaseFOV": 100,
  "PhaseEncodingDirection": "j",
  "PhaseEncodingSteps": 104,
  "PhaseResolution": 1,
  "PixelBandwidth": 2290,
  "ProcedureStepDescription": "memory_things",
  "ProtocolName": "func_task-things_run-2",
  "PulseSequenceDetails": "%CustomerSeq%_cmrr_mbep2d_bold",
  "ReceiveCoilActiveElements": "HC1-7;NC1,2",
  "ReceiveCoilName": "HeadNeck_64",
  "ReconMatrixPE": 104,
  "RepetitionTime": 1.49,
  "SAR": 0.0566244,
  "ScanOptions": "FS",
  "ScanningSequence": "EP",
  "SequenceName": "epfid2d1_104",
  "SequenceVariant": "SK_SS",
  "SeriesDescription": "func_task-things_run-2",
  "SeriesNumber": 14,
  "ShimSetting": [628, -7207, -8760, 716, 13, 4, 70, -23],
  "SliceThickness": 2,
  "SliceTiming": [0, 0.7825, 0.0975, 0.88, 0.195, 0.98, 0.2925, 1.0775, 0.3925, 1.175, 0.49, 1.2725, 0.5875, 1.37, 0.685, 0, 0.7825, 0.0975, 0.88, 0.195, 0.98, 0.2925, 1.0775, 0.3925, 1.175, 0.49, 1.2725, 0.5875, 1.37, 0.685, 0, 0.7825, 0.0975, 0.88, 0.195, 0.98, 0.2925, 1.0775, 0.3925, 1.175, 0.49, 1.2725, 0.5875, 1.37, 0.685, 0, 0.7825, 0.0975, 0.88, 0.195, 0.98, 0.2925, 1.0775, 0.3925, 1.175, 0.49, 1.2725, 0.5875, 1.37, 0.685],
  "SoftwareVersions": "syngo_MR_E11",
  "SpacingBetweenSlices": 2,
  "StationName": "MRC35049",
  "TaskName": "things",
  "TotalReadoutTime": 0.0576811,
  "TxRefAmp": 248.376,
  "WipMemBlock": "10d8437b-33de-4d4c-a2a3-62cf88587671||Sequence: R016 ve11c/master r/e634e98; Dec 19 2017 11:00:25 by eja",
  "dcmmeta_affine": [
    [-1.9985368251800537, -0.057569585740566254, 0.05036061629652977, 109.9699478149414],
    [-0.06827206164598465, 1.9363714456558228, -0.4957869350910187, -70.93350982666016],
    [0.03448730334639549, 0.49714332818984985, 1.9369200468063354, -55.228050231933594],
    [0.0, 0.0, 0.0, 1.0]
],
  "dcmmeta_reorient_transform": [
    [0.0, -1.0, 0.0, 103.0],
    [1.0, 0.0, 0.0, 0.0],
    [0.0, 0.0, 1.0, 0.0],
    [0.0, 0.0, 0.0, 1.0]
],
  "dcmmeta_shape": [104, 104, 60, 190],
  "dcmmeta_slice_dim": 2,
  "dcmmeta_version": 0.6,
  "global": {
    "const": {
      "AcquisitionMatrix": [104, 0, 0, 104],
      "AngioFlag": "N",
      "BitsAllocated": 16,
      "BitsStored": 16,
      "BodyPartExamined": "BRAIN",
      "Columns": 832,
      "EchoNumbers": 1,
      "EchoTime": 37.0,
      "EchoTrainLength": 104,
      "FlipAngle": 52.0,
      "HighBit": 15,
      "ImageOrientationPatient": [0.99926842628605, 0.03413603226815, 0.01724365184045, -0.0287847936627, 0.96818570867189, -0.2485716580331],
      "ImagePositionPatient": [-810.55236221059, -858.20297447286, 164.38450068534],
      "ImageType": [
        "ORIGINAL",
        "PRIMARY",
        "P",
        "MB",
        "ND",
        "MOSAIC"
],
      "ImagedNucleus": "1H",
      "ImagingFrequency": 123.258883,
      "InPlanePhaseEncodingDirection": "COL",
      "LargestImagePixelValue": 4095,
      "MRAcquisitionType": "2D",
      "MagneticFieldStrength": 3.0,
      "Manufacturer": "SIEMENS",
      "ManufacturerModelName": "Prisma_fit",
      "Modality": "MR",
      "NumberOfAverages": 1.0,
      "NumberOfPhaseEncodingSteps": 104,
      "PercentPhaseFieldOfView": 100.0,
      "PercentSampling": 100.0,
      "PerformedProcedureStepStartTime": "123653.108000",
      "PhotometricInterpretation": "MONOCHROME2",
      "PixelBandwidth": 2290.0,
      "PixelRepresentation": 0,
      "PixelSpacing": [2.0, 2.0],
      "ProtocolName": "func_task-things_run-2",
      "RepetitionTime": 1490.0,
      "RescaleIntercept": -4096.0,
      "RescaleSlope": 2.0,
      "RescaleType": "US",
      "Rows": 832,
      "SAR": 0.05662440600189,
      "SamplesPerPixel": 1,
      "ScanOptions": "FS",
      "ScanningSequence": "EP",
      "SequenceName": "epfid2d1_104",
      "SequenceVariant": [
        "SK",
        "SS"
],
      "SeriesDescription": "func_task-things_run-2",
      "SeriesNumber": 14,
      "SeriesTime": "133332.960000",
      "SliceLocation": -33.133127550925,
      "SliceThickness": 2.0,
      "SmallestImagePixelValue": 0,
      "SoftwareVersions": "syngo MR E11",
      "SpacingBetweenSlices": 2.000000049507,
      "SpecificCharacterSet": "ISO_IR 100",
      "StudyID": "1",
      "StudyTime": "123652.913000",
      "TransmitCoilName": "Body",
      "VariableFlipAngleFlag": "N",
      "WindowCenterWidthExplanation": "Algo1",
      "dBdt": 0.0},
    "slices": {}
  },
  "time": {
    "samples": {
      "AcquisitionNumber": [1, 2, 3, 4, 5, 6, 7, 8, 9, 10, 11, 12, 13, 14, 15, 16, 17, 18, 19, 20, 21, 22, 23, 24, 25, 26, 27, 28, 29, 30, 31, 32, 33, 34, 35, 36, 37, 38, 39, 40, 41, 42, 43, 44, 45, 46, 47, 48, 49, 50, 51, 52, 53, 54, 55, 56, 57, 58, 59, 60, 61, 62, 63, 64, 65, 66, 67, 68, 69, 70, 71, 72, 73, 74, 75, 76, 77, 78, 79, 80, 81, 82, 83, 84, 85, 86, 87, 88, 89, 90, 91, 92, 93, 94, 95, 96, 97, 98, 99, 100, 101, 102, 103, 104, 105, 106, 107, 108, 109, 110, 111, 112, 113, 114, 115, 116, 117, 118, 119, 120, 121, 122, 123, 124, 125, 126, 127, 128, 129, 130, 131, 132, 133, 134, 135, 136, 137, 138, 139, 140, 141, 142, 143, 144, 145, 146, 147, 148, 149, 150, 151, 152, 153, 154, 155, 156, 157, 158, 159, 160, 161, 162, 163, 164, 165, 166, 167, 168, 169, 170, 171, 172, 173, 174, 175, 176, 177, 178, 179, 180, 181, 182, 183, 184, 185, 186, 187, 188, 189, 190],
      "AcquisitionTime": ["133225.805000", "133227.295000", "133228.785000", "133230.275000", "133231.765000", "133233.255000", "133234.745000", "133236.235000", "133237.725000", "133239.215000", "133240.705000", "133242.195000", "133243.685000", "133245.175000", "133246.665000", "133248.155000", "133249.645000", "133251.135000", "133252.625000", "133254.115000", "133255.605000", "133257.095000", "133258.585000", "133300.075000", "133301.565000", "133303.055000", "133304.545000", "133306.035000", "133307.525000", "133309.015000", "133310.505000", "133311.995000", "133313.485000", "133314.975000", "133316.465000", "133317.955000", "133319.445000", "133320.935000", "133322.425000", "133323.915000", "133325.405000", "133326.895000", "133328.385000", "133329.875000", "133331.365000", "133332.855000", "133334.345000", "133335.835000", "133337.325000", "133338.815000", "133340.305000", "133341.795000", "133343.285000", "133344.775000", "133346.265000", "133347.755000", "133349.245000", "133350.735000", "133352.225000", "133353.715000", "133355.205000", "133356.695000", "133358.185000", "133359.675000", "133401.165000", "133402.655000", "133404.145000", "133405.635000", "133407.125000", "133408.615000", "133410.105000", "133411.595000", "133413.085000", "133414.575000", "133416.065000", "133417.555000", "133419.045000", "133420.535000", "133422.025000", "133423.515000", "133425.005000", "133426.495000", "133427.985000", "133429.475000", "133430.965000", "133432.455000", "133433.945000", "133435.435000", "133436.925000", "133438.415000", "133439.905000", "133441.395000", "133442.885000", "133444.375000", "133445.865000", "133447.355000", "133448.845000", "133450.335000", "133451.825000", "133453.315000", "133454.805000", "133456.295000", "133457.785000", "133459.275000", "133500.765000", "133502.255000", "133503.745000", "133505.235000", "133506.725000", "133508.215000", "133509.705000", "133511.195000", "133512.685000", "133514.175000", "133515.665000", "133517.155000", "133518.645000", "133520.135000", "133521.625000", "133523.115000", "133524.605000", "133526.095000", "133527.585000", "133529.075000", "133530.565000", "133532.055000", "133533.545000", "133535.035000", "133536.525000", "133538.015000", "133539.505000", "133540.995000", "133542.485000", "133543.975000", "133545.465000", "133546.955000", "133548.445000", "133549.935000", "133551.425000", "133552.915000", "133554.405000", "133555.895000", "133557.385000", "133558.875000", "133600.365000", "133601.855000", "133603.345000", "133604.835000", "133606.325000", "133607.815000", "133609.305000", "133610.795000", "133612.285000", "133613.775000", "133615.265000", "133616.755000", "133618.245000", "133619.735000", "133621.225000", "133622.715000", "133624.205000", "133625.695000", "133627.185000", "133628.675000", "133630.165000", "133631.655000", "133633.145000", "133634.635000", "133636.125000", "133637.615000", "133639.105000", "133640.595000", "133642.085000", "133643.575000", "133645.065000", "133646.555000", "133648.045000", "133649.535000", "133651.025000", "133652.515000", "133654.005000", "133655.495000", "133656.985000", "133658.475000", "133659.965000", "133701.455000", "133702.945000", "133704.435000", "133705.925000", "133707.415000"],
      "ContentTime": ["133332.962000", "133332.965000", "133332.968000", "133332.977000", "133332.979000", "133332.982000", "133332.984000", "133332.987000", "133332.989000", "133332.992000", "133332.994000", "133332.996000", "133333.000000", "133333.002000", "133352.932000", "133352.935000", "133352.937000", "133352.940000", "133352.942000", "133352.945000", "133352.953000", "133352.955000", "133352.958000", "133352.960000", "133352.963000", "133352.966000", "133352.968000", "133352.970000", "133352.973000", "133352.975000", "133352.978000", "133352.980000", "133352.983000", "133352.985000", "133412.927000", "133412.929000", "133412.932000", "133412.934000", "133412.937000", "133412.939000", "133412.945000", "133412.947000", "133412.950000", "133412.952000", "133412.955000", "133412.957000", "133412.960000", "133412.962000", "133412.965000", "133412.967000", "133412.970000", "133412.972000", "133412.975000", "133412.977000", "133432.931000", "133432.934000", "133432.937000", "133432.939000", "133432.942000", "133432.944000", "133432.947000", "133432.949000", "133432.952000", "133432.954000", "133432.957000", "133432.959000", "133432.962000", "133432.964000", "133432.967000", "133432.969000", "133432.972000", "133432.974000", "133432.976000", "133432.979000", "133452.953000", "133452.956000", "133452.958000", "133452.961000", "133452.963000", "133452.966000", "133452.968000", "133452.971000", "133452.973000", "133452.976000", "133452.978000", "133452.981000", "133452.983000", "133452.985000", "133452.988000", "133452.990000", "133452.993000", "133452.995000", "133452.998000", "133453.001000", "133453.004000", "133532.967000", "133532.970000", "133532.972000", "133532.975000", "133532.977000", "133532.980000", "133532.982000", "133532.984000", "133532.987000", "133532.989000", "133532.992000", "133532.994000", "133532.997000", "133533.000000", "133533.003000", "133533.005000", "133533.008000", "133533.010000", "133533.013000", "133533.015000", "133533.018000", "133533.020000", "133533.023000", "133533.025000", "133533.028000", "133533.030000", "133533.033000", "133533.035000", "133533.038000", "133612.958000", "133612.961000", "133612.964000", "133612.966000", "133612.969000", "133612.971000", "133612.973000", "133612.976000", "133612.979000", "133612.981000", "133612.983000", "133612.986000", "133612.988000", "133612.991000", "133612.993000", "133612.996000", "133612.998000", "133613.001000", "133613.003000", "133613.006000", "133613.009000", "133613.012000", "133613.014000", "133613.017000", "133613.019000", "133613.022000", "133613.024000", "133653.383000", "133653.386000", "133653.388000", "133653.391000", "133653.394000", "133653.396000", "133653.399000", "133653.401000", "133653.404000", "133653.406000", "133653.409000", "133653.411000", "133653.414000", "133653.416000", "133653.419000", "133653.421000", "133653.424000", "133653.426000", "133653.429000", "133653.431000", "133653.434000", "133653.436000", "133653.439000", "133653.441000", "133653.444000", "133653.446000", "133653.449000", "133709.964000", "133709.966000", "133709.969000", "133709.972000", "133709.975000", "133709.977000", "133709.991000", "133709.994000", "133709.997000", "133710.001000", "133710.004000", "133710.007000"],
      "InstanceCreationTime": ["133332.962000", "133332.965000", "133332.968000", "133332.977000", "133332.979000", "133332.982000", "133332.984000", "133332.987000", "133332.989000", "133332.992000", "133332.994000", "133332.996000", "133333.000000", "133333.002000", "133352.932000", "133352.935000", "133352.937000", "133352.940000", "133352.942000", "133352.945000", "133352.953000", "133352.955000", "133352.958000", "133352.960000", "133352.963000", "133352.966000", "133352.968000", "133352.970000", "133352.973000", "133352.975000", "133352.978000", "133352.980000", "133352.983000", "133352.985000", "133412.927000", "133412.929000", "133412.932000", "133412.934000", "133412.937000", "133412.939000", "133412.945000", "133412.947000", "133412.950000", "133412.952000", "133412.955000", "133412.957000", "133412.960000", "133412.962000", "133412.965000", "133412.967000", "133412.970000", "133412.972000", "133412.975000", "133412.977000", "133432.931000", "133432.934000", "133432.937000", "133432.939000", "133432.942000", "133432.944000", "133432.947000", "133432.949000", "133432.952000", "133432.954000", "133432.957000", "133432.959000", "133432.962000", "133432.964000", "133432.967000", "133432.969000", "133432.972000", "133432.974000", "133432.976000", "133432.979000", "133452.953000", "133452.956000", "133452.958000", "133452.961000", "133452.963000", "133452.966000", "133452.968000", "133452.971000", "133452.973000", "133452.976000", "133452.978000", "133452.981000", "133452.983000", "133452.985000", "133452.988000", "133452.990000", "133452.993000", "133452.995000", "133452.998000", "133453.001000", "133453.004000", "133532.967000", "133532.970000", "133532.972000", "133532.975000", "133532.977000", "133532.980000", "133532.982000", "133532.984000", "133532.987000", "133532.989000", "133532.992000", "133532.994000", "133532.997000", "133533.000000", "133533.003000", "133533.005000", "133533.008000", "133533.010000", "133533.013000", "133533.015000", "133533.018000", "133533.020000", "133533.023000", "133533.025000", "133533.028000", "133533.030000", "133533.033000", "133533.035000", "133533.038000", "133612.958000", "133612.961000", "133612.964000", "133612.966000", "133612.969000", "133612.971000", "133612.973000", "133612.976000", "133612.979000", "133612.981000", "133612.983000", "133612.986000", "133612.988000", "133612.991000", "133612.993000", "133612.996000", "133612.998000", "133613.001000", "133613.003000", "133613.006000", "133613.009000", "133613.012000", "133613.014000", "133613.017000", "133613.019000", "133613.022000", "133613.024000", "133653.383000", "133653.386000", "133653.388000", "133653.391000", "133653.394000", "133653.396000", "133653.399000", "133653.401000", "133653.404000", "133653.406000", "133653.409000", "133653.411000", "133653.414000", "133653.416000", "133653.419000", "133653.421000", "133653.424000", "133653.426000", "133653.429000", "133653.431000", "133653.434000", "133653.436000", "133653.439000", "133653.441000", "133653.444000", "133653.446000", "133653.449000", "133709.964000", "133709.966000", "133709.969000", "133709.972000", "133709.975000", "133709.977000", "133709.991000", "133709.994000", "133709.997000", "133710.001000", "133710.004000", "133710.007000"],
      "InstanceNumber": [1, 2, 3, 4, 5, 6, 7, 8, 9, 10, 11, 12, 13, 14, 15, 16, 17, 18, 19, 20, 21, 22, 23, 24, 25, 26, 27, 28, 29, 30, 31, 32, 33, 34, 35, 36, 37, 38, 39, 40, 41, 42, 43, 44, 45, 46, 47, 48, 49, 50, 51, 52, 53, 54, 55, 56, 57, 58, 59, 60, 61, 62, 63, 64, 65, 66, 67, 68, 69, 70, 71, 72, 73, 74, 75, 76, 77, 78, 79, 80, 81, 82, 83, 84, 85, 86, 87, 88, 89, 90, 91, 92, 93, 94, 95, 96, 97, 98, 99, 100, 101, 102, 103, 104, 105, 106, 107, 108, 109, 110, 111, 112, 113, 114, 115, 116, 117, 118, 119, 120, 121, 122, 123, 124, 125, 126, 127, 128, 129, 130, 131, 132, 133, 134, 135, 136, 137, 138, 139, 140, 141, 142, 143, 144, 145, 146, 147, 148, 149, 150, 151, 152, 153, 154, 155, 156, 157, 158, 159, 160, 161, 162, 163, 164, 165, 166, 167, 168, 169, 170, 171, 172, 173, 174, 175, 176, 177, 178, 179, 180, 181, 182, 183, 184, 185, 186, 187, 188, 189, 190],
      "WindowCenter": [4758.0, 4760.0, 4760.0, 4760.0, 4762.0, 4766.0, 4762.0, 4762.0, 4762.0, 4762.0, 4760.0, 4760.0, 4758.0, 4760.0, 4758.0, 4762.0, 4760.0, 4758.0, 4760.0, 4760.0, 4762.0, 4758.0, 4760.0, 4762.0, 4758.0, 4762.0, 4760.0, 4762.0, 4758.0, 4764.0, 4764.0, 4762.0, 4760.0, 4762.0, 4762.0, 4756.0, 4758.0, 4760.0, 4762.0, 4762.0, 4760.0, 4788.0, 4764.0, 4762.0, 4760.0, 4764.0, 4760.0, 4764.0, 4760.0, 4762.0, 4760.0, 4764.0, 4762.0, 4786.0, 4762.0, 4760.0, 4760.0, 4762.0, 4762.0, 4756.0, 4762.0, 4766.0, 4764.0, 4760.0, 4764.0, 4762.0, 4762.0, 4764.0, 4760.0, 4764.0, 4762.0, 4762.0, 4760.0, 4762.0, 4762.0, 4762.0, 4764.0, 4762.0, 4764.0, 4762.0, 4760.0, 4762.0, 4760.0, 4760.0, 4762.0, 4768.0, 4766.0, 4756.0, 4760.0, 4762.0, 4760.0, 4762.0, 4760.0, 4760.0, 4760.0, 4760.0, 4762.0, 4758.0, 4762.0, 4762.0, 4764.0, 4762.0, 4764.0, 4764.0, 4760.0, 4760.0, 4762.0, 4764.0, 4764.0, 4764.0, 4762.0, 4762.0, 4764.0, 4760.0, 4762.0, 4760.0, 4766.0, 4762.0, 4766.0, 4760.0, 4768.0, 4786.0, 4764.0, 4760.0, 4758.0, 4762.0, 4758.0, 4766.0, 4762.0, 4764.0, 4764.0, 4764.0, 4760.0, 4764.0, 4762.0, 4762.0, 4760.0, 4762.0, 4760.0, 4764.0, 4760.0, 4762.0, 4764.0, 4764.0, 4762.0, 4762.0, 4764.0, 4764.0, 4766.0, 4764.0, 4762.0, 4762.0, 4762.0, 4762.0, 4760.0, 4758.0, 4762.0, 4762.0, 4758.0, 4764.0, 4762.0, 4764.0, 4760.0, 4764.0, 4762.0, 4764.0, 4764.0, 4760.0, 4760.0, 4764.0, 4764.0, 4764.0, 4762.0, 4764.0, 4760.0, 4766.0, 4760.0, 4760.0, 4762.0, 4762.0, 4762.0, 4764.0, 4762.0, 4762.0, 4764.0, 4764.0, 4764.0, 4760.0, 4784.0, 4762.0],
      "WindowWidth": [18528.0, 18528.0, 18528.0, 18528.0, 18528.0, 18532.0, 18528.0, 18530.0, 18528.0, 18528.0, 18528.0, 18526.0, 18528.0, 18528.0, 18532.0, 18528.0, 18528.0, 18528.0, 18526.0, 18528.0, 18534.0, 18530.0, 18526.0, 18528.0, 18530.0, 18526.0, 18528.0, 18528.0, 18524.0, 18530.0, 18526.0, 18530.0, 18530.0, 18528.0, 18528.0, 18522.0, 18528.0, 18526.0, 18534.0, 18524.0, 18526.0, 18558.0, 18532.0, 18526.0, 18530.0, 18530.0, 18532.0, 18530.0, 18532.0, 18528.0, 18524.0, 18532.0, 18528.0, 18560.0, 18522.0, 18524.0, 18524.0, 18528.0, 18532.0, 18526.0, 18528.0, 18526.0, 18528.0, 18524.0, 18530.0, 18532.0, 18528.0, 18528.0, 18524.0, 18528.0, 18524.0, 18530.0, 18526.0, 18530.0, 18526.0, 18532.0, 18530.0, 18534.0, 18526.0, 18534.0, 18524.0, 18530.0, 18530.0, 18526.0, 18524.0, 18534.0, 18530.0, 18524.0, 18528.0, 18524.0, 18524.0, 18528.0, 18526.0, 18526.0, 18520.0, 18528.0, 18526.0, 18528.0, 18528.0, 18528.0, 18526.0, 18534.0, 18530.0, 18524.0, 18530.0, 18528.0, 18534.0, 18532.0, 18528.0, 18530.0, 18530.0, 18526.0, 18532.0, 18528.0, 18526.0, 18524.0, 18530.0, 18530.0, 18528.0, 18524.0, 18530.0, 18562.0, 18530.0, 18522.0, 18522.0, 18528.0, 18530.0, 18526.0, 18526.0, 18528.0, 18534.0, 18528.0, 18528.0, 18528.0, 18530.0, 18530.0, 18528.0, 18526.0, 18528.0, 18530.0, 18522.0, 18526.0, 18530.0, 18530.0, 18532.0, 18520.0, 18534.0, 18528.0, 18532.0, 18532.0, 18526.0, 18524.0, 18526.0, 18530.0, 18528.0, 18524.0, 18532.0, 18528.0, 18526.0, 18526.0, 18528.0, 18530.0, 18526.0, 18526.0, 18528.0, 18524.0, 18530.0, 18524.0, 18528.0, 18524.0, 18532.0, 18524.0, 18526.0, 18528.0, 18524.0, 18526.0, 18524.0, 18528.0, 18528.0, 18532.0, 18528.0, 18524.0, 18528.0, 18524.0, 18528.0, 18524.0, 18534.0, 18524.0, 18558.0, 18530.0]
    },
    "slices": {}
  }
}