{
  "AcquisitionMatrixPE": 104,
  "AcquisitionNumber": 1,
  "AcquisitionTime": "13:50:42.350000",
  "BandwidthPerPixelPhaseEncode": 17.17,
  "BaseResolution": 104,
  "BodyPartExamined": "BRAIN",
  "CoilString": "HC1-7;NC1_2",
  "ConsistencyInfo": "N4_VE11C_LATEST_20160120",
  "ConversionSoftware": "dcm2niix",
  "ConversionSoftwareVersion": "v1.0.20190902",
  "DerivedVendorReportedEchoSpacing": 0.000560011,
  "DeviceSerialNumber": "167006",
  "DwellTime": 2.1e-06,
  "EchoTime": 0.037,
  "EchoTrainLength": 104,
  "EffectiveEchoSpacing": 0.000560011,
  "FlipAngle": 52,
  "HeudiconvVersion": "0.10.0",
  "ImageComments": "Unaliased_MB4_PE3_LB",
  "ImageOrientationPatientDICOM": [0.999268, 0.034136, 0.0172437, -0.0287848, 0.968186, -0.248572],
  "ImageType": [
    "ORIGINAL",
    "PRIMARY",
    "P",
    "MB",
    "ND",
    "MOSAIC"
],
  "ImagingFrequency": 123.259,
  "InPlanePhaseEncodingDirectionDICOM": "COL",
  "InstitutionAddress": "Chemin_Queen-Mary_4565_Montreal_District_CA_H3W_1W5",
  "InstitutionName": "IUGM",
  "InstitutionalDepartmentName": "Department",
  "MRAcquisitionType": "2D",
  "MagneticFieldStrength": 3,
  "Manufacturer": "Siemens",
  "ManufacturersModelName": "Prisma_fit",
  "Modality": "MR",
  "MultibandAccelerationFactor": 4,
  "PartialFourier": 1,
  "PatientPosition": "HFS",
  "PercentPhaseFOV": 100,
  "PhaseEncodingDirection": "j",
  "PhaseEncodingSteps": 104,
  "PhaseResolution": 1,
  "PixelBandwidth": 2290,
  "ProcedureStepDescription": "memory_things",
  "ProtocolName": "func_task-things_run-5",
  "PulseSequenceDetails": "%CustomerSeq%_cmrr_mbep2d_bold",
  "ReceiveCoilActiveElements": "HC1-7;NC1,2",
  "ReceiveCoilName": "HeadNeck_64",
  "ReconMatrixPE": 104,
  "RepetitionTime": 1.49,
  "SAR": 0.0566244,
  "ScanOptions": "FS",
  "ScanningSequence": "EP",
  "SequenceName": "epfid2d1_104",
  "SequenceVariant": "SK_SS",
  "SeriesDescription": "func_task-things_run-5",
  "SeriesNumber": 23,
  "ShimSetting": [628, -7207, -8760, 716, 13, 4, 70, -23],
  "SliceThickness": 2,
  "SliceTiming": [0, 0.785, 0.1, 0.8825, 0.1975, 0.98, 0.295, 1.0775, 0.3925, 1.1775, 0.49, 1.275, 0.5875, 1.3725, 0.6875, 0, 0.785, 0.1, 0.8825, 0.1975, 0.98, 0.295, 1.0775, 0.3925, 1.1775, 0.49, 1.275, 0.5875, 1.3725, 0.6875, 0, 0.785, 0.1, 0.8825, 0.1975, 0.98, 0.295, 1.0775, 0.3925, 1.1775, 0.49, 1.275, 0.5875, 1.3725, 0.6875, 0, 0.785, 0.1, 0.8825, 0.1975, 0.98, 0.295, 1.0775, 0.3925, 1.1775, 0.49, 1.275, 0.5875, 1.3725, 0.6875],
  "SoftwareVersions": "syngo_MR_E11",
  "SpacingBetweenSlices": 2,
  "StationName": "MRC35049",
  "TaskName": "things",
  "TotalReadoutTime": 0.0576811,
  "TxRefAmp": 248.376,
  "WipMemBlock": "c658723b-13e9-4804-970e-317defefab02||Sequence: R016 ve11c/master r/e634e98; Dec 19 2017 11:00:25 by eja",
  "dcmmeta_affine": [
    [-1.9985368251800537, -0.057569585740566254, 0.05036061629652977, 109.9699478149414],
    [-0.06827206164598465, 1.9363714456558228, -0.4957869350910187, -70.93350982666016],
    [0.03448730334639549, 0.49714332818984985, 1.9369200468063354, -55.228050231933594],
    [0.0, 0.0, 0.0, 1.0]
],
  "dcmmeta_reorient_transform": [
    [0.0, -1.0, 0.0, 103.0],
    [1.0, 0.0, 0.0, 0.0],
    [0.0, 0.0, 1.0, 0.0],
    [0.0, 0.0, 0.0, 1.0]
],
  "dcmmeta_shape": [104, 104, 60, 190],
  "dcmmeta_slice_dim": 2,
  "dcmmeta_version": 0.6,
  "global": {
    "const": {
      "AcquisitionMatrix": [104, 0, 0, 104],
      "AngioFlag": "N",
      "BitsAllocated": 16,
      "BitsStored": 16,
      "BodyPartExamined": "BRAIN",
      "Columns": 832,
      "EchoNumbers": 1,
      "EchoTime": 37.0,
      "EchoTrainLength": 104,
      "FlipAngle": 52.0,
      "HighBit": 15,
      "ImageOrientationPatient": [0.99926842628605, 0.03413603226815, 0.01724365184045, -0.0287847936627, 0.96818570867189, -0.2485716580331],
      "ImagePositionPatient": [-810.55236221059, -858.20297447286, 164.38450068534],
      "ImageType": [
        "ORIGINAL",
        "PRIMARY",
        "P",
        "MB",
        "ND",
        "MOSAIC"
],
      "ImagedNucleus": "1H",
      "ImagingFrequency": 123.258891,
      "InPlanePhaseEncodingDirection": "COL",
      "LargestImagePixelValue": 4095,
      "MRAcquisitionType": "2D",
      "MagneticFieldStrength": 3.0,
      "Manufacturer": "SIEMENS",
      "ManufacturerModelName": "Prisma_fit",
      "Modality": "MR",
      "NumberOfAverages": 1.0,
      "NumberOfPhaseEncodingSteps": 104,
      "PercentPhaseFieldOfView": 100.0,
      "PercentSampling": 100.0,
      "PerformedProcedureStepStartTime": "123653.108000",
      "PhotometricInterpretation": "MONOCHROME2",
      "PixelBandwidth": 2290.0,
      "PixelRepresentation": 0,
      "PixelSpacing": [2.0, 2.0],
      "ProtocolName": "func_task-things_run-5",
      "RepetitionTime": 1490.0,
      "RescaleIntercept": -4096.0,
      "RescaleSlope": 2.0,
      "RescaleType": "US",
      "Rows": 832,
      "SAR": 0.05662440600189,
      "SamplesPerPixel": 1,
      "ScanOptions": "FS",
      "ScanningSequence": "EP",
      "SequenceName": "epfid2d1_104",
      "SequenceVariant": [
        "SK",
        "SS"
],
      "SeriesDescription": "func_task-things_run-5",
      "SeriesNumber": 23,
      "SeriesTime": "135213.043000",
      "SliceLocation": -33.133127550925,
      "SliceThickness": 2.0,
      "SmallestImagePixelValue": 0,
      "SoftwareVersions": "syngo MR E11",
      "SpacingBetweenSlices": 2.000000049507,
      "SpecificCharacterSet": "ISO_IR 100",
      "StudyID": "1",
      "StudyTime": "123652.913000",
      "TransmitCoilName": "Body",
      "VariableFlipAngleFlag": "N",
      "WindowCenterWidthExplanation": "Algo1",
      "dBdt": 0.0},
    "slices": {}
  },
  "time": {
    "samples": {
      "AcquisitionNumber": [1, 2, 3, 4, 5, 6, 7, 8, 9, 10, 11, 12, 13, 14, 15, 16, 17, 18, 19, 20, 21, 22, 23, 24, 25, 26, 27, 28, 29, 30, 31, 32, 33, 34, 35, 36, 37, 38, 39, 40, 41, 42, 43, 44, 45, 46, 47, 48, 49, 50, 51, 52, 53, 54, 55, 56, 57, 58, 59, 60, 61, 62, 63, 64, 65, 66, 67, 68, 69, 70, 71, 72, 73, 74, 75, 76, 77, 78, 79, 80, 81, 82, 83, 84, 85, 86, 87, 88, 89, 90, 91, 92, 93, 94, 95, 96, 97, 98, 99, 100, 101, 102, 103, 104, 105, 106, 107, 108, 109, 110, 111, 112, 113, 114, 115, 116, 117, 118, 119, 120, 121, 122, 123, 124, 125, 126, 127, 128, 129, 130, 131, 132, 133, 134, 135, 136, 137, 138, 139, 140, 141, 142, 143, 144, 145, 146, 147, 148, 149, 150, 151, 152, 153, 154, 155, 156, 157, 158, 159, 160, 161, 162, 163, 164, 165, 166, 167, 168, 169, 170, 171, 172, 173, 174, 175, 176, 177, 178, 179, 180, 181, 182, 183, 184, 185, 186, 187, 188, 189, 190],
      "AcquisitionTime": ["135042.350000", "135043.840000", "135045.330000", "135046.820000", "135048.310000", "135049.800000", "135051.290000", "135052.780000", "135054.270000", "135055.760000", "135057.250000", "135058.740000", "135100.230000", "135101.720000", "135103.210000", "135104.700000", "135106.190000", "135107.680000", "135109.170000", "135110.660000", "135112.150000", "135113.640000", "135115.130000", "135116.620000", "135118.110000", "135119.600000", "135121.090000", "135122.580000", "135124.070000", "135125.560000", "135127.050000", "135128.540000", "135130.030000", "135131.520000", "135133.010000", "135134.500000", "135135.990000", "135137.480000", "135138.970000", "135140.460000", "135141.950000", "135143.440000", "135144.930000", "135146.420000", "135147.910000", "135149.400000", "135150.890000", "135152.380000", "135153.870000", "135155.360000", "135156.850000", "135158.340000", "135159.830000", "135201.320000", "135202.810000", "135204.300000", "135205.790000", "135207.280000", "135208.770000", "135210.260000", "135211.750000", "135213.240000", "135214.730000", "135216.220000", "135217.710000", "135219.200000", "135220.690000", "135222.180000", "135223.670000", "135225.160000", "135226.650000", "135228.140000", "135229.630000", "135231.120000", "135232.610000", "135234.100000", "135235.590000", "135237.080000", "135238.570000", "135240.060000", "135241.550000", "135243.040000", "135244.530000", "135246.020000", "135247.510000", "135249.000000", "135250.490000", "135251.980000", "135253.470000", "135254.960000", "135256.450000", "135257.940000", "135259.430000", "135300.920000", "135302.410000", "135303.900000", "135305.390000", "135306.880000", "135308.370000", "135309.860000", "135311.350000", "135312.840000", "135314.330000", "135315.820000", "135317.310000", "135318.800000", "135320.290000", "135321.780000", "135323.270000", "135324.760000", "135326.250000", "135327.740000", "135329.230000", "135330.720000", "135332.210000", "135333.700000", "135335.190000", "135336.680000", "135338.170000", "135339.660000", "135341.150000", "135342.640000", "135344.130000", "135345.620000", "135347.110000", "135348.600000", "135350.090000", "135351.580000", "135353.070000", "135354.560000", "135356.050000", "135357.540000", "135359.030000", "135400.520000", "135402.010000", "135403.500000", "135404.990000", "135406.480000", "135407.970000", "135409.460000", "135410.950000", "135412.440000", "135413.930000", "135415.420000", "135416.910000", "135418.400000", "135419.890000", "135421.380000", "135422.870000", "135424.360000", "135425.850000", "135427.340000", "135428.830000", "135430.320000", "135431.810000", "135433.300000", "135434.790000", "135436.280000", "135437.770000", "135439.260000", "135440.750000", "135442.240000", "135443.730000", "135445.220000", "135446.710000", "135448.200000", "135449.690000", "135451.180000", "135452.670000", "135454.160000", "135455.650000", "135457.140000", "135458.630000", "135500.120000", "135501.610000", "135503.100000", "135504.590000", "135506.080000", "135507.570000", "135509.060000", "135510.550000", "135512.040000", "135513.530000", "135515.020000", "135516.510000", "135518.000000", "135519.490000", "135520.980000", "135522.470000", "135523.960000"],
      "ContentTime": ["135213.045000", "135213.048000", "135213.051000", "135213.053000", "135213.055000", "135213.058000", "135213.060000", "135213.063000", "135213.065000", "135213.068000", "135213.070000", "135213.078000", "135213.080000", "135213.083000", "135213.085000", "135213.088000", "135213.090000", "135213.093000", "135213.095000", "135213.098000", "135213.100000", "135213.103000", "135213.105000", "135213.108000", "135213.110000", "135213.113000", "135213.115000", "135213.117000", "135213.120000", "135213.122000", "135213.125000", "135213.127000", "135213.130000", "135213.132000", "135213.135000", "135213.137000", "135233.283000", "135233.312000", "135233.315000", "135233.317000", "135233.320000", "135233.323000", "135233.325000", "135233.328000", "135233.330000", "135233.333000", "135233.335000", "135233.338000", "135233.341000", "135233.343000", "135233.346000", "135233.348000", "135233.351000", "135233.353000", "135233.356000", "135233.358000", "135252.922000", "135252.925000", "135252.927000", "135252.930000", "135252.932000", "135252.935000", "135252.937000", "135252.940000", "135252.942000", "135252.945000", "135252.947000", "135252.950000", "135252.952000", "135252.955000", "135252.957000", "135252.960000", "135252.962000", "135252.965000", "135252.967000", "135252.970000", "135252.972000", "135312.949000", "135312.952000", "135312.955000", "135312.957000", "135312.960000", "135312.962000", "135312.965000", "135312.967000", "135312.970000", "135312.972000", "135312.975000", "135312.977000", "135312.980000", "135312.982000", "135312.985000", "135312.988000", "135312.990000", "135312.993000", "135312.995000", "135312.998000", "135352.980000", "135352.983000", "135352.986000", "135352.988000", "135352.991000", "135352.993000", "135352.996000", "135352.998000", "135353.002000", "135353.004000", "135353.007000", "135353.009000", "135353.012000", "135353.014000", "135353.017000", "135353.019000", "135353.022000", "135353.024000", "135353.027000", "135353.029000", "135353.032000", "135353.035000", "135353.037000", "135353.040000", "135353.042000", "135353.045000", "135353.047000", "135353.050000", "135353.052000", "135353.055000", "135432.954000", "135432.956000", "135432.959000", "135432.961000", "135432.964000", "135432.966000", "135432.969000", "135432.971000", "135432.974000", "135432.982000", "135432.985000", "135432.987000", "135432.990000", "135432.993000", "135432.995000", "135432.998000", "135433.001000", "135433.004000", "135433.006000", "135433.009000", "135433.011000", "135433.014000", "135433.016000", "135433.019000", "135433.021000", "135433.024000", "135433.026000", "135512.968000", "135512.971000", "135512.973000", "135512.976000", "135512.978000", "135512.981000", "135512.983000", "135512.986000", "135512.988000", "135512.991000", "135512.993000", "135512.996000", "135512.998000", "135513.002000", "135513.004000", "135513.007000", "135513.009000", "135513.012000", "135513.014000", "135513.017000", "135513.019000", "135513.022000", "135513.024000", "135513.027000", "135513.029000", "135513.032000", "135513.034000", "135526.286000", "135526.289000", "135526.291000", "135526.294000", "135526.296000", "135526.299000", "135526.301000", "135526.304000", "135526.306000"],
      "InstanceCreationTime": ["135213.045000", "135213.048000", "135213.051000", "135213.053000", "135213.055000", "135213.058000", "135213.060000", "135213.063000", "135213.065000", "135213.068000", "135213.070000", "135213.078000", "135213.080000", "135213.083000", "135213.085000", "135213.088000", "135213.090000", "135213.093000", "135213.095000", "135213.098000", "135213.100000", "135213.103000", "135213.105000", "135213.108000", "135213.110000", "135213.113000", "135213.115000", "135213.117000", "135213.120000", "135213.122000", "135213.125000", "135213.127000", "135213.130000", "135213.132000", "135213.135000", "135213.137000", "135233.283000", "135233.312000", "135233.315000", "135233.317000", "135233.320000", "135233.323000", "135233.325000", "135233.328000", "135233.330000", "135233.333000", "135233.335000", "135233.338000", "135233.341000", "135233.343000", "135233.346000", "135233.348000", "135233.351000", "135233.353000", "135233.356000", "135233.358000", "135252.922000", "135252.925000", "135252.927000", "135252.930000", "135252.932000", "135252.935000", "135252.937000", "135252.940000", "135252.942000", "135252.945000", "135252.947000", "135252.950000", "135252.952000", "135252.955000", "135252.957000", "135252.960000", "135252.962000", "135252.965000", "135252.967000", "135252.970000", "135252.972000", "135312.949000", "135312.952000", "135312.955000", "135312.957000", "135312.960000", "135312.962000", "135312.965000", "135312.967000", "135312.970000", "135312.972000", "135312.975000", "135312.977000", "135312.980000", "135312.982000", "135312.985000", "135312.988000", "135312.990000", "135312.993000", "135312.995000", "135312.998000", "135352.980000", "135352.983000", "135352.986000", "135352.988000", "135352.991000", "135352.993000", "135352.996000", "135352.998000", "135353.002000", "135353.004000", "135353.007000", "135353.009000", "135353.012000", "135353.014000", "135353.017000", "135353.019000", "135353.022000", "135353.024000", "135353.027000", "135353.029000", "135353.032000", "135353.035000", "135353.037000", "135353.040000", "135353.042000", "135353.045000", "135353.047000", "135353.050000", "135353.052000", "135353.055000", "135432.954000", "135432.956000", "135432.959000", "135432.961000", "135432.964000", "135432.966000", "135432.969000", "135432.971000", "135432.974000", "135432.982000", "135432.985000", "135432.987000", "135432.990000", "135432.993000", "135432.995000", "135432.998000", "135433.001000", "135433.004000", "135433.006000", "135433.009000", "135433.011000", "135433.014000", "135433.016000", "135433.019000", "135433.021000", "135433.024000", "135433.026000", "135512.968000", "135512.971000", "135512.973000", "135512.976000", "135512.978000", "135512.981000", "135512.983000", "135512.986000", "135512.988000", "135512.991000", "135512.993000", "135512.996000", "135512.998000", "135513.002000", "135513.004000", "135513.007000", "135513.009000", "135513.012000", "135513.014000", "135513.017000", "135513.019000", "135513.022000", "135513.024000", "135513.027000", "135513.029000", "135513.032000", "135513.034000", "135526.286000", "135526.289000", "135526.291000", "135526.294000", "135526.296000", "135526.299000", "135526.301000", "135526.304000", "135526.306000"],
      "InstanceNumber": [1, 2, 3, 4, 5, 6, 7, 8, 9, 10, 11, 12, 13, 14, 15, 16, 17, 18, 19, 20, 21, 22, 23, 24, 25, 26, 27, 28, 29, 30, 31, 32, 33, 34, 35, 36, 37, 38, 39, 40, 41, 42, 43, 44, 45, 46, 47, 48, 49, 50, 51, 52, 53, 54, 55, 56, 57, 58, 59, 60, 61, 62, 63, 64, 65, 66, 67, 68, 69, 70, 71, 72, 73, 74, 75, 76, 77, 78, 79, 80, 81, 82, 83, 84, 85, 86, 87, 88, 89, 90, 91, 92, 93, 94, 95, 96, 97, 98, 99, 100, 101, 102, 103, 104, 105, 106, 107, 108, 109, 110, 111, 112, 113, 114, 115, 116, 117, 118, 119, 120, 121, 122, 123, 124, 125, 126, 127, 128, 129, 130, 131, 132, 133, 134, 135, 136, 137, 138, 139, 140, 141, 142, 143, 144, 145, 146, 147, 148, 149, 150, 151, 152, 153, 154, 155, 156, 157, 158, 159, 160, 161, 162, 163, 164, 165, 166, 167, 168, 169, 170, 171, 172, 173, 174, 175, 176, 177, 178, 179, 180, 181, 182, 183, 184, 185, 186, 187, 188, 189, 190],
      "WindowCenter": [4784.0, 4760.0, 4758.0, 4760.0, 4764.0, 4764.0, 4788.0, 4758.0, 4762.0, 4758.0, 4758.0, 4758.0, 4760.0, 4784.0, 4786.0, 4762.0, 4762.0, 4762.0, 4762.0, 4760.0, 4760.0, 4782.0, 4758.0, 4762.0, 4760.0, 4758.0, 4762.0, 4784.0, 4764.0, 4762.0, 4762.0, 4762.0, 4760.0, 4760.0, 4760.0, 4760.0, 4786.0, 4760.0, 4762.0, 4760.0, 4758.0, 4764.0, 4764.0, 4758.0, 4760.0, 4784.0, 4762.0, 4762.0, 4762.0, 4762.0, 4760.0, 4764.0, 4760.0, 4756.0, 4762.0, 4762.0, 4762.0, 4782.0, 4784.0, 4758.0, 4762.0, 4760.0, 4788.0, 4760.0, 4760.0, 4760.0, 4760.0, 4784.0, 4760.0, 4762.0, 4786.0, 4760.0, 4762.0, 4786.0, 4762.0, 4760.0, 4760.0, 4760.0, 4784.0, 4762.0, 4762.0, 4766.0, 4760.0, 4786.0, 4784.0, 4762.0, 4762.0, 4784.0, 4780.0, 4766.0, 4758.0, 4782.0, 4792.0, 4766.0, 4756.0, 4760.0, 4758.0, 4760.0, 4760.0, 4784.0, 4788.0, 4762.0, 4764.0, 4784.0, 4758.0, 4760.0, 4784.0, 4762.0, 4760.0, 4762.0, 4758.0, 4784.0, 4760.0, 4786.0, 4760.0, 4764.0, 4760.0, 4762.0, 4760.0, 4762.0, 4782.0, 4784.0, 4762.0, 4762.0, 4762.0, 4786.0, 4764.0, 4762.0, 4758.0, 4762.0, 4782.0, 4760.0, 4762.0, 4786.0, 4760.0, 4762.0, 4760.0, 4762.0, 4766.0, 4784.0, 4786.0, 4782.0, 4788.0, 4758.0, 4786.0, 4758.0, 4784.0, 4762.0, 4786.0, 4786.0, 4786.0, 4762.0, 4762.0, 4786.0, 4762.0, 4784.0, 4762.0, 4760.0, 4758.0, 4760.0, 4784.0, 4762.0, 4760.0, 4758.0, 4762.0, 4784.0, 4764.0, 4784.0, 4784.0, 4760.0, 4764.0, 4760.0, 4786.0, 4762.0, 4758.0, 4786.0, 4786.0, 4762.0, 4788.0, 4760.0, 4760.0, 4786.0, 4762.0, 4784.0, 4760.0, 4786.0, 4784.0, 4762.0, 4764.0, 4788.0],
      "WindowWidth": [18562.0, 18530.0, 18530.0, 18534.0, 18532.0, 18532.0, 18558.0, 18526.0, 18532.0, 18532.0, 18526.0, 18530.0, 18530.0, 18566.0, 18564.0, 18528.0, 18534.0, 18532.0, 18534.0, 18532.0, 18530.0, 18558.0, 18528.0, 18536.0, 18528.0, 18530.0, 18530.0, 18560.0, 18530.0, 18534.0, 18532.0, 18534.0, 18528.0, 18530.0, 18530.0, 18528.0, 18564.0, 18530.0, 18532.0, 18532.0, 18532.0, 18532.0, 18532.0, 18526.0, 18532.0, 18564.0, 18528.0, 18538.0, 18532.0, 18532.0, 18532.0, 18538.0, 18530.0, 18530.0, 18530.0, 18528.0, 18530.0, 18562.0, 18560.0, 18530.0, 18530.0, 18532.0, 18566.0, 18526.0, 18530.0, 18528.0, 18528.0, 18562.0, 18534.0, 18530.0, 18562.0, 18530.0, 18532.0, 18564.0, 18538.0, 18532.0, 18530.0, 18528.0, 18564.0, 18526.0, 18532.0, 18532.0, 18532.0, 18558.0, 18562.0, 18532.0, 18532.0, 18562.0, 18558.0, 18534.0, 18526.0, 18556.0, 18570.0, 18536.0, 18530.0, 18528.0, 18532.0, 18530.0, 18528.0, 18562.0, 18564.0, 18524.0, 18534.0, 18560.0, 18528.0, 18536.0, 18564.0, 18534.0, 18534.0, 18536.0, 18526.0, 18560.0, 18526.0, 18566.0, 18528.0, 18532.0, 18530.0, 18530.0, 18532.0, 18532.0, 18564.0, 18564.0, 18532.0, 18534.0, 18530.0, 18560.0, 18530.0, 18534.0, 18532.0, 18536.0, 18562.0, 18532.0, 18530.0, 18560.0, 18534.0, 18530.0, 18530.0, 18530.0, 18534.0, 18564.0, 18564.0, 18560.0, 18562.0, 18524.0, 18566.0, 18528.0, 18562.0, 18526.0, 18560.0, 18562.0, 18560.0, 18532.0, 18532.0, 18568.0, 18526.0, 18564.0, 18530.0, 18534.0, 18532.0, 18530.0, 18562.0, 18536.0, 18530.0, 18528.0, 18530.0, 18564.0, 18532.0, 18562.0, 18562.0, 18530.0, 18532.0, 18530.0, 18564.0, 18530.0, 18522.0, 18566.0, 18558.0, 18530.0, 18566.0, 18528.0, 18534.0, 18558.0, 18534.0, 18558.0, 18530.0, 18564.0, 18566.0, 18528.0, 18530.0, 18564.0]
    },
    "slices": {}
  }
}