{
  "AcquisitionMatrixPE": 104,
  "AcquisitionNumber": 1,
  "AcquisitionTime": "13:38:37.622500",
  "BandwidthPerPixelPhaseEncode": 17.17,
  "BaseResolution": 104,
  "BodyPartExamined": "BRAIN",
  "CoilString": "HC1-7;NC1_2",
  "ConsistencyInfo": "N4_VE11C_LATEST_20160120",
  "ConversionSoftware": "dcm2niix",
  "ConversionSoftwareVersion": "v1.0.20190902",
  "DerivedVendorReportedEchoSpacing": 0.000560011,
  "DeviceSerialNumber": "167006",
  "DwellTime": 2.1e-06,
  "EchoTime": 0.037,
  "EchoTrainLength": 104,
  "EffectiveEchoSpacing": 0.000560011,
  "FlipAngle": 52,
  "HeudiconvVersion": "0.10.0",
  "ImageComments": "Unaliased_MB4_PE3_LB",
  "ImageOrientationPatientDICOM": [0.999268, 0.034136, 0.0172437, -0.0287848, 0.968186, -0.248572],
  "ImageType": [
    "ORIGINAL",
    "PRIMARY",
    "P",
    "MB",
    "ND",
    "MOSAIC"
],
  "ImagingFrequency": 123.259,
  "InPlanePhaseEncodingDirectionDICOM": "COL",
  "InstitutionAddress": "Chemin_Queen-Mary_4565_Montreal_District_CA_H3W_1W5",
  "InstitutionName": "IUGM",
  "InstitutionalDepartmentName": "Department",
  "MRAcquisitionType": "2D",
  "MagneticFieldStrength": 3,
  "Manufacturer": "Siemens",
  "ManufacturersModelName": "Prisma_fit",
  "Modality": "MR",
  "MultibandAccelerationFactor": 4,
  "PartialFourier": 1,
  "PatientPosition": "HFS",
  "PercentPhaseFOV": 100,
  "PhaseEncodingDirection": "j",
  "PhaseEncodingSteps": 104,
  "PhaseResolution": 1,
  "PixelBandwidth": 2290,
  "ProcedureStepDescription": "memory_things",
  "ProtocolName": "func_task-things_run-3",
  "PulseSequenceDetails": "%CustomerSeq%_cmrr_mbep2d_bold",
  "ReceiveCoilActiveElements": "HC1-7;NC1,2",
  "ReceiveCoilName": "HeadNeck_64",
  "ReconMatrixPE": 104,
  "RepetitionTime": 1.49,
  "SAR": 0.0566244,
  "ScanOptions": "FS",
  "ScanningSequence": "EP",
  "SequenceName": "epfid2d1_104",
  "SequenceVariant": "SK_SS",
  "SeriesDescription": "func_task-things_run-3",
  "SeriesNumber": 17,
  "ShimSetting": [628, -7207, -8760, 716, 13, 4, 70, -23],
  "SliceThickness": 2,
  "SliceTiming": [0, 0.785, 0.0975, 0.8825, 0.195, 0.98, 0.295, 1.0775, 0.3925, 1.175, 0.49, 1.275, 0.5875, 1.3725, 0.685, 0, 0.785, 0.0975, 0.8825, 0.195, 0.98, 0.295, 1.0775, 0.3925, 1.175, 0.49, 1.275, 0.5875, 1.3725, 0.685, 0, 0.785, 0.0975, 0.8825, 0.195, 0.98, 0.295, 1.0775, 0.3925, 1.175, 0.49, 1.275, 0.5875, 1.3725, 0.685, 0, 0.785, 0.0975, 0.8825, 0.195, 0.98, 0.295, 1.0775, 0.3925, 1.175, 0.49, 1.275, 0.5875, 1.3725, 0.685],
  "SoftwareVersions": "syngo_MR_E11",
  "SpacingBetweenSlices": 2,
  "StationName": "MRC35049",
  "TaskName": "things",
  "TotalReadoutTime": 0.0576811,
  "TxRefAmp": 248.376,
  "WipMemBlock": "741e4572-cfd2-40ad-84ad-457da28965de||Sequence: R016 ve11c/master r/e634e98; Dec 19 2017 11:00:25 by eja",
  "dcmmeta_affine": [
    [-1.9985368251800537, -0.057569585740566254, 0.05036061629652977, 109.9699478149414],
    [-0.06827206164598465, 1.9363714456558228, -0.4957869350910187, -70.93350982666016],
    [0.03448730334639549, 0.49714332818984985, 1.9369200468063354, -55.228050231933594],
    [0.0, 0.0, 0.0, 1.0]
],
  "dcmmeta_reorient_transform": [
    [0.0, -1.0, 0.0, 103.0],
    [1.0, 0.0, 0.0, 0.0],
    [0.0, 0.0, 1.0, 0.0],
    [0.0, 0.0, 0.0, 1.0]
],
  "dcmmeta_shape": [104, 104, 60, 190],
  "dcmmeta_slice_dim": 2,
  "dcmmeta_version": 0.6,
  "global": {
    "const": {
      "AcquisitionMatrix": [104, 0, 0, 104],
      "AngioFlag": "N",
      "BitsAllocated": 16,
      "BitsStored": 16,
      "BodyPartExamined": "BRAIN",
      "Columns": 832,
      "EchoNumbers": 1,
      "EchoTime": 37.0,
      "EchoTrainLength": 104,
      "FlipAngle": 52.0,
      "HighBit": 15,
      "ImageOrientationPatient": [0.99926842628605, 0.03413603226815, 0.01724365184045, -0.0287847936627, 0.96818570867189, -0.2485716580331],
      "ImagePositionPatient": [-810.55236221059, -858.20297447286, 164.38450068534],
      "ImageType": [
        "ORIGINAL",
        "PRIMARY",
        "P",
        "MB",
        "ND",
        "MOSAIC"
],
      "ImagedNucleus": "1H",
      "ImagingFrequency": 123.258887,
      "InPlanePhaseEncodingDirection": "COL",
      "LargestImagePixelValue": 4095,
      "MRAcquisitionType": "2D",
      "MagneticFieldStrength": 3.0,
      "Manufacturer": "SIEMENS",
      "ManufacturerModelName": "Prisma_fit",
      "Modality": "MR",
      "NumberOfAverages": 1.0,
      "NumberOfPhaseEncodingSteps": 104,
      "PercentPhaseFieldOfView": 100.0,
      "PercentSampling": 100.0,
      "PerformedProcedureStepStartTime": "123653.108000",
      "PhotometricInterpretation": "MONOCHROME2",
      "PixelBandwidth": 2290.0,
      "PixelRepresentation": 0,
      "PixelSpacing": [2.0, 2.0],
      "ProtocolName": "func_task-things_run-3",
      "RepetitionTime": 1490.0,
      "RescaleIntercept": -4096.0,
      "RescaleSlope": 2.0,
      "RescaleType": "US",
      "Rows": 832,
      "SAR": 0.05662440600189,
      "SamplesPerPixel": 1,
      "ScanOptions": "FS",
      "ScanningSequence": "EP",
      "SequenceName": "epfid2d1_104",
      "SequenceVariant": [
        "SK",
        "SS"
],
      "SeriesDescription": "func_task-things_run-3",
      "SeriesNumber": 17,
      "SeriesTime": "133951.617000",
      "SliceLocation": -33.133127550925,
      "SliceThickness": 2.0,
      "SmallestImagePixelValue": 0,
      "SoftwareVersions": "syngo MR E11",
      "SpacingBetweenSlices": 2.000000049507,
      "SpecificCharacterSet": "ISO_IR 100",
      "StudyID": "1",
      "StudyTime": "123652.913000",
      "TransmitCoilName": "Body",
      "VariableFlipAngleFlag": "N",
      "WindowCenterWidthExplanation": "Algo1",
      "dBdt": 0.0},
    "slices": {}
  },
  "time": {
    "samples": {
      "AcquisitionNumber": [1, 2, 3, 4, 5, 6, 7, 8, 9, 10, 11, 12, 13, 14, 15, 16, 17, 18, 19, 20, 21, 22, 23, 24, 25, 26, 27, 28, 29, 30, 31, 32, 33, 34, 35, 36, 37, 38, 39, 40, 41, 42, 43, 44, 45, 46, 47, 48, 49, 50, 51, 52, 53, 54, 55, 56, 57, 58, 59, 60, 61, 62, 63, 64, 65, 66, 67, 68, 69, 70, 71, 72, 73, 74, 75, 76, 77, 78, 79, 80, 81, 82, 83, 84, 85, 86, 87, 88, 89, 90, 91, 92, 93, 94, 95, 96, 97, 98, 99, 100, 101, 102, 103, 104, 105, 106, 107, 108, 109, 110, 111, 112, 113, 114, 115, 116, 117, 118, 119, 120, 121, 122, 123, 124, 125, 126, 127, 128, 129, 130, 131, 132, 133, 134, 135, 136, 137, 138, 139, 140, 141, 142, 143, 144, 145, 146, 147, 148, 149, 150, 151, 152, 153, 154, 155, 156, 157, 158, 159, 160, 161, 162, 163, 164, 165, 166, 167, 168, 169, 170, 171, 172, 173, 174, 175, 176, 177, 178, 179, 180, 181, 182, 183, 184, 185, 186, 187, 188, 189, 190],
      "AcquisitionTime": ["133837.622500", "133839.112500", "133840.602500", "133842.092500", "133843.582500", "133845.072500", "133846.562500", "133848.052500", "133849.542500", "133851.032500", "133852.522500", "133854.012500", "133855.502500", "133856.992500", "133858.482500", "133859.972500", "133901.462500", "133902.952500", "133904.442500", "133905.932500", "133907.422500", "133908.912500", "133910.402500", "133911.892500", "133913.382500", "133914.872500", "133916.362500", "133917.852500", "133919.342500", "133920.832500", "133922.322500", "133923.812500", "133925.302500", "133926.792500", "133928.282500", "133929.772500", "133931.262500", "133932.752500", "133934.242500", "133935.732500", "133937.222500", "133938.712500", "133940.202500", "133941.692500", "133943.182500", "133944.672500", "133946.162500", "133947.652500", "133949.142500", "133950.632500", "133952.122500", "133953.612500", "133955.102500", "133956.592500", "133958.082500", "133959.572500", "134001.062500", "134002.552500", "134004.042500", "134005.532500", "134007.022500", "134008.512500", "134010.002500", "134011.492500", "134012.982500", "134014.472500", "134015.962500", "134017.452500", "134018.942500", "134020.432500", "134021.922500", "134023.412500", "134024.902500", "134026.392500", "134027.882500", "134029.372500", "134030.862500", "134032.352500", "134033.842500", "134035.332500", "134036.822500", "134038.312500", "134039.802500", "134041.292500", "134042.782500", "134044.272500", "134045.762500", "134047.252500", "134048.742500", "134050.232500", "134051.722500", "134053.212500", "134054.702500", "134056.192500", "134057.682500", "134059.172500", "134100.662500", "134102.152500", "134103.642500", "134105.132500", "134106.622500", "134108.112500", "134109.602500", "134111.092500", "134112.582500", "134114.072500", "134115.562500", "134117.052500", "134118.542500", "134120.032500", "134121.522500", "134123.012500", "134124.502500", "134125.992500", "134127.482500", "134128.972500", "134130.462500", "134131.952500", "134133.442500", "134134.932500", "134136.422500", "134137.912500", "134139.402500", "134140.892500", "134142.382500", "134143.872500", "134145.362500", "134146.852500", "134148.342500", "134149.832500", "134151.322500", "134152.812500", "134154.302500", "134155.792500", "134157.282500", "134158.772500", "134200.262500", "134201.752500", "134203.242500", "134204.732500", "134206.222500", "134207.712500", "134209.202500", "134210.692500", "134212.182500", "134213.672500", "134215.162500", "134216.652500", "134218.142500", "134219.632500", "134221.122500", "134222.612500", "134224.102500", "134225.592500", "134227.082500", "134228.572500", "134230.062500", "134231.552500", "134233.042500", "134234.532500", "134236.022500", "134237.512500", "134239.002500", "134240.492500", "134241.982500", "134243.472500", "134244.962500", "134246.452500", "134247.942500", "134249.432500", "134250.922500", "134252.412500", "134253.902500", "134255.392500", "134256.882500", "134258.372500", "134259.862500", "134301.352500", "134302.842500", "134304.332500", "134305.822500", "134307.312500", "134308.802500", "134310.292500", "134311.782500", "134313.272500", "134314.762500", "134316.252500", "134317.742500", "134319.232500"],
      "ContentTime": ["133951.619000", "133951.622000", "133951.624000", "133951.627000", "133951.629000", "133951.632000", "133951.634000", "133951.637000", "133951.639000", "133951.642000", "133951.644000", "133951.647000", "133951.649000", "133951.652000", "133951.654000", "133951.657000", "133951.659000", "133951.662000", "133951.664000", "133951.667000", "133951.669000", "134011.577000", "134011.579000", "134011.582000", "134011.584000", "134011.587000", "134011.589000", "134011.592000", "134011.594000", "134011.597000", "134011.599000", "134011.602000", "134011.604000", "134011.607000", "134011.609000", "134011.612000", "134011.617000", "134011.620000", "134011.622000", "134011.625000", "134011.627000", "134031.570000", "134031.573000", "134031.575000", "134031.578000", "134031.580000", "134031.583000", "134031.585000", "134031.588000", "134031.590000", "134031.593000", "134031.595000", "134031.598000", "134031.600000", "134031.608000", "134031.611000", "134031.613000", "134031.616000", "134031.618000", "134031.624000", "134031.627000", "134051.597000", "134051.600000", "134051.602000", "134051.605000", "134051.607000", "134051.610000", "134051.612000", "134051.615000", "134051.617000", "134051.620000", "134051.622000", "134051.625000", "134051.627000", "134051.630000", "134051.632000", "134051.635000", "134051.637000", "134051.640000", "134051.642000", "134051.645000", "134111.592000", "134111.595000", "134111.597000", "134111.600000", "134111.602000", "134111.605000", "134111.607000", "134111.610000", "134111.612000", "134111.615000", "134111.617000", "134111.619000", "134111.622000", "134111.624000", "134111.627000", "134111.629000", "134111.632000", "134111.634000", "134111.637000", "134111.639000", "134111.642000", "134151.621000", "134151.624000", "134151.626000", "134151.629000", "134151.632000", "134151.634000", "134151.637000", "134151.639000", "134151.642000", "134151.644000", "134151.647000", "134151.649000", "134151.652000", "134151.654000", "134151.657000", "134151.659000", "134151.662000", "134151.664000", "134151.667000", "134151.669000", "134151.672000", "134151.675000", "134151.677000", "134151.679000", "134151.682000", "134151.685000", "134151.691000", "134231.617000", "134231.620000", "134231.623000", "134231.625000", "134231.628000", "134231.630000", "134231.633000", "134231.635000", "134231.638000", "134231.640000", "134231.643000", "134231.645000", "134231.648000", "134231.650000", "134231.653000", "134231.655000", "134231.658000", "134231.661000", "134231.663000", "134231.666000", "134231.668000", "134231.671000", "134231.673000", "134231.676000", "134231.678000", "134231.681000", "134231.683000", "134311.625000", "134311.627000", "134311.630000", "134311.632000", "134311.635000", "134311.637000", "134311.640000", "134311.642000", "134311.645000", "134311.648000", "134311.650000", "134311.653000", "134311.655000", "134311.658000", "134311.660000", "134311.663000", "134311.666000", "134311.668000", "134311.671000", "134311.673000", "134311.676000", "134311.678000", "134311.681000", "134311.683000", "134311.686000", "134311.688000", "134311.691000", "134321.577000", "134321.579000", "134321.588000", "134321.590000", "134321.593000", "134321.596000", "134321.599000"],
      "InstanceCreationTime": ["133951.619000", "133951.622000", "133951.624000", "133951.627000", "133951.629000", "133951.632000", "133951.634000", "133951.637000", "133951.639000", "133951.642000", "133951.644000", "133951.647000", "133951.649000", "133951.652000", "133951.654000", "133951.657000", "133951.659000", "133951.662000", "133951.664000", "133951.667000", "133951.669000", "134011.577000", "134011.579000", "134011.582000", "134011.584000", "134011.587000", "134011.589000", "134011.592000", "134011.594000", "134011.597000", "134011.599000", "134011.602000", "134011.604000", "134011.607000", "134011.609000", "134011.612000", "134011.617000", "134011.620000", "134011.622000", "134011.625000", "134011.627000", "134031.570000", "134031.573000", "134031.575000", "134031.578000", "134031.580000", "134031.583000", "134031.585000", "134031.588000", "134031.590000", "134031.593000", "134031.595000", "134031.598000", "134031.600000", "134031.608000", "134031.611000", "134031.613000", "134031.616000", "134031.618000", "134031.624000", "134031.627000", "134051.597000", "134051.600000", "134051.602000", "134051.605000", "134051.607000", "134051.610000", "134051.612000", "134051.615000", "134051.617000", "134051.620000", "134051.622000", "134051.625000", "134051.627000", "134051.630000", "134051.632000", "134051.635000", "134051.637000", "134051.640000", "134051.642000", "134051.645000", "134111.592000", "134111.595000", "134111.597000", "134111.600000", "134111.602000", "134111.605000", "134111.607000", "134111.610000", "134111.612000", "134111.615000", "134111.617000", "134111.619000", "134111.622000", "134111.624000", "134111.627000", "134111.629000", "134111.632000", "134111.634000", "134111.637000", "134111.639000", "134111.642000", "134151.621000", "134151.624000", "134151.626000", "134151.629000", "134151.632000", "134151.634000", "134151.637000", "134151.639000", "134151.642000", "134151.644000", "134151.647000", "134151.649000", "134151.652000", "134151.654000", "134151.657000", "134151.659000", "134151.662000", "134151.664000", "134151.667000", "134151.669000", "134151.672000", "134151.675000", "134151.677000", "134151.679000", "134151.682000", "134151.685000", "134151.691000", "134231.617000", "134231.620000", "134231.623000", "134231.625000", "134231.628000", "134231.630000", "134231.633000", "134231.635000", "134231.638000", "134231.640000", "134231.643000", "134231.645000", "134231.648000", "134231.650000", "134231.653000", "134231.655000", "134231.658000", "134231.661000", "134231.663000", "134231.666000", "134231.668000", "134231.671000", "134231.673000", "134231.676000", "134231.678000", "134231.681000", "134231.683000", "134311.625000", "134311.627000", "134311.630000", "134311.632000", "134311.635000", "134311.637000", "134311.640000", "134311.642000", "134311.645000", "134311.648000", "134311.650000", "134311.653000", "134311.655000", "134311.658000", "134311.660000", "134311.663000", "134311.666000", "134311.668000", "134311.671000", "134311.673000", "134311.676000", "134311.678000", "134311.681000", "134311.683000", "134311.686000", "134311.688000", "134311.691000", "134321.577000", "134321.579000", "134321.588000", "134321.590000", "134321.593000", "134321.596000", "134321.599000"],
      "InstanceNumber": [1, 2, 3, 4, 5, 6, 7, 8, 9, 10, 11, 12, 13, 14, 15, 16, 17, 18, 19, 20, 21, 22, 23, 24, 25, 26, 27, 28, 29, 30, 31, 32, 33, 34, 35, 36, 37, 38, 39, 40, 41, 42, 43, 44, 45, 46, 47, 48, 49, 50, 51, 52, 53, 54, 55, 56, 57, 58, 59, 60, 61, 62, 63, 64, 65, 66, 67, 68, 69, 70, 71, 72, 73, 74, 75, 76, 77, 78, 79, 80, 81, 82, 83, 84, 85, 86, 87, 88, 89, 90, 91, 92, 93, 94, 95, 96, 97, 98, 99, 100, 101, 102, 103, 104, 105, 106, 107, 108, 109, 110, 111, 112, 113, 114, 115, 116, 117, 118, 119, 120, 121, 122, 123, 124, 125, 126, 127, 128, 129, 130, 131, 132, 133, 134, 135, 136, 137, 138, 139, 140, 141, 142, 143, 144, 145, 146, 147, 148, 149, 150, 151, 152, 153, 154, 155, 156, 157, 158, 159, 160, 161, 162, 163, 164, 165, 166, 167, 168, 169, 170, 171, 172, 173, 174, 175, 176, 177, 178, 179, 180, 181, 182, 183, 184, 185, 186, 187, 188, 189, 190],
      "WindowCenter": [4758.0, 4758.0, 4756.0, 4754.0, 4760.0, 4754.0, 4756.0, 4752.0, 4752.0, 4754.0, 4756.0, 4756.0, 4758.0, 4756.0, 4760.0, 4752.0, 4754.0, 4754.0, 4752.0, 4754.0, 4756.0, 4756.0, 4756.0, 4752.0, 4756.0, 4754.0, 4756.0, 4750.0, 4754.0, 4756.0, 4758.0, 4754.0, 4754.0, 4752.0, 4758.0, 4760.0, 4756.0, 4756.0, 4754.0, 4754.0, 4754.0, 4756.0, 4756.0, 4754.0, 4756.0, 4752.0, 4758.0, 4756.0, 4756.0, 4752.0, 4756.0, 4754.0, 4756.0, 4754.0, 4756.0, 4756.0, 4758.0, 4756.0, 4756.0, 4756.0, 4760.0, 4758.0, 4754.0, 4758.0, 4758.0, 4752.0, 4756.0, 4756.0, 4756.0, 4758.0, 4754.0, 4758.0, 4756.0, 4756.0, 4758.0, 4758.0, 4754.0, 4758.0, 4758.0, 4758.0, 4756.0, 4758.0, 4758.0, 4758.0, 4754.0, 4758.0, 4754.0, 4758.0, 4754.0, 4760.0, 4756.0, 4758.0, 4754.0, 4754.0, 4756.0, 4756.0, 4754.0, 4758.0, 4758.0, 4756.0, 4756.0, 4760.0, 4754.0, 4760.0, 4758.0, 4756.0, 4754.0, 4758.0, 4750.0, 4754.0, 4758.0, 4754.0, 4756.0, 4758.0, 4756.0, 4756.0, 4756.0, 4756.0, 4756.0, 4758.0, 4754.0, 4758.0, 4758.0, 4756.0, 4754.0, 4754.0, 4760.0, 4756.0, 4756.0, 4752.0, 4758.0, 4758.0, 4756.0, 4756.0, 4758.0, 4756.0, 4756.0, 4754.0, 4760.0, 4756.0, 4756.0, 4754.0, 4752.0, 4756.0, 4756.0, 4760.0, 4760.0, 4760.0, 4754.0, 4758.0, 4758.0, 4758.0, 4752.0, 4754.0, 4754.0, 4756.0, 4756.0, 4754.0, 4756.0, 4758.0, 4760.0, 4756.0, 4754.0, 4754.0, 4758.0, 4754.0, 4758.0, 4754.0, 4754.0, 4752.0, 4760.0, 4758.0, 4754.0, 4760.0, 4756.0, 4756.0, 4756.0, 4758.0, 4752.0, 4754.0, 4756.0, 4756.0, 4758.0, 4758.0, 4756.0, 4758.0, 4760.0, 4758.0, 4754.0, 4754.0],
      "WindowWidth": [18536.0, 18528.0, 18534.0, 18528.0, 18534.0, 18532.0, 18534.0, 18530.0, 18528.0, 18528.0, 18530.0, 18530.0, 18528.0, 18532.0, 18532.0, 18530.0, 18528.0, 18528.0, 18526.0, 18530.0, 18530.0, 18530.0, 18524.0, 18528.0, 18526.0, 18528.0, 18530.0, 18526.0, 18526.0, 18528.0, 18532.0, 18528.0, 18532.0, 18530.0, 18530.0, 18534.0, 18526.0, 18528.0, 18530.0, 18524.0, 18532.0, 18526.0, 18536.0, 18528.0, 18532.0, 18530.0, 18532.0, 18532.0, 18528.0, 18530.0, 18526.0, 18532.0, 18530.0, 18532.0, 18528.0, 18530.0, 18528.0, 18530.0, 18532.0, 18530.0, 18538.0, 18534.0, 18536.0, 18532.0, 18534.0, 18528.0, 18530.0, 18528.0, 18532.0, 18530.0, 18530.0, 18534.0, 18530.0, 18530.0, 18532.0, 18536.0, 18530.0, 18532.0, 18532.0, 18528.0, 18534.0, 18536.0, 18532.0, 18534.0, 18528.0, 18534.0, 18528.0, 18534.0, 18528.0, 18536.0, 18528.0, 18530.0, 18530.0, 18532.0, 18532.0, 18530.0, 18532.0, 18534.0, 18538.0, 18528.0, 18528.0, 18532.0, 18530.0, 18538.0, 18536.0, 18530.0, 18528.0, 18534.0, 18528.0, 18530.0, 18536.0, 18526.0, 18534.0, 18536.0, 18528.0, 18530.0, 18526.0, 18532.0, 18532.0, 18534.0, 18526.0, 18528.0, 18532.0, 18532.0, 18526.0, 18528.0, 18530.0, 18530.0, 18530.0, 18528.0, 18528.0, 18536.0, 18526.0, 18532.0, 18536.0, 18526.0, 18534.0, 18528.0, 18532.0, 18530.0, 18530.0, 18530.0, 18528.0, 18534.0, 18530.0, 18536.0, 18536.0, 18532.0, 18528.0, 18532.0, 18536.0, 18530.0, 18530.0, 18528.0, 18526.0, 18528.0, 18532.0, 18524.0, 18530.0, 18532.0, 18530.0, 18532.0, 18528.0, 18532.0, 18528.0, 18536.0, 18528.0, 18526.0, 18530.0, 18524.0, 18532.0, 18536.0, 18530.0, 18534.0, 18528.0, 18528.0, 18530.0, 18532.0, 18526.0, 18528.0, 18532.0, 18526.0, 18532.0, 18528.0, 18530.0, 18528.0, 18534.0, 18530.0, 18528.0, 18532.0]
    },
    "slices": {}
  }
}