{
  "AcquisitionMatrixPE": 104,
  "AcquisitionNumber": 1,
  "AcquisitionTime": "13:50:42.350000",
  "BandwidthPerPixelPhaseEncode": 17.17,
  "BaseResolution": 104,
  "BodyPartExamined": "BRAIN",
  "CoilString": "HC1-7;NC1_2",
  "ConsistencyInfo": "N4_VE11C_LATEST_20160120",
  "ConversionSoftware": "dcm2niix",
  "ConversionSoftwareVersion": "v1.0.20190902",
  "DerivedVendorReportedEchoSpacing": 0.000560011,
  "DeviceSerialNumber": "167006",
  "DwellTime": 2.1e-06,
  "EchoTime": 0.037,
  "EchoTrainLength": 104,
  "EffectiveEchoSpacing": 0.000560011,
  "FlipAngle": 52,
  "HeudiconvVersion": "0.10.0",
  "ImageComments": "Unaliased_MB4_PE3_LB",
  "ImageOrientationPatientDICOM": [0.999268, 0.034136, 0.0172437, -0.0287848, 0.968186, -0.248572],
  "ImageType": [
    "ORIGINAL",
    "PRIMARY",
    "M",
    "MB",
    "ND",
    "MOSAIC"
],
  "ImagingFrequency": 123.259,
  "InPlanePhaseEncodingDirectionDICOM": "COL",
  "InstitutionAddress": "Chemin_Queen-Mary_4565_Montreal_District_CA_H3W_1W5",
  "InstitutionName": "IUGM",
  "InstitutionalDepartmentName": "Department",
  "MRAcquisitionType": "2D",
  "MagneticFieldStrength": 3,
  "Manufacturer": "Siemens",
  "ManufacturersModelName": "Prisma_fit",
  "Modality": "MR",
  "MultibandAccelerationFactor": 4,
  "PartialFourier": 1,
  "PatientPosition": "HFS",
  "PercentPhaseFOV": 100,
  "PhaseEncodingDirection": "j",
  "PhaseEncodingSteps": 104,
  "PhaseResolution": 1,
  "PixelBandwidth": 2290,
  "ProcedureStepDescription": "memory_things",
  "ProtocolName": "func_task-things_run-5",
  "PulseSequenceDetails": "%CustomerSeq%_cmrr_mbep2d_bold",
  "ReceiveCoilActiveElements": "HC1-7;NC1,2",
  "ReceiveCoilName": "HeadNeck_64",
  "ReconMatrixPE": 104,
  "RepetitionTime": 1.49,
  "SAR": 0.0566244,
  "ScanOptions": "FS",
  "ScanningSequence": "EP",
  "SequenceName": "epfid2d1_104",
  "SequenceVariant": "SK_SS",
  "SeriesDescription": "func_task-things_run-5",
  "SeriesNumber": 22,
  "ShimSetting": [628, -7207, -8760, 716, 13, 4, 70, -23],
  "SliceThickness": 2,
  "SliceTiming": [0, 0.785, 0.1, 0.8825, 0.1975, 0.98, 0.295, 1.0775, 0.3925, 1.1775, 0.49, 1.275, 0.5875, 1.3725, 0.6875, 0, 0.785, 0.1, 0.8825, 0.1975, 0.98, 0.295, 1.0775, 0.3925, 1.1775, 0.49, 1.275, 0.5875, 1.3725, 0.6875, 0, 0.785, 0.1, 0.8825, 0.1975, 0.98, 0.295, 1.0775, 0.3925, 1.1775, 0.49, 1.275, 0.5875, 1.3725, 0.6875, 0, 0.785, 0.1, 0.8825, 0.1975, 0.98, 0.295, 1.0775, 0.3925, 1.1775, 0.49, 1.275, 0.5875, 1.3725, 0.6875],
  "SoftwareVersions": "syngo_MR_E11",
  "SpacingBetweenSlices": 2,
  "StationName": "MRC35049",
  "TaskName": "things",
  "TotalReadoutTime": 0.0576811,
  "TxRefAmp": 248.376,
  "WipMemBlock": "c658723b-13e9-4804-970e-317defefab02||Sequence: R016 ve11c/master r/e634e98; Dec 19 2017 11:00:25 by eja",
  "dcmmeta_affine": [
    [-1.9985368251800537, -0.057569585740566254, 0.05036061629652977, 109.9699478149414],
    [-0.06827206164598465, 1.9363714456558228, -0.4957869350910187, -70.93350982666016],
    [0.03448730334639549, 0.49714332818984985, 1.9369200468063354, -55.228050231933594],
    [0.0, 0.0, 0.0, 1.0]
],
  "dcmmeta_reorient_transform": [
    [0.0, -1.0, 0.0, 103.0],
    [1.0, 0.0, 0.0, 0.0],
    [0.0, 0.0, 1.0, 0.0],
    [0.0, 0.0, 0.0, 1.0]
],
  "dcmmeta_shape": [104, 104, 60, 190],
  "dcmmeta_slice_dim": 2,
  "dcmmeta_version": 0.6,
  "global": {
    "const": {
      "AcquisitionMatrix": [104, 0, 0, 104],
      "AngioFlag": "N",
      "BitsAllocated": 16,
      "BitsStored": 16,
      "BodyPartExamined": "BRAIN",
      "Columns": 832,
      "EchoNumbers": 1,
      "EchoTime": 37.0,
      "EchoTrainLength": 104,
      "FlipAngle": 52.0,
      "HighBit": 15,
      "ImageOrientationPatient": [0.99926842628605, 0.03413603226815, 0.01724365184045, -0.0287847936627, 0.96818570867189, -0.2485716580331],
      "ImagePositionPatient": [-810.55236221059, -858.20297447286, 164.38450068534],
      "ImageType": [
        "ORIGINAL",
        "PRIMARY",
        "M",
        "MB",
        "ND",
        "MOSAIC"
],
      "ImagedNucleus": "1H",
      "ImagingFrequency": 123.258891,
      "InPlanePhaseEncodingDirection": "COL",
      "MRAcquisitionType": "2D",
      "MagneticFieldStrength": 3.0,
      "Manufacturer": "SIEMENS",
      "ManufacturerModelName": "Prisma_fit",
      "Modality": "MR",
      "NumberOfAverages": 1.0,
      "NumberOfPhaseEncodingSteps": 104,
      "PercentPhaseFieldOfView": 100.0,
      "PercentSampling": 100.0,
      "PerformedProcedureStepStartTime": "123653.108000",
      "PhotometricInterpretation": "MONOCHROME2",
      "PixelBandwidth": 2290.0,
      "PixelRepresentation": 0,
      "PixelSpacing": [2.0, 2.0],
      "ProtocolName": "func_task-things_run-5",
      "RepetitionTime": 1490.0,
      "Rows": 832,
      "SAR": 0.05662440600189,
      "SamplesPerPixel": 1,
      "ScanOptions": "FS",
      "ScanningSequence": "EP",
      "SequenceName": "epfid2d1_104",
      "SequenceVariant": [
        "SK",
        "SS"
],
      "SeriesDescription": "func_task-things_run-5",
      "SeriesNumber": 22,
      "SeriesTime": "135212.855000",
      "SliceLocation": -33.133127550925,
      "SliceThickness": 2.0,
      "SmallestImagePixelValue": 0,
      "SoftwareVersions": "syngo MR E11",
      "SpacingBetweenSlices": 2.000000049507,
      "SpecificCharacterSet": "ISO_IR 100",
      "StudyID": "1",
      "StudyTime": "123652.913000",
      "TransmitCoilName": "Body",
      "VariableFlipAngleFlag": "N",
      "WindowCenterWidthExplanation": "Algo1",
      "dBdt": 0.0},
    "slices": {}
  },
  "time": {
    "samples": {
      "AcquisitionNumber": [1, 2, 3, 4, 5, 6, 7, 8, 9, 10, 11, 12, 13, 14, 15, 16, 17, 18, 19, 20, 21, 22, 23, 24, 25, 26, 27, 28, 29, 30, 31, 32, 33, 34, 35, 36, 37, 38, 39, 40, 41, 42, 43, 44, 45, 46, 47, 48, 49, 50, 51, 52, 53, 54, 55, 56, 57, 58, 59, 60, 61, 62, 63, 64, 65, 66, 67, 68, 69, 70, 71, 72, 73, 74, 75, 76, 77, 78, 79, 80, 81, 82, 83, 84, 85, 86, 87, 88, 89, 90, 91, 92, 93, 94, 95, 96, 97, 98, 99, 100, 101, 102, 103, 104, 105, 106, 107, 108, 109, 110, 111, 112, 113, 114, 115, 116, 117, 118, 119, 120, 121, 122, 123, 124, 125, 126, 127, 128, 129, 130, 131, 132, 133, 134, 135, 136, 137, 138, 139, 140, 141, 142, 143, 144, 145, 146, 147, 148, 149, 150, 151, 152, 153, 154, 155, 156, 157, 158, 159, 160, 161, 162, 163, 164, 165, 166, 167, 168, 169, 170, 171, 172, 173, 174, 175, 176, 177, 178, 179, 180, 181, 182, 183, 184, 185, 186, 187, 188, 189, 190],
      "AcquisitionTime": ["135042.350000", "135043.840000", "135045.330000", "135046.820000", "135048.310000", "135049.800000", "135051.290000", "135052.780000", "135054.270000", "135055.760000", "135057.250000", "135058.740000", "135100.230000", "135101.720000", "135103.210000", "135104.700000", "135106.190000", "135107.680000", "135109.170000", "135110.660000", "135112.150000", "135113.640000", "135115.130000", "135116.620000", "135118.110000", "135119.600000", "135121.090000", "135122.580000", "135124.070000", "135125.560000", "135127.050000", "135128.540000", "135130.030000", "135131.520000", "135133.010000", "135134.500000", "135135.990000", "135137.480000", "135138.970000", "135140.460000", "135141.950000", "135143.440000", "135144.930000", "135146.420000", "135147.910000", "135149.400000", "135150.890000", "135152.380000", "135153.870000", "135155.360000", "135156.850000", "135158.340000", "135159.830000", "135201.320000", "135202.810000", "135204.300000", "135205.790000", "135207.280000", "135208.770000", "135210.260000", "135211.750000", "135213.240000", "135214.730000", "135216.220000", "135217.710000", "135219.200000", "135220.690000", "135222.180000", "135223.670000", "135225.160000", "135226.650000", "135228.140000", "135229.630000", "135231.120000", "135232.610000", "135234.100000", "135235.590000", "135237.080000", "135238.570000", "135240.060000", "135241.550000", "135243.040000", "135244.530000", "135246.020000", "135247.510000", "135249.000000", "135250.490000", "135251.980000", "135253.470000", "135254.960000", "135256.450000", "135257.940000", "135259.430000", "135300.920000", "135302.410000", "135303.900000", "135305.390000", "135306.880000", "135308.370000", "135309.860000", "135311.350000", "135312.840000", "135314.330000", "135315.820000", "135317.310000", "135318.800000", "135320.290000", "135321.780000", "135323.270000", "135324.760000", "135326.250000", "135327.740000", "135329.230000", "135330.720000", "135332.210000", "135333.700000", "135335.190000", "135336.680000", "135338.170000", "135339.660000", "135341.150000", "135342.640000", "135344.130000", "135345.620000", "135347.110000", "135348.600000", "135350.090000", "135351.580000", "135353.070000", "135354.560000", "135356.050000", "135357.540000", "135359.030000", "135400.520000", "135402.010000", "135403.500000", "135404.990000", "135406.480000", "135407.970000", "135409.460000", "135410.950000", "135412.440000", "135413.930000", "135415.420000", "135416.910000", "135418.400000", "135419.890000", "135421.380000", "135422.870000", "135424.360000", "135425.850000", "135427.340000", "135428.830000", "135430.320000", "135431.810000", "135433.300000", "135434.790000", "135436.280000", "135437.770000", "135439.260000", "135440.750000", "135442.240000", "135443.730000", "135445.220000", "135446.710000", "135448.200000", "135449.690000", "135451.180000", "135452.670000", "135454.160000", "135455.650000", "135457.140000", "135458.630000", "135500.120000", "135501.610000", "135503.100000", "135504.590000", "135506.080000", "135507.570000", "135509.060000", "135510.550000", "135512.040000", "135513.530000", "135515.020000", "135516.510000", "135518.000000", "135519.490000", "135520.980000", "135522.470000", "135523.960000"],
      "ContentTime": ["135212.858000", "135212.862000", "135212.865000", "135212.868000", "135212.872000", "135212.875000", "135212.878000", "135212.881000", "135212.885000", "135212.888000", "135212.891000", "135212.895000", "135212.898000", "135212.901000", "135212.904000", "135212.908000", "135212.911000", "135212.914000", "135212.918000", "135212.921000", "135212.924000", "135212.928000", "135212.938000", "135212.942000", "135212.945000", "135212.948000", "135212.951000", "135212.955000", "135212.958000", "135212.961000", "135212.965000", "135212.968000", "135212.971000", "135212.974000", "135212.978000", "135212.981000", "135232.818000", "135232.822000", "135232.825000", "135232.829000", "135232.832000", "135232.835000", "135232.838000", "135232.842000", "135232.845000", "135232.848000", "135232.851000", "135232.855000", "135232.858000", "135232.861000", "135232.864000", "135232.868000", "135232.871000", "135232.874000", "135232.878000", "135232.881000", "135252.818000", "135252.822000", "135252.825000", "135252.828000", "135252.831000", "135252.835000", "135252.838000", "135252.841000", "135252.844000", "135252.848000", "135252.851000", "135252.854000", "135252.858000", "135252.861000", "135252.864000", "135252.867000", "135252.871000", "135252.874000", "135252.877000", "135252.880000", "135252.884000", "135312.818000", "135312.822000", "135312.825000", "135312.828000", "135312.832000", "135312.835000", "135312.838000", "135312.858000", "135312.861000", "135312.865000", "135312.868000", "135312.871000", "135312.874000", "135312.878000", "135312.881000", "135312.884000", "135312.888000", "135312.891000", "135312.894000", "135312.897000", "135352.817000", "135352.821000", "135352.824000", "135352.827000", "135352.831000", "135352.834000", "135352.837000", "135352.841000", "135352.844000", "135352.847000", "135352.851000", "135352.854000", "135352.857000", "135352.860000", "135352.864000", "135352.867000", "135352.870000", "135352.874000", "135352.877000", "135352.880000", "135352.883000", "135352.887000", "135352.890000", "135352.893000", "135352.897000", "135352.900000", "135352.903000", "135352.906000", "135352.910000", "135352.913000", "135432.817000", "135432.821000", "135432.824000", "135432.828000", "135432.831000", "135432.834000", "135432.837000", "135432.841000", "135432.844000", "135432.847000", "135432.850000", "135432.854000", "135432.857000", "135432.860000", "135432.863000", "135432.867000", "135432.870000", "135432.873000", "135432.877000", "135432.880000", "135432.883000", "135432.886000", "135432.890000", "135432.893000", "135432.896000", "135432.900000", "135432.903000", "135512.818000", "135512.822000", "135512.825000", "135512.828000", "135512.832000", "135512.835000", "135512.838000", "135512.841000", "135512.845000", "135512.848000", "135512.851000", "135512.855000", "135512.858000", "135512.861000", "135512.864000", "135512.868000", "135512.871000", "135512.874000", "135512.878000", "135512.881000", "135512.884000", "135512.887000", "135512.891000", "135512.909000", "135512.912000", "135512.916000", "135512.919000", "135526.222000", "135526.225000", "135526.229000", "135526.232000", "135526.235000", "135526.239000", "135526.242000", "135526.245000", "135526.249000"],
      "InstanceCreationTime": ["135212.858000", "135212.862000", "135212.865000", "135212.868000", "135212.872000", "135212.875000", "135212.878000", "135212.881000", "135212.885000", "135212.888000", "135212.891000", "135212.895000", "135212.898000", "135212.901000", "135212.904000", "135212.908000", "135212.911000", "135212.914000", "135212.918000", "135212.921000", "135212.924000", "135212.928000", "135212.938000", "135212.942000", "135212.945000", "135212.948000", "135212.951000", "135212.955000", "135212.958000", "135212.961000", "135212.965000", "135212.968000", "135212.971000", "135212.974000", "135212.978000", "135212.981000", "135232.818000", "135232.822000", "135232.825000", "135232.829000", "135232.832000", "135232.835000", "135232.838000", "135232.842000", "135232.845000", "135232.848000", "135232.851000", "135232.855000", "135232.858000", "135232.861000", "135232.864000", "135232.868000", "135232.871000", "135232.874000", "135232.878000", "135232.881000", "135252.818000", "135252.822000", "135252.825000", "135252.828000", "135252.831000", "135252.835000", "135252.838000", "135252.841000", "135252.844000", "135252.848000", "135252.851000", "135252.854000", "135252.858000", "135252.861000", "135252.864000", "135252.867000", "135252.871000", "135252.874000", "135252.877000", "135252.880000", "135252.884000", "135312.818000", "135312.822000", "135312.825000", "135312.828000", "135312.832000", "135312.835000", "135312.838000", "135312.858000", "135312.861000", "135312.865000", "135312.868000", "135312.871000", "135312.874000", "135312.878000", "135312.881000", "135312.884000", "135312.888000", "135312.891000", "135312.894000", "135312.897000", "135352.817000", "135352.821000", "135352.824000", "135352.827000", "135352.831000", "135352.834000", "135352.837000", "135352.841000", "135352.844000", "135352.847000", "135352.851000", "135352.854000", "135352.857000", "135352.860000", "135352.864000", "135352.867000", "135352.870000", "135352.874000", "135352.877000", "135352.880000", "135352.883000", "135352.887000", "135352.890000", "135352.893000", "135352.897000", "135352.900000", "135352.903000", "135352.906000", "135352.910000", "135352.913000", "135432.817000", "135432.821000", "135432.824000", "135432.828000", "135432.831000", "135432.834000", "135432.837000", "135432.841000", "135432.844000", "135432.847000", "135432.850000", "135432.854000", "135432.857000", "135432.860000", "135432.863000", "135432.867000", "135432.870000", "135432.873000", "135432.877000", "135432.880000", "135432.883000", "135432.886000", "135432.890000", "135432.893000", "135432.896000", "135432.900000", "135432.903000", "135512.818000", "135512.822000", "135512.825000", "135512.828000", "135512.832000", "135512.835000", "135512.838000", "135512.841000", "135512.845000", "135512.848000", "135512.851000", "135512.855000", "135512.858000", "135512.861000", "135512.864000", "135512.868000", "135512.871000", "135512.874000", "135512.878000", "135512.881000", "135512.884000", "135512.887000", "135512.891000", "135512.909000", "135512.912000", "135512.916000", "135512.919000", "135526.222000", "135526.225000", "135526.229000", "135526.232000", "135526.235000", "135526.239000", "135526.242000", "135526.245000", "135526.249000"],
      "InstanceNumber": [1, 2, 3, 4, 5, 6, 7, 8, 9, 10, 11, 12, 13, 14, 15, 16, 17, 18, 19, 20, 21, 22, 23, 24, 25, 26, 27, 28, 29, 30, 31, 32, 33, 34, 35, 36, 37, 38, 39, 40, 41, 42, 43, 44, 45, 46, 47, 48, 49, 50, 51, 52, 53, 54, 55, 56, 57, 58, 59, 60, 61, 62, 63, 64, 65, 66, 67, 68, 69, 70, 71, 72, 73, 74, 75, 76, 77, 78, 79, 80, 81, 82, 83, 84, 85, 86, 87, 88, 89, 90, 91, 92, 93, 94, 95, 96, 97, 98, 99, 100, 101, 102, 103, 104, 105, 106, 107, 108, 109, 110, 111, 112, 113, 114, 115, 116, 117, 118, 119, 120, 121, 122, 123, 124, 125, 126, 127, 128, 129, 130, 131, 132, 133, 134, 135, 136, 137, 138, 139, 140, 141, 142, 143, 144, 145, 146, 147, 148, 149, 150, 151, 152, 153, 154, 155, 156, 157, 158, 159, 160, 161, 162, 163, 164, 165, 166, 167, 168, 169, 170, 171, 172, 173, 174, 175, 176, 177, 178, 179, 180, 181, 182, 183, 184, 185, 186, 187, 188, 189, 190],
      "LargestImagePixelValue": [39496, 38365, 37924, 37476, 37176, 36690, 36992, 37174, 36933, 36725, 36862, 36594, 36609, 36520, 36810, 36875, 37049, 36899, 36759, 36680, 36771, 36602, 36805, 36978, 37157, 36495, 36587, 36945, 36807, 36848, 36687, 36607, 36926, 36902, 36683, 36767, 36729, 36906, 37084, 36886, 36857, 36593, 36583, 36840, 36841, 36590, 36889, 36612, 36751, 36879, 36487, 36738, 36790, 36626, 36932, 36747, 36871, 36930, 36913, 36755, 36824, 36478, 36684, 36672, 36765, 36684, 36709, 37335, 36715, 36807, 37160, 36811, 37252, 36849, 36952, 36669, 36660, 36500, 36922, 37098, 37411, 37311, 37226, 36775, 36940, 37335, 36753, 37142, 37275, 37217, 37116, 37572, 37223, 36744, 37025, 37419, 37337, 37373, 37362, 37080, 37032, 37244, 37709, 37122, 37348, 36712, 36865, 37225, 37144, 37156, 37159, 37673, 37448, 36952, 36910, 37317, 37552, 37646, 37768, 37213, 36696, 36944, 37276, 37893, 37949, 37125, 36928, 36877, 37001, 37760, 37568, 37512, 37327, 37209, 37157, 37719, 37487, 37640, 37715, 37286, 37143, 37074, 37763, 37309, 37512, 37353, 37209, 37245, 37641, 37239, 37432, 37266, 37344, 37271, 37720, 37770, 37218, 36936, 36932, 37080, 37417, 37722, 37426, 37959, 37245, 37528, 37471, 37609, 38129, 37618, 37156, 37192, 37747, 37800, 38252, 38027, 37427, 37560, 37372, 36845, 36921, 37492, 37712, 37597, 37209, 36967, 36857, 37355, 37859, 37809],
      "WindowCenter": [10148.0, 10118.0, 10101.0, 10099.0, 10094.0, 10084.0, 10075.0, 10072.0, 10083.0, 10100.0, 10113.0, 10098.0, 10074.0, 10045.0, 10047.0, 10048.0, 10071.0, 10083.0, 10087.0, 10087.0, 10085.0, 10071.0, 10082.0, 10082.0, 10091.0, 10086.0, 10087.0, 10078.0, 10075.0, 10075.0, 10076.0, 10069.0, 10067.0, 10059.0, 10065.0, 10066.0, 10067.0, 10068.0, 10067.0, 10066.0, 10068.0, 10068.0, 10069.0, 10085.0, 10093.0, 10094.0, 10102.0, 10103.0, 10096.0, 10089.0, 10073.0, 10066.0, 10065.0, 10059.0, 10066.0, 10068.0, 10069.0, 10061.0, 10067.0, 10067.0, 10077.0, 10093.0, 10104.0, 10088.0, 10060.0, 10040.0, 10029.0, 10057.0, 10081.0, 10109.0, 10120.0, 10104.0, 10102.0, 10110.0, 10114.0, 10103.0, 10079.0, 10055.0, 10042.0, 10049.0, 10063.0, 10073.0, 10084.0, 10084.0, 10078.0, 10092.0, 10087.0, 10099.0, 10100.0, 10110.0, 10112.0, 10101.0, 10078.0, 10067.0, 10056.0, 10056.0, 10063.0, 10072.0, 10072.0, 10058.0, 10056.0, 10063.0, 10079.0, 10090.0, 10090.0, 10084.0, 10075.0, 10073.0, 10073.0, 10091.0, 10100.0, 10100.0, 10091.0, 10078.0, 10075.0, 10095.0, 10090.0, 10104.0, 10120.0, 10120.0, 10096.0, 10069.0, 10047.0, 10066.0, 10107.0, 10117.0, 10104.0, 10088.0, 10066.0, 10077.0, 10094.0, 10123.0, 10126.0, 10103.0, 10075.0, 10063.0, 10062.0, 10105.0, 10118.0, 10117.0, 10112.0, 10109.0, 10109.0, 10102.0, 10098.0, 10090.0, 10090.0, 10091.0, 10107.0, 10116.0, 10118.0, 10118.0, 10123.0, 10134.0, 10149.0, 10142.0, 10137.0, 10140.0, 10133.0, 10118.0, 10109.0, 10106.0, 10114.0, 10135.0, 10126.0, 10125.0, 10123.0, 10131.0, 10140.0, 10131.0, 10111.0, 10094.0, 10090.0, 10090.0, 10110.0, 10121.0, 10117.0, 10125.0, 10145.0, 10132.0, 10107.0, 10099.0, 10107.0, 10116.0, 10085.0, 10074.0, 10059.0, 10072.0, 10092.0, 10096.0],
      "WindowWidth": [21610.0, 21519.0, 21473.0, 21456.0, 21445.0, 21417.0, 21395.0, 21387.0, 21417.0, 21456.0, 21488.0, 21454.0, 21399.0, 21331.0, 21332.0, 21335.0, 21387.0, 21416.0, 21427.0, 21425.0, 21419.0, 21389.0, 21410.0, 21411.0, 21432.0, 21424.0, 21426.0, 21404.0, 21396.0, 21396.0, 21398.0, 21384.0, 21379.0, 21361.0, 21373.0, 21377.0, 21378.0, 21381.0, 21380.0, 21378.0, 21383.0, 21383.0, 21387.0, 21421.0, 21439.0, 21442.0, 21459.0, 21462.0, 21446.0, 21432.0, 21396.0, 21375.0, 21371.0, 21362.0, 21378.0, 21383.0, 21385.0, 21368.0, 21379.0, 21379.0, 21404.0, 21441.0, 21465.0, 21426.0, 21358.0, 21314.0, 21292.0, 21351.0, 21411.0, 21475.0, 21502.0, 21466.0, 21462.0, 21478.0, 21488.0, 21458.0, 21405.0, 21350.0, 21318.0, 21335.0, 21366.0, 21388.0, 21416.0, 21418.0, 21405.0, 21434.0, 21429.0, 21452.0, 21455.0, 21475.0, 21479.0, 21451.0, 21404.0, 21375.0, 21349.0, 21348.0, 21364.0, 21388.0, 21386.0, 21359.0, 21353.0, 21368.0, 21405.0, 21432.0, 21431.0, 21417.0, 21396.0, 21389.0, 21390.0, 21432.0, 21452.0, 21452.0, 21430.0, 21405.0, 21397.0, 21438.0, 21429.0, 21460.0, 21495.0, 21501.0, 21445.0, 21380.0, 21329.0, 21368.0, 21464.0, 21494.0, 21464.0, 21428.0, 21375.0, 21396.0, 21436.0, 21504.0, 21510.0, 21459.0, 21393.0, 21363.0, 21367.0, 21472.0, 21501.0, 21494.0, 21483.0, 21471.0, 21470.0, 21457.0, 21446.0, 21427.0, 21429.0, 21432.0, 21469.0, 21491.0, 21497.0, 21495.0, 21506.0, 21532.0, 21567.0, 21550.0, 21543.0, 21550.0, 21534.0, 21491.0, 21471.0, 21463.0, 21484.0, 21529.0, 21512.0, 21506.0, 21503.0, 21521.0, 21541.0, 21519.0, 21476.0, 21438.0, 21428.0, 21429.0, 21471.0, 21501.0, 21495.0, 21513.0, 21560.0, 21532.0, 21471.0, 21449.0, 21466.0, 21486.0, 21414.0, 21387.0, 21355.0, 21381.0, 21425.0, 21439.0]
    },
    "slices": {}
  }
}