{
  "AcquisitionMatrixPE": 104,
  "AcquisitionNumber": 1,
  "AcquisitionTime": "13:56:42.035000",
  "BandwidthPerPixelPhaseEncode": 17.17,
  "BaseResolution": 104,
  "BodyPartExamined": "BRAIN",
  "CoilString": "HC1-7;NC1_2",
  "ConsistencyInfo": "N4_VE11C_LATEST_20160120",
  "ConversionSoftware": "dcm2niix",
  "ConversionSoftwareVersion": "v1.0.20190902",
  "DerivedVendorReportedEchoSpacing": 0.000560011,
  "DeviceSerialNumber": "167006",
  "DwellTime": 2.1e-06,
  "EchoTime": 0.037,
  "EchoTrainLength": 104,
  "EffectiveEchoSpacing": 0.000560011,
  "FlipAngle": 52,
  "HeudiconvVersion": "0.10.0",
  "ImageComments": "Unaliased_MB4_PE3_LB",
  "ImageOrientationPatientDICOM": [0.999268, 0.034136, 0.0172437, -0.0287848, 0.968186, -0.248572],
  "ImageType": [
    "ORIGINAL",
    "PRIMARY",
    "M",
    "MB",
    "ND",
    "MOSAIC"
],
  "ImagingFrequency": 123.259,
  "InPlanePhaseEncodingDirectionDICOM": "COL",
  "InstitutionAddress": "Chemin_Queen-Mary_4565_Montreal_District_CA_H3W_1W5",
  "InstitutionName": "IUGM",
  "InstitutionalDepartmentName": "Department",
  "MRAcquisitionType": "2D",
  "MagneticFieldStrength": 3,
  "Manufacturer": "Siemens",
  "ManufacturersModelName": "Prisma_fit",
  "Modality": "MR",
  "MultibandAccelerationFactor": 4,
  "PartialFourier": 1,
  "PatientPosition": "HFS",
  "PercentPhaseFOV": 100,
  "PhaseEncodingDirection": "j",
  "PhaseEncodingSteps": 104,
  "PhaseResolution": 1,
  "PixelBandwidth": 2290,
  "ProcedureStepDescription": "memory_things",
  "ProtocolName": "func_task-things_run-6",
  "PulseSequenceDetails": "%CustomerSeq%_cmrr_mbep2d_bold",
  "ReceiveCoilActiveElements": "HC1-7;NC1,2",
  "ReceiveCoilName": "HeadNeck_64",
  "ReconMatrixPE": 104,
  "RepetitionTime": 1.49,
  "SAR": 0.0566244,
  "ScanOptions": "FS",
  "ScanningSequence": "EP",
  "SequenceName": "epfid2d1_104",
  "SequenceVariant": "SK_SS",
  "SeriesDescription": "func_task-things_run-6",
  "SeriesNumber": 25,
  "ShimSetting": [628, -7207, -8760, 716, 13, 4, 70, -23],
  "SliceThickness": 2,
  "SliceTiming": [0, 0.785, 0.1, 0.8825, 0.1975, 0.98, 0.295, 1.08, 0.3925, 1.1775, 0.49, 1.275, 0.59, 1.3725, 0.6875, 0, 0.785, 0.1, 0.8825, 0.1975, 0.98, 0.295, 1.08, 0.3925, 1.1775, 0.49, 1.275, 0.59, 1.3725, 0.6875, 0, 0.785, 0.1, 0.8825, 0.1975, 0.98, 0.295, 1.08, 0.3925, 1.1775, 0.49, 1.275, 0.59, 1.3725, 0.6875, 0, 0.785, 0.1, 0.8825, 0.1975, 0.98, 0.295, 1.08, 0.3925, 1.1775, 0.49, 1.275, 0.59, 1.3725, 0.6875],
  "SoftwareVersions": "syngo_MR_E11",
  "SpacingBetweenSlices": 2,
  "StationName": "MRC35049",
  "TaskName": "things",
  "TotalReadoutTime": 0.0576811,
  "TxRefAmp": 248.376,
  "WipMemBlock": "0da04f40-c745-4390-9f47-a4c950326b4a||Sequence: R016 ve11c/master r/e634e98; Dec 19 2017 11:00:25 by eja",
  "dcmmeta_affine": [
    [-1.9985368251800537, -0.057569585740566254, 0.05036061629652977, 109.9699478149414],
    [-0.06827206164598465, 1.9363714456558228, -0.4957869350910187, -70.93350982666016],
    [0.03448730334639549, 0.49714332818984985, 1.9369200468063354, -55.228050231933594],
    [0.0, 0.0, 0.0, 1.0]
],
  "dcmmeta_reorient_transform": [
    [0.0, -1.0, 0.0, 103.0],
    [1.0, 0.0, 0.0, 0.0],
    [0.0, 0.0, 1.0, 0.0],
    [0.0, 0.0, 0.0, 1.0]
],
  "dcmmeta_shape": [104, 104, 60, 190],
  "dcmmeta_slice_dim": 2,
  "dcmmeta_version": 0.6,
  "global": {
    "const": {
      "AcquisitionMatrix": [104, 0, 0, 104],
      "AngioFlag": "N",
      "BitsAllocated": 16,
      "BitsStored": 16,
      "BodyPartExamined": "BRAIN",
      "Columns": 832,
      "EchoNumbers": 1,
      "EchoTime": 37.0,
      "EchoTrainLength": 104,
      "FlipAngle": 52.0,
      "HighBit": 15,
      "ImageOrientationPatient": [0.99926842628605, 0.03413603226815, 0.01724365184045, -0.0287847936627, 0.96818570867189, -0.2485716580331],
      "ImagePositionPatient": [-810.55236221059, -858.20297447286, 164.38450068534],
      "ImageType": [
        "ORIGINAL",
        "PRIMARY",
        "M",
        "MB",
        "ND",
        "MOSAIC"
],
      "ImagedNucleus": "1H",
      "ImagingFrequency": 123.258893,
      "InPlanePhaseEncodingDirection": "COL",
      "MRAcquisitionType": "2D",
      "MagneticFieldStrength": 3.0,
      "Manufacturer": "SIEMENS",
      "ManufacturerModelName": "Prisma_fit",
      "Modality": "MR",
      "NumberOfAverages": 1.0,
      "NumberOfPhaseEncodingSteps": 104,
      "PercentPhaseFieldOfView": 100.0,
      "PercentSampling": 100.0,
      "PerformedProcedureStepStartTime": "123653.108000",
      "PhotometricInterpretation": "MONOCHROME2",
      "PixelBandwidth": 2290.0,
      "PixelRepresentation": 0,
      "PixelSpacing": [2.0, 2.0],
      "ProtocolName": "func_task-things_run-6",
      "RepetitionTime": 1490.0,
      "Rows": 832,
      "SAR": 0.05662440600189,
      "SamplesPerPixel": 1,
      "ScanOptions": "FS",
      "ScanningSequence": "EP",
      "SequenceName": "epfid2d1_104",
      "SequenceVariant": [
        "SK",
        "SS"
],
      "SeriesDescription": "func_task-things_run-6",
      "SeriesNumber": 25,
      "SeriesTime": "135811.496000",
      "SliceLocation": -33.133127550925,
      "SliceThickness": 2.0,
      "SmallestImagePixelValue": 0,
      "SoftwareVersions": "syngo MR E11",
      "SpacingBetweenSlices": 2.000000049507,
      "SpecificCharacterSet": "ISO_IR 100",
      "StudyID": "1",
      "StudyTime": "123652.913000",
      "TransmitCoilName": "Body",
      "VariableFlipAngleFlag": "N",
      "WindowCenterWidthExplanation": "Algo1",
      "dBdt": 0.0},
    "slices": {}
  },
  "time": {
    "samples": {
      "AcquisitionNumber": [1, 2, 3, 4, 5, 6, 7, 8, 9, 10, 11, 12, 13, 14, 15, 16, 17, 18, 19, 20, 21, 22, 23, 24, 25, 26, 27, 28, 29, 30, 31, 32, 33, 34, 35, 36, 37, 38, 39, 40, 41, 42, 43, 44, 45, 46, 47, 48, 49, 50, 51, 52, 53, 54, 55, 56, 57, 58, 59, 60, 61, 62, 63, 64, 65, 66, 67, 68, 69, 70, 71, 72, 73, 74, 75, 76, 77, 78, 79, 80, 81, 82, 83, 84, 85, 86, 87, 88, 89, 90, 91, 92, 93, 94, 95, 96, 97, 98, 99, 100, 101, 102, 103, 104, 105, 106, 107, 108, 109, 110, 111, 112, 113, 114, 115, 116, 117, 118, 119, 120, 121, 122, 123, 124, 125, 126, 127, 128, 129, 130, 131, 132, 133, 134, 135, 136, 137, 138, 139, 140, 141, 142, 143, 144, 145, 146, 147, 148, 149, 150, 151, 152, 153, 154, 155, 156, 157, 158, 159, 160, 161, 162, 163, 164, 165, 166, 167, 168, 169, 170, 171, 172, 173, 174, 175, 176, 177, 178, 179, 180, 181, 182, 183, 184, 185, 186, 187, 188, 189, 190],
      "AcquisitionTime": ["135642.035000", "135643.525000", "135645.015000", "135646.505000", "135647.995000", "135649.485000", "135650.975000", "135652.465000", "135653.955000", "135655.445000", "135656.935000", "135658.425000", "135659.915000", "135701.405000", "135702.895000", "135704.385000", "135705.875000", "135707.365000", "135708.855000", "135710.345000", "135711.835000", "135713.325000", "135714.815000", "135716.305000", "135717.795000", "135719.285000", "135720.775000", "135722.265000", "135723.755000", "135725.245000", "135726.735000", "135728.225000", "135729.715000", "135731.205000", "135732.695000", "135734.185000", "135735.675000", "135737.165000", "135738.655000", "135740.145000", "135741.635000", "135743.125000", "135744.615000", "135746.105000", "135747.595000", "135749.085000", "135750.575000", "135752.065000", "135753.555000", "135755.045000", "135756.535000", "135758.025000", "135759.515000", "135801.005000", "135802.495000", "135803.985000", "135805.475000", "135806.965000", "135808.455000", "135809.945000", "135811.435000", "135812.925000", "135814.415000", "135815.905000", "135817.395000", "135818.885000", "135820.375000", "135821.865000", "135823.355000", "135824.845000", "135826.335000", "135827.825000", "135829.315000", "135830.805000", "135832.295000", "135833.785000", "135835.275000", "135836.765000", "135838.255000", "135839.745000", "135841.235000", "135842.725000", "135844.215000", "135845.705000", "135847.195000", "135848.685000", "135850.175000", "135851.665000", "135853.155000", "135854.645000", "135856.135000", "135857.625000", "135859.115000", "135900.605000", "135902.095000", "135903.585000", "135905.075000", "135906.565000", "135908.055000", "135909.545000", "135911.035000", "135912.525000", "135914.015000", "135915.505000", "135916.995000", "135918.485000", "135919.975000", "135921.465000", "135922.955000", "135924.445000", "135925.935000", "135927.425000", "135928.915000", "135930.405000", "135931.895000", "135933.385000", "135934.875000", "135936.365000", "135937.855000", "135939.345000", "135940.835000", "135942.325000", "135943.815000", "135945.305000", "135946.795000", "135948.285000", "135949.775000", "135951.265000", "135952.755000", "135954.245000", "135955.735000", "135957.225000", "135958.715000", "140000.205000", "140001.695000", "140003.185000", "140004.675000", "140006.165000", "140007.655000", "140009.145000", "140010.635000", "140012.125000", "140013.615000", "140015.105000", "140016.595000", "140018.085000", "140019.575000", "140021.065000", "140022.555000", "140024.045000", "140025.535000", "140027.025000", "140028.515000", "140030.005000", "140031.495000", "140032.985000", "140034.475000", "140035.965000", "140037.455000", "140038.945000", "140040.435000", "140041.925000", "140043.415000", "140044.905000", "140046.395000", "140047.885000", "140049.375000", "140050.865000", "140052.355000", "140053.845000", "140055.335000", "140056.825000", "140058.315000", "140059.805000", "140101.295000", "140102.785000", "140104.275000", "140105.765000", "140107.255000", "140108.745000", "140110.235000", "140111.725000", "140113.215000", "140114.705000", "140116.195000", "140117.685000", "140119.175000", "140120.665000", "140122.155000", "140123.645000"],
      "ContentTime": ["135811.499000", "135811.503000", "135811.506000", "135811.510000", "135811.513000", "135811.516000", "135811.520000", "135811.523000", "135811.526000", "135811.529000", "135811.533000", "135811.536000", "135811.539000", "135811.542000", "135811.546000", "135811.549000", "135811.552000", "135811.556000", "135811.559000", "135811.562000", "135811.565000", "135811.569000", "135811.572000", "135811.575000", "135811.579000", "135811.582000", "135811.585000", "135811.588000", "135811.592000", "135811.595000", "135811.598000", "135811.603000", "135811.607000", "135811.610000", "135811.613000", "135811.617000", "135811.620000", "135831.466000", "135831.470000", "135831.473000", "135831.476000", "135831.480000", "135831.483000", "135831.486000", "135831.490000", "135831.493000", "135831.497000", "135831.500000", "135831.503000", "135831.506000", "135831.510000", "135831.513000", "135831.516000", "135831.530000", "135831.533000", "135831.537000", "135831.540000", "135851.466000", "135851.470000", "135851.474000", "135851.477000", "135851.480000", "135851.484000", "135851.487000", "135851.491000", "135851.494000", "135851.498000", "135851.501000", "135851.504000", "135851.507000", "135851.511000", "135851.514000", "135851.517000", "135851.521000", "135851.524000", "135851.527000", "135851.531000", "135911.466000", "135911.470000", "135911.473000", "135911.476000", "135911.480000", "135911.484000", "135911.487000", "135911.490000", "135911.494000", "135911.497000", "135911.500000", "135911.503000", "135911.507000", "135911.510000", "135911.513000", "135911.517000", "135911.520000", "135911.523000", "135911.527000", "135911.530000", "135951.467000", "135951.471000", "135951.474000", "135951.477000", "135951.481000", "135951.484000", "135951.487000", "135951.490000", "135951.494000", "135951.497000", "135951.500000", "135951.505000", "135951.508000", "135951.512000", "135951.515000", "135951.518000", "135951.521000", "135951.525000", "135951.528000", "135951.531000", "135951.535000", "135951.538000", "135951.541000", "135951.544000", "135951.548000", "135951.551000", "135951.554000", "135951.557000", "135951.561000", "140031.466000", "140031.470000", "140031.478000", "140031.481000", "140031.485000", "140031.488000", "140031.491000", "140031.495000", "140031.498000", "140031.501000", "140031.505000", "140031.508000", "140031.511000", "140031.515000", "140031.518000", "140031.521000", "140031.525000", "140031.528000", "140031.531000", "140031.535000", "140031.538000", "140031.541000", "140031.545000", "140031.548000", "140031.551000", "140031.555000", "140031.558000", "140111.466000", "140111.470000", "140111.473000", "140111.476000", "140111.480000", "140111.483000", "140111.486000", "140111.490000", "140111.493000", "140111.497000", "140111.500000", "140111.503000", "140111.507000", "140111.510000", "140111.513000", "140111.516000", "140111.520000", "140111.523000", "140111.527000", "140111.530000", "140111.534000", "140111.537000", "140111.540000", "140111.543000", "140111.547000", "140111.550000", "140111.554000", "140125.575000", "140125.589000", "140125.592000", "140125.595000", "140125.598000", "140125.602000", "140125.605000", "140125.608000", "140125.612000", "140125.615000"],
      "InstanceCreationTime": ["135811.499000", "135811.503000", "135811.506000", "135811.510000", "135811.513000", "135811.516000", "135811.520000", "135811.523000", "135811.526000", "135811.529000", "135811.533000", "135811.536000", "135811.539000", "135811.542000", "135811.546000", "135811.549000", "135811.552000", "135811.556000", "135811.559000", "135811.562000", "135811.565000", "135811.569000", "135811.572000", "135811.575000", "135811.579000", "135811.582000", "135811.585000", "135811.588000", "135811.592000", "135811.595000", "135811.598000", "135811.603000", "135811.607000", "135811.610000", "135811.613000", "135811.617000", "135811.620000", "135831.466000", "135831.470000", "135831.473000", "135831.476000", "135831.480000", "135831.483000", "135831.486000", "135831.490000", "135831.493000", "135831.497000", "135831.500000", "135831.503000", "135831.506000", "135831.510000", "135831.513000", "135831.516000", "135831.530000", "135831.533000", "135831.537000", "135831.540000", "135851.466000", "135851.470000", "135851.474000", "135851.477000", "135851.480000", "135851.484000", "135851.487000", "135851.491000", "135851.494000", "135851.498000", "135851.501000", "135851.504000", "135851.507000", "135851.511000", "135851.514000", "135851.517000", "135851.521000", "135851.524000", "135851.527000", "135851.531000", "135911.466000", "135911.470000", "135911.473000", "135911.476000", "135911.480000", "135911.484000", "135911.487000", "135911.490000", "135911.494000", "135911.497000", "135911.500000", "135911.503000", "135911.507000", "135911.510000", "135911.513000", "135911.517000", "135911.520000", "135911.523000", "135911.527000", "135911.530000", "135951.467000", "135951.471000", "135951.474000", "135951.477000", "135951.481000", "135951.484000", "135951.487000", "135951.490000", "135951.494000", "135951.497000", "135951.500000", "135951.505000", "135951.508000", "135951.512000", "135951.515000", "135951.518000", "135951.521000", "135951.525000", "135951.528000", "135951.531000", "135951.535000", "135951.538000", "135951.541000", "135951.544000", "135951.548000", "135951.551000", "135951.554000", "135951.557000", "135951.561000", "140031.466000", "140031.470000", "140031.478000", "140031.481000", "140031.485000", "140031.488000", "140031.491000", "140031.495000", "140031.498000", "140031.501000", "140031.505000", "140031.508000", "140031.511000", "140031.515000", "140031.518000", "140031.521000", "140031.525000", "140031.528000", "140031.531000", "140031.535000", "140031.538000", "140031.541000", "140031.545000", "140031.548000", "140031.551000", "140031.555000", "140031.558000", "140111.466000", "140111.470000", "140111.473000", "140111.476000", "140111.480000", "140111.483000", "140111.486000", "140111.490000", "140111.493000", "140111.497000", "140111.500000", "140111.503000", "140111.507000", "140111.510000", "140111.513000", "140111.516000", "140111.520000", "140111.523000", "140111.527000", "140111.530000", "140111.534000", "140111.537000", "140111.540000", "140111.543000", "140111.547000", "140111.550000", "140111.554000", "140125.575000", "140125.589000", "140125.592000", "140125.595000", "140125.598000", "140125.602000", "140125.605000", "140125.608000", "140125.612000", "140125.615000"],
      "InstanceNumber": [1, 2, 3, 4, 5, 6, 7, 8, 9, 10, 11, 12, 13, 14, 15, 16, 17, 18, 19, 20, 21, 22, 23, 24, 25, 26, 27, 28, 29, 30, 31, 32, 33, 34, 35, 36, 37, 38, 39, 40, 41, 42, 43, 44, 45, 46, 47, 48, 49, 50, 51, 52, 53, 54, 55, 56, 57, 58, 59, 60, 61, 62, 63, 64, 65, 66, 67, 68, 69, 70, 71, 72, 73, 74, 75, 76, 77, 78, 79, 80, 81, 82, 83, 84, 85, 86, 87, 88, 89, 90, 91, 92, 93, 94, 95, 96, 97, 98, 99, 100, 101, 102, 103, 104, 105, 106, 107, 108, 109, 110, 111, 112, 113, 114, 115, 116, 117, 118, 119, 120, 121, 122, 123, 124, 125, 126, 127, 128, 129, 130, 131, 132, 133, 134, 135, 136, 137, 138, 139, 140, 141, 142, 143, 144, 145, 146, 147, 148, 149, 150, 151, 152, 153, 154, 155, 156, 157, 158, 159, 160, 161, 162, 163, 164, 165, 166, 167, 168, 169, 170, 171, 172, 173, 174, 175, 176, 177, 178, 179, 180, 181, 182, 183, 184, 185, 186, 187, 188, 189, 190],
      "LargestImagePixelValue": [40265, 39243, 38490, 38178, 37866, 37568, 37200, 37965, 38052, 38220, 37370, 37711, 37481, 37998, 37408, 37146, 37775, 37627, 38376, 38210, 38057, 37602, 37737, 38094, 38281, 37662, 37711, 37931, 38058, 37706, 37824, 37908, 37562, 37743, 37932, 37691, 37281, 37361, 37952, 38216, 37592, 37559, 37732, 37773, 37755, 38196, 37418, 37567, 37604, 38071, 37843, 38287, 38091, 38339, 37460, 37587, 37537, 37327, 37595, 37612, 37406, 38062, 37661, 37759, 37829, 37784, 38049, 37592, 37546, 37309, 37445, 37854, 37918, 37296, 37737, 37837, 37323, 37442, 37161, 37477, 37704, 37942, 37460, 37340, 37771, 37310, 37885, 37567, 37706, 37363, 37350, 37458, 37532, 38118, 37914, 37357, 37116, 37192, 37629, 37607, 38207, 37565, 37577, 37136, 37452, 37506, 37889, 37918, 37808, 37646, 37475, 37750, 37630, 37200, 37219, 37584, 37714, 37323, 37546, 37514, 37887, 37735, 37633, 37111, 37504, 37840, 37132, 37722, 37133, 37578, 37559, 37145, 36765, 37414, 36819, 36827, 37068, 37285, 36763, 37257, 36710, 37158, 37108, 37079, 37035, 36908, 36887, 37149, 36950, 36889, 36963, 36774, 36915, 37040, 36906, 36960, 37202, 36778, 36959, 36984, 36982, 36817, 37076, 36881, 37415, 37681, 37570, 36908, 37235, 36830, 36843, 36946, 37324, 37459, 36656, 36861, 37173, 37428, 37681, 36872, 37214, 37060, 37483, 37387, 37239, 37073, 36669, 37245, 36879, 36660],
      "WindowCenter": [10184.0, 10152.0, 10131.0, 10121.0, 10114.0, 10105.0, 10096.0, 10084.0, 10081.0, 10089.0, 10094.0, 10108.0, 10110.0, 10116.0, 10090.0, 10070.0, 10049.0, 10056.0, 10085.0, 10098.0, 10107.0, 10091.0, 10084.0, 10091.0, 10099.0, 10091.0, 10093.0, 10105.0, 10118.0, 10103.0, 10096.0, 10084.0, 10085.0, 10098.0, 10115.0, 10113.0, 10105.0, 10095.0, 10094.0, 10099.0, 10102.0, 10096.0, 10079.0, 10067.0, 10067.0, 10090.0, 10104.0, 10098.0, 10076.0, 10062.0, 10056.0, 10062.0, 10087.0, 10097.0, 10092.0, 10096.0, 10095.0, 10088.0, 10088.0, 10085.0, 10077.0, 10083.0, 10077.0, 10076.0, 10082.0, 10092.0, 10094.0, 10088.0, 10077.0, 10068.0, 10075.0, 10092.0, 10094.0, 10086.0, 10085.0, 10100.0, 10112.0, 10107.0, 10095.0, 10094.0, 10095.0, 10101.0, 10094.0, 10076.0, 10056.0, 10042.0, 10055.0, 10066.0, 10088.0, 10094.0, 10095.0, 10086.0, 10077.0, 10082.0, 10099.0, 10112.0, 10099.0, 10081.0, 10060.0, 10048.0, 10064.0, 10082.0, 10094.0, 10089.0, 10086.0, 10067.0, 10064.0, 10081.0, 10098.0, 10094.0, 10093.0, 10108.0, 10109.0, 10103.0, 10095.0, 10103.0, 10102.0, 10087.0, 10075.0, 10076.0, 10091.0, 10101.0, 10095.0, 10079.0, 10077.0, 10084.0, 10086.0, 10094.0, 10087.0, 10087.0, 10092.0, 10096.0, 10090.0, 10098.0, 10106.0, 10109.0, 10103.0, 10081.0, 10054.0, 10057.0, 10069.0, 10096.0, 10110.0, 10104.0, 10097.0, 10083.0, 10064.0, 10068.0, 10076.0, 10079.0, 10077.0, 10086.0, 10090.0, 10090.0, 10082.0, 10079.0, 10070.0, 10079.0, 10096.0, 10107.0, 10098.0, 10082.0, 10069.0, 10062.0, 10072.0, 10091.0, 10117.0, 10125.0, 10124.0, 10107.0, 10073.0, 10062.0, 10084.0, 10109.0, 10100.0, 10084.0, 10071.0, 10067.0, 10088.0, 10086.0, 10089.0, 10082.0, 10083.0, 10083.0, 10085.0, 10101.0, 10112.0, 10128.0, 10114.0, 10081.0],
      "WindowWidth": [21691.0, 21594.0, 21538.0, 21507.0, 21490.0, 21466.0, 21445.0, 21415.0, 21408.0, 21427.0, 21441.0, 21472.0, 21475.0, 21486.0, 21432.0, 21384.0, 21333.0, 21350.0, 21412.0, 21448.0, 21465.0, 21429.0, 21415.0, 21431.0, 21448.0, 21428.0, 21435.0, 21459.0, 21491.0, 21458.0, 21441.0, 21412.0, 21418.0, 21445.0, 21484.0, 21483.0, 21464.0, 21441.0, 21438.0, 21446.0, 21456.0, 21444.0, 21404.0, 21372.0, 21376.0, 21426.0, 21463.0, 21447.0, 21394.0, 21358.0, 21347.0, 21363.0, 21418.0, 21443.0, 21435.0, 21446.0, 21446.0, 21428.0, 21428.0, 21417.0, 21400.0, 21413.0, 21400.0, 21397.0, 21408.0, 21431.0, 21437.0, 21425.0, 21400.0, 21379.0, 21395.0, 21434.0, 21437.0, 21419.0, 21415.0, 21452.0, 21482.0, 21472.0, 21441.0, 21436.0, 21437.0, 21449.0, 21432.0, 21394.0, 21347.0, 21318.0, 21345.0, 21374.0, 21423.0, 21441.0, 21442.0, 21420.0, 21400.0, 21410.0, 21450.0, 21483.0, 21452.0, 21408.0, 21357.0, 21331.0, 21369.0, 21410.0, 21442.0, 21430.0, 21421.0, 21378.0, 21370.0, 21408.0, 21446.0, 21441.0, 21437.0, 21468.0, 21471.0, 21457.0, 21441.0, 21458.0, 21454.0, 21423.0, 21394.0, 21398.0, 21427.0, 21452.0, 21439.0, 21406.0, 21400.0, 21415.0, 21421.0, 21438.0, 21425.0, 21424.0, 21431.0, 21444.0, 21432.0, 21449.0, 21467.0, 21474.0, 21455.0, 21407.0, 21345.0, 21352.0, 21385.0, 21446.0, 21477.0, 21464.0, 21445.0, 21414.0, 21373.0, 21379.0, 21397.0, 21407.0, 21399.0, 21422.0, 21434.0, 21432.0, 21414.0, 21405.0, 21385.0, 21406.0, 21446.0, 21473.0, 21450.0, 21413.0, 21379.0, 21365.0, 21384.0, 21429.0, 21490.0, 21514.0, 21510.0, 21470.0, 21392.0, 21365.0, 21416.0, 21472.0, 21456.0, 21418.0, 21386.0, 21374.0, 21419.0, 21420.0, 21429.0, 21412.0, 21410.0, 21410.0, 21416.0, 21453.0, 21478.0, 21514.0, 21482.0, 21407.0]
    },
    "slices": {}
  }
}