{
  "AcquisitionMatrixPE": 104,
  "AcquisitionNumber": 1,
  "AcquisitionTime": "13:30:28.032500",
  "BandwidthPerPixelPhaseEncode": 17.17,
  "BaseResolution": 104,
  "BodyPartExamined": "BRAIN",
  "CoilString": "HC1-7;NC1_2",
  "ConsistencyInfo": "N4_VE11C_LATEST_20160120",
  "ConversionSoftware": "dcm2niix",
  "ConversionSoftwareVersion": "v1.0.20190902",
  "DerivedVendorReportedEchoSpacing": 0.000560011,
  "DeviceSerialNumber": "167006",
  "DwellTime": 2.1e-06,
  "EchoTime": 0.037,
  "EchoTrainLength": 104,
  "EffectiveEchoSpacing": 0.000560011,
  "FlipAngle": 52,
  "ImageComments": "Unaliased_MB4_PE3_LB",
  "ImageOrientationPatientDICOM": [0.999515, 0.0161041, 0.0266719, -0.00994383, 0.976175, -0.216758],
  "ImageType": [
    "ORIGINAL",
    "PRIMARY",
    "M",
    "MB",
    "ND",
    "MOSAIC"
],
  "ImagingFrequency": 123.259,
  "InPlanePhaseEncodingDirectionDICOM": "COL",
  "InstitutionAddress": "Chemin_Queen-Mary_4565_Montreal_District_CA_H3W_1W5",
  "InstitutionName": "IUGM",
  "InstitutionalDepartmentName": "Department",
  "MRAcquisitionType": "2D",
  "MagneticFieldStrength": 3,
  "Manufacturer": "Siemens",
  "ManufacturersModelName": "Prisma_fit",
  "Modality": "MR",
  "MultibandAccelerationFactor": 4,
  "PartialFourier": 1,
  "PatientPosition": "HFS",
  "PercentPhaseFOV": 100,
  "PhaseEncodingDirection": "j",
  "PhaseEncodingSteps": 104,
  "PhaseResolution": 1,
  "PixelBandwidth": 2290,
  "ProcedureStepDescription": "memory_things",
  "ProtocolName": "func_task-things_run-1",
  "PulseSequenceDetails": "%CustomerSeq%_cmrr_mbep2d_bold",
  "ReceiveCoilActiveElements": "HC1-7;NC1,2",
  "ReceiveCoilName": "HeadNeck_64",
  "ReconMatrixPE": 104,
  "RepetitionTime": 1.49,
  "SAR": 0.0411504,
  "ScanOptions": "FS",
  "ScanningSequence": "EP",
  "SequenceName": "epfid2d1_104",
  "SequenceVariant": "SK_SS",
  "SeriesDescription": "func_task-things_run-1",
  "SeriesNumber": 10,
  "ShimSetting": [637, -7222, -8778, 717, 59, -23, 88, -8],
  "SliceThickness": 2,
  "SliceTiming": [0, 0.785, 0.0975, 0.8825, 0.1975, 0.98, 0.295, 1.0775, 0.3925, 1.1775, 0.49, 1.275, 0.5875, 1.3725, 0.6875, 0, 0.785, 0.0975, 0.8825, 0.1975, 0.98, 0.295, 1.0775, 0.3925, 1.1775, 0.49, 1.275, 0.5875, 1.3725, 0.6875, 0, 0.785, 0.0975, 0.8825, 0.1975, 0.98, 0.295, 1.0775, 0.3925, 1.1775, 0.49, 1.275, 0.5875, 1.3725, 0.6875, 0, 0.785, 0.0975, 0.8825, 0.1975, 0.98, 0.295, 1.0775, 0.3925, 1.1775, 0.49, 1.275, 0.5875, 1.3725, 0.6875],
  "SoftwareVersions": "syngo_MR_E11",
  "SpacingBetweenSlices": 2,
  "StationName": "MRC35049",
  "TaskName": "things",
  "TotalReadoutTime": 0.0576811,
  "TxRefAmp": 218.768,
  "WipMemBlock": "71dbb632-b5f4-43dd-9e17-660f86575c52||Sequence: R016 ve11c/master r/e634e98; Dec 19 2017 11:00:25 by eja",
  "dcmmeta_affine": [
    [-1.9990290403366089, -0.0198876541107893, 0.05905432626605034, 108.30137634277344],
    [-0.03220810368657112, 1.952349305152893, -0.4327758550643921, -75.53141784667969],
    [0.053343888372182846, 0.4335167706012726, 1.9517216682434082, -56.59928512573242],
    [0.0, 0.0, 0.0, 1.0]
],
  "dcmmeta_reorient_transform": [
    [0.0, -1.0, 0.0, 103.0],
    [1.0, 0.0, 0.0, 0.0],
    [0.0, 0.0, 1.0, 0.0],
    [0.0, 0.0, 0.0, 1.0]
],
  "dcmmeta_shape": [104, 104, 60, 190],
  "dcmmeta_slice_dim": 2,
  "dcmmeta_version": 0.6,
  "global": {
    "const": {
      "AcquisitionMatrix": [104, 0, 0, 104],
      "AngioFlag": "N",
      "BitsAllocated": 16,
      "BitsStored": 16,
      "BodyPartExamined": "BRAIN",
      "Columns": 832,
      "EchoNumbers": 1,
      "EchoTime": 37.0,
      "EchoTrainLength": 104,
      "FlipAngle": 52.0,
      "HighBit": 15,
      "ImageOrientationPatient": [0.9995145155904, 0.01610405166712, 0.02667194488588, -0.0099438267944, 0.97617463836467, -0.2167583809736],
      "ImagePositionPatient": [-826.66041021003, -847.93944318079, 126.43586753799],
      "ImageType": [
        "ORIGINAL",
        "PRIMARY",
        "M",
        "MB",
        "ND",
        "MOSAIC"
],
      "ImagedNucleus": "1H",
      "ImagingFrequency": 123.258927,
      "InPlanePhaseEncodingDirection": "COL",
      "MRAcquisitionType": "2D",
      "MagneticFieldStrength": 3.0,
      "Manufacturer": "SIEMENS",
      "ManufacturerModelName": "Prisma_fit",
      "Modality": "MR",
      "NumberOfAverages": 1.0,
      "NumberOfPhaseEncodingSteps": 104,
      "PercentPhaseFieldOfView": 100.0,
      "PercentSampling": 100.0,
      "PerformedProcedureStepStartTime": "130613.578000",
      "PhotometricInterpretation": "MONOCHROME2",
      "PixelBandwidth": 2290.0,
      "PixelRepresentation": 0,
      "PixelSpacing": [2.0, 2.0],
      "ProtocolName": "func_task-things_run-1",
      "RepetitionTime": 1490.0,
      "Rows": 832,
      "SAR": 0.04115036591945,
      "SamplesPerPixel": 1,
      "ScanOptions": "FS",
      "ScanningSequence": "EP",
      "SequenceName": "epfid2d1_104",
      "SequenceVariant": [
        "SK",
        "SS"
],
      "SeriesDescription": "func_task-things_run-1",
      "SeriesNumber": 10,
      "SeriesTime": "133134.684000",
      "SliceLocation": -35.691106514532,
      "SliceThickness": 2.0,
      "SmallestImagePixelValue": 0,
      "SoftwareVersions": "syngo MR E11",
      "SpacingBetweenSlices": 1.9999999671819,
      "SpecificCharacterSet": "ISO_IR 100",
      "StudyID": "1",
      "StudyTime": "130613.465000",
      "TransmitCoilName": "Body",
      "VariableFlipAngleFlag": "N",
      "WindowCenterWidthExplanation": "Algo1",
      "dBdt": 0.0},
    "slices": {}
  },
  "time": {
    "samples": {
      "AcquisitionNumber": [1, 2, 3, 4, 5, 6, 7, 8, 9, 10, 11, 12, 13, 14, 15, 16, 17, 18, 19, 20, 21, 22, 23, 24, 25, 26, 27, 28, 29, 30, 31, 32, 33, 34, 35, 36, 37, 38, 39, 40, 41, 42, 43, 44, 45, 46, 47, 48, 49, 50, 51, 52, 53, 54, 55, 56, 57, 58, 59, 60, 61, 62, 63, 64, 65, 66, 67, 68, 69, 70, 71, 72, 73, 74, 75, 76, 77, 78, 79, 80, 81, 82, 83, 84, 85, 86, 87, 88, 89, 90, 91, 92, 93, 94, 95, 96, 97, 98, 99, 100, 101, 102, 103, 104, 105, 106, 107, 108, 109, 110, 111, 112, 113, 114, 115, 116, 117, 118, 119, 120, 121, 122, 123, 124, 125, 126, 127, 128, 129, 130, 131, 132, 133, 134, 135, 136, 137, 138, 139, 140, 141, 142, 143, 144, 145, 146, 147, 148, 149, 150, 151, 152, 153, 154, 155, 156, 157, 158, 159, 160, 161, 162, 163, 164, 165, 166, 167, 168, 169, 170, 171, 172, 173, 174, 175, 176, 177, 178, 179, 180, 181, 182, 183, 184, 185, 186, 187, 188, 189, 190],
      "AcquisitionTime": ["133028.032500", "133029.522500", "133031.012500", "133032.502500", "133033.992500", "133035.482500", "133036.972500", "133038.462500", "133039.952500", "133041.442500", "133042.932500", "133044.422500", "133045.912500", "133047.402500", "133048.892500", "133050.382500", "133051.872500", "133053.362500", "133054.852500", "133056.342500", "133057.832500", "133059.322500", "133100.812500", "133102.302500", "133103.792500", "133105.282500", "133106.772500", "133108.262500", "133109.752500", "133111.242500", "133112.732500", "133114.222500", "133115.712500", "133117.202500", "133118.692500", "133120.182500", "133121.672500", "133123.162500", "133124.652500", "133126.142500", "133127.632500", "133129.122500", "133130.612500", "133132.102500", "133133.592500", "133135.082500", "133136.572500", "133138.062500", "133139.552500", "133141.042500", "133142.532500", "133144.022500", "133145.512500", "133147.002500", "133148.492500", "133149.982500", "133151.472500", "133152.962500", "133154.452500", "133155.942500", "133157.432500", "133158.922500", "133200.412500", "133201.902500", "133203.392500", "133204.882500", "133206.372500", "133207.862500", "133209.352500", "133210.842500", "133212.332500", "133213.822500", "133215.312500", "133216.802500", "133218.292500", "133219.782500", "133221.272500", "133222.762500", "133224.252500", "133225.742500", "133227.232500", "133228.722500", "133230.212500", "133231.702500", "133233.192500", "133234.682500", "133236.172500", "133237.662500", "133239.152500", "133240.642500", "133242.132500", "133243.622500", "133245.112500", "133246.602500", "133248.092500", "133249.582500", "133251.072500", "133252.562500", "133254.052500", "133255.542500", "133257.032500", "133258.522500", "133300.012500", "133301.502500", "133302.992500", "133304.482500", "133305.972500", "133307.462500", "133308.952500", "133310.442500", "133311.932500", "133313.422500", "133314.912500", "133316.402500", "133317.892500", "133319.382500", "133320.872500", "133322.362500", "133323.852500", "133325.342500", "133326.832500", "133328.322500", "133329.812500", "133331.302500", "133332.792500", "133334.282500", "133335.772500", "133337.262500", "133338.752500", "133340.242500", "133341.732500", "133343.222500", "133344.712500", "133346.202500", "133347.692500", "133349.182500", "133350.672500", "133352.162500", "133353.652500", "133355.142500", "133356.632500", "133358.122500", "133359.612500", "133401.102500", "133402.592500", "133404.082500", "133405.572500", "133407.062500", "133408.552500", "133410.042500", "133411.532500", "133413.022500", "133414.512500", "133416.002500", "133417.492500", "133418.982500", "133420.472500", "133421.962500", "133423.452500", "133424.942500", "133426.432500", "133427.922500", "133429.412500", "133430.902500", "133432.392500", "133433.882500", "133435.372500", "133436.862500", "133438.352500", "133439.842500", "133441.332500", "133442.822500", "133444.312500", "133445.802500", "133447.292500", "133448.782500", "133450.272500", "133451.762500", "133453.252500", "133454.742500", "133456.232500", "133457.722500", "133459.212500", "133500.702500", "133502.192500", "133503.682500", "133505.172500", "133506.662500", "133508.152500", "133509.642500"],
      "ContentTime": ["133134.688000", "133134.691000", "133134.695000", "133134.703000", "133134.706000", "133134.710000", "133134.713000", "133134.716000", "133134.720000", "133134.723000", "133134.727000", "133134.730000", "133154.690000", "133154.693000", "133154.697000", "133154.700000", "133154.704000", "133154.707000", "133154.710000", "133154.714000", "133154.725000", "133154.728000", "133154.732000", "133154.735000", "133154.738000", "133154.742000", "133154.745000", "133154.749000", "133154.752000", "133154.755000", "133154.759000", "133154.762000", "133214.653000", "133214.657000", "133214.660000", "133214.664000", "133214.667000", "133214.670000", "133214.674000", "133214.677000", "133214.681000", "133214.684000", "133214.687000", "133214.691000", "133214.694000", "133214.697000", "133214.701000", "133214.704000", "133214.708000", "133214.711000", "133214.714000", "133214.718000", "133214.721000", "133234.653000", "133234.657000", "133234.660000", "133234.664000", "133234.667000", "133234.670000", "133234.674000", "133234.677000", "133234.681000", "133234.684000", "133234.687000", "133234.691000", "133234.694000", "133234.697000", "133234.701000", "133234.704000", "133234.708000", "133234.711000", "133234.714000", "133234.718000", "133254.653000", "133254.657000", "133254.660000", "133254.664000", "133254.667000", "133254.671000", "133254.674000", "133254.677000", "133254.681000", "133254.684000", "133254.688000", "133254.691000", "133254.694000", "133254.698000", "133254.701000", "133254.705000", "133254.708000", "133254.712000", "133254.715000", "133254.718000", "133334.654000", "133334.658000", "133334.662000", "133334.665000", "133334.668000", "133334.672000", "133334.675000", "133334.679000", "133334.682000", "133334.685000", "133334.689000", "133334.692000", "133334.695000", "133334.699000", "133334.702000", "133334.706000", "133334.709000", "133334.713000", "133334.716000", "133334.719000", "133334.723000", "133334.726000", "133334.730000", "133334.733000", "133334.736000", "133334.740000", "133334.743000", "133334.747000", "133334.750000", "133334.766000", "133334.770000", "133334.773000", "133414.653000", "133414.657000", "133414.661000", "133414.664000", "133414.668000", "133414.671000", "133414.675000", "133414.678000", "133414.682000", "133414.685000", "133414.689000", "133414.692000", "133414.696000", "133414.699000", "133414.702000", "133414.706000", "133414.709000", "133414.713000", "133414.716000", "133414.720000", "133414.723000", "133414.726000", "133414.730000", "133414.734000", "133414.739000", "133414.743000", "133454.653000", "133454.657000", "133454.661000", "133454.664000", "133454.667000", "133454.671000", "133454.674000", "133454.678000", "133454.681000", "133454.684000", "133454.688000", "133454.691000", "133454.695000", "133454.698000", "133454.701000", "133454.705000", "133454.708000", "133454.712000", "133454.715000", "133454.719000", "133454.722000", "133454.725000", "133454.729000", "133454.732000", "133454.736000", "133454.739000", "133454.743000", "133511.426000", "133511.430000", "133511.433000", "133511.437000", "133511.441000", "133511.444000", "133511.448000", "133511.453000", "133511.457000", "133511.460000", "133511.464000", "133511.467000"],
      "InstanceCreationTime": ["133134.688000", "133134.691000", "133134.695000", "133134.703000", "133134.706000", "133134.710000", "133134.713000", "133134.716000", "133134.720000", "133134.723000", "133134.727000", "133134.730000", "133154.690000", "133154.693000", "133154.697000", "133154.700000", "133154.704000", "133154.707000", "133154.710000", "133154.714000", "133154.725000", "133154.728000", "133154.732000", "133154.735000", "133154.738000", "133154.742000", "133154.745000", "133154.749000", "133154.752000", "133154.755000", "133154.759000", "133154.762000", "133214.653000", "133214.657000", "133214.660000", "133214.664000", "133214.667000", "133214.670000", "133214.674000", "133214.677000", "133214.681000", "133214.684000", "133214.687000", "133214.691000", "133214.694000", "133214.697000", "133214.701000", "133214.704000", "133214.708000", "133214.711000", "133214.714000", "133214.718000", "133214.721000", "133234.653000", "133234.657000", "133234.660000", "133234.664000", "133234.667000", "133234.670000", "133234.674000", "133234.677000", "133234.681000", "133234.684000", "133234.687000", "133234.691000", "133234.694000", "133234.697000", "133234.701000", "133234.704000", "133234.708000", "133234.711000", "133234.714000", "133234.718000", "133254.653000", "133254.657000", "133254.660000", "133254.664000", "133254.667000", "133254.671000", "133254.674000", "133254.677000", "133254.681000", "133254.684000", "133254.688000", "133254.691000", "133254.694000", "133254.698000", "133254.701000", "133254.705000", "133254.708000", "133254.712000", "133254.715000", "133254.718000", "133334.654000", "133334.658000", "133334.662000", "133334.665000", "133334.668000", "133334.672000", "133334.675000", "133334.679000", "133334.682000", "133334.685000", "133334.689000", "133334.692000", "133334.695000", "133334.699000", "133334.702000", "133334.706000", "133334.709000", "133334.713000", "133334.716000", "133334.719000", "133334.723000", "133334.726000", "133334.730000", "133334.733000", "133334.736000", "133334.740000", "133334.743000", "133334.747000", "133334.750000", "133334.766000", "133334.770000", "133334.773000", "133414.653000", "133414.657000", "133414.661000", "133414.664000", "133414.668000", "133414.671000", "133414.675000", "133414.678000", "133414.682000", "133414.685000", "133414.689000", "133414.692000", "133414.696000", "133414.699000", "133414.702000", "133414.706000", "133414.709000", "133414.713000", "133414.716000", "133414.720000", "133414.723000", "133414.726000", "133414.730000", "133414.734000", "133414.739000", "133414.743000", "133454.653000", "133454.657000", "133454.661000", "133454.664000", "133454.667000", "133454.671000", "133454.674000", "133454.678000", "133454.681000", "133454.684000", "133454.688000", "133454.691000", "133454.695000", "133454.698000", "133454.701000", "133454.705000", "133454.708000", "133454.712000", "133454.715000", "133454.719000", "133454.722000", "133454.725000", "133454.729000", "133454.732000", "133454.736000", "133454.739000", "133454.743000", "133511.426000", "133511.430000", "133511.433000", "133511.437000", "133511.441000", "133511.444000", "133511.448000", "133511.453000", "133511.457000", "133511.460000", "133511.464000", "133511.467000"],
      "InstanceNumber": [1, 2, 3, 4, 5, 6, 7, 8, 9, 10, 11, 12, 13, 14, 15, 16, 17, 18, 19, 20, 21, 22, 23, 24, 25, 26, 27, 28, 29, 30, 31, 32, 33, 34, 35, 36, 37, 38, 39, 40, 41, 42, 43, 44, 45, 46, 47, 48, 49, 50, 51, 52, 53, 54, 55, 56, 57, 58, 59, 60, 61, 62, 63, 64, 65, 66, 67, 68, 69, 70, 71, 72, 73, 74, 75, 76, 77, 78, 79, 80, 81, 82, 83, 84, 85, 86, 87, 88, 89, 90, 91, 92, 93, 94, 95, 96, 97, 98, 99, 100, 101, 102, 103, 104, 105, 106, 107, 108, 109, 110, 111, 112, 113, 114, 115, 116, 117, 118, 119, 120, 121, 122, 123, 124, 125, 126, 127, 128, 129, 130, 131, 132, 133, 134, 135, 136, 137, 138, 139, 140, 141, 142, 143, 144, 145, 146, 147, 148, 149, 150, 151, 152, 153, 154, 155, 156, 157, 158, 159, 160, 161, 162, 163, 164, 165, 166, 167, 168, 169, 170, 171, 172, 173, 174, 175, 176, 177, 178, 179, 180, 181, 182, 183, 184, 185, 186, 187, 188, 189, 190],
      "LargestImagePixelValue": [41576, 40457, 39538, 38943, 39012, 39143, 38834, 39030, 38857, 39216, 38897, 38908, 38746, 38733, 38824, 38812, 38819, 38375, 38819, 38735, 38702, 38834, 38820, 38548, 38896, 38775, 38757, 38588, 38794, 38633, 39034, 38626, 38666, 38669, 38943, 39190, 38688, 38799, 38676, 38995, 38663, 38753, 38991, 38548, 38714, 38474, 38584, 38741, 38841, 38691, 38693, 39021, 38663, 38917, 38920, 39131, 38779, 38992, 38643, 38581, 38913, 38847, 38779, 39135, 38784, 38987, 38678, 38961, 39096, 38969, 39173, 38705, 38811, 38709, 39025, 39143, 38939, 38965, 38831, 38603, 38886, 38932, 38935, 38972, 38833, 38643, 38742, 38642, 38596, 38715, 38631, 38733, 38595, 39005, 39130, 38774, 39259, 38417, 38758, 38747, 38308, 38623, 38711, 39261, 38888, 38654, 38519, 38752, 38675, 38803, 38816, 38988, 39042, 39059, 38624, 38999, 38756, 38734, 38988, 38919, 38883, 39036, 39453, 38630, 38645, 38738, 38720, 38881, 39291, 39067, 39055, 39020, 38542, 39155, 38879, 38730, 38769, 38858, 39203, 38774, 38659, 38899, 39004, 38706, 38540, 38777, 38537, 38725, 38999, 39246, 38997, 38679, 39046, 39100, 39443, 39043, 39432, 39451, 38925, 39225, 39284, 39003, 39064, 38950, 39077, 39031, 38743, 38747, 38787, 38868, 38790, 39003, 38933, 39103, 38941, 38526, 38454, 38784, 38853, 38746, 38839, 38952, 38540, 39177, 39109, 38547, 38327, 38607, 38825, 38992],
      "WindowCenter": [10186.0, 10150.0, 10122.0, 10089.0, 10071.0, 10076.0, 10085.0, 10094.0, 10080.0, 10084.0, 10092.0, 10106.0, 10096.0, 10096.0, 10094.0, 10095.0, 10105.0, 10090.0, 10094.0, 10095.0, 10102.0, 10095.0, 10080.0, 10064.0, 10074.0, 10076.0, 10077.0, 10070.0, 10083.0, 10086.0, 10093.0, 10089.0, 10088.0, 10094.0, 10103.0, 10104.0, 10105.0, 10099.0, 10087.0, 10068.0, 10068.0, 10083.0, 10100.0, 10089.0, 10077.0, 10063.0, 10070.0, 10077.0, 10077.0, 10070.0, 10070.0, 10076.0, 10084.0, 10085.0, 10094.0, 10093.0, 10086.0, 10078.0, 10085.0, 10095.0, 10103.0, 10099.0, 10096.0, 10091.0, 10085.0, 10093.0, 10102.0, 10111.0, 10111.0, 10103.0, 10100.0, 10079.0, 10071.0, 10077.0, 10093.0, 10110.0, 10105.0, 10081.0, 10061.0, 10044.0, 10051.0, 10075.0, 10095.0, 10104.0, 10089.0, 10086.0, 10078.0, 10075.0, 10079.0, 10079.0, 10079.0, 10081.0, 10080.0, 10078.0, 10069.0, 10068.0, 10075.0, 10073.0, 10072.0, 10064.0, 10055.0, 10053.0, 10058.0, 10074.0, 10077.0, 10071.0, 10064.0, 10064.0, 10077.0, 10089.0, 10103.0, 10096.0, 10081.0, 10070.0, 10071.0, 10079.0, 10080.0, 10080.0, 10073.0, 10078.0, 10086.0, 10086.0, 10084.0, 10072.0, 10070.0, 10070.0, 10069.0, 10076.0, 10083.0, 10086.0, 10090.0, 10087.0, 10075.0, 10094.0, 10106.0, 10107.0, 10066.0, 10044.0, 10040.0, 10059.0, 10076.0, 10079.0, 10071.0, 10053.0, 10038.0, 10043.0, 10054.0, 10061.0, 10069.0, 10075.0, 10070.0, 10070.0, 10071.0, 10077.0, 10087.0, 10088.0, 10087.0, 10086.0, 10078.0, 10079.0, 10085.0, 10086.0, 10087.0, 10097.0, 10089.0, 10096.0, 10080.0, 10056.0, 10036.0, 10041.0, 10059.0, 10067.0, 10052.0, 10035.0, 10026.0, 10025.0, 10018.0, 10024.0, 10033.0, 10048.0, 10058.0, 10074.0, 10064.0, 10068.0, 10065.0, 10061.0, 10064.0, 10071.0, 10084.0, 10077.0],
      "WindowWidth": [21707.0, 21603.0, 21525.0, 21446.0, 21400.0, 21408.0, 21429.0, 21449.0, 21420.0, 21426.0, 21446.0, 21475.0, 21456.0, 21455.0, 21447.0, 21450.0, 21476.0, 21442.0, 21446.0, 21451.0, 21465.0, 21448.0, 21415.0, 21379.0, 21398.0, 21407.0, 21409.0, 21395.0, 21419.0, 21431.0, 21444.0, 21437.0, 21436.0, 21448.0, 21469.0, 21472.0, 21475.0, 21460.0, 21429.0, 21384.0, 21386.0, 21421.0, 21460.0, 21437.0, 21407.0, 21376.0, 21392.0, 21408.0, 21409.0, 21393.0, 21393.0, 21403.0, 21420.0, 21426.0, 21447.0, 21444.0, 21427.0, 21410.0, 21426.0, 21451.0, 21468.0, 21464.0, 21451.0, 21435.0, 21425.0, 21442.0, 21465.0, 21486.0, 21487.0, 21468.0, 21456.0, 21411.0, 21394.0, 21407.0, 21443.0, 21482.0, 21470.0, 21417.0, 21368.0, 21330.0, 21345.0, 21403.0, 21450.0, 21470.0, 21438.0, 21425.0, 21409.0, 21400.0, 21411.0, 21411.0, 21409.0, 21415.0, 21412.0, 21407.0, 21387.0, 21385.0, 21397.0, 21399.0, 21393.0, 21375.0, 21356.0, 21350.0, 21362.0, 21398.0, 21404.0, 21393.0, 21378.0, 21377.0, 21403.0, 21435.0, 21465.0, 21449.0, 21414.0, 21388.0, 21394.0, 21411.0, 21416.0, 21413.0, 21396.0, 21409.0, 21425.0, 21428.0, 21420.0, 21395.0, 21390.0, 21391.0, 21387.0, 21403.0, 21418.0, 21426.0, 21435.0, 21428.0, 21402.0, 21441.0, 21471.0, 21473.0, 21378.0, 21325.0, 21316.0, 21361.0, 21402.0, 21409.0, 21391.0, 21350.0, 21316.0, 21328.0, 21355.0, 21368.0, 21386.0, 21397.0, 21389.0, 21388.0, 21391.0, 21401.0, 21427.0, 21431.0, 21427.0, 21424.0, 21406.0, 21408.0, 21420.0, 21424.0, 21425.0, 21450.0, 21430.0, 21446.0, 21411.0, 21356.0, 21309.0, 21320.0, 21363.0, 21380.0, 21346.0, 21307.0, 21285.0, 21283.0, 21269.0, 21283.0, 21303.0, 21336.0, 21361.0, 21395.0, 21377.0, 21380.0, 21371.0, 21366.0, 21375.0, 21388.0, 21415.0, 21403.0]
    },
    "slices": {}
  }
}