{
  "AcquisitionMatrixPE": 104,
  "AcquisitionNumber": 1,
  "AcquisitionTime": "13:48:38.572500",
  "BandwidthPerPixelPhaseEncode": 17.17,
  "BaseResolution": 104,
  "BodyPartExamined": "BRAIN",
  "CoilString": "HC1-7;NC1_2",
  "ConsistencyInfo": "N4_VE11C_LATEST_20160120",
  "ConversionSoftware": "dcm2niix",
  "ConversionSoftwareVersion": "v1.0.20190902",
  "DerivedVendorReportedEchoSpacing": 0.000560011,
  "DeviceSerialNumber": "167006",
  "DwellTime": 2.1e-06,
  "EchoTime": 0.037,
  "EchoTrainLength": 104,
  "EffectiveEchoSpacing": 0.000560011,
  "FlipAngle": 52,
  "ImageComments": "Unaliased_MB4_PE3_LB",
  "ImageOrientationPatientDICOM": [0.999515, 0.0161041, 0.0266719, -0.00994383, 0.976175, -0.216758],
  "ImageType": [
    "ORIGINAL",
    "PRIMARY",
    "P",
    "MB",
    "ND",
    "MOSAIC"
],
  "ImagingFrequency": 123.259,
  "InPlanePhaseEncodingDirectionDICOM": "COL",
  "InstitutionAddress": "Chemin_Queen-Mary_4565_Montreal_District_CA_H3W_1W5",
  "InstitutionName": "IUGM",
  "InstitutionalDepartmentName": "Department",
  "MRAcquisitionType": "2D",
  "MagneticFieldStrength": 3,
  "Manufacturer": "Siemens",
  "ManufacturersModelName": "Prisma_fit",
  "Modality": "MR",
  "MultibandAccelerationFactor": 4,
  "PartialFourier": 1,
  "PatientPosition": "HFS",
  "PercentPhaseFOV": 100,
  "PhaseEncodingDirection": "j",
  "PhaseEncodingSteps": 104,
  "PhaseResolution": 1,
  "PixelBandwidth": 2290,
  "ProcedureStepDescription": "memory_things",
  "ProtocolName": "func_task-things_run-4",
  "PulseSequenceDetails": "%CustomerSeq%_cmrr_mbep2d_bold",
  "ReceiveCoilActiveElements": "HC1-7;NC1,2",
  "ReceiveCoilName": "HeadNeck_64",
  "ReconMatrixPE": 104,
  "RepetitionTime": 1.49,
  "SAR": 0.0411504,
  "ScanOptions": "FS",
  "ScanningSequence": "EP",
  "SequenceName": "epfid2d1_104",
  "SequenceVariant": "SK_SS",
  "SeriesDescription": "func_task-things_run-4",
  "SeriesNumber": 20,
  "ShimSetting": [637, -7222, -8778, 717, 59, -23, 88, -8],
  "SliceThickness": 2,
  "SliceTiming": [0, 0.785, 0.0975, 0.8825, 0.1975, 0.98, 0.295, 1.0775, 0.3925, 1.1775, 0.49, 1.275, 0.5875, 1.3725, 0.6875, 0, 0.785, 0.0975, 0.8825, 0.1975, 0.98, 0.295, 1.0775, 0.3925, 1.1775, 0.49, 1.275, 0.5875, 1.3725, 0.6875, 0, 0.785, 0.0975, 0.8825, 0.1975, 0.98, 0.295, 1.0775, 0.3925, 1.1775, 0.49, 1.275, 0.5875, 1.3725, 0.6875, 0, 0.785, 0.0975, 0.8825, 0.1975, 0.98, 0.295, 1.0775, 0.3925, 1.1775, 0.49, 1.275, 0.5875, 1.3725, 0.6875],
  "SoftwareVersions": "syngo_MR_E11",
  "SpacingBetweenSlices": 2,
  "StationName": "MRC35049",
  "TaskName": "things",
  "TotalReadoutTime": 0.0576811,
  "TxRefAmp": 218.768,
  "WipMemBlock": "a6b9f3fa-7654-4acb-a389-0dbc2b272845||Sequence: R016 ve11c/master r/e634e98; Dec 19 2017 11:00:25 by eja",
  "dcmmeta_affine": [
    [-1.9990290403366089, -0.0198876541107893, 0.05905432626605034, 108.30137634277344],
    [-0.03220810368657112, 1.952349305152893, -0.4327758550643921, -75.53141784667969],
    [0.053343888372182846, 0.4335167706012726, 1.9517216682434082, -56.59928512573242],
    [0.0, 0.0, 0.0, 1.0]
],
  "dcmmeta_reorient_transform": [
    [0.0, -1.0, 0.0, 103.0],
    [1.0, 0.0, 0.0, 0.0],
    [0.0, 0.0, 1.0, 0.0],
    [0.0, 0.0, 0.0, 1.0]
],
  "dcmmeta_shape": [104, 104, 60, 190],
  "dcmmeta_slice_dim": 2,
  "dcmmeta_version": 0.6,
  "global": {
    "const": {
      "AcquisitionMatrix": [104, 0, 0, 104],
      "AngioFlag": "N",
      "BitsAllocated": 16,
      "BitsStored": 16,
      "BodyPartExamined": "BRAIN",
      "Columns": 832,
      "EchoNumbers": 1,
      "EchoTime": 37.0,
      "EchoTrainLength": 104,
      "FlipAngle": 52.0,
      "HighBit": 15,
      "ImageOrientationPatient": [0.9995145155904, 0.01610405166712, 0.02667194488588, -0.0099438267944, 0.97617463836467, -0.2167583809736],
      "ImagePositionPatient": [-826.66041021003, -847.93944318079, 126.43586753799],
      "ImageType": [
        "ORIGINAL",
        "PRIMARY",
        "P",
        "MB",
        "ND",
        "MOSAIC"
],
      "ImagedNucleus": "1H",
      "ImagingFrequency": 123.25894,
      "InPlanePhaseEncodingDirection": "COL",
      "LargestImagePixelValue": 4095,
      "MRAcquisitionType": "2D",
      "MagneticFieldStrength": 3.0,
      "Manufacturer": "SIEMENS",
      "ManufacturerModelName": "Prisma_fit",
      "Modality": "MR",
      "NumberOfAverages": 1.0,
      "NumberOfPhaseEncodingSteps": 104,
      "PercentPhaseFieldOfView": 100.0,
      "PercentSampling": 100.0,
      "PerformedProcedureStepStartTime": "130613.578000",
      "PhotometricInterpretation": "MONOCHROME2",
      "PixelBandwidth": 2290.0,
      "PixelRepresentation": 0,
      "PixelSpacing": [2.0, 2.0],
      "ProtocolName": "func_task-things_run-4",
      "RepetitionTime": 1490.0,
      "RescaleIntercept": -4096.0,
      "RescaleSlope": 2.0,
      "RescaleType": "US",
      "Rows": 832,
      "SAR": 0.04115036591945,
      "SamplesPerPixel": 1,
      "ScanOptions": "FS",
      "ScanningSequence": "EP",
      "SequenceName": "epfid2d1_104",
      "SequenceVariant": [
        "SK",
        "SS"
],
      "SeriesDescription": "func_task-things_run-4",
      "SeriesNumber": 20,
      "SeriesTime": "134954.812000",
      "SliceLocation": -35.691106514532,
      "SliceThickness": 2.0,
      "SmallestImagePixelValue": 0,
      "SoftwareVersions": "syngo MR E11",
      "SpacingBetweenSlices": 1.9999999671819,
      "SpecificCharacterSet": "ISO_IR 100",
      "StudyID": "1",
      "StudyTime": "130613.465000",
      "TransmitCoilName": "Body",
      "VariableFlipAngleFlag": "N",
      "WindowCenterWidthExplanation": "Algo1",
      "dBdt": 0.0},
    "slices": {}
  },
  "time": {
    "samples": {
      "AcquisitionNumber": [1, 2, 3, 4, 5, 6, 7, 8, 9, 10, 11, 12, 13, 14, 15, 16, 17, 18, 19, 20, 21, 22, 23, 24, 25, 26, 27, 28, 29, 30, 31, 32, 33, 34, 35, 36, 37, 38, 39, 40, 41, 42, 43, 44, 45, 46, 47, 48, 49, 50, 51, 52, 53, 54, 55, 56, 57, 58, 59, 60, 61, 62, 63, 64, 65, 66, 67, 68, 69, 70, 71, 72, 73, 74, 75, 76, 77, 78, 79, 80, 81, 82, 83, 84, 85, 86, 87, 88, 89, 90, 91, 92, 93, 94, 95, 96, 97, 98, 99, 100, 101, 102, 103, 104, 105, 106, 107, 108, 109, 110, 111, 112, 113, 114, 115, 116, 117, 118, 119, 120, 121, 122, 123, 124, 125, 126, 127, 128, 129, 130, 131, 132, 133, 134, 135, 136, 137, 138, 139, 140, 141, 142, 143, 144, 145, 146, 147, 148, 149, 150, 151, 152, 153, 154, 155, 156, 157, 158, 159, 160, 161, 162, 163, 164, 165, 166, 167, 168, 169, 170, 171, 172, 173, 174, 175, 176, 177, 178, 179, 180, 181, 182, 183, 184, 185, 186, 187, 188, 189, 190],
      "AcquisitionTime": ["134838.572500", "134840.062500", "134841.552500", "134843.042500", "134844.532500", "134846.022500", "134847.512500", "134849.002500", "134850.492500", "134851.982500", "134853.472500", "134854.962500", "134856.452500", "134857.942500", "134859.432500", "134900.922500", "134902.412500", "134903.902500", "134905.392500", "134906.882500", "134908.372500", "134909.862500", "134911.352500", "134912.842500", "134914.332500", "134915.822500", "134917.312500", "134918.802500", "134920.292500", "134921.782500", "134923.272500", "134924.762500", "134926.252500", "134927.742500", "134929.232500", "134930.722500", "134932.212500", "134933.702500", "134935.192500", "134936.682500", "134938.172500", "134939.662500", "134941.152500", "134942.642500", "134944.132500", "134945.622500", "134947.112500", "134948.602500", "134950.092500", "134951.582500", "134953.072500", "134954.562500", "134956.052500", "134957.542500", "134959.032500", "135000.522500", "135002.012500", "135003.502500", "135004.992500", "135006.482500", "135007.972500", "135009.462500", "135010.952500", "135012.442500", "135013.932500", "135015.422500", "135016.912500", "135018.402500", "135019.892500", "135021.382500", "135022.872500", "135024.362500", "135025.852500", "135027.342500", "135028.832500", "135030.322500", "135031.812500", "135033.302500", "135034.792500", "135036.282500", "135037.772500", "135039.262500", "135040.752500", "135042.242500", "135043.732500", "135045.222500", "135046.712500", "135048.202500", "135049.692500", "135051.182500", "135052.672500", "135054.162500", "135055.652500", "135057.142500", "135058.632500", "135100.122500", "135101.612500", "135103.102500", "135104.592500", "135106.082500", "135107.572500", "135109.062500", "135110.552500", "135112.042500", "135113.532500", "135115.022500", "135116.512500", "135118.002500", "135119.492500", "135120.982500", "135122.472500", "135123.962500", "135125.452500", "135126.942500", "135128.432500", "135129.922500", "135131.412500", "135132.902500", "135134.392500", "135135.882500", "135137.372500", "135138.862500", "135140.352500", "135141.842500", "135143.332500", "135144.822500", "135146.312500", "135147.802500", "135149.292500", "135150.782500", "135152.272500", "135153.762500", "135155.252500", "135156.742500", "135158.232500", "135159.722500", "135201.212500", "135202.702500", "135204.192500", "135205.682500", "135207.172500", "135208.662500", "135210.152500", "135211.642500", "135213.132500", "135214.622500", "135216.112500", "135217.602500", "135219.092500", "135220.582500", "135222.072500", "135223.562500", "135225.052500", "135226.542500", "135228.032500", "135229.522500", "135231.012500", "135232.502500", "135233.992500", "135235.482500", "135236.972500", "135238.462500", "135239.952500", "135241.442500", "135242.932500", "135244.422500", "135245.912500", "135247.402500", "135248.892500", "135250.382500", "135251.872500", "135253.362500", "135254.852500", "135256.342500", "135257.832500", "135259.322500", "135300.812500", "135302.302500", "135303.792500", "135305.282500", "135306.772500", "135308.262500", "135309.752500", "135311.242500", "135312.732500", "135314.222500", "135315.712500", "135317.202500", "135318.692500", "135320.182500"],
      "ContentTime": ["134954.814000", "134954.817000", "134954.824000", "134954.827000", "134954.829000", "134954.832000", "134954.834000", "134954.837000", "134954.839000", "134954.842000", "134954.845000", "134954.847000", "134954.850000", "134954.852000", "134954.855000", "134954.864000", "134954.867000", "134954.869000", "134954.872000", "134954.875000", "134954.877000", "134954.880000", "135015.268000", "135015.271000", "135015.274000", "135015.276000", "135015.279000", "135015.281000", "135015.284000", "135015.286000", "135015.289000", "135015.292000", "135015.294000", "135015.297000", "135015.308000", "135015.311000", "135015.313000", "135015.316000", "135015.318000", "135015.329000", "135015.331000", "135015.334000", "135015.337000", "135034.765000", "135034.767000", "135034.770000", "135034.772000", "135034.775000", "135034.778000", "135034.780000", "135034.783000", "135034.785000", "135034.788000", "135034.791000", "135034.793000", "135034.796000", "135034.798000", "135034.810000", "135034.813000", "135034.815000", "135034.818000", "135034.821000", "135034.823000", "135054.775000", "135054.778000", "135054.780000", "135054.783000", "135054.786000", "135054.788000", "135054.791000", "135054.793000", "135054.796000", "135054.799000", "135054.801000", "135054.804000", "135054.806000", "135054.809000", "135054.811000", "135054.814000", "135054.817000", "135054.819000", "135054.822000", "135054.824000", "135114.768000", "135114.771000", "135114.774000", "135114.776000", "135114.779000", "135114.781000", "135114.784000", "135114.787000", "135114.789000", "135114.792000", "135114.794000", "135114.797000", "135114.799000", "135114.802000", "135114.805000", "135114.807000", "135114.810000", "135114.812000", "135114.815000", "135114.818000", "135154.812000", "135154.814000", "135154.817000", "135154.820000", "135154.822000", "135154.825000", "135154.827000", "135154.830000", "135154.833000", "135154.835000", "135154.838000", "135154.840000", "135154.843000", "135154.845000", "135154.848000", "135154.851000", "135154.853000", "135154.856000", "135154.859000", "135154.861000", "135154.864000", "135154.866000", "135154.869000", "135154.872000", "135154.874000", "135154.877000", "135154.880000", "135234.796000", "135234.799000", "135234.801000", "135234.804000", "135234.807000", "135234.809000", "135234.812000", "135234.814000", "135234.817000", "135234.820000", "135234.822000", "135234.825000", "135234.828000", "135234.830000", "135234.833000", "135234.835000", "135234.838000", "135234.840000", "135234.843000", "135234.846000", "135234.848000", "135234.851000", "135234.854000", "135234.857000", "135234.860000", "135234.863000", "135234.865000", "135314.815000", "135314.818000", "135314.821000", "135314.823000", "135314.826000", "135314.828000", "135314.831000", "135314.834000", "135314.836000", "135314.839000", "135314.841000", "135314.844000", "135314.846000", "135314.849000", "135314.852000", "135314.854000", "135314.857000", "135314.859000", "135314.862000", "135314.865000", "135314.867000", "135314.870000", "135314.872000", "135314.875000", "135314.877000", "135314.880000", "135314.883000", "135322.813000", "135322.815000", "135322.818000", "135322.821000", "135322.823000", "135322.833000"],
      "InstanceCreationTime": ["134954.814000", "134954.817000", "134954.824000", "134954.827000", "134954.829000", "134954.832000", "134954.834000", "134954.837000", "134954.839000", "134954.842000", "134954.845000", "134954.847000", "134954.850000", "134954.852000", "134954.855000", "134954.864000", "134954.867000", "134954.869000", "134954.872000", "134954.875000", "134954.877000", "134954.880000", "135015.268000", "135015.271000", "135015.274000", "135015.276000", "135015.279000", "135015.281000", "135015.284000", "135015.286000", "135015.289000", "135015.292000", "135015.294000", "135015.297000", "135015.308000", "135015.311000", "135015.313000", "135015.316000", "135015.318000", "135015.329000", "135015.331000", "135015.334000", "135015.337000", "135034.765000", "135034.767000", "135034.770000", "135034.772000", "135034.775000", "135034.778000", "135034.780000", "135034.783000", "135034.785000", "135034.788000", "135034.791000", "135034.793000", "135034.796000", "135034.798000", "135034.810000", "135034.813000", "135034.815000", "135034.818000", "135034.821000", "135034.823000", "135054.775000", "135054.778000", "135054.780000", "135054.783000", "135054.786000", "135054.788000", "135054.791000", "135054.793000", "135054.796000", "135054.799000", "135054.801000", "135054.804000", "135054.806000", "135054.809000", "135054.811000", "135054.814000", "135054.817000", "135054.819000", "135054.822000", "135054.824000", "135114.768000", "135114.771000", "135114.774000", "135114.776000", "135114.779000", "135114.781000", "135114.784000", "135114.787000", "135114.789000", "135114.792000", "135114.794000", "135114.797000", "135114.799000", "135114.802000", "135114.805000", "135114.807000", "135114.810000", "135114.812000", "135114.815000", "135114.818000", "135154.812000", "135154.814000", "135154.817000", "135154.820000", "135154.822000", "135154.825000", "135154.827000", "135154.830000", "135154.833000", "135154.835000", "135154.838000", "135154.840000", "135154.843000", "135154.845000", "135154.848000", "135154.851000", "135154.853000", "135154.856000", "135154.859000", "135154.861000", "135154.864000", "135154.866000", "135154.869000", "135154.872000", "135154.874000", "135154.877000", "135154.880000", "135234.796000", "135234.799000", "135234.801000", "135234.804000", "135234.807000", "135234.809000", "135234.812000", "135234.814000", "135234.817000", "135234.820000", "135234.822000", "135234.825000", "135234.828000", "135234.830000", "135234.833000", "135234.835000", "135234.838000", "135234.840000", "135234.843000", "135234.846000", "135234.848000", "135234.851000", "135234.854000", "135234.857000", "135234.860000", "135234.863000", "135234.865000", "135314.815000", "135314.818000", "135314.821000", "135314.823000", "135314.826000", "135314.828000", "135314.831000", "135314.834000", "135314.836000", "135314.839000", "135314.841000", "135314.844000", "135314.846000", "135314.849000", "135314.852000", "135314.854000", "135314.857000", "135314.859000", "135314.862000", "135314.865000", "135314.867000", "135314.870000", "135314.872000", "135314.875000", "135314.877000", "135314.880000", "135314.883000", "135322.813000", "135322.815000", "135322.818000", "135322.821000", "135322.823000", "135322.833000"],
      "InstanceNumber": [1, 2, 3, 4, 5, 6, 7, 8, 9, 10, 11, 12, 13, 14, 15, 16, 17, 18, 19, 20, 21, 22, 23, 24, 25, 26, 27, 28, 29, 30, 31, 32, 33, 34, 35, 36, 37, 38, 39, 40, 41, 42, 43, 44, 45, 46, 47, 48, 49, 50, 51, 52, 53, 54, 55, 56, 57, 58, 59, 60, 61, 62, 63, 64, 65, 66, 67, 68, 69, 70, 71, 72, 73, 74, 75, 76, 77, 78, 79, 80, 81, 82, 83, 84, 85, 86, 87, 88, 89, 90, 91, 92, 93, 94, 95, 96, 97, 98, 99, 100, 101, 102, 103, 104, 105, 106, 107, 108, 109, 110, 111, 112, 113, 114, 115, 116, 117, 118, 119, 120, 121, 122, 123, 124, 125, 126, 127, 128, 129, 130, 131, 132, 133, 134, 135, 136, 137, 138, 139, 140, 141, 142, 143, 144, 145, 146, 147, 148, 149, 150, 151, 152, 153, 154, 155, 156, 157, 158, 159, 160, 161, 162, 163, 164, 165, 166, 167, 168, 169, 170, 171, 172, 173, 174, 175, 176, 177, 178, 179, 180, 181, 182, 183, 184, 185, 186, 187, 188, 189, 190],
      "WindowCenter": [4792.0, 4796.0, 4792.0, 4796.0, 4796.0, 4792.0, 4790.0, 4792.0, 4794.0, 4794.0, 4796.0, 4792.0, 4790.0, 4798.0, 4796.0, 4794.0, 4792.0, 4794.0, 4796.0, 4792.0, 4794.0, 4792.0, 4794.0, 4792.0, 4796.0, 4792.0, 4792.0, 4794.0, 4794.0, 4792.0, 4792.0, 4792.0, 4792.0, 4798.0, 4796.0, 4796.0, 4792.0, 4796.0, 4794.0, 4794.0, 4790.0, 4796.0, 4792.0, 4792.0, 4794.0, 4796.0, 4794.0, 4792.0, 4798.0, 4794.0, 4794.0, 4792.0, 4792.0, 4792.0, 4796.0, 4796.0, 4794.0, 4798.0, 4800.0, 4794.0, 4788.0, 4790.0, 4794.0, 4792.0, 4790.0, 4796.0, 4794.0, 4796.0, 4796.0, 4794.0, 4792.0, 4792.0, 4792.0, 4792.0, 4790.0, 4790.0, 4794.0, 4796.0, 4794.0, 4794.0, 4794.0, 4796.0, 4794.0, 4792.0, 4794.0, 4792.0, 4792.0, 4798.0, 4796.0, 4794.0, 4794.0, 4796.0, 4796.0, 4796.0, 4794.0, 4798.0, 4792.0, 4794.0, 4792.0, 4800.0, 4796.0, 4796.0, 4794.0, 4794.0, 4792.0, 4792.0, 4794.0, 4794.0, 4794.0, 4794.0, 4794.0, 4798.0, 4798.0, 4794.0, 4796.0, 4794.0, 4792.0, 4792.0, 4794.0, 4794.0, 4794.0, 4796.0, 4798.0, 4794.0, 4792.0, 4796.0, 4800.0, 4792.0, 4790.0, 4766.0, 4792.0, 4790.0, 4796.0, 4800.0, 4800.0, 4796.0, 4794.0, 4798.0, 4794.0, 4792.0, 4792.0, 4790.0, 4794.0, 4798.0, 4794.0, 4796.0, 4796.0, 4796.0, 4796.0, 4796.0, 4792.0, 4800.0, 4820.0, 4796.0, 4790.0, 4792.0, 4792.0, 4796.0, 4796.0, 4796.0, 4798.0, 4798.0, 4796.0, 4792.0, 4792.0, 4792.0, 4792.0, 4790.0, 4794.0, 4798.0, 4796.0, 4796.0, 4800.0, 4794.0, 4796.0, 4794.0, 4792.0, 4796.0, 4798.0, 4796.0, 4798.0, 4794.0, 4796.0, 4794.0, 4796.0, 4792.0, 4796.0, 4798.0, 4794.0, 4796.0],
      "WindowWidth": [18560.0, 18564.0, 18560.0, 18556.0, 18564.0, 18556.0, 18552.0, 18558.0, 18560.0, 18562.0, 18562.0, 18558.0, 18552.0, 18568.0, 18558.0, 18560.0, 18562.0, 18562.0, 18556.0, 18556.0, 18558.0, 18564.0, 18558.0, 18554.0, 18556.0, 18558.0, 18558.0, 18562.0, 18556.0, 18552.0, 18560.0, 18558.0, 18554.0, 18564.0, 18560.0, 18564.0, 18554.0, 18560.0, 18562.0, 18554.0, 18554.0, 18558.0, 18562.0, 18558.0, 18558.0, 18564.0, 18560.0, 18560.0, 18560.0, 18554.0, 18554.0, 18556.0, 18558.0, 18558.0, 18556.0, 18556.0, 18560.0, 18560.0, 18556.0, 18558.0, 18558.0, 18566.0, 18564.0, 18554.0, 18550.0, 18560.0, 18562.0, 18562.0, 18558.0, 18560.0, 18558.0, 18562.0, 18554.0, 18554.0, 18554.0, 18560.0, 18560.0, 18554.0, 18560.0, 18556.0, 18562.0, 18560.0, 18560.0, 18560.0, 18560.0, 18558.0, 18558.0, 18554.0, 18562.0, 18556.0, 18558.0, 18558.0, 18560.0, 18562.0, 18562.0, 18562.0, 18558.0, 18556.0, 18554.0, 18558.0, 18562.0, 18560.0, 18556.0, 18556.0, 18560.0, 18554.0, 18566.0, 18558.0, 18554.0, 18556.0, 18558.0, 18560.0, 18560.0, 18560.0, 18560.0, 18558.0, 18554.0, 18560.0, 18560.0, 18558.0, 18554.0, 18562.0, 18558.0, 18552.0, 18556.0, 18562.0, 18562.0, 18556.0, 18560.0, 18524.0, 18556.0, 18558.0, 18564.0, 18564.0, 18562.0, 18562.0, 18560.0, 18562.0, 18556.0, 18558.0, 18558.0, 18558.0, 18560.0, 18562.0, 18562.0, 18562.0, 18562.0, 18554.0, 18558.0, 18558.0, 18554.0, 18558.0, 18592.0, 18560.0, 18560.0, 18558.0, 18556.0, 18560.0, 18558.0, 18558.0, 18558.0, 18562.0, 18556.0, 18554.0, 18556.0, 18558.0, 18556.0, 18554.0, 18562.0, 18560.0, 18558.0, 18560.0, 18566.0, 18560.0, 18560.0, 18560.0, 18558.0, 18560.0, 18554.0, 18558.0, 18558.0, 18558.0, 18562.0, 18550.0, 18552.0, 18558.0, 18560.0, 18558.0, 18558.0, 18564.0]
    },
    "slices": {}
  }
}