{
  "AcquisitionMatrixPE": 104,
  "AcquisitionNumber": 1,
  "AcquisitionTime": "14:00:42.797500",
  "BandwidthPerPixelPhaseEncode": 17.17,
  "BaseResolution": 104,
  "BodyPartExamined": "BRAIN",
  "CoilString": "HC1-7;NC1_2",
  "ConsistencyInfo": "N4_VE11C_LATEST_20160120",
  "ConversionSoftware": "dcm2niix",
  "ConversionSoftwareVersion": "v1.0.20190902",
  "DerivedVendorReportedEchoSpacing": 0.000560011,
  "DeviceSerialNumber": "167006",
  "DwellTime": 2.1e-06,
  "EchoTime": 0.037,
  "EchoTrainLength": 104,
  "EffectiveEchoSpacing": 0.000560011,
  "FlipAngle": 52,
  "ImageComments": "Unaliased_MB4_PE3_LB",
  "ImageOrientationPatientDICOM": [0.999515, 0.0161041, 0.0266719, -0.00994383, 0.976175, -0.216758],
  "ImageType": [
    "ORIGINAL",
    "PRIMARY",
    "M",
    "MB",
    "ND",
    "MOSAIC"
],
  "ImagingFrequency": 123.259,
  "InPlanePhaseEncodingDirectionDICOM": "COL",
  "InstitutionAddress": "Chemin_Queen-Mary_4565_Montreal_District_CA_H3W_1W5",
  "InstitutionName": "IUGM",
  "InstitutionalDepartmentName": "Department",
  "MRAcquisitionType": "2D",
  "MagneticFieldStrength": 3,
  "Manufacturer": "Siemens",
  "ManufacturersModelName": "Prisma_fit",
  "Modality": "MR",
  "MultibandAccelerationFactor": 4,
  "PartialFourier": 1,
  "PatientPosition": "HFS",
  "PercentPhaseFOV": 100,
  "PhaseEncodingDirection": "j",
  "PhaseEncodingSteps": 104,
  "PhaseResolution": 1,
  "PixelBandwidth": 2290,
  "ProcedureStepDescription": "memory_things",
  "ProtocolName": "func_task-things_run-6",
  "PulseSequenceDetails": "%CustomerSeq%_cmrr_mbep2d_bold",
  "ReceiveCoilActiveElements": "HC1-7;NC1,2",
  "ReceiveCoilName": "HeadNeck_64",
  "ReconMatrixPE": 104,
  "RepetitionTime": 1.49,
  "SAR": 0.0411504,
  "ScanOptions": "FS",
  "ScanningSequence": "EP",
  "SequenceName": "epfid2d1_104",
  "SequenceVariant": "SK_SS",
  "SeriesDescription": "func_task-things_run-6",
  "SeriesNumber": 25,
  "ShimSetting": [637, -7222, -8778, 717, 59, -23, 88, -8],
  "SliceThickness": 2,
  "SliceTiming": [0, 0.785, 0.0975, 0.8825, 0.1975, 0.98, 0.295, 1.0775, 0.3925, 1.175, 0.49, 1.275, 0.5875, 1.3725, 0.6875, 0, 0.785, 0.0975, 0.8825, 0.1975, 0.98, 0.295, 1.0775, 0.3925, 1.175, 0.49, 1.275, 0.5875, 1.3725, 0.6875, 0, 0.785, 0.0975, 0.8825, 0.1975, 0.98, 0.295, 1.0775, 0.3925, 1.175, 0.49, 1.275, 0.5875, 1.3725, 0.6875, 0, 0.785, 0.0975, 0.8825, 0.1975, 0.98, 0.295, 1.0775, 0.3925, 1.175, 0.49, 1.275, 0.5875, 1.3725, 0.6875],
  "SoftwareVersions": "syngo_MR_E11",
  "SpacingBetweenSlices": 2,
  "StationName": "MRC35049",
  "TaskName": "things",
  "TotalReadoutTime": 0.0576811,
  "TxRefAmp": 218.768,
  "WipMemBlock": "dea1b728-a324-4c12-af2f-d45c9e633260||Sequence: R016 ve11c/master r/e634e98; Dec 19 2017 11:00:25 by eja",
  "dcmmeta_affine": [
    [-1.9990290403366089, -0.0198876541107893, 0.05905432626605034, 108.30137634277344],
    [-0.03220810368657112, 1.952349305152893, -0.4327758550643921, -75.53141784667969],
    [0.053343888372182846, 0.4335167706012726, 1.9517216682434082, -56.59928512573242],
    [0.0, 0.0, 0.0, 1.0]
],
  "dcmmeta_reorient_transform": [
    [0.0, -1.0, 0.0, 103.0],
    [1.0, 0.0, 0.0, 0.0],
    [0.0, 0.0, 1.0, 0.0],
    [0.0, 0.0, 0.0, 1.0]
],
  "dcmmeta_shape": [104, 104, 60, 190],
  "dcmmeta_slice_dim": 2,
  "dcmmeta_version": 0.6,
  "global": {
    "const": {
      "AcquisitionMatrix": [104, 0, 0, 104],
      "AngioFlag": "N",
      "BitsAllocated": 16,
      "BitsStored": 16,
      "BodyPartExamined": "BRAIN",
      "Columns": 832,
      "EchoNumbers": 1,
      "EchoTime": 37.0,
      "EchoTrainLength": 104,
      "FlipAngle": 52.0,
      "HighBit": 15,
      "ImageOrientationPatient": [0.9995145155904, 0.01610405166712, 0.02667194488588, -0.0099438267944, 0.97617463836467, -0.2167583809736],
      "ImagePositionPatient": [-826.66041021003, -847.93944318079, 126.43586753799],
      "ImageType": [
        "ORIGINAL",
        "PRIMARY",
        "M",
        "MB",
        "ND",
        "MOSAIC"
],
      "ImagedNucleus": "1H",
      "ImagingFrequency": 123.258945,
      "InPlanePhaseEncodingDirection": "COL",
      "MRAcquisitionType": "2D",
      "MagneticFieldStrength": 3.0,
      "Manufacturer": "SIEMENS",
      "ManufacturerModelName": "Prisma_fit",
      "Modality": "MR",
      "NumberOfAverages": 1.0,
      "NumberOfPhaseEncodingSteps": 104,
      "PercentPhaseFieldOfView": 100.0,
      "PercentSampling": 100.0,
      "PerformedProcedureStepStartTime": "130613.578000",
      "PhotometricInterpretation": "MONOCHROME2",
      "PixelBandwidth": 2290.0,
      "PixelRepresentation": 0,
      "PixelSpacing": [2.0, 2.0],
      "ProtocolName": "func_task-things_run-6",
      "RepetitionTime": 1490.0,
      "Rows": 832,
      "SAR": 0.04115036591945,
      "SamplesPerPixel": 1,
      "ScanOptions": "FS",
      "ScanningSequence": "EP",
      "SequenceName": "epfid2d1_104",
      "SequenceVariant": [
        "SK",
        "SS"
],
      "SeriesDescription": "func_task-things_run-6",
      "SeriesNumber": 25,
      "SeriesTime": "140154.697000",
      "SliceLocation": -35.691106514532,
      "SliceThickness": 2.0,
      "SmallestImagePixelValue": 0,
      "SoftwareVersions": "syngo MR E11",
      "SpacingBetweenSlices": 1.9999999671819,
      "SpecificCharacterSet": "ISO_IR 100",
      "StudyID": "1",
      "StudyTime": "130613.465000",
      "TransmitCoilName": "Body",
      "VariableFlipAngleFlag": "N",
      "WindowCenterWidthExplanation": "Algo1",
      "dBdt": 0.0},
    "slices": {}
  },
  "time": {
    "samples": {
      "AcquisitionNumber": [1, 2, 3, 4, 5, 6, 7, 8, 9, 10, 11, 12, 13, 14, 15, 16, 17, 18, 19, 20, 21, 22, 23, 24, 25, 26, 27, 28, 29, 30, 31, 32, 33, 34, 35, 36, 37, 38, 39, 40, 41, 42, 43, 44, 45, 46, 47, 48, 49, 50, 51, 52, 53, 54, 55, 56, 57, 58, 59, 60, 61, 62, 63, 64, 65, 66, 67, 68, 69, 70, 71, 72, 73, 74, 75, 76, 77, 78, 79, 80, 81, 82, 83, 84, 85, 86, 87, 88, 89, 90, 91, 92, 93, 94, 95, 96, 97, 98, 99, 100, 101, 102, 103, 104, 105, 106, 107, 108, 109, 110, 111, 112, 113, 114, 115, 116, 117, 118, 119, 120, 121, 122, 123, 124, 125, 126, 127, 128, 129, 130, 131, 132, 133, 134, 135, 136, 137, 138, 139, 140, 141, 142, 143, 144, 145, 146, 147, 148, 149, 150, 151, 152, 153, 154, 155, 156, 157, 158, 159, 160, 161, 162, 163, 164, 165, 166, 167, 168, 169, 170, 171, 172, 173, 174, 175, 176, 177, 178, 179, 180, 181, 182, 183, 184, 185, 186, 187, 188, 189, 190],
      "AcquisitionTime": ["140042.797500", "140044.287500", "140045.777500", "140047.267500", "140048.757500", "140050.247500", "140051.737500", "140053.227500", "140054.717500", "140056.207500", "140057.697500", "140059.187500", "140100.677500", "140102.167500", "140103.657500", "140105.147500", "140106.637500", "140108.127500", "140109.617500", "140111.107500", "140112.597500", "140114.087500", "140115.577500", "140117.067500", "140118.557500", "140120.047500", "140121.537500", "140123.027500", "140124.517500", "140126.007500", "140127.497500", "140128.987500", "140130.477500", "140131.967500", "140133.457500", "140134.947500", "140136.437500", "140137.927500", "140139.417500", "140140.907500", "140142.397500", "140143.887500", "140145.377500", "140146.867500", "140148.357500", "140149.847500", "140151.337500", "140152.827500", "140154.317500", "140155.807500", "140157.297500", "140158.787500", "140200.277500", "140201.767500", "140203.257500", "140204.747500", "140206.237500", "140207.727500", "140209.217500", "140210.707500", "140212.197500", "140213.687500", "140215.177500", "140216.667500", "140218.157500", "140219.647500", "140221.137500", "140222.627500", "140224.117500", "140225.607500", "140227.097500", "140228.587500", "140230.077500", "140231.567500", "140233.057500", "140234.547500", "140236.037500", "140237.527500", "140239.017500", "140240.507500", "140241.997500", "140243.487500", "140244.977500", "140246.467500", "140247.957500", "140249.447500", "140250.937500", "140252.427500", "140253.917500", "140255.407500", "140256.897500", "140258.387500", "140259.877500", "140301.367500", "140302.857500", "140304.347500", "140305.837500", "140307.327500", "140308.817500", "140310.307500", "140311.797500", "140313.287500", "140314.777500", "140316.267500", "140317.757500", "140319.247500", "140320.737500", "140322.227500", "140323.717500", "140325.207500", "140326.697500", "140328.187500", "140329.677500", "140331.167500", "140332.657500", "140334.147500", "140335.637500", "140337.127500", "140338.617500", "140340.107500", "140341.597500", "140343.087500", "140344.577500", "140346.067500", "140347.557500", "140349.047500", "140350.537500", "140352.027500", "140353.517500", "140355.007500", "140356.497500", "140357.987500", "140359.477500", "140400.967500", "140402.457500", "140403.947500", "140405.437500", "140406.927500", "140408.417500", "140409.907500", "140411.397500", "140412.887500", "140414.377500", "140415.867500", "140417.357500", "140418.847500", "140420.337500", "140421.827500", "140423.317500", "140424.807500", "140426.297500", "140427.787500", "140429.277500", "140430.767500", "140432.257500", "140433.747500", "140435.237500", "140436.727500", "140438.217500", "140439.707500", "140441.197500", "140442.687500", "140444.177500", "140445.667500", "140447.157500", "140448.647500", "140450.137500", "140451.627500", "140453.117500", "140454.607500", "140456.097500", "140457.587500", "140459.077500", "140500.567500", "140502.057500", "140503.547500", "140505.037500", "140506.527500", "140508.017500", "140509.507500", "140510.997500", "140512.487500", "140513.977500", "140515.467500", "140516.957500", "140518.447500", "140519.937500", "140521.427500", "140522.917500", "140524.407500"],
      "ContentTime": ["140154.701000", "140154.705000", "140154.708000", "140154.712000", "140154.715000", "140154.719000", "140154.722000", "140154.726000", "140154.729000", "140154.732000", "140154.739000", "140154.743000", "140154.746000", "140154.750000", "140154.753000", "140154.756000", "140154.760000", "140154.769000", "140214.659000", "140214.663000", "140214.666000", "140214.670000", "140214.673000", "140214.677000", "140214.680000", "140214.684000", "140214.687000", "140214.691000", "140214.694000", "140214.698000", "140214.701000", "140214.704000", "140214.708000", "140214.721000", "140214.728000", "140214.731000", "140214.734000", "140214.738000", "140234.659000", "140234.663000", "140234.666000", "140234.670000", "140234.673000", "140234.677000", "140234.680000", "140234.684000", "140234.687000", "140234.691000", "140234.694000", "140234.698000", "140234.701000", "140234.705000", "140234.709000", "140234.713000", "140234.716000", "140234.720000", "140234.724000", "140234.728000", "140254.659000", "140254.663000", "140254.667000", "140254.681000", "140254.684000", "140254.688000", "140254.691000", "140254.695000", "140254.698000", "140254.702000", "140254.705000", "140254.709000", "140254.712000", "140254.716000", "140254.719000", "140254.723000", "140254.726000", "140254.729000", "140254.733000", "140254.736000", "140254.740000", "140314.660000", "140314.664000", "140314.668000", "140314.671000", "140314.674000", "140314.678000", "140314.682000", "140314.685000", "140314.688000", "140314.692000", "140314.695000", "140314.699000", "140314.708000", "140314.712000", "140314.715000", "140314.719000", "140314.722000", "140314.726000", "140314.729000", "140314.733000", "140354.660000", "140354.664000", "140354.667000", "140354.670000", "140354.674000", "140354.678000", "140354.681000", "140354.685000", "140354.688000", "140354.691000", "140354.695000", "140354.698000", "140354.702000", "140354.705000", "140354.709000", "140354.712000", "140354.715000", "140354.719000", "140354.722000", "140354.726000", "140354.729000", "140354.733000", "140354.736000", "140354.740000", "140354.743000", "140354.747000", "140354.750000", "140354.754000", "140354.757000", "140434.659000", "140434.676000", "140434.679000", "140434.683000", "140434.686000", "140434.690000", "140434.693000", "140434.697000", "140434.700000", "140434.704000", "140434.707000", "140434.711000", "140434.714000", "140434.718000", "140434.721000", "140434.724000", "140434.728000", "140434.731000", "140434.735000", "140434.738000", "140434.742000", "140434.745000", "140434.749000", "140434.752000", "140434.756000", "140434.759000", "140434.762000", "140514.660000", "140514.663000", "140514.667000", "140514.670000", "140514.674000", "140514.677000", "140514.681000", "140514.684000", "140514.688000", "140514.691000", "140514.695000", "140514.698000", "140514.702000", "140514.705000", "140514.709000", "140514.712000", "140514.715000", "140514.719000", "140514.722000", "140514.726000", "140514.729000", "140514.733000", "140514.736000", "140514.740000", "140514.743000", "140514.747000", "140514.750000", "140526.582000", "140526.586000", "140526.589000", "140526.593000", "140526.596000", "140526.600000", "140526.603000", "140526.607000"],
      "InstanceCreationTime": ["140154.701000", "140154.705000", "140154.708000", "140154.712000", "140154.715000", "140154.719000", "140154.722000", "140154.726000", "140154.729000", "140154.732000", "140154.739000", "140154.743000", "140154.746000", "140154.750000", "140154.753000", "140154.756000", "140154.760000", "140154.769000", "140214.659000", "140214.663000", "140214.666000", "140214.670000", "140214.673000", "140214.677000", "140214.680000", "140214.684000", "140214.687000", "140214.691000", "140214.694000", "140214.698000", "140214.701000", "140214.704000", "140214.708000", "140214.721000", "140214.728000", "140214.731000", "140214.734000", "140214.738000", "140234.659000", "140234.663000", "140234.666000", "140234.670000", "140234.673000", "140234.677000", "140234.680000", "140234.684000", "140234.687000", "140234.691000", "140234.694000", "140234.698000", "140234.701000", "140234.705000", "140234.709000", "140234.713000", "140234.716000", "140234.720000", "140234.724000", "140234.728000", "140254.659000", "140254.663000", "140254.667000", "140254.681000", "140254.684000", "140254.688000", "140254.691000", "140254.695000", "140254.698000", "140254.702000", "140254.705000", "140254.709000", "140254.712000", "140254.716000", "140254.719000", "140254.723000", "140254.726000", "140254.729000", "140254.733000", "140254.736000", "140254.740000", "140314.660000", "140314.664000", "140314.668000", "140314.671000", "140314.674000", "140314.678000", "140314.682000", "140314.685000", "140314.688000", "140314.692000", "140314.695000", "140314.699000", "140314.708000", "140314.712000", "140314.715000", "140314.719000", "140314.722000", "140314.726000", "140314.729000", "140314.733000", "140354.660000", "140354.664000", "140354.667000", "140354.670000", "140354.674000", "140354.678000", "140354.681000", "140354.685000", "140354.688000", "140354.691000", "140354.695000", "140354.698000", "140354.702000", "140354.705000", "140354.709000", "140354.712000", "140354.715000", "140354.719000", "140354.722000", "140354.726000", "140354.729000", "140354.733000", "140354.736000", "140354.740000", "140354.743000", "140354.747000", "140354.750000", "140354.754000", "140354.757000", "140434.659000", "140434.676000", "140434.679000", "140434.683000", "140434.686000", "140434.690000", "140434.693000", "140434.697000", "140434.700000", "140434.704000", "140434.707000", "140434.711000", "140434.714000", "140434.718000", "140434.721000", "140434.724000", "140434.728000", "140434.731000", "140434.735000", "140434.738000", "140434.742000", "140434.745000", "140434.749000", "140434.752000", "140434.756000", "140434.759000", "140434.762000", "140514.660000", "140514.663000", "140514.667000", "140514.670000", "140514.674000", "140514.677000", "140514.681000", "140514.684000", "140514.688000", "140514.691000", "140514.695000", "140514.698000", "140514.702000", "140514.705000", "140514.709000", "140514.712000", "140514.715000", "140514.719000", "140514.722000", "140514.726000", "140514.729000", "140514.733000", "140514.736000", "140514.740000", "140514.743000", "140514.747000", "140514.750000", "140526.582000", "140526.586000", "140526.589000", "140526.593000", "140526.596000", "140526.600000", "140526.603000", "140526.607000"],
      "InstanceNumber": [1, 2, 3, 4, 5, 6, 7, 8, 9, 10, 11, 12, 13, 14, 15, 16, 17, 18, 19, 20, 21, 22, 23, 24, 25, 26, 27, 28, 29, 30, 31, 32, 33, 34, 35, 36, 37, 38, 39, 40, 41, 42, 43, 44, 45, 46, 47, 48, 49, 50, 51, 52, 53, 54, 55, 56, 57, 58, 59, 60, 61, 62, 63, 64, 65, 66, 67, 68, 69, 70, 71, 72, 73, 74, 75, 76, 77, 78, 79, 80, 81, 82, 83, 84, 85, 86, 87, 88, 89, 90, 91, 92, 93, 94, 95, 96, 97, 98, 99, 100, 101, 102, 103, 104, 105, 106, 107, 108, 109, 110, 111, 112, 113, 114, 115, 116, 117, 118, 119, 120, 121, 122, 123, 124, 125, 126, 127, 128, 129, 130, 131, 132, 133, 134, 135, 136, 137, 138, 139, 140, 141, 142, 143, 144, 145, 146, 147, 148, 149, 150, 151, 152, 153, 154, 155, 156, 157, 158, 159, 160, 161, 162, 163, 164, 165, 166, 167, 168, 169, 170, 171, 172, 173, 174, 175, 176, 177, 178, 179, 180, 181, 182, 183, 184, 185, 186, 187, 188, 189, 190],
      "LargestImagePixelValue": [42458, 41951, 41162, 40427, 40106, 39565, 40359, 40218, 40066, 40214, 39996, 39907, 39969, 39927, 39514, 39838, 39807, 39887, 39988, 39677, 39716, 39703, 39720, 40234, 39963, 39765, 39770, 39406, 39393, 39591, 39637, 39447, 39185, 39304, 39082, 39357, 39433, 39256, 39324, 39411, 39421, 39191, 39759, 39406, 39463, 39814, 39383, 39343, 39320, 39260, 39439, 39260, 39914, 39469, 39674, 38919, 39351, 39062, 39605, 39343, 39232, 39712, 39110, 39587, 39162, 39307, 39543, 39737, 39693, 39415, 39130, 39276, 39581, 39715, 39337, 39170, 39325, 39194, 39713, 40274, 39964, 39432, 38732, 39514, 39209, 39089, 39206, 39519, 39340, 39279, 39218, 39393, 39264, 39827, 39650, 39933, 39507, 39687, 39510, 40210, 39419, 39732, 39569, 39381, 39687, 39046, 39272, 39000, 39533, 39271, 39215, 39162, 39232, 38933, 39481, 39501, 39598, 39451, 39415, 39122, 39185, 39413, 39753, 39542, 39268, 39566, 39339, 39062, 39277, 39363, 39752, 40136, 39508, 39828, 39580, 39331, 39207, 38948, 39724, 39683, 39499, 39161, 38744, 39075, 38986, 39466, 39561, 39682, 39254, 39644, 39619, 40095, 39532, 39745, 39615, 39694, 39574, 39590, 39750, 39786, 39434, 39823, 39854, 39680, 39733, 39794, 40028, 40110, 39815, 39958, 39826, 39799, 39873, 39818, 39773, 40295, 39912, 39408, 39297, 39792, 39807, 40518, 40153, 39895, 39922, 39347, 38896, 39220, 39509, 39115],
      "WindowCenter": [10002.0, 9987.0, 10002.0, 10004.0, 9990.0, 9967.0, 9978.0, 9986.0, 9997.0, 10013.0, 10009.0, 10009.0, 10016.0, 10018.0, 10006.0, 10001.0, 10000.0, 10017.0, 10027.0, 10035.0, 10012.0, 10000.0, 9991.0, 10005.0, 10023.0, 10033.0, 10028.0, 10019.0, 10027.0, 10029.0, 10021.0, 10005.0, 9995.0, 10002.0, 10011.0, 10021.0, 10028.0, 10022.0, 10015.0, 9998.0, 9986.0, 9971.0, 9982.0, 9986.0, 10001.0, 9999.0, 9995.0, 9994.0, 10002.0, 10011.0, 10018.0, 10002.0, 10001.0, 10003.0, 10018.0, 10015.0, 10014.0, 10006.0, 10011.0, 9995.0, 9987.0, 9989.0, 9995.0, 10017.0, 10006.0, 9994.0, 9992.0, 9991.0, 10000.0, 10009.0, 10003.0, 9995.0, 9993.0, 10000.0, 10012.0, 10013.0, 9989.0, 9963.0, 9958.0, 9977.0, 10007.0, 10027.0, 10016.0, 9997.0, 9978.0, 9976.0, 9991.0, 10002.0, 10005.0, 9995.0, 9977.0, 9966.0, 9967.0, 9982.0, 9991.0, 9998.0, 9994.0, 10001.0, 9994.0, 9991.0, 9991.0, 10000.0, 10003.0, 10010.0, 10002.0, 9995.0, 9997.0, 10013.0, 10028.0, 10031.0, 10046.0, 10027.0, 10008.0, 9974.0, 9959.0, 9964.0, 9990.0, 10020.0, 10029.0, 10008.0, 9988.0, 9962.0, 9958.0, 9974.0, 9993.0, 10017.0, 10021.0, 10015.0, 9995.0, 9969.0, 9958.0, 9972.0, 9989.0, 10011.0, 10027.0, 10022.0, 10004.0, 9979.0, 9973.0, 9974.0, 10001.0, 10022.0, 10026.0, 10031.0, 10016.0, 10013.0, 10013.0, 10012.0, 10006.0, 10003.0, 10002.0, 10015.0, 10003.0, 9987.0, 9986.0, 10001.0, 10010.0, 10010.0, 9993.0, 9991.0, 9993.0, 10009.0, 10008.0, 9994.0, 9976.0, 9964.0, 9964.0, 9989.0, 10008.0, 10007.0, 9999.0, 9992.0, 9972.0, 9964.0, 10004.0, 10031.0, 10010.0, 9971.0, 9933.0, 9909.0, 9914.0, 9928.0, 9951.0, 9975.0, 9979.0, 9983.0, 9974.0, 9957.0, 9953.0, 9976.0],
      "WindowWidth": [21260.0, 21205.0, 21230.0, 21231.0, 21199.0, 21146.0, 21163.0, 21182.0, 21209.0, 21242.0, 21238.0, 21237.0, 21250.0, 21258.0, 21233.0, 21216.0, 21214.0, 21253.0, 21276.0, 21294.0, 21244.0, 21212.0, 21193.0, 21226.0, 21266.0, 21291.0, 21279.0, 21260.0, 21279.0, 21282.0, 21263.0, 21228.0, 21205.0, 21220.0, 21241.0, 21268.0, 21279.0, 21264.0, 21251.0, 21210.0, 21181.0, 21149.0, 21172.0, 21186.0, 21219.0, 21212.0, 21203.0, 21201.0, 21220.0, 21241.0, 21253.0, 21219.0, 21215.0, 21222.0, 21255.0, 21250.0, 21247.0, 21228.0, 21238.0, 21203.0, 21184.0, 21186.0, 21206.0, 21254.0, 21230.0, 21201.0, 21193.0, 21193.0, 21214.0, 21235.0, 21221.0, 21202.0, 21195.0, 21213.0, 21245.0, 21245.0, 21192.0, 21132.0, 21117.0, 21159.0, 21231.0, 21278.0, 21255.0, 21207.0, 21164.0, 21158.0, 21194.0, 21221.0, 21228.0, 21203.0, 21159.0, 21134.0, 21137.0, 21170.0, 21191.0, 21208.0, 21200.0, 21214.0, 21200.0, 21190.0, 21193.0, 21215.0, 21223.0, 21238.0, 21220.0, 21203.0, 21210.0, 21245.0, 21279.0, 21287.0, 21319.0, 21280.0, 21233.0, 21157.0, 21120.0, 21129.0, 21190.0, 21262.0, 21281.0, 21232.0, 21184.0, 21127.0, 21118.0, 21154.0, 21200.0, 21253.0, 21263.0, 21247.0, 21200.0, 21139.0, 21115.0, 21148.0, 21188.0, 21239.0, 21274.0, 21264.0, 21221.0, 21165.0, 21149.0, 21155.0, 21216.0, 21268.0, 21279.0, 21285.0, 21255.0, 21243.0, 21245.0, 21243.0, 21227.0, 21218.0, 21216.0, 21243.0, 21221.0, 21185.0, 21178.0, 21213.0, 21233.0, 21233.0, 21194.0, 21189.0, 21198.0, 21233.0, 21231.0, 21198.0, 21156.0, 21126.0, 21128.0, 21186.0, 21231.0, 21232.0, 21214.0, 21197.0, 21148.0, 21132.0, 21221.0, 21285.0, 21238.0, 21148.0, 21059.0, 21001.0, 21011.0, 21045.0, 21102.0, 21154.0, 21162.0, 21172.0, 21149.0, 21113.0, 21106.0, 21157.0]
    },
    "slices": {}
  }
}