{
  "AcquisitionMatrixPE": 104,
  "AcquisitionNumber": 1,
  "AcquisitionTime": "13:42:35.107500",
  "BandwidthPerPixelPhaseEncode": 17.17,
  "BaseResolution": 104,
  "BodyPartExamined": "BRAIN",
  "CoilString": "HC1-7;NC1_2",
  "ConsistencyInfo": "N4_VE11C_LATEST_20160120",
  "ConversionSoftware": "dcm2niix",
  "ConversionSoftwareVersion": "v1.0.20190902",
  "DerivedVendorReportedEchoSpacing": 0.000560011,
  "DeviceSerialNumber": "167006",
  "DwellTime": 2.1e-06,
  "EchoTime": 0.037,
  "EchoTrainLength": 104,
  "EffectiveEchoSpacing": 0.000560011,
  "FlipAngle": 52,
  "ImageComments": "Unaliased_MB4_PE3_LB",
  "ImageOrientationPatientDICOM": [0.999515, 0.0161041, 0.0266719, -0.00994383, 0.976175, -0.216758],
  "ImageType": [
    "ORIGINAL",
    "PRIMARY",
    "M",
    "MB",
    "ND",
    "MOSAIC"
],
  "ImagingFrequency": 123.259,
  "InPlanePhaseEncodingDirectionDICOM": "COL",
  "InstitutionAddress": "Chemin_Queen-Mary_4565_Montreal_District_CA_H3W_1W5",
  "InstitutionName": "IUGM",
  "InstitutionalDepartmentName": "Department",
  "MRAcquisitionType": "2D",
  "MagneticFieldStrength": 3,
  "Manufacturer": "Siemens",
  "ManufacturersModelName": "Prisma_fit",
  "Modality": "MR",
  "MultibandAccelerationFactor": 4,
  "PartialFourier": 1,
  "PatientPosition": "HFS",
  "PercentPhaseFOV": 100,
  "PhaseEncodingDirection": "j",
  "PhaseEncodingSteps": 104,
  "PhaseResolution": 1,
  "PixelBandwidth": 2290,
  "ProcedureStepDescription": "memory_things",
  "ProtocolName": "func_task-things_run-3",
  "PulseSequenceDetails": "%CustomerSeq%_cmrr_mbep2d_bold",
  "ReceiveCoilActiveElements": "HC1-7;NC1,2",
  "ReceiveCoilName": "HeadNeck_64",
  "ReconMatrixPE": 104,
  "RepetitionTime": 1.49,
  "SAR": 0.0411504,
  "ScanOptions": "FS",
  "ScanningSequence": "EP",
  "SequenceName": "epfid2d1_104",
  "SequenceVariant": "SK_SS",
  "SeriesDescription": "func_task-things_run-3",
  "SeriesNumber": 16,
  "ShimSetting": [637, -7222, -8778, 717, 59, -23, 88, -8],
  "SliceThickness": 2,
  "SliceTiming": [0, 0.785, 0.0975, 0.8825, 0.1975, 0.98, 0.295, 1.0775, 0.3925, 1.1775, 0.49, 1.275, 0.5875, 1.3725, 0.6875, 0, 0.785, 0.0975, 0.8825, 0.1975, 0.98, 0.295, 1.0775, 0.3925, 1.1775, 0.49, 1.275, 0.5875, 1.3725, 0.6875, 0, 0.785, 0.0975, 0.8825, 0.1975, 0.98, 0.295, 1.0775, 0.3925, 1.1775, 0.49, 1.275, 0.5875, 1.3725, 0.6875, 0, 0.785, 0.0975, 0.8825, 0.1975, 0.98, 0.295, 1.0775, 0.3925, 1.1775, 0.49, 1.275, 0.5875, 1.3725, 0.6875],
  "SoftwareVersions": "syngo_MR_E11",
  "SpacingBetweenSlices": 2,
  "StationName": "MRC35049",
  "TaskName": "things",
  "TotalReadoutTime": 0.0576811,
  "TxRefAmp": 218.768,
  "WipMemBlock": "3516c72a-19ad-4c06-9a98-d2ca31b5861b||Sequence: R016 ve11c/master r/e634e98; Dec 19 2017 11:00:25 by eja",
  "dcmmeta_affine": [
    [-1.9990290403366089, -0.0198876541107893, 0.05905432626605034, 108.30137634277344],
    [-0.03220810368657112, 1.952349305152893, -0.4327758550643921, -75.53141784667969],
    [0.053343888372182846, 0.4335167706012726, 1.9517216682434082, -56.59928512573242],
    [0.0, 0.0, 0.0, 1.0]
],
  "dcmmeta_reorient_transform": [
    [0.0, -1.0, 0.0, 103.0],
    [1.0, 0.0, 0.0, 0.0],
    [0.0, 0.0, 1.0, 0.0],
    [0.0, 0.0, 0.0, 1.0]
],
  "dcmmeta_shape": [104, 104, 60, 190],
  "dcmmeta_slice_dim": 2,
  "dcmmeta_version": 0.6,
  "global": {
    "const": {
      "AcquisitionMatrix": [104, 0, 0, 104],
      "AngioFlag": "N",
      "BitsAllocated": 16,
      "BitsStored": 16,
      "BodyPartExamined": "BRAIN",
      "Columns": 832,
      "EchoNumbers": 1,
      "EchoTime": 37.0,
      "EchoTrainLength": 104,
      "FlipAngle": 52.0,
      "HighBit": 15,
      "ImageOrientationPatient": [0.9995145155904, 0.01610405166712, 0.02667194488588, -0.0099438267944, 0.97617463836467, -0.2167583809736],
      "ImagePositionPatient": [-826.66041021003, -847.93944318079, 126.43586753799],
      "ImageType": [
        "ORIGINAL",
        "PRIMARY",
        "M",
        "MB",
        "ND",
        "MOSAIC"
],
      "ImagedNucleus": "1H",
      "ImagingFrequency": 123.258935,
      "InPlanePhaseEncodingDirection": "COL",
      "MRAcquisitionType": "2D",
      "MagneticFieldStrength": 3.0,
      "Manufacturer": "SIEMENS",
      "ManufacturerModelName": "Prisma_fit",
      "Modality": "MR",
      "NumberOfAverages": 1.0,
      "NumberOfPhaseEncodingSteps": 104,
      "PercentPhaseFieldOfView": 100.0,
      "PercentSampling": 100.0,
      "PerformedProcedureStepStartTime": "130613.578000",
      "PhotometricInterpretation": "MONOCHROME2",
      "PixelBandwidth": 2290.0,
      "PixelRepresentation": 0,
      "PixelSpacing": [2.0, 2.0],
      "ProtocolName": "func_task-things_run-3",
      "RepetitionTime": 1490.0,
      "Rows": 832,
      "SAR": 0.04115036591945,
      "SamplesPerPixel": 1,
      "ScanOptions": "FS",
      "ScanningSequence": "EP",
      "SequenceName": "epfid2d1_104",
      "SequenceVariant": [
        "SK",
        "SS"
],
      "SeriesDescription": "func_task-things_run-3",
      "SeriesNumber": 16,
      "SeriesTime": "134354.704000",
      "SliceLocation": -35.691106514532,
      "SliceThickness": 2.0,
      "SmallestImagePixelValue": 0,
      "SoftwareVersions": "syngo MR E11",
      "SpacingBetweenSlices": 1.9999999671819,
      "SpecificCharacterSet": "ISO_IR 100",
      "StudyID": "1",
      "StudyTime": "130613.465000",
      "TransmitCoilName": "Body",
      "VariableFlipAngleFlag": "N",
      "WindowCenterWidthExplanation": "Algo1",
      "dBdt": 0.0},
    "slices": {}
  },
  "time": {
    "samples": {
      "AcquisitionNumber": [1, 2, 3, 4, 5, 6, 7, 8, 9, 10, 11, 12, 13, 14, 15, 16, 17, 18, 19, 20, 21, 22, 23, 24, 25, 26, 27, 28, 29, 30, 31, 32, 33, 34, 35, 36, 37, 38, 39, 40, 41, 42, 43, 44, 45, 46, 47, 48, 49, 50, 51, 52, 53, 54, 55, 56, 57, 58, 59, 60, 61, 62, 63, 64, 65, 66, 67, 68, 69, 70, 71, 72, 73, 74, 75, 76, 77, 78, 79, 80, 81, 82, 83, 84, 85, 86, 87, 88, 89, 90, 91, 92, 93, 94, 95, 96, 97, 98, 99, 100, 101, 102, 103, 104, 105, 106, 107, 108, 109, 110, 111, 112, 113, 114, 115, 116, 117, 118, 119, 120, 121, 122, 123, 124, 125, 126, 127, 128, 129, 130, 131, 132, 133, 134, 135, 136, 137, 138, 139, 140, 141, 142, 143, 144, 145, 146, 147, 148, 149, 150, 151, 152, 153, 154, 155, 156, 157, 158, 159, 160, 161, 162, 163, 164, 165, 166, 167, 168, 169, 170, 171, 172, 173, 174, 175, 176, 177, 178, 179, 180, 181, 182, 183, 184, 185, 186, 187, 188, 189, 190],
      "AcquisitionTime": ["134235.107500", "134236.597500", "134238.087500", "134239.577500", "134241.067500", "134242.557500", "134244.047500", "134245.537500", "134247.027500", "134248.517500", "134250.007500", "134251.497500", "134252.987500", "134254.477500", "134255.967500", "134257.457500", "134258.947500", "134300.437500", "134301.927500", "134303.417500", "134304.907500", "134306.397500", "134307.887500", "134309.377500", "134310.867500", "134312.357500", "134313.847500", "134315.337500", "134316.827500", "134318.317500", "134319.807500", "134321.297500", "134322.787500", "134324.277500", "134325.767500", "134327.257500", "134328.747500", "134330.237500", "134331.727500", "134333.217500", "134334.707500", "134336.197500", "134337.687500", "134339.177500", "134340.667500", "134342.157500", "134343.647500", "134345.137500", "134346.627500", "134348.117500", "134349.607500", "134351.097500", "134352.587500", "134354.077500", "134355.567500", "134357.057500", "134358.547500", "134400.037500", "134401.527500", "134403.017500", "134404.507500", "134405.997500", "134407.487500", "134408.977500", "134410.467500", "134411.957500", "134413.447500", "134414.937500", "134416.427500", "134417.917500", "134419.407500", "134420.897500", "134422.387500", "134423.877500", "134425.367500", "134426.857500", "134428.347500", "134429.837500", "134431.327500", "134432.817500", "134434.307500", "134435.797500", "134437.287500", "134438.777500", "134440.267500", "134441.757500", "134443.247500", "134444.737500", "134446.227500", "134447.717500", "134449.207500", "134450.697500", "134452.187500", "134453.677500", "134455.167500", "134456.657500", "134458.147500", "134459.637500", "134501.127500", "134502.617500", "134504.107500", "134505.597500", "134507.087500", "134508.577500", "134510.067500", "134511.557500", "134513.047500", "134514.537500", "134516.027500", "134517.517500", "134519.007500", "134520.497500", "134521.987500", "134523.477500", "134524.967500", "134526.457500", "134527.947500", "134529.437500", "134530.927500", "134532.417500", "134533.907500", "134535.397500", "134536.887500", "134538.377500", "134539.867500", "134541.357500", "134542.847500", "134544.337500", "134545.827500", "134547.317500", "134548.807500", "134550.297500", "134551.787500", "134553.277500", "134554.767500", "134556.257500", "134557.747500", "134559.237500", "134600.727500", "134602.217500", "134603.707500", "134605.197500", "134606.687500", "134608.177500", "134609.667500", "134611.157500", "134612.647500", "134614.137500", "134615.627500", "134617.117500", "134618.607500", "134620.097500", "134621.587500", "134623.077500", "134624.567500", "134626.057500", "134627.547500", "134629.037500", "134630.527500", "134632.017500", "134633.507500", "134634.997500", "134636.487500", "134637.977500", "134639.467500", "134640.957500", "134642.447500", "134643.937500", "134645.427500", "134646.917500", "134648.407500", "134649.897500", "134651.387500", "134652.877500", "134654.367500", "134655.857500", "134657.347500", "134658.837500", "134700.327500", "134701.817500", "134703.307500", "134704.797500", "134706.287500", "134707.777500", "134709.267500", "134710.757500", "134712.247500", "134713.737500", "134715.227500", "134716.717500"],
      "ContentTime": ["134354.707000", "134354.711000", "134354.714000", "134354.718000", "134354.721000", "134354.725000", "134354.728000", "134354.732000", "134354.735000", "134354.739000", "134354.742000", "134354.746000", "134354.749000", "134354.752000", "134354.756000", "134354.760000", "134354.763000", "134354.766000", "134354.770000", "134354.773000", "134354.777000", "134354.780000", "134354.784000", "134354.787000", "134414.679000", "134414.684000", "134414.688000", "134414.691000", "134414.695000", "134414.699000", "134414.702000", "134414.706000", "134414.722000", "134414.725000", "134414.734000", "134414.737000", "134414.741000", "134414.744000", "134414.748000", "134414.751000", "134414.755000", "134414.758000", "134414.761000", "134414.765000", "134434.660000", "134434.664000", "134434.668000", "134434.671000", "134434.674000", "134434.678000", "134434.681000", "134434.685000", "134434.688000", "134434.692000", "134434.695000", "134434.699000", "134434.702000", "134434.706000", "134434.709000", "134434.713000", "134434.716000", "134434.720000", "134434.723000", "134434.726000", "134434.730000", "134454.660000", "134454.664000", "134454.667000", "134454.671000", "134454.674000", "134454.678000", "134454.681000", "134454.685000", "134454.688000", "134454.691000", "134454.695000", "134454.698000", "134454.702000", "134454.705000", "134454.709000", "134454.712000", "134454.716000", "134454.719000", "134454.722000", "134454.726000", "134514.660000", "134514.664000", "134514.667000", "134514.671000", "134514.674000", "134514.678000", "134514.681000", "134514.685000", "134514.688000", "134514.692000", "134514.695000", "134514.699000", "134514.702000", "134514.706000", "134514.709000", "134514.713000", "134514.716000", "134514.719000", "134514.723000", "134514.727000", "134554.659000", "134554.663000", "134554.666000", "134554.670000", "134554.674000", "134554.677000", "134554.680000", "134554.684000", "134554.695000", "134554.698000", "134554.701000", "134554.705000", "134554.709000", "134554.712000", "134554.715000", "134554.719000", "134554.722000", "134554.726000", "134554.729000", "134554.733000", "134554.736000", "134554.739000", "134554.743000", "134554.746000", "134554.750000", "134554.753000", "134554.757000", "134554.772000", "134634.659000", "134634.663000", "134634.667000", "134634.670000", "134634.674000", "134634.677000", "134634.680000", "134634.694000", "134634.697000", "134634.700000", "134634.704000", "134634.707000", "134634.711000", "134634.714000", "134634.718000", "134634.721000", "134634.725000", "134634.728000", "134634.732000", "134634.739000", "134634.743000", "134634.746000", "134634.750000", "134634.753000", "134634.757000", "134634.760000", "134634.764000", "134714.660000", "134714.664000", "134714.668000", "134714.671000", "134714.675000", "134714.678000", "134714.682000", "134714.685000", "134714.689000", "134714.692000", "134714.696000", "134714.699000", "134714.702000", "134714.706000", "134714.710000", "134714.713000", "134714.716000", "134714.720000", "134714.723000", "134714.727000", "134714.730000", "134714.734000", "134714.737000", "134714.741000", "134714.744000", "134714.748000", "134714.751000", "134719.049000", "134719.053000", "134719.056000"],
      "InstanceCreationTime": ["134354.707000", "134354.711000", "134354.714000", "134354.718000", "134354.721000", "134354.725000", "134354.728000", "134354.732000", "134354.735000", "134354.739000", "134354.742000", "134354.746000", "134354.749000", "134354.752000", "134354.756000", "134354.760000", "134354.763000", "134354.766000", "134354.770000", "134354.773000", "134354.777000", "134354.780000", "134354.784000", "134354.787000", "134414.679000", "134414.684000", "134414.688000", "134414.691000", "134414.695000", "134414.699000", "134414.702000", "134414.706000", "134414.722000", "134414.725000", "134414.734000", "134414.737000", "134414.741000", "134414.744000", "134414.748000", "134414.751000", "134414.755000", "134414.758000", "134414.761000", "134414.765000", "134434.660000", "134434.664000", "134434.668000", "134434.671000", "134434.674000", "134434.678000", "134434.681000", "134434.685000", "134434.688000", "134434.692000", "134434.695000", "134434.699000", "134434.702000", "134434.706000", "134434.709000", "134434.713000", "134434.716000", "134434.720000", "134434.723000", "134434.726000", "134434.730000", "134454.660000", "134454.664000", "134454.667000", "134454.671000", "134454.674000", "134454.678000", "134454.681000", "134454.685000", "134454.688000", "134454.691000", "134454.695000", "134454.698000", "134454.702000", "134454.705000", "134454.709000", "134454.712000", "134454.716000", "134454.719000", "134454.722000", "134454.726000", "134514.660000", "134514.664000", "134514.667000", "134514.671000", "134514.674000", "134514.678000", "134514.681000", "134514.685000", "134514.688000", "134514.692000", "134514.695000", "134514.699000", "134514.702000", "134514.706000", "134514.709000", "134514.713000", "134514.716000", "134514.719000", "134514.723000", "134514.727000", "134554.659000", "134554.663000", "134554.666000", "134554.670000", "134554.674000", "134554.677000", "134554.680000", "134554.684000", "134554.695000", "134554.698000", "134554.701000", "134554.705000", "134554.709000", "134554.712000", "134554.715000", "134554.719000", "134554.722000", "134554.726000", "134554.729000", "134554.733000", "134554.736000", "134554.739000", "134554.743000", "134554.746000", "134554.750000", "134554.753000", "134554.757000", "134554.772000", "134634.659000", "134634.663000", "134634.667000", "134634.670000", "134634.674000", "134634.677000", "134634.680000", "134634.694000", "134634.697000", "134634.700000", "134634.704000", "134634.707000", "134634.711000", "134634.714000", "134634.718000", "134634.721000", "134634.725000", "134634.728000", "134634.732000", "134634.739000", "134634.743000", "134634.746000", "134634.750000", "134634.753000", "134634.757000", "134634.760000", "134634.764000", "134714.660000", "134714.664000", "134714.668000", "134714.671000", "134714.675000", "134714.678000", "134714.682000", "134714.685000", "134714.689000", "134714.692000", "134714.696000", "134714.699000", "134714.702000", "134714.706000", "134714.710000", "134714.713000", "134714.716000", "134714.720000", "134714.723000", "134714.727000", "134714.730000", "134714.734000", "134714.737000", "134714.741000", "134714.744000", "134714.748000", "134714.751000", "134719.049000", "134719.053000", "134719.056000"],
      "InstanceNumber": [1, 2, 3, 4, 5, 6, 7, 8, 9, 10, 11, 12, 13, 14, 15, 16, 17, 18, 19, 20, 21, 22, 23, 24, 25, 26, 27, 28, 29, 30, 31, 32, 33, 34, 35, 36, 37, 38, 39, 40, 41, 42, 43, 44, 45, 46, 47, 48, 49, 50, 51, 52, 53, 54, 55, 56, 57, 58, 59, 60, 61, 62, 63, 64, 65, 66, 67, 68, 69, 70, 71, 72, 73, 74, 75, 76, 77, 78, 79, 80, 81, 82, 83, 84, 85, 86, 87, 88, 89, 90, 91, 92, 93, 94, 95, 96, 97, 98, 99, 100, 101, 102, 103, 104, 105, 106, 107, 108, 109, 110, 111, 112, 113, 114, 115, 116, 117, 118, 119, 120, 121, 122, 123, 124, 125, 126, 127, 128, 129, 130, 131, 132, 133, 134, 135, 136, 137, 138, 139, 140, 141, 142, 143, 144, 145, 146, 147, 148, 149, 150, 151, 152, 153, 154, 155, 156, 157, 158, 159, 160, 161, 162, 163, 164, 165, 166, 167, 168, 169, 170, 171, 172, 173, 174, 175, 176, 177, 178, 179, 180, 181, 182, 183, 184, 185, 186, 187, 188, 189, 190],
      "LargestImagePixelValue": [41435, 40897, 39789, 39477, 39038, 39117, 39048, 39899, 40290, 40022, 39866, 39638, 39505, 39790, 39062, 39951, 39984, 39751, 39543, 39535, 39544, 39235, 39616, 39493, 39058, 39455, 39285, 39201, 39258, 39079, 39278, 39260, 39214, 39748, 39607, 39111, 39125, 38887, 38945, 39004, 39380, 39230, 39220, 39421, 39167, 39007, 39414, 39441, 39171, 39498, 39107, 39292, 39505, 39011, 39134, 39111, 39234, 39359, 39955, 40038, 39744, 39704, 39143, 38941, 38988, 39150, 39281, 39054, 39201, 39065, 39404, 39494, 39197, 39482, 39591, 39421, 39556, 39191, 39653, 39225, 39238, 39086, 39458, 39692, 39512, 39492, 39474, 39210, 39230, 38850, 38880, 39306, 39718, 39732, 39405, 39387, 39365, 39515, 39355, 39510, 39323, 39222, 39364, 38570, 39144, 39378, 39491, 39624, 39777, 39679, 39464, 39369, 39307, 39267, 39196, 39276, 39475, 39082, 39401, 39119, 39768, 39298, 39239, 39419, 39454, 39434, 39474, 39243, 39478, 39728, 39698, 38899, 39194, 38984, 38996, 39279, 39448, 39332, 39448, 39501, 39333, 39500, 39351, 39591, 39601, 39900, 39441, 39380, 39418, 39426, 39489, 39411, 39449, 39082, 39534, 39573, 39492, 39387, 39410, 39274, 39009, 39398, 39304, 39412, 39750, 39660, 39036, 39370, 39069, 39540, 39415, 39435, 39417, 39181, 39154, 39299, 38991, 39123, 39695, 39226, 39444, 39054, 39277, 38873, 39323, 39479, 39217, 38707, 38810, 38832],
      "WindowCenter": [10155.0, 10128.0, 10119.0, 10113.0, 10091.0, 10065.0, 10037.0, 10037.0, 10041.0, 10046.0, 10061.0, 10064.0, 10076.0, 10090.0, 10063.0, 10048.0, 10035.0, 10044.0, 10062.0, 10087.0, 10092.0, 10092.0, 10082.0, 10075.0, 10075.0, 10091.0, 10093.0, 10086.0, 10084.0, 10093.0, 10094.0, 10085.0, 10083.0, 10076.0, 10083.0, 10071.0, 10069.0, 10069.0, 10069.0, 10067.0, 10069.0, 10067.0, 10066.0, 10058.0, 10059.0, 10065.0, 10073.0, 10067.0, 10068.0, 10074.0, 10061.0, 10059.0, 10073.0, 10085.0, 10077.0, 10055.0, 10032.0, 10012.0, 10010.0, 10034.0, 10060.0, 10080.0, 10075.0, 10059.0, 10058.0, 10058.0, 10057.0, 10048.0, 10048.0, 10050.0, 10057.0, 10064.0, 10069.0, 10081.0, 10075.0, 10059.0, 10047.0, 10042.0, 10064.0, 10074.0, 10077.0, 10062.0, 10060.0, 10065.0, 10067.0, 10074.0, 10076.0, 10081.0, 10093.0, 10089.0, 10086.0, 10077.0, 10076.0, 10089.0, 10079.0, 10068.0, 10044.0, 10036.0, 10040.0, 10056.0, 10084.0, 10087.0, 10078.0, 10055.0, 10043.0, 10041.0, 10041.0, 10048.0, 10047.0, 10040.0, 10033.0, 10048.0, 10065.0, 10066.0, 10060.0, 10059.0, 10058.0, 10052.0, 10057.0, 10060.0, 10065.0, 10060.0, 10053.0, 10065.0, 10073.0, 10076.0, 10070.0, 10059.0, 10057.0, 10058.0, 10072.0, 10076.0, 10085.0, 10086.0, 10071.0, 10050.0, 10035.0, 10039.0, 10049.0, 10073.0, 10083.0, 10068.0, 10051.0, 10047.0, 10055.0, 10080.0, 10084.0, 10069.0, 10043.0, 10031.0, 10030.0, 10046.0, 10056.0, 10058.0, 10066.0, 10066.0, 10050.0, 10042.0, 10049.0, 10057.0, 10050.0, 10034.0, 10022.0, 10037.0, 10062.0, 10081.0, 10085.0, 10071.0, 10061.0, 10073.0, 10082.0, 10076.0, 10068.0, 10061.0, 10069.0, 10076.0, 10077.0, 10068.0, 10074.0, 10082.0, 10078.0, 10070.0, 10069.0, 10069.0, 10075.0, 10074.0, 10082.0, 10086.0, 10096.0, 10079.0],
      "WindowWidth": [21624.0, 21543.0, 21512.0, 21495.0, 21442.0, 21381.0, 21314.0, 21305.0, 21314.0, 21332.0, 21364.0, 21374.0, 21402.0, 21430.0, 21371.0, 21330.0, 21301.0, 21323.0, 21366.0, 21423.0, 21435.0, 21437.0, 21412.0, 21399.0, 21398.0, 21435.0, 21439.0, 21425.0, 21416.0, 21439.0, 21440.0, 21420.0, 21412.0, 21398.0, 21413.0, 21391.0, 21385.0, 21384.0, 21387.0, 21379.0, 21384.0, 21379.0, 21376.0, 21357.0, 21362.0, 21373.0, 21389.0, 21379.0, 21380.0, 21393.0, 21367.0, 21362.0, 21392.0, 21420.0, 21404.0, 21351.0, 21294.0, 21249.0, 21244.0, 21299.0, 21363.0, 21408.0, 21398.0, 21362.0, 21357.0, 21358.0, 21354.0, 21334.0, 21333.0, 21339.0, 21354.0, 21369.0, 21383.0, 21407.0, 21396.0, 21357.0, 21329.0, 21322.0, 21372.0, 21395.0, 21403.0, 21370.0, 21363.0, 21373.0, 21381.0, 21397.0, 21402.0, 21411.0, 21439.0, 21431.0, 21420.0, 21397.0, 21396.0, 21423.0, 21406.0, 21379.0, 21325.0, 21304.0, 21314.0, 21352.0, 21417.0, 21425.0, 21404.0, 21352.0, 21321.0, 21315.0, 21318.0, 21333.0, 21329.0, 21314.0, 21303.0, 21333.0, 21370.0, 21375.0, 21362.0, 21358.0, 21355.0, 21343.0, 21354.0, 21364.0, 21371.0, 21362.0, 21348.0, 21371.0, 21388.0, 21396.0, 21383.0, 21355.0, 21350.0, 21355.0, 21386.0, 21397.0, 21419.0, 21421.0, 21387.0, 21335.0, 21304.0, 21311.0, 21335.0, 21391.0, 21413.0, 21377.0, 21337.0, 21326.0, 21345.0, 21404.0, 21416.0, 21381.0, 21319.0, 21291.0, 21291.0, 21327.0, 21352.0, 21357.0, 21371.0, 21371.0, 21334.0, 21318.0, 21334.0, 21356.0, 21338.0, 21301.0, 21271.0, 21306.0, 21362.0, 21409.0, 21418.0, 21388.0, 21362.0, 21388.0, 21411.0, 21398.0, 21380.0, 21364.0, 21384.0, 21399.0, 21399.0, 21379.0, 21390.0, 21410.0, 21404.0, 21386.0, 21382.0, 21380.0, 21392.0, 21390.0, 21409.0, 21422.0, 21444.0, 21402.0]
    },
    "slices": {}
  }
}