{
  "AcquisitionMatrixPE": 104,
  "AcquisitionNumber": 1,
  "AcquisitionTime": "13:54:40.900000",
  "BandwidthPerPixelPhaseEncode": 17.17,
  "BaseResolution": 104,
  "BodyPartExamined": "BRAIN",
  "CoilString": "HC1-7;NC1_2",
  "ConsistencyInfo": "N4_VE11C_LATEST_20160120",
  "ConversionSoftware": "dcm2niix",
  "ConversionSoftwareVersion": "v1.0.20190902",
  "DerivedVendorReportedEchoSpacing": 0.000560011,
  "DeviceSerialNumber": "167006",
  "DwellTime": 2.1e-06,
  "EchoTime": 0.037,
  "EchoTrainLength": 104,
  "EffectiveEchoSpacing": 0.000560011,
  "FlipAngle": 52,
  "ImageComments": "Unaliased_MB4_PE3_LB",
  "ImageOrientationPatientDICOM": [0.999515, 0.0161041, 0.0266719, -0.00994383, 0.976175, -0.216758],
  "ImageType": [
    "ORIGINAL",
    "PRIMARY",
    "M",
    "MB",
    "ND",
    "MOSAIC"
],
  "ImagingFrequency": 123.259,
  "InPlanePhaseEncodingDirectionDICOM": "COL",
  "InstitutionAddress": "Chemin_Queen-Mary_4565_Montreal_District_CA_H3W_1W5",
  "InstitutionName": "IUGM",
  "InstitutionalDepartmentName": "Department",
  "MRAcquisitionType": "2D",
  "MagneticFieldStrength": 3,
  "Manufacturer": "Siemens",
  "ManufacturersModelName": "Prisma_fit",
  "Modality": "MR",
  "MultibandAccelerationFactor": 4,
  "PartialFourier": 1,
  "PatientPosition": "HFS",
  "PercentPhaseFOV": 100,
  "PhaseEncodingDirection": "j",
  "PhaseEncodingSteps": 104,
  "PhaseResolution": 1,
  "PixelBandwidth": 2290,
  "ProcedureStepDescription": "memory_things",
  "ProtocolName": "func_task-things_run-5",
  "PulseSequenceDetails": "%CustomerSeq%_cmrr_mbep2d_bold",
  "ReceiveCoilActiveElements": "HC1-7;NC1,2",
  "ReceiveCoilName": "HeadNeck_64",
  "ReconMatrixPE": 104,
  "RepetitionTime": 1.49,
  "SAR": 0.0411504,
  "ScanOptions": "FS",
  "ScanningSequence": "EP",
  "SequenceName": "epfid2d1_104",
  "SequenceVariant": "SK_SS",
  "SeriesDescription": "func_task-things_run-5",
  "SeriesNumber": 22,
  "ShimSetting": [637, -7222, -8778, 717, 59, -23, 88, -8],
  "SliceThickness": 2,
  "SliceTiming": [0, 0.7825, 0.0975, 0.8825, 0.195, 0.98, 0.2925, 1.0775, 0.3925, 1.175, 0.49, 1.2725, 0.5875, 1.3725, 0.685, 0, 0.7825, 0.0975, 0.8825, 0.195, 0.98, 0.2925, 1.0775, 0.3925, 1.175, 0.49, 1.2725, 0.5875, 1.3725, 0.685, 0, 0.7825, 0.0975, 0.8825, 0.195, 0.98, 0.2925, 1.0775, 0.3925, 1.175, 0.49, 1.2725, 0.5875, 1.3725, 0.685, 0, 0.7825, 0.0975, 0.8825, 0.195, 0.98, 0.2925, 1.0775, 0.3925, 1.175, 0.49, 1.2725, 0.5875, 1.3725, 0.685],
  "SoftwareVersions": "syngo_MR_E11",
  "SpacingBetweenSlices": 2,
  "StationName": "MRC35049",
  "TaskName": "things",
  "TotalReadoutTime": 0.0576811,
  "TxRefAmp": 218.768,
  "WipMemBlock": "ce3aa25d-9ad4-4ec1-a22f-cfe1a4064ab6||Sequence: R016 ve11c/master r/e634e98; Dec 19 2017 11:00:25 by eja",
  "dcmmeta_affine": [
    [-1.9990290403366089, -0.0198876541107893, 0.05905432626605034, 108.30137634277344],
    [-0.03220810368657112, 1.952349305152893, -0.4327758550643921, -75.53141784667969],
    [0.053343888372182846, 0.4335167706012726, 1.9517216682434082, -56.59928512573242],
    [0.0, 0.0, 0.0, 1.0]
],
  "dcmmeta_reorient_transform": [
    [0.0, -1.0, 0.0, 103.0],
    [1.0, 0.0, 0.0, 0.0],
    [0.0, 0.0, 1.0, 0.0],
    [0.0, 0.0, 0.0, 1.0]
],
  "dcmmeta_shape": [104, 104, 60, 190],
  "dcmmeta_slice_dim": 2,
  "dcmmeta_version": 0.6,
  "global": {
    "const": {
      "AcquisitionMatrix": [104, 0, 0, 104],
      "AngioFlag": "N",
      "BitsAllocated": 16,
      "BitsStored": 16,
      "BodyPartExamined": "BRAIN",
      "Columns": 832,
      "EchoNumbers": 1,
      "EchoTime": 37.0,
      "EchoTrainLength": 104,
      "FlipAngle": 52.0,
      "HighBit": 15,
      "ImageOrientationPatient": [0.9995145155904, 0.01610405166712, 0.02667194488588, -0.0099438267944, 0.97617463836467, -0.2167583809736],
      "ImagePositionPatient": [-826.66041021003, -847.93944318079, 126.43586753799],
      "ImageType": [
        "ORIGINAL",
        "PRIMARY",
        "M",
        "MB",
        "ND",
        "MOSAIC"
],
      "ImagedNucleus": "1H",
      "ImagingFrequency": 123.258943,
      "InPlanePhaseEncodingDirection": "COL",
      "MRAcquisitionType": "2D",
      "MagneticFieldStrength": 3.0,
      "Manufacturer": "SIEMENS",
      "ManufacturerModelName": "Prisma_fit",
      "Modality": "MR",
      "NumberOfAverages": 1.0,
      "NumberOfPhaseEncodingSteps": 104,
      "PercentPhaseFieldOfView": 100.0,
      "PercentSampling": 100.0,
      "PerformedProcedureStepStartTime": "130613.578000",
      "PhotometricInterpretation": "MONOCHROME2",
      "PixelBandwidth": 2290.0,
      "PixelRepresentation": 0,
      "PixelSpacing": [2.0, 2.0],
      "ProtocolName": "func_task-things_run-5",
      "RepetitionTime": 1490.0,
      "Rows": 832,
      "SAR": 0.04115036591945,
      "SamplesPerPixel": 1,
      "ScanOptions": "FS",
      "ScanningSequence": "EP",
      "SequenceName": "epfid2d1_104",
      "SequenceVariant": [
        "SK",
        "SS"
],
      "SeriesDescription": "func_task-things_run-5",
      "SeriesNumber": 22,
      "SeriesTime": "135555.269000",
      "SliceLocation": -35.691106514532,
      "SliceThickness": 2.0,
      "SmallestImagePixelValue": 0,
      "SoftwareVersions": "syngo MR E11",
      "SpacingBetweenSlices": 1.9999999671819,
      "SpecificCharacterSet": "ISO_IR 100",
      "StudyID": "1",
      "StudyTime": "130613.465000",
      "TransmitCoilName": "Body",
      "VariableFlipAngleFlag": "N",
      "WindowCenterWidthExplanation": "Algo1",
      "dBdt": 0.0},
    "slices": {}
  },
  "time": {
    "samples": {
      "AcquisitionNumber": [1, 2, 3, 4, 5, 6, 7, 8, 9, 10, 11, 12, 13, 14, 15, 16, 17, 18, 19, 20, 21, 22, 23, 24, 25, 26, 27, 28, 29, 30, 31, 32, 33, 34, 35, 36, 37, 38, 39, 40, 41, 42, 43, 44, 45, 46, 47, 48, 49, 50, 51, 52, 53, 54, 55, 56, 57, 58, 59, 60, 61, 62, 63, 64, 65, 66, 67, 68, 69, 70, 71, 72, 73, 74, 75, 76, 77, 78, 79, 80, 81, 82, 83, 84, 85, 86, 87, 88, 89, 90, 91, 92, 93, 94, 95, 96, 97, 98, 99, 100, 101, 102, 103, 104, 105, 106, 107, 108, 109, 110, 111, 112, 113, 114, 115, 116, 117, 118, 119, 120, 121, 122, 123, 124, 125, 126, 127, 128, 129, 130, 131, 132, 133, 134, 135, 136, 137, 138, 139, 140, 141, 142, 143, 144, 145, 146, 147, 148, 149, 150, 151, 152, 153, 154, 155, 156, 157, 158, 159, 160, 161, 162, 163, 164, 165, 166, 167, 168, 169, 170, 171, 172, 173, 174, 175, 176, 177, 178, 179, 180, 181, 182, 183, 184, 185, 186, 187, 188, 189, 190],
      "AcquisitionTime": ["135440.900000", "135442.390000", "135443.880000", "135445.370000", "135446.860000", "135448.350000", "135449.840000", "135451.330000", "135452.820000", "135454.310000", "135455.800000", "135457.290000", "135458.780000", "135500.270000", "135501.760000", "135503.250000", "135504.740000", "135506.230000", "135507.720000", "135509.210000", "135510.700000", "135512.190000", "135513.680000", "135515.170000", "135516.660000", "135518.150000", "135519.640000", "135521.130000", "135522.620000", "135524.110000", "135525.600000", "135527.090000", "135528.580000", "135530.070000", "135531.560000", "135533.050000", "135534.540000", "135536.030000", "135537.520000", "135539.010000", "135540.500000", "135541.990000", "135543.480000", "135544.970000", "135546.460000", "135547.950000", "135549.440000", "135550.930000", "135552.420000", "135553.910000", "135555.400000", "135556.890000", "135558.380000", "135559.870000", "135601.360000", "135602.850000", "135604.340000", "135605.830000", "135607.320000", "135608.810000", "135610.300000", "135611.790000", "135613.280000", "135614.770000", "135616.260000", "135617.750000", "135619.240000", "135620.730000", "135622.220000", "135623.710000", "135625.200000", "135626.690000", "135628.180000", "135629.670000", "135631.160000", "135632.650000", "135634.140000", "135635.630000", "135637.120000", "135638.610000", "135640.100000", "135641.590000", "135643.080000", "135644.570000", "135646.060000", "135647.550000", "135649.040000", "135650.530000", "135652.020000", "135653.510000", "135655.000000", "135656.490000", "135657.980000", "135659.470000", "135700.960000", "135702.450000", "135703.940000", "135705.430000", "135706.920000", "135708.410000", "135709.900000", "135711.390000", "135712.880000", "135714.370000", "135715.860000", "135717.350000", "135718.840000", "135720.330000", "135721.820000", "135723.310000", "135724.800000", "135726.290000", "135727.780000", "135729.270000", "135730.760000", "135732.250000", "135733.740000", "135735.230000", "135736.720000", "135738.210000", "135739.700000", "135741.190000", "135742.680000", "135744.170000", "135745.660000", "135747.150000", "135748.640000", "135750.130000", "135751.620000", "135753.110000", "135754.600000", "135756.090000", "135757.580000", "135759.070000", "135800.560000", "135802.050000", "135803.540000", "135805.030000", "135806.520000", "135808.010000", "135809.500000", "135810.990000", "135812.480000", "135813.970000", "135815.460000", "135816.950000", "135818.440000", "135819.930000", "135821.420000", "135822.910000", "135824.400000", "135825.890000", "135827.380000", "135828.870000", "135830.360000", "135831.850000", "135833.340000", "135834.830000", "135836.320000", "135837.810000", "135839.300000", "135840.790000", "135842.280000", "135843.770000", "135845.260000", "135846.750000", "135848.240000", "135849.730000", "135851.220000", "135852.710000", "135854.200000", "135855.690000", "135857.180000", "135858.670000", "135900.160000", "135901.650000", "135903.140000", "135904.630000", "135906.120000", "135907.610000", "135909.100000", "135910.590000", "135912.080000", "135913.570000", "135915.060000", "135916.550000", "135918.040000", "135919.530000", "135921.020000", "135922.510000"],
      "ContentTime": ["135555.273000", "135555.277000", "135555.280000", "135555.284000", "135555.287000", "135555.290000", "135555.294000", "135555.298000", "135555.301000", "135555.304000", "135555.308000", "135555.311000", "135555.315000", "135555.318000", "135555.322000", "135555.325000", "135555.329000", "135555.332000", "135555.336000", "135555.339000", "135615.232000", "135615.236000", "135615.240000", "135615.243000", "135615.246000", "135615.250000", "135615.253000", "135615.257000", "135615.262000", "135615.265000", "135615.269000", "135615.272000", "135615.276000", "135615.286000", "135615.289000", "135615.293000", "135615.296000", "135615.300000", "135615.303000", "135615.306000", "135635.233000", "135635.237000", "135635.241000", "135635.245000", "135635.248000", "135635.252000", "135635.256000", "135635.259000", "135635.263000", "135635.267000", "135635.270000", "135635.273000", "135635.277000", "135635.281000", "135635.284000", "135635.287000", "135635.291000", "135635.294000", "135635.298000", "135635.301000", "135655.232000", "135655.237000", "135655.240000", "135655.243000", "135655.247000", "135655.251000", "135655.254000", "135655.257000", "135655.261000", "135655.264000", "135655.268000", "135655.271000", "135655.275000", "135655.279000", "135655.282000", "135655.285000", "135655.289000", "135655.292000", "135655.296000", "135655.299000", "135655.303000", "135715.231000", "135715.235000", "135715.238000", "135715.242000", "135715.246000", "135715.249000", "135715.252000", "135715.256000", "135715.259000", "135715.263000", "135715.266000", "135715.270000", "135715.273000", "135715.277000", "135715.280000", "135715.284000", "135715.287000", "135715.291000", "135715.294000", "135715.298000", "135755.232000", "135755.236000", "135755.240000", "135755.244000", "135755.248000", "135755.251000", "135755.255000", "135755.258000", "135755.262000", "135755.265000", "135755.269000", "135755.273000", "135755.276000", "135755.279000", "135755.283000", "135755.286000", "135755.290000", "135755.293000", "135755.297000", "135755.300000", "135755.304000", "135755.307000", "135755.310000", "135755.314000", "135755.317000", "135755.321000", "135755.324000", "135755.328000", "135835.232000", "135835.236000", "135835.240000", "135835.243000", "135835.247000", "135835.250000", "135835.254000", "135835.257000", "135835.261000", "135835.264000", "135835.268000", "135835.271000", "135835.275000", "135835.278000", "135835.282000", "135835.285000", "135835.289000", "135835.292000", "135835.296000", "135835.299000", "135835.303000", "135835.306000", "135835.310000", "135835.313000", "135835.317000", "135835.321000", "135835.324000", "135915.232000", "135915.236000", "135915.240000", "135915.243000", "135915.247000", "135915.250000", "135915.254000", "135915.257000", "135915.261000", "135915.264000", "135915.268000", "135915.271000", "135915.274000", "135915.278000", "135915.281000", "135915.285000", "135915.288000", "135915.292000", "135915.295000", "135915.299000", "135915.302000", "135915.306000", "135915.309000", "135915.313000", "135915.316000", "135915.320000", "135915.323000", "135924.686000", "135924.690000", "135924.694000", "135924.697000", "135924.701000", "135924.704000", "135924.708000"],
      "InstanceCreationTime": ["135555.273000", "135555.277000", "135555.280000", "135555.284000", "135555.287000", "135555.290000", "135555.294000", "135555.298000", "135555.301000", "135555.304000", "135555.308000", "135555.311000", "135555.315000", "135555.318000", "135555.322000", "135555.325000", "135555.329000", "135555.332000", "135555.336000", "135555.339000", "135615.232000", "135615.236000", "135615.240000", "135615.243000", "135615.246000", "135615.250000", "135615.253000", "135615.257000", "135615.262000", "135615.265000", "135615.269000", "135615.272000", "135615.276000", "135615.286000", "135615.289000", "135615.293000", "135615.296000", "135615.300000", "135615.303000", "135615.306000", "135635.233000", "135635.237000", "135635.241000", "135635.245000", "135635.248000", "135635.252000", "135635.256000", "135635.259000", "135635.263000", "135635.267000", "135635.270000", "135635.273000", "135635.277000", "135635.281000", "135635.284000", "135635.287000", "135635.291000", "135635.294000", "135635.298000", "135635.301000", "135655.232000", "135655.237000", "135655.240000", "135655.243000", "135655.247000", "135655.251000", "135655.254000", "135655.257000", "135655.261000", "135655.264000", "135655.268000", "135655.271000", "135655.275000", "135655.279000", "135655.282000", "135655.285000", "135655.289000", "135655.292000", "135655.296000", "135655.299000", "135655.303000", "135715.231000", "135715.235000", "135715.238000", "135715.242000", "135715.246000", "135715.249000", "135715.252000", "135715.256000", "135715.259000", "135715.263000", "135715.266000", "135715.270000", "135715.273000", "135715.277000", "135715.280000", "135715.284000", "135715.287000", "135715.291000", "135715.294000", "135715.298000", "135755.232000", "135755.236000", "135755.240000", "135755.244000", "135755.248000", "135755.251000", "135755.255000", "135755.258000", "135755.262000", "135755.265000", "135755.269000", "135755.273000", "135755.276000", "135755.279000", "135755.283000", "135755.286000", "135755.290000", "135755.293000", "135755.297000", "135755.300000", "135755.304000", "135755.307000", "135755.310000", "135755.314000", "135755.317000", "135755.321000", "135755.324000", "135755.328000", "135835.232000", "135835.236000", "135835.240000", "135835.243000", "135835.247000", "135835.250000", "135835.254000", "135835.257000", "135835.261000", "135835.264000", "135835.268000", "135835.271000", "135835.275000", "135835.278000", "135835.282000", "135835.285000", "135835.289000", "135835.292000", "135835.296000", "135835.299000", "135835.303000", "135835.306000", "135835.310000", "135835.313000", "135835.317000", "135835.321000", "135835.324000", "135915.232000", "135915.236000", "135915.240000", "135915.243000", "135915.247000", "135915.250000", "135915.254000", "135915.257000", "135915.261000", "135915.264000", "135915.268000", "135915.271000", "135915.274000", "135915.278000", "135915.281000", "135915.285000", "135915.288000", "135915.292000", "135915.295000", "135915.299000", "135915.302000", "135915.306000", "135915.309000", "135915.313000", "135915.316000", "135915.320000", "135915.323000", "135924.686000", "135924.690000", "135924.694000", "135924.697000", "135924.701000", "135924.704000", "135924.708000"],
      "InstanceNumber": [1, 2, 3, 4, 5, 6, 7, 8, 9, 10, 11, 12, 13, 14, 15, 16, 17, 18, 19, 20, 21, 22, 23, 24, 25, 26, 27, 28, 29, 30, 31, 32, 33, 34, 35, 36, 37, 38, 39, 40, 41, 42, 43, 44, 45, 46, 47, 48, 49, 50, 51, 52, 53, 54, 55, 56, 57, 58, 59, 60, 61, 62, 63, 64, 65, 66, 67, 68, 69, 70, 71, 72, 73, 74, 75, 76, 77, 78, 79, 80, 81, 82, 83, 84, 85, 86, 87, 88, 89, 90, 91, 92, 93, 94, 95, 96, 97, 98, 99, 100, 101, 102, 103, 104, 105, 106, 107, 108, 109, 110, 111, 112, 113, 114, 115, 116, 117, 118, 119, 120, 121, 122, 123, 124, 125, 126, 127, 128, 129, 130, 131, 132, 133, 134, 135, 136, 137, 138, 139, 140, 141, 142, 143, 144, 145, 146, 147, 148, 149, 150, 151, 152, 153, 154, 155, 156, 157, 158, 159, 160, 161, 162, 163, 164, 165, 166, 167, 168, 169, 170, 171, 172, 173, 174, 175, 176, 177, 178, 179, 180, 181, 182, 183, 184, 185, 186, 187, 188, 189, 190],
      "LargestImagePixelValue": [41146, 40162, 39757, 39675, 39461, 39052, 38639, 38806, 38983, 38707, 39022, 39031, 38793, 38879, 38949, 39101, 38836, 38865, 39092, 38974, 39218, 39392, 39365, 38945, 38633, 38698, 38775, 39136, 38985, 38848, 38587, 38821, 39049, 38913, 39269, 38504, 38508, 38575, 38602, 38986, 38295, 38693, 38662, 38416, 38601, 38997, 38616, 39244, 38807, 38368, 38753, 38713, 39145, 39207, 39075, 38743, 38673, 39046, 38874, 38655, 38521, 38906, 38775, 38541, 38522, 38995, 38811, 38943, 38941, 39007, 38719, 38778, 38384, 38657, 38289, 38367, 38479, 38434, 38778, 38818, 38633, 38571, 38424, 38357, 38347, 38715, 38587, 38892, 38089, 38693, 38725, 38759, 38926, 38886, 39042, 38490, 38549, 38382, 38633, 38851, 38782, 38780, 38638, 38160, 38249, 38632, 38903, 38840, 39241, 38625, 38550, 38590, 38661, 38934, 39030, 38327, 38380, 38043, 38133, 38584, 38698, 38640, 38922, 38712, 38589, 38177, 38603, 38756, 38790, 38598, 38433, 38095, 38242, 37990, 38271, 38401, 38279, 38418, 38316, 38419, 38373, 38122, 38161, 38409, 38429, 38429, 38316, 38094, 38115, 38113, 38252, 38508, 38328, 38395, 38588, 38448, 38826, 38733, 38555, 38414, 38612, 38693, 38490, 38733, 38616, 38893, 38416, 38196, 38549, 38598, 38430, 38494, 38619, 38110, 38078, 38417, 38564, 38447, 38557, 38180, 38261, 37932, 38482, 38578, 38369, 38110, 38347, 38343, 38028, 38372],
      "WindowCenter": [10086.0, 10029.0, 9993.0, 10002.0, 10015.0, 10025.0, 10010.0, 9995.0, 10004.0, 10015.0, 10039.0, 10034.0, 10020.0, 10010.0, 10017.0, 10023.0, 10027.0, 10019.0, 10009.0, 10013.0, 10022.0, 10031.0, 10047.0, 10035.0, 10020.0, 10010.0, 10022.0, 10032.0, 10049.0, 10036.0, 10017.0, 9999.0, 10006.0, 10023.0, 10040.0, 10029.0, 10019.0, 10018.0, 10017.0, 10016.0, 10003.0, 10009.0, 10016.0, 10011.0, 10009.0, 9999.0, 10005.0, 10022.0, 10026.0, 10018.0, 9999.0, 9981.0, 10002.0, 10021.0, 10035.0, 10029.0, 10019.0, 10007.0, 10009.0, 10009.0, 9995.0, 9990.0, 9996.0, 10007.0, 10024.0, 10024.0, 10001.0, 9980.0, 9989.0, 10013.0, 10025.0, 10026.0, 10019.0, 10033.0, 10029.0, 10019.0, 10001.0, 9983.0, 9975.0, 9997.0, 10016.0, 10026.0, 10018.0, 10009.0, 10000.0, 10014.0, 10018.0, 10025.0, 10013.0, 10001.0, 10008.0, 9993.0, 9981.0, 9988.0, 10021.0, 10028.0, 10020.0, 9997.0, 9960.0, 9938.0, 9957.0, 9978.0, 9988.0, 9975.0, 9956.0, 9945.0, 9959.0, 9992.0, 10011.0, 10024.0, 10011.0, 10000.0, 9983.0, 9994.0, 10017.0, 10032.0, 10043.0, 10031.0, 10020.0, 10016.0, 10015.0, 10025.0, 10033.0, 10043.0, 10025.0, 9995.0, 9982.0, 9996.0, 10023.0, 10042.0, 10038.0, 10020.0, 10008.0, 10001.0, 10014.0, 10011.0, 10010.0, 10002.0, 10006.0, 10009.0, 10012.0, 9995.0, 9986.0, 9981.0, 9991.0, 10009.0, 10033.0, 10022.0, 10004.0, 9984.0, 9967.0, 9979.0, 9990.0, 9997.0, 9988.0, 9974.0, 9980.0, 9987.0, 9997.0, 10000.0, 9999.0, 9998.0, 9999.0, 10008.0, 10024.0, 10025.0, 10034.0, 10020.0, 10004.0, 10000.0, 10008.0, 10032.0, 10040.0, 10022.0, 10012.0, 9994.0, 9982.0, 9974.0, 9991.0, 10000.0, 10006.0, 10001.0, 10001.0, 9997.0, 9998.0, 10013.0, 10022.0, 10001.0, 9976.0, 9965.0],
      "WindowWidth": [21462.0, 21310.0, 21219.0, 21232.0, 21260.0, 21281.0, 21249.0, 21213.0, 21228.0, 21255.0, 21308.0, 21298.0, 21266.0, 21243.0, 21259.0, 21272.0, 21283.0, 21267.0, 21241.0, 21247.0, 21267.0, 21287.0, 21322.0, 21298.0, 21265.0, 21241.0, 21267.0, 21293.0, 21328.0, 21300.0, 21257.0, 21215.0, 21232.0, 21272.0, 21310.0, 21289.0, 21265.0, 21262.0, 21260.0, 21256.0, 21229.0, 21242.0, 21257.0, 21247.0, 21240.0, 21215.0, 21228.0, 21267.0, 21278.0, 21259.0, 21214.0, 21174.0, 21220.0, 21265.0, 21300.0, 21290.0, 21263.0, 21234.0, 21241.0, 21240.0, 21211.0, 21196.0, 21209.0, 21234.0, 21274.0, 21273.0, 21220.0, 21172.0, 21192.0, 21247.0, 21275.0, 21280.0, 21266.0, 21294.0, 21287.0, 21264.0, 21220.0, 21179.0, 21163.0, 21210.0, 21257.0, 21281.0, 21262.0, 21239.0, 21219.0, 21249.0, 21261.0, 21276.0, 21253.0, 21223.0, 21236.0, 21202.0, 21173.0, 21191.0, 21266.0, 21287.0, 21265.0, 21211.0, 21125.0, 21074.0, 21116.0, 21169.0, 21192.0, 21165.0, 21119.0, 21093.0, 21124.0, 21199.0, 21244.0, 21276.0, 21246.0, 21218.0, 21179.0, 21204.0, 21255.0, 21294.0, 21320.0, 21297.0, 21266.0, 21254.0, 21252.0, 21277.0, 21295.0, 21313.0, 21273.0, 21209.0, 21174.0, 21205.0, 21271.0, 21315.0, 21308.0, 21269.0, 21238.0, 21225.0, 21252.0, 21246.0, 21243.0, 21227.0, 21231.0, 21238.0, 21248.0, 21209.0, 21188.0, 21172.0, 21198.0, 21243.0, 21296.0, 21272.0, 21230.0, 21182.0, 21144.0, 21170.0, 21197.0, 21214.0, 21190.0, 21161.0, 21171.0, 21187.0, 21211.0, 21219.0, 21218.0, 21211.0, 21214.0, 21234.0, 21271.0, 21276.0, 21296.0, 21268.0, 21231.0, 21218.0, 21237.0, 21292.0, 21309.0, 21271.0, 21246.0, 21205.0, 21178.0, 21162.0, 21199.0, 21219.0, 21232.0, 21221.0, 21222.0, 21210.0, 21212.0, 21248.0, 21266.0, 21219.0, 21165.0, 21139.0]
    },
    "slices": {}
  }
}