{
  "AcquisitionMatrixPE": 104,
  "AcquisitionNumber": 1,
  "AcquisitionTime": "14:00:42.797500",
  "BandwidthPerPixelPhaseEncode": 17.17,
  "BaseResolution": 104,
  "BodyPartExamined": "BRAIN",
  "CoilString": "HC1-7;NC1_2",
  "ConsistencyInfo": "N4_VE11C_LATEST_20160120",
  "ConversionSoftware": "dcm2niix",
  "ConversionSoftwareVersion": "v1.0.20190902",
  "DerivedVendorReportedEchoSpacing": 0.000560011,
  "DeviceSerialNumber": "167006",
  "DwellTime": 2.1e-06,
  "EchoTime": 0.037,
  "EchoTrainLength": 104,
  "EffectiveEchoSpacing": 0.000560011,
  "FlipAngle": 52,
  "ImageComments": "Unaliased_MB4_PE3_LB",
  "ImageOrientationPatientDICOM": [0.999515, 0.0161041, 0.0266719, -0.00994383, 0.976175, -0.216758],
  "ImageType": [
    "ORIGINAL",
    "PRIMARY",
    "P",
    "MB",
    "ND",
    "MOSAIC"
],
  "ImagingFrequency": 123.259,
  "InPlanePhaseEncodingDirectionDICOM": "COL",
  "InstitutionAddress": "Chemin_Queen-Mary_4565_Montreal_District_CA_H3W_1W5",
  "InstitutionName": "IUGM",
  "InstitutionalDepartmentName": "Department",
  "MRAcquisitionType": "2D",
  "MagneticFieldStrength": 3,
  "Manufacturer": "Siemens",
  "ManufacturersModelName": "Prisma_fit",
  "Modality": "MR",
  "MultibandAccelerationFactor": 4,
  "PartialFourier": 1,
  "PatientPosition": "HFS",
  "PercentPhaseFOV": 100,
  "PhaseEncodingDirection": "j",
  "PhaseEncodingSteps": 104,
  "PhaseResolution": 1,
  "PixelBandwidth": 2290,
  "ProcedureStepDescription": "memory_things",
  "ProtocolName": "func_task-things_run-6",
  "PulseSequenceDetails": "%CustomerSeq%_cmrr_mbep2d_bold",
  "ReceiveCoilActiveElements": "HC1-7;NC1,2",
  "ReceiveCoilName": "HeadNeck_64",
  "ReconMatrixPE": 104,
  "RepetitionTime": 1.49,
  "SAR": 0.0411504,
  "ScanOptions": "FS",
  "ScanningSequence": "EP",
  "SequenceName": "epfid2d1_104",
  "SequenceVariant": "SK_SS",
  "SeriesDescription": "func_task-things_run-6",
  "SeriesNumber": 26,
  "ShimSetting": [637, -7222, -8778, 717, 59, -23, 88, -8],
  "SliceThickness": 2,
  "SliceTiming": [0, 0.785, 0.0975, 0.8825, 0.1975, 0.98, 0.295, 1.0775, 0.3925, 1.175, 0.49, 1.275, 0.5875, 1.3725, 0.6875, 0, 0.785, 0.0975, 0.8825, 0.1975, 0.98, 0.295, 1.0775, 0.3925, 1.175, 0.49, 1.275, 0.5875, 1.3725, 0.6875, 0, 0.785, 0.0975, 0.8825, 0.1975, 0.98, 0.295, 1.0775, 0.3925, 1.175, 0.49, 1.275, 0.5875, 1.3725, 0.6875, 0, 0.785, 0.0975, 0.8825, 0.1975, 0.98, 0.295, 1.0775, 0.3925, 1.175, 0.49, 1.275, 0.5875, 1.3725, 0.6875],
  "SoftwareVersions": "syngo_MR_E11",
  "SpacingBetweenSlices": 2,
  "StationName": "MRC35049",
  "TaskName": "things",
  "TotalReadoutTime": 0.0576811,
  "TxRefAmp": 218.768,
  "WipMemBlock": "dea1b728-a324-4c12-af2f-d45c9e633260||Sequence: R016 ve11c/master r/e634e98; Dec 19 2017 11:00:25 by eja",
  "dcmmeta_affine": [
    [-1.9990290403366089, -0.0198876541107893, 0.05905432626605034, 108.30137634277344],
    [-0.03220810368657112, 1.952349305152893, -0.4327758550643921, -75.53141784667969],
    [0.053343888372182846, 0.4335167706012726, 1.9517216682434082, -56.59928512573242],
    [0.0, 0.0, 0.0, 1.0]
],
  "dcmmeta_reorient_transform": [
    [0.0, -1.0, 0.0, 103.0],
    [1.0, 0.0, 0.0, 0.0],
    [0.0, 0.0, 1.0, 0.0],
    [0.0, 0.0, 0.0, 1.0]
],
  "dcmmeta_shape": [104, 104, 60, 190],
  "dcmmeta_slice_dim": 2,
  "dcmmeta_version": 0.6,
  "global": {
    "const": {
      "AcquisitionMatrix": [104, 0, 0, 104],
      "AngioFlag": "N",
      "BitsAllocated": 16,
      "BitsStored": 16,
      "BodyPartExamined": "BRAIN",
      "Columns": 832,
      "EchoNumbers": 1,
      "EchoTime": 37.0,
      "EchoTrainLength": 104,
      "FlipAngle": 52.0,
      "HighBit": 15,
      "ImageOrientationPatient": [0.9995145155904, 0.01610405166712, 0.02667194488588, -0.0099438267944, 0.97617463836467, -0.2167583809736],
      "ImagePositionPatient": [-826.66041021003, -847.93944318079, 126.43586753799],
      "ImageType": [
        "ORIGINAL",
        "PRIMARY",
        "P",
        "MB",
        "ND",
        "MOSAIC"
],
      "ImagedNucleus": "1H",
      "ImagingFrequency": 123.258945,
      "InPlanePhaseEncodingDirection": "COL",
      "LargestImagePixelValue": 4095,
      "MRAcquisitionType": "2D",
      "MagneticFieldStrength": 3.0,
      "Manufacturer": "SIEMENS",
      "ManufacturerModelName": "Prisma_fit",
      "Modality": "MR",
      "NumberOfAverages": 1.0,
      "NumberOfPhaseEncodingSteps": 104,
      "PercentPhaseFieldOfView": 100.0,
      "PercentSampling": 100.0,
      "PerformedProcedureStepStartTime": "130613.578000",
      "PhotometricInterpretation": "MONOCHROME2",
      "PixelBandwidth": 2290.0,
      "PixelRepresentation": 0,
      "PixelSpacing": [2.0, 2.0],
      "ProtocolName": "func_task-things_run-6",
      "RepetitionTime": 1490.0,
      "RescaleIntercept": -4096.0,
      "RescaleSlope": 2.0,
      "RescaleType": "US",
      "Rows": 832,
      "SAR": 0.04115036591945,
      "SamplesPerPixel": 1,
      "ScanOptions": "FS",
      "ScanningSequence": "EP",
      "SequenceName": "epfid2d1_104",
      "SequenceVariant": [
        "SK",
        "SS"
],
      "SeriesDescription": "func_task-things_run-6",
      "SeriesNumber": 26,
      "SeriesTime": "140154.813000",
      "SliceLocation": -35.691106514532,
      "SliceThickness": 2.0,
      "SmallestImagePixelValue": 0,
      "SoftwareVersions": "syngo MR E11",
      "SpacingBetweenSlices": 1.9999999671819,
      "SpecificCharacterSet": "ISO_IR 100",
      "StudyID": "1",
      "StudyTime": "130613.465000",
      "TransmitCoilName": "Body",
      "VariableFlipAngleFlag": "N",
      "WindowCenterWidthExplanation": "Algo1",
      "dBdt": 0.0},
    "slices": {}
  },
  "time": {
    "samples": {
      "AcquisitionNumber": [1, 2, 3, 4, 5, 6, 7, 8, 9, 10, 11, 12, 13, 14, 15, 16, 17, 18, 19, 20, 21, 22, 23, 24, 25, 26, 27, 28, 29, 30, 31, 32, 33, 34, 35, 36, 37, 38, 39, 40, 41, 42, 43, 44, 45, 46, 47, 48, 49, 50, 51, 52, 53, 54, 55, 56, 57, 58, 59, 60, 61, 62, 63, 64, 65, 66, 67, 68, 69, 70, 71, 72, 73, 74, 75, 76, 77, 78, 79, 80, 81, 82, 83, 84, 85, 86, 87, 88, 89, 90, 91, 92, 93, 94, 95, 96, 97, 98, 99, 100, 101, 102, 103, 104, 105, 106, 107, 108, 109, 110, 111, 112, 113, 114, 115, 116, 117, 118, 119, 120, 121, 122, 123, 124, 125, 126, 127, 128, 129, 130, 131, 132, 133, 134, 135, 136, 137, 138, 139, 140, 141, 142, 143, 144, 145, 146, 147, 148, 149, 150, 151, 152, 153, 154, 155, 156, 157, 158, 159, 160, 161, 162, 163, 164, 165, 166, 167, 168, 169, 170, 171, 172, 173, 174, 175, 176, 177, 178, 179, 180, 181, 182, 183, 184, 185, 186, 187, 188, 189, 190],
      "AcquisitionTime": ["140042.797500", "140044.287500", "140045.777500", "140047.267500", "140048.757500", "140050.247500", "140051.737500", "140053.227500", "140054.717500", "140056.207500", "140057.697500", "140059.187500", "140100.677500", "140102.167500", "140103.657500", "140105.147500", "140106.637500", "140108.127500", "140109.617500", "140111.107500", "140112.597500", "140114.087500", "140115.577500", "140117.067500", "140118.557500", "140120.047500", "140121.537500", "140123.027500", "140124.517500", "140126.007500", "140127.497500", "140128.987500", "140130.477500", "140131.967500", "140133.457500", "140134.947500", "140136.437500", "140137.927500", "140139.417500", "140140.907500", "140142.397500", "140143.887500", "140145.377500", "140146.867500", "140148.357500", "140149.847500", "140151.337500", "140152.827500", "140154.317500", "140155.807500", "140157.297500", "140158.787500", "140200.277500", "140201.767500", "140203.257500", "140204.747500", "140206.237500", "140207.727500", "140209.217500", "140210.707500", "140212.197500", "140213.687500", "140215.177500", "140216.667500", "140218.157500", "140219.647500", "140221.137500", "140222.627500", "140224.117500", "140225.607500", "140227.097500", "140228.587500", "140230.077500", "140231.567500", "140233.057500", "140234.547500", "140236.037500", "140237.527500", "140239.017500", "140240.507500", "140241.997500", "140243.487500", "140244.977500", "140246.467500", "140247.957500", "140249.447500", "140250.937500", "140252.427500", "140253.917500", "140255.407500", "140256.897500", "140258.387500", "140259.877500", "140301.367500", "140302.857500", "140304.347500", "140305.837500", "140307.327500", "140308.817500", "140310.307500", "140311.797500", "140313.287500", "140314.777500", "140316.267500", "140317.757500", "140319.247500", "140320.737500", "140322.227500", "140323.717500", "140325.207500", "140326.697500", "140328.187500", "140329.677500", "140331.167500", "140332.657500", "140334.147500", "140335.637500", "140337.127500", "140338.617500", "140340.107500", "140341.597500", "140343.087500", "140344.577500", "140346.067500", "140347.557500", "140349.047500", "140350.537500", "140352.027500", "140353.517500", "140355.007500", "140356.497500", "140357.987500", "140359.477500", "140400.967500", "140402.457500", "140403.947500", "140405.437500", "140406.927500", "140408.417500", "140409.907500", "140411.397500", "140412.887500", "140414.377500", "140415.867500", "140417.357500", "140418.847500", "140420.337500", "140421.827500", "140423.317500", "140424.807500", "140426.297500", "140427.787500", "140429.277500", "140430.767500", "140432.257500", "140433.747500", "140435.237500", "140436.727500", "140438.217500", "140439.707500", "140441.197500", "140442.687500", "140444.177500", "140445.667500", "140447.157500", "140448.647500", "140450.137500", "140451.627500", "140453.117500", "140454.607500", "140456.097500", "140457.587500", "140459.077500", "140500.567500", "140502.057500", "140503.547500", "140505.037500", "140506.527500", "140508.017500", "140509.507500", "140510.997500", "140512.487500", "140513.977500", "140515.467500", "140516.957500", "140518.447500", "140519.937500", "140521.427500", "140522.917500", "140524.407500"],
      "ContentTime": ["140154.815000", "140154.818000", "140154.821000", "140154.823000", "140154.826000", "140154.828000", "140154.831000", "140154.833000", "140154.836000", "140154.839000", "140154.841000", "140154.844000", "140154.846000", "140154.849000", "140154.851000", "140154.854000", "140154.856000", "140154.859000", "140214.778000", "140214.782000", "140214.784000", "140214.787000", "140214.791000", "140214.794000", "140214.797000", "140214.800000", "140214.802000", "140214.806000", "140214.808000", "140214.811000", "140214.814000", "140214.817000", "140214.819000", "140214.822000", "140214.824000", "140214.827000", "140214.830000", "140214.832000", "140234.828000", "140234.831000", "140234.833000", "140234.841000", "140234.843000", "140234.846000", "140234.848000", "140234.851000", "140234.853000", "140234.856000", "140234.858000", "140234.861000", "140234.864000", "140234.866000", "140234.869000", "140234.872000", "140234.874000", "140234.877000", "140234.879000", "140234.882000", "140254.793000", "140254.796000", "140254.799000", "140254.801000", "140254.804000", "140254.806000", "140254.809000", "140254.812000", "140254.814000", "140254.817000", "140254.819000", "140254.822000", "140254.825000", "140254.827000", "140254.830000", "140254.832000", "140254.835000", "140254.838000", "140254.840000", "140254.843000", "140254.845000", "140314.776000", "140314.778000", "140314.781000", "140314.784000", "140314.786000", "140314.789000", "140314.792000", "140314.794000", "140314.797000", "140314.799000", "140314.802000", "140314.804000", "140314.807000", "140314.810000", "140314.812000", "140314.815000", "140314.817000", "140314.820000", "140314.823000", "140314.825000", "140355.246000", "140355.249000", "140355.251000", "140355.254000", "140355.256000", "140355.259000", "140355.262000", "140355.264000", "140355.267000", "140355.269000", "140355.272000", "140355.274000", "140355.277000", "140355.280000", "140355.282000", "140355.285000", "140355.288000", "140355.290000", "140355.293000", "140355.295000", "140355.314000", "140355.317000", "140355.319000", "140355.322000", "140355.325000", "140355.327000", "140355.330000", "140355.332000", "140355.335000", "140434.814000", "140434.817000", "140434.819000", "140434.822000", "140434.825000", "140434.827000", "140434.830000", "140434.832000", "140434.835000", "140434.838000", "140434.840000", "140434.843000", "140434.845000", "140434.848000", "140434.851000", "140434.853000", "140434.856000", "140434.858000", "140434.861000", "140434.863000", "140434.866000", "140434.869000", "140434.871000", "140434.874000", "140434.877000", "140434.879000", "140434.882000", "140514.806000", "140514.809000", "140514.821000", "140514.823000", "140514.826000", "140514.828000", "140514.831000", "140514.834000", "140514.836000", "140514.839000", "140514.841000", "140514.844000", "140514.846000", "140514.849000", "140514.852000", "140514.854000", "140514.857000", "140514.859000", "140514.862000", "140514.865000", "140514.867000", "140514.870000", "140514.878000", "140514.880000", "140514.883000", "140514.886000", "140514.888000", "140526.646000", "140526.649000", "140526.651000", "140526.661000", "140526.663000", "140526.666000", "140526.668000", "140526.671000"],
      "InstanceCreationTime": ["140154.815000", "140154.818000", "140154.821000", "140154.823000", "140154.826000", "140154.828000", "140154.831000", "140154.833000", "140154.836000", "140154.839000", "140154.841000", "140154.844000", "140154.846000", "140154.849000", "140154.851000", "140154.854000", "140154.856000", "140154.859000", "140214.778000", "140214.782000", "140214.784000", "140214.787000", "140214.791000", "140214.794000", "140214.797000", "140214.800000", "140214.802000", "140214.806000", "140214.808000", "140214.811000", "140214.814000", "140214.817000", "140214.819000", "140214.822000", "140214.824000", "140214.827000", "140214.830000", "140214.832000", "140234.828000", "140234.831000", "140234.833000", "140234.841000", "140234.843000", "140234.846000", "140234.848000", "140234.851000", "140234.853000", "140234.856000", "140234.858000", "140234.861000", "140234.864000", "140234.866000", "140234.869000", "140234.872000", "140234.874000", "140234.877000", "140234.879000", "140234.882000", "140254.793000", "140254.796000", "140254.799000", "140254.801000", "140254.804000", "140254.806000", "140254.809000", "140254.812000", "140254.814000", "140254.817000", "140254.819000", "140254.822000", "140254.825000", "140254.827000", "140254.830000", "140254.832000", "140254.835000", "140254.838000", "140254.840000", "140254.843000", "140254.845000", "140314.776000", "140314.778000", "140314.781000", "140314.784000", "140314.786000", "140314.789000", "140314.792000", "140314.794000", "140314.797000", "140314.799000", "140314.802000", "140314.804000", "140314.807000", "140314.810000", "140314.812000", "140314.815000", "140314.817000", "140314.820000", "140314.823000", "140314.825000", "140355.246000", "140355.249000", "140355.251000", "140355.254000", "140355.256000", "140355.259000", "140355.262000", "140355.264000", "140355.267000", "140355.269000", "140355.272000", "140355.274000", "140355.277000", "140355.280000", "140355.282000", "140355.285000", "140355.288000", "140355.290000", "140355.293000", "140355.295000", "140355.314000", "140355.317000", "140355.319000", "140355.322000", "140355.325000", "140355.327000", "140355.330000", "140355.332000", "140355.335000", "140434.814000", "140434.817000", "140434.819000", "140434.822000", "140434.825000", "140434.827000", "140434.830000", "140434.832000", "140434.835000", "140434.838000", "140434.840000", "140434.843000", "140434.845000", "140434.848000", "140434.851000", "140434.853000", "140434.856000", "140434.858000", "140434.861000", "140434.863000", "140434.866000", "140434.869000", "140434.871000", "140434.874000", "140434.877000", "140434.879000", "140434.882000", "140514.806000", "140514.809000", "140514.821000", "140514.823000", "140514.826000", "140514.828000", "140514.831000", "140514.834000", "140514.836000", "140514.839000", "140514.841000", "140514.844000", "140514.846000", "140514.849000", "140514.852000", "140514.854000", "140514.857000", "140514.859000", "140514.862000", "140514.865000", "140514.867000", "140514.870000", "140514.878000", "140514.880000", "140514.883000", "140514.886000", "140514.888000", "140526.646000", "140526.649000", "140526.651000", "140526.661000", "140526.663000", "140526.666000", "140526.668000", "140526.671000"],
      "InstanceNumber": [1, 2, 3, 4, 5, 6, 7, 8, 9, 10, 11, 12, 13, 14, 15, 16, 17, 18, 19, 20, 21, 22, 23, 24, 25, 26, 27, 28, 29, 30, 31, 32, 33, 34, 35, 36, 37, 38, 39, 40, 41, 42, 43, 44, 45, 46, 47, 48, 49, 50, 51, 52, 53, 54, 55, 56, 57, 58, 59, 60, 61, 62, 63, 64, 65, 66, 67, 68, 69, 70, 71, 72, 73, 74, 75, 76, 77, 78, 79, 80, 81, 82, 83, 84, 85, 86, 87, 88, 89, 90, 91, 92, 93, 94, 95, 96, 97, 98, 99, 100, 101, 102, 103, 104, 105, 106, 107, 108, 109, 110, 111, 112, 113, 114, 115, 116, 117, 118, 119, 120, 121, 122, 123, 124, 125, 126, 127, 128, 129, 130, 131, 132, 133, 134, 135, 136, 137, 138, 139, 140, 141, 142, 143, 144, 145, 146, 147, 148, 149, 150, 151, 152, 153, 154, 155, 156, 157, 158, 159, 160, 161, 162, 163, 164, 165, 166, 167, 168, 169, 170, 171, 172, 173, 174, 175, 176, 177, 178, 179, 180, 181, 182, 183, 184, 185, 186, 187, 188, 189, 190],
      "WindowCenter": [4790.0, 4792.0, 4766.0, 4790.0, 4790.0, 4792.0, 4788.0, 4792.0, 4766.0, 4790.0, 4792.0, 4792.0, 4790.0, 4786.0, 4790.0, 4790.0, 4790.0, 4792.0, 4790.0, 4764.0, 4792.0, 4788.0, 4788.0, 4788.0, 4788.0, 4788.0, 4790.0, 4794.0, 4764.0, 4764.0, 4788.0, 4788.0, 4788.0, 4786.0, 4790.0, 4786.0, 4788.0, 4790.0, 4764.0, 4788.0, 4792.0, 4792.0, 4788.0, 4788.0, 4786.0, 4766.0, 4788.0, 4764.0, 4788.0, 4788.0, 4790.0, 4788.0, 4786.0, 4788.0, 4788.0, 4790.0, 4790.0, 4790.0, 4790.0, 4790.0, 4788.0, 4790.0, 4790.0, 4792.0, 4766.0, 4792.0, 4786.0, 4766.0, 4792.0, 4790.0, 4788.0, 4788.0, 4790.0, 4788.0, 4790.0, 4790.0, 4790.0, 4788.0, 4790.0, 4790.0, 4790.0, 4790.0, 4788.0, 4788.0, 4788.0, 4766.0, 4792.0, 4790.0, 4790.0, 4790.0, 4788.0, 4788.0, 4790.0, 4790.0, 4766.0, 4788.0, 4788.0, 4788.0, 4788.0, 4788.0, 4764.0, 4766.0, 4790.0, 4786.0, 4792.0, 4786.0, 4788.0, 4792.0, 4786.0, 4790.0, 4788.0, 4792.0, 4786.0, 4790.0, 4792.0, 4792.0, 4790.0, 4792.0, 4788.0, 4788.0, 4790.0, 4786.0, 4786.0, 4788.0, 4790.0, 4788.0, 4790.0, 4790.0, 4792.0, 4790.0, 4788.0, 4790.0, 4790.0, 4790.0, 4790.0, 4788.0, 4792.0, 4768.0, 4790.0, 4788.0, 4790.0, 4790.0, 4790.0, 4792.0, 4790.0, 4790.0, 4790.0, 4764.0, 4788.0, 4792.0, 4790.0, 4786.0, 4790.0, 4788.0, 4788.0, 4792.0, 4792.0, 4764.0, 4790.0, 4788.0, 4790.0, 4790.0, 4792.0, 4790.0, 4790.0, 4790.0, 4766.0, 4788.0, 4788.0, 4792.0, 4796.0, 4790.0, 4762.0, 4788.0, 4788.0, 4764.0, 4788.0, 4790.0, 4790.0, 4790.0, 4790.0, 4790.0, 4790.0, 4788.0, 4788.0, 4790.0, 4762.0, 4788.0, 4790.0, 4768.0],
      "WindowWidth": [18560.0, 18562.0, 18530.0, 18564.0, 18560.0, 18560.0, 18558.0, 18562.0, 18534.0, 18558.0, 18566.0, 18566.0, 18562.0, 18560.0, 18556.0, 18564.0, 18564.0, 18562.0, 18566.0, 18530.0, 18560.0, 18560.0, 18558.0, 18564.0, 18558.0, 18560.0, 18562.0, 18564.0, 18528.0, 18526.0, 18560.0, 18566.0, 18562.0, 18562.0, 18562.0, 18554.0, 18558.0, 18560.0, 18534.0, 18560.0, 18562.0, 18560.0, 18562.0, 18560.0, 18558.0, 18522.0, 18562.0, 18532.0, 18560.0, 18556.0, 18556.0, 18562.0, 18562.0, 18560.0, 18560.0, 18558.0, 18568.0, 18560.0, 18564.0, 18560.0, 18558.0, 18564.0, 18558.0, 18560.0, 18530.0, 18564.0, 18560.0, 18528.0, 18564.0, 18564.0, 18558.0, 18560.0, 18558.0, 18562.0, 18560.0, 18558.0, 18560.0, 18560.0, 18560.0, 18560.0, 18560.0, 18564.0, 18560.0, 18558.0, 18558.0, 18528.0, 18566.0, 18564.0, 18562.0, 18558.0, 18560.0, 18560.0, 18560.0, 18562.0, 18530.0, 18560.0, 18558.0, 18562.0, 18556.0, 18554.0, 18528.0, 18528.0, 18560.0, 18560.0, 18566.0, 18556.0, 18564.0, 18562.0, 18560.0, 18558.0, 18560.0, 18560.0, 18560.0, 18558.0, 18562.0, 18562.0, 18560.0, 18560.0, 18556.0, 18560.0, 18564.0, 18560.0, 18560.0, 18558.0, 18558.0, 18566.0, 18558.0, 18558.0, 18564.0, 18564.0, 18558.0, 18566.0, 18562.0, 18560.0, 18564.0, 18558.0, 18562.0, 18528.0, 18562.0, 18560.0, 18562.0, 18560.0, 18562.0, 18562.0, 18562.0, 18556.0, 18558.0, 18526.0, 18558.0, 18562.0, 18562.0, 18560.0, 18556.0, 18564.0, 18560.0, 18568.0, 18560.0, 18528.0, 18556.0, 18566.0, 18560.0, 18562.0, 18560.0, 18562.0, 18564.0, 18560.0, 18534.0, 18558.0, 18554.0, 18558.0, 18554.0, 18564.0, 18528.0, 18560.0, 18562.0, 18526.0, 18560.0, 18562.0, 18560.0, 18560.0, 18562.0, 18558.0, 18560.0, 18558.0, 18560.0, 18560.0, 18532.0, 18562.0, 18558.0, 18524.0]
    },
    "slices": {}
  }
}