{
  "AcquisitionMatrixPE": 104,
  "AcquisitionNumber": 1,
  "AcquisitionTime": "13:36:30.890000",
  "BandwidthPerPixelPhaseEncode": 17.17,
  "BaseResolution": 104,
  "BodyPartExamined": "BRAIN",
  "CoilString": "HC1-7;NC1_2",
  "ConsistencyInfo": "N4_VE11C_LATEST_20160120",
  "ConversionSoftware": "dcm2niix",
  "ConversionSoftwareVersion": "v1.0.20190902",
  "DerivedVendorReportedEchoSpacing": 0.000560011,
  "DeviceSerialNumber": "167006",
  "DwellTime": 2.1e-06,
  "EchoTime": 0.037,
  "EchoTrainLength": 104,
  "EffectiveEchoSpacing": 0.000560011,
  "FlipAngle": 52,
  "ImageComments": "Unaliased_MB4_PE3_LB",
  "ImageOrientationPatientDICOM": [0.999515, 0.0161041, 0.0266719, -0.00994383, 0.976175, -0.216758],
  "ImageType": [
    "ORIGINAL",
    "PRIMARY",
    "P",
    "MB",
    "ND",
    "MOSAIC"
],
  "ImagingFrequency": 123.259,
  "InPlanePhaseEncodingDirectionDICOM": "COL",
  "InstitutionAddress": "Chemin_Queen-Mary_4565_Montreal_District_CA_H3W_1W5",
  "InstitutionName": "IUGM",
  "InstitutionalDepartmentName": "Department",
  "MRAcquisitionType": "2D",
  "MagneticFieldStrength": 3,
  "Manufacturer": "Siemens",
  "ManufacturersModelName": "Prisma_fit",
  "Modality": "MR",
  "MultibandAccelerationFactor": 4,
  "PartialFourier": 1,
  "PatientPosition": "HFS",
  "PercentPhaseFOV": 100,
  "PhaseEncodingDirection": "j",
  "PhaseEncodingSteps": 104,
  "PhaseResolution": 1,
  "PixelBandwidth": 2290,
  "ProcedureStepDescription": "memory_things",
  "ProtocolName": "func_task-things_run-2",
  "PulseSequenceDetails": "%CustomerSeq%_cmrr_mbep2d_bold",
  "ReceiveCoilActiveElements": "HC1-7;NC1,2",
  "ReceiveCoilName": "HeadNeck_64",
  "ReconMatrixPE": 104,
  "RepetitionTime": 1.49,
  "SAR": 0.0411504,
  "ScanOptions": "FS",
  "ScanningSequence": "EP",
  "SequenceName": "epfid2d1_104",
  "SequenceVariant": "SK_SS",
  "SeriesDescription": "func_task-things_run-2",
  "SeriesNumber": 14,
  "ShimSetting": [637, -7222, -8778, 717, 59, -23, 88, -8],
  "SliceThickness": 2,
  "SliceTiming": [0, 0.785, 0.0975, 0.8825, 0.195, 0.98, 0.295, 1.0775, 0.3925, 1.175, 0.49, 1.275, 0.5875, 1.3725, 0.685, 0, 0.785, 0.0975, 0.8825, 0.195, 0.98, 0.295, 1.0775, 0.3925, 1.175, 0.49, 1.275, 0.5875, 1.3725, 0.685, 0, 0.785, 0.0975, 0.8825, 0.195, 0.98, 0.295, 1.0775, 0.3925, 1.175, 0.49, 1.275, 0.5875, 1.3725, 0.685, 0, 0.785, 0.0975, 0.8825, 0.195, 0.98, 0.295, 1.0775, 0.3925, 1.175, 0.49, 1.275, 0.5875, 1.3725, 0.685],
  "SoftwareVersions": "syngo_MR_E11",
  "SpacingBetweenSlices": 2,
  "StationName": "MRC35049",
  "TaskName": "things",
  "TotalReadoutTime": 0.0576811,
  "TxRefAmp": 218.768,
  "WipMemBlock": "c262ffc3-ce2e-4394-bf32-f1fc74e86050||Sequence: R016 ve11c/master r/e634e98; Dec 19 2017 11:00:25 by eja",
  "dcmmeta_affine": [
    [-1.9990290403366089, -0.0198876541107893, 0.05905432626605034, 108.30137634277344],
    [-0.03220810368657112, 1.952349305152893, -0.4327758550643921, -75.53141784667969],
    [0.053343888372182846, 0.4335167706012726, 1.9517216682434082, -56.59928512573242],
    [0.0, 0.0, 0.0, 1.0]
],
  "dcmmeta_reorient_transform": [
    [0.0, -1.0, 0.0, 103.0],
    [1.0, 0.0, 0.0, 0.0],
    [0.0, 0.0, 1.0, 0.0],
    [0.0, 0.0, 0.0, 1.0]
],
  "dcmmeta_shape": [104, 104, 60, 190],
  "dcmmeta_slice_dim": 2,
  "dcmmeta_version": 0.6,
  "global": {
    "const": {
      "AcquisitionMatrix": [104, 0, 0, 104],
      "AngioFlag": "N",
      "BitsAllocated": 16,
      "BitsStored": 16,
      "BodyPartExamined": "BRAIN",
      "Columns": 832,
      "EchoNumbers": 1,
      "EchoTime": 37.0,
      "EchoTrainLength": 104,
      "FlipAngle": 52.0,
      "HighBit": 15,
      "ImageOrientationPatient": [0.9995145155904, 0.01610405166712, 0.02667194488588, -0.0099438267944, 0.97617463836467, -0.2167583809736],
      "ImagePositionPatient": [-826.66041021003, -847.93944318079, 126.43586753799],
      "ImageType": [
        "ORIGINAL",
        "PRIMARY",
        "P",
        "MB",
        "ND",
        "MOSAIC"
],
      "ImagedNucleus": "1H",
      "ImagingFrequency": 123.258933,
      "InPlanePhaseEncodingDirection": "COL",
      "LargestImagePixelValue": 4095,
      "MRAcquisitionType": "2D",
      "MagneticFieldStrength": 3.0,
      "Manufacturer": "SIEMENS",
      "ManufacturerModelName": "Prisma_fit",
      "Modality": "MR",
      "NumberOfAverages": 1.0,
      "NumberOfPhaseEncodingSteps": 104,
      "PercentPhaseFieldOfView": 100.0,
      "PercentSampling": 100.0,
      "PerformedProcedureStepStartTime": "130613.578000",
      "PhotometricInterpretation": "MONOCHROME2",
      "PixelBandwidth": 2290.0,
      "PixelRepresentation": 0,
      "PixelSpacing": [2.0, 2.0],
      "ProtocolName": "func_task-things_run-2",
      "RepetitionTime": 1490.0,
      "RescaleIntercept": -4096.0,
      "RescaleSlope": 2.0,
      "RescaleType": "US",
      "Rows": 832,
      "SAR": 0.04115036591945,
      "SamplesPerPixel": 1,
      "ScanOptions": "FS",
      "ScanningSequence": "EP",
      "SequenceName": "epfid2d1_104",
      "SequenceVariant": [
        "SK",
        "SS"
],
      "SeriesDescription": "func_task-things_run-2",
      "SeriesNumber": 14,
      "SeriesTime": "133755.416000",
      "SliceLocation": -35.691106514532,
      "SliceThickness": 2.0,
      "SmallestImagePixelValue": 0,
      "SoftwareVersions": "syngo MR E11",
      "SpacingBetweenSlices": 1.9999999671819,
      "SpecificCharacterSet": "ISO_IR 100",
      "StudyID": "1",
      "StudyTime": "130613.465000",
      "TransmitCoilName": "Body",
      "VariableFlipAngleFlag": "N",
      "WindowCenterWidthExplanation": "Algo1",
      "dBdt": 0.0},
    "slices": {}
  },
  "time": {
    "samples": {
      "AcquisitionNumber": [1, 2, 3, 4, 5, 6, 7, 8, 9, 10, 11, 12, 13, 14, 15, 16, 17, 18, 19, 20, 21, 22, 23, 24, 25, 26, 27, 28, 29, 30, 31, 32, 33, 34, 35, 36, 37, 38, 39, 40, 41, 42, 43, 44, 45, 46, 47, 48, 49, 50, 51, 52, 53, 54, 55, 56, 57, 58, 59, 60, 61, 62, 63, 64, 65, 66, 67, 68, 69, 70, 71, 72, 73, 74, 75, 76, 77, 78, 79, 80, 81, 82, 83, 84, 85, 86, 87, 88, 89, 90, 91, 92, 93, 94, 95, 96, 97, 98, 99, 100, 101, 102, 103, 104, 105, 106, 107, 108, 109, 110, 111, 112, 113, 114, 115, 116, 117, 118, 119, 120, 121, 122, 123, 124, 125, 126, 127, 128, 129, 130, 131, 132, 133, 134, 135, 136, 137, 138, 139, 140, 141, 142, 143, 144, 145, 146, 147, 148, 149, 150, 151, 152, 153, 154, 155, 156, 157, 158, 159, 160, 161, 162, 163, 164, 165, 166, 167, 168, 169, 170, 171, 172, 173, 174, 175, 176, 177, 178, 179, 180, 181, 182, 183, 184, 185, 186, 187, 188, 189, 190],
      "AcquisitionTime": ["133630.890000", "133632.380000", "133633.870000", "133635.360000", "133636.850000", "133638.340000", "133639.830000", "133641.320000", "133642.810000", "133644.300000", "133645.790000", "133647.280000", "133648.770000", "133650.260000", "133651.750000", "133653.240000", "133654.730000", "133656.220000", "133657.710000", "133659.200000", "133700.690000", "133702.180000", "133703.670000", "133705.160000", "133706.650000", "133708.140000", "133709.630000", "133711.120000", "133712.610000", "133714.100000", "133715.590000", "133717.080000", "133718.570000", "133720.060000", "133721.550000", "133723.040000", "133724.530000", "133726.020000", "133727.510000", "133729.000000", "133730.490000", "133731.980000", "133733.470000", "133734.960000", "133736.450000", "133737.940000", "133739.430000", "133740.920000", "133742.410000", "133743.900000", "133745.390000", "133746.880000", "133748.370000", "133749.860000", "133751.350000", "133752.840000", "133754.330000", "133755.820000", "133757.310000", "133758.800000", "133800.290000", "133801.780000", "133803.270000", "133804.760000", "133806.250000", "133807.740000", "133809.230000", "133810.720000", "133812.210000", "133813.700000", "133815.190000", "133816.680000", "133818.170000", "133819.660000", "133821.150000", "133822.640000", "133824.130000", "133825.620000", "133827.110000", "133828.600000", "133830.090000", "133831.580000", "133833.070000", "133834.560000", "133836.050000", "133837.540000", "133839.030000", "133840.520000", "133842.010000", "133843.500000", "133844.990000", "133846.480000", "133847.970000", "133849.460000", "133850.950000", "133852.440000", "133853.930000", "133855.420000", "133856.910000", "133858.400000", "133859.890000", "133901.380000", "133902.870000", "133904.360000", "133905.850000", "133907.340000", "133908.830000", "133910.320000", "133911.810000", "133913.300000", "133914.790000", "133916.280000", "133917.770000", "133919.260000", "133920.750000", "133922.240000", "133923.730000", "133925.220000", "133926.710000", "133928.200000", "133929.690000", "133931.180000", "133932.670000", "133934.160000", "133935.650000", "133937.140000", "133938.630000", "133940.120000", "133941.610000", "133943.100000", "133944.590000", "133946.080000", "133947.570000", "133949.060000", "133950.550000", "133952.040000", "133953.530000", "133955.020000", "133956.510000", "133958.000000", "133959.490000", "134000.980000", "134002.470000", "134003.960000", "134005.450000", "134006.940000", "134008.430000", "134009.920000", "134011.410000", "134012.900000", "134014.390000", "134015.880000", "134017.370000", "134018.860000", "134020.350000", "134021.840000", "134023.330000", "134024.820000", "134026.310000", "134027.800000", "134029.290000", "134030.780000", "134032.270000", "134033.760000", "134035.250000", "134036.740000", "134038.230000", "134039.720000", "134041.210000", "134042.700000", "134044.190000", "134045.680000", "134047.170000", "134048.660000", "134050.150000", "134051.640000", "134053.130000", "134054.620000", "134056.110000", "134057.600000", "134059.090000", "134100.580000", "134102.070000", "134103.560000", "134105.050000", "134106.540000", "134108.030000", "134109.520000", "134111.010000", "134112.500000"],
      "ContentTime": ["133755.418000", "133755.421000", "133755.423000", "133755.426000", "133755.428000", "133755.431000", "133755.433000", "133755.448000", "133755.458000", "133755.461000", "133755.464000", "133755.466000", "133755.469000", "133755.471000", "133755.474000", "133755.476000", "133755.479000", "133755.481000", "133755.484000", "133755.486000", "133755.489000", "133755.491000", "133755.494000", "133755.496000", "133755.499000", "133755.501000", "133755.504000", "133755.506000", "133815.358000", "133815.361000", "133815.364000", "133815.366000", "133815.369000", "133815.371000", "133815.374000", "133815.376000", "133815.379000", "133815.381000", "133815.384000", "133815.386000", "133815.389000", "133815.391000", "133815.394000", "133815.396000", "133815.399000", "133815.401000", "133815.404000", "133815.406000", "133815.409000", "133855.431000", "133855.433000", "133855.436000", "133855.438000", "133855.441000", "133855.443000", "133855.446000", "133855.449000", "133855.451000", "133855.454000", "133855.456000", "133855.459000", "133855.461000", "133855.464000", "133855.467000", "133855.469000", "133855.477000", "133855.479000", "133855.482000", "133855.485000", "133855.487000", "133855.490000", "133855.492000", "133855.495000", "133855.497000", "133855.500000", "133855.502000", "133855.505000", "133855.507000", "133855.510000", "133855.513000", "133855.515000", "133855.518000", "133855.520000", "133855.523000", "133855.525000", "133855.528000", "133855.530000", "133855.533000", "133855.535000", "133915.338000", "133915.341000", "133915.343000", "133915.346000", "133915.348000", "133915.351000", "133915.353000", "133915.356000", "133915.358000", "133915.361000", "133915.364000", "133915.366000", "133915.369000", "133915.371000", "133915.374000", "133915.378000", "133915.381000", "133915.384000", "133915.386000", "133915.389000", "133955.374000", "133955.377000", "133955.380000", "133955.382000", "133955.385000", "133955.387000", "133955.390000", "133955.392000", "133955.395000", "133955.397000", "133955.400000", "133955.402000", "133955.405000", "133955.407000", "133955.410000", "133955.413000", "133955.415000", "133955.418000", "133955.420000", "133955.423000", "133955.425000", "133955.428000", "133955.430000", "133955.433000", "133955.435000", "133955.438000", "133955.440000", "134015.327000", "134015.330000", "134015.332000", "134015.335000", "134015.337000", "134015.340000", "134015.343000", "134015.345000", "134015.348000", "134015.350000", "134015.353000", "134015.355000", "134015.358000", "134015.360000", "134055.386000", "134055.389000", "134055.392000", "134055.394000", "134055.397000", "134055.399000", "134055.402000", "134055.405000", "134055.407000", "134055.410000", "134055.412000", "134055.415000", "134055.417000", "134055.420000", "134055.422000", "134055.425000", "134055.427000", "134055.430000", "134055.433000", "134055.435000", "134055.438000", "134055.440000", "134055.443000", "134055.445000", "134055.448000", "134055.450000", "134114.876000", "134114.879000", "134114.882000", "134114.884000", "134114.887000", "134114.890000", "134114.893000", "134114.895000", "134114.898000", "134114.901000", "134114.903000", "134114.906000", "134114.909000", "134114.912000"],
      "InstanceCreationTime": ["133755.418000", "133755.421000", "133755.423000", "133755.426000", "133755.428000", "133755.431000", "133755.433000", "133755.448000", "133755.458000", "133755.461000", "133755.464000", "133755.466000", "133755.469000", "133755.471000", "133755.474000", "133755.476000", "133755.479000", "133755.481000", "133755.484000", "133755.486000", "133755.489000", "133755.491000", "133755.494000", "133755.496000", "133755.499000", "133755.501000", "133755.504000", "133755.506000", "133815.358000", "133815.361000", "133815.364000", "133815.366000", "133815.369000", "133815.371000", "133815.374000", "133815.376000", "133815.379000", "133815.381000", "133815.384000", "133815.386000", "133815.389000", "133815.391000", "133815.394000", "133815.396000", "133815.399000", "133815.401000", "133815.404000", "133815.406000", "133815.409000", "133855.431000", "133855.433000", "133855.436000", "133855.438000", "133855.441000", "133855.443000", "133855.446000", "133855.449000", "133855.451000", "133855.454000", "133855.456000", "133855.459000", "133855.461000", "133855.464000", "133855.467000", "133855.469000", "133855.477000", "133855.479000", "133855.482000", "133855.485000", "133855.487000", "133855.490000", "133855.492000", "133855.495000", "133855.497000", "133855.500000", "133855.502000", "133855.505000", "133855.507000", "133855.510000", "133855.513000", "133855.515000", "133855.518000", "133855.520000", "133855.523000", "133855.525000", "133855.528000", "133855.530000", "133855.533000", "133855.535000", "133915.338000", "133915.341000", "133915.343000", "133915.346000", "133915.348000", "133915.351000", "133915.353000", "133915.356000", "133915.358000", "133915.361000", "133915.364000", "133915.366000", "133915.369000", "133915.371000", "133915.374000", "133915.378000", "133915.381000", "133915.384000", "133915.386000", "133915.389000", "133955.374000", "133955.377000", "133955.380000", "133955.382000", "133955.385000", "133955.387000", "133955.390000", "133955.392000", "133955.395000", "133955.397000", "133955.400000", "133955.402000", "133955.405000", "133955.407000", "133955.410000", "133955.413000", "133955.415000", "133955.418000", "133955.420000", "133955.423000", "133955.425000", "133955.428000", "133955.430000", "133955.433000", "133955.435000", "133955.438000", "133955.440000", "134015.327000", "134015.330000", "134015.332000", "134015.335000", "134015.337000", "134015.340000", "134015.343000", "134015.345000", "134015.348000", "134015.350000", "134015.353000", "134015.355000", "134015.358000", "134015.360000", "134055.386000", "134055.389000", "134055.392000", "134055.394000", "134055.397000", "134055.399000", "134055.402000", "134055.405000", "134055.407000", "134055.410000", "134055.412000", "134055.415000", "134055.417000", "134055.420000", "134055.422000", "134055.425000", "134055.427000", "134055.430000", "134055.433000", "134055.435000", "134055.438000", "134055.440000", "134055.443000", "134055.445000", "134055.448000", "134055.450000", "134114.876000", "134114.879000", "134114.882000", "134114.884000", "134114.887000", "134114.890000", "134114.893000", "134114.895000", "134114.898000", "134114.901000", "134114.903000", "134114.906000", "134114.909000", "134114.912000"],
      "InstanceNumber": [1, 2, 3, 4, 5, 6, 7, 8, 9, 10, 11, 12, 13, 14, 15, 16, 17, 18, 19, 20, 21, 22, 23, 24, 25, 26, 27, 28, 29, 30, 31, 32, 33, 34, 35, 36, 37, 38, 39, 40, 41, 42, 43, 44, 45, 46, 47, 48, 49, 50, 51, 52, 53, 54, 55, 56, 57, 58, 59, 60, 61, 62, 63, 64, 65, 66, 67, 68, 69, 70, 71, 72, 73, 74, 75, 76, 77, 78, 79, 80, 81, 82, 83, 84, 85, 86, 87, 88, 89, 90, 91, 92, 93, 94, 95, 96, 97, 98, 99, 100, 101, 102, 103, 104, 105, 106, 107, 108, 109, 110, 111, 112, 113, 114, 115, 116, 117, 118, 119, 120, 121, 122, 123, 124, 125, 126, 127, 128, 129, 130, 131, 132, 133, 134, 135, 136, 137, 138, 139, 140, 141, 142, 143, 144, 145, 146, 147, 148, 149, 150, 151, 152, 153, 154, 155, 156, 157, 158, 159, 160, 161, 162, 163, 164, 165, 166, 167, 168, 169, 170, 171, 172, 173, 174, 175, 176, 177, 178, 179, 180, 181, 182, 183, 184, 185, 186, 187, 188, 189, 190],
      "WindowCenter": [4798.0, 4798.0, 4802.0, 4798.0, 4798.0, 4794.0, 4798.0, 4796.0, 4796.0, 4798.0, 4800.0, 4796.0, 4802.0, 4800.0, 4798.0, 4794.0, 4794.0, 4796.0, 4800.0, 4794.0, 4798.0, 4796.0, 4800.0, 4796.0, 4800.0, 4800.0, 4802.0, 4798.0, 4798.0, 4798.0, 4794.0, 4796.0, 4800.0, 4796.0, 4798.0, 4800.0, 4798.0, 4796.0, 4798.0, 4798.0, 4798.0, 4796.0, 4794.0, 4794.0, 4800.0, 4798.0, 4798.0, 4800.0, 4800.0, 4800.0, 4800.0, 4798.0, 4798.0, 4800.0, 4800.0, 4800.0, 4796.0, 4798.0, 4798.0, 4826.0, 4820.0, 4824.0, 4796.0, 4800.0, 4798.0, 4798.0, 4796.0, 4798.0, 4796.0, 4824.0, 4800.0, 4798.0, 4798.0, 4798.0, 4798.0, 4798.0, 4798.0, 4798.0, 4800.0, 4800.0, 4800.0, 4800.0, 4824.0, 4796.0, 4800.0, 4802.0, 4800.0, 4800.0, 4796.0, 4800.0, 4796.0, 4798.0, 4798.0, 4798.0, 4820.0, 4798.0, 4796.0, 4796.0, 4822.0, 4802.0, 4798.0, 4798.0, 4798.0, 4800.0, 4802.0, 4798.0, 4824.0, 4824.0, 4800.0, 4826.0, 4800.0, 4798.0, 4800.0, 4796.0, 4798.0, 4796.0, 4800.0, 4800.0, 4820.0, 4822.0, 4824.0, 4798.0, 4798.0, 4800.0, 4798.0, 4798.0, 4798.0, 4822.0, 4800.0, 4800.0, 4800.0, 4824.0, 4798.0, 4824.0, 4802.0, 4796.0, 4794.0, 4798.0, 4822.0, 4826.0, 4798.0, 4822.0, 4798.0, 4824.0, 4800.0, 4798.0, 4800.0, 4796.0, 4800.0, 4800.0, 4824.0, 4822.0, 4824.0, 4798.0, 4800.0, 4798.0, 4802.0, 4800.0, 4822.0, 4800.0, 4822.0, 4798.0, 4800.0, 4800.0, 4820.0, 4796.0, 4800.0, 4796.0, 4800.0, 4798.0, 4800.0, 4804.0, 4802.0, 4800.0, 4798.0, 4800.0, 4820.0, 4798.0, 4802.0, 4824.0, 4800.0, 4798.0, 4802.0, 4800.0, 4824.0, 4830.0, 4800.0, 4798.0, 4794.0, 4792.0],
      "WindowWidth": [18560.0, 18558.0, 18556.0, 18556.0, 18562.0, 18556.0, 18558.0, 18560.0, 18560.0, 18558.0, 18556.0, 18554.0, 18556.0, 18558.0, 18556.0, 18554.0, 18552.0, 18558.0, 18556.0, 18560.0, 18556.0, 18560.0, 18560.0, 18556.0, 18556.0, 18554.0, 18558.0, 18558.0, 18560.0, 18560.0, 18554.0, 18558.0, 18556.0, 18556.0, 18556.0, 18560.0, 18556.0, 18558.0, 18556.0, 18560.0, 18558.0, 18556.0, 18556.0, 18554.0, 18558.0, 18556.0, 18554.0, 18562.0, 18556.0, 18560.0, 18562.0, 18558.0, 18554.0, 18556.0, 18558.0, 18562.0, 18558.0, 18562.0, 18554.0, 18592.0, 18584.0, 18588.0, 18552.0, 18560.0, 18560.0, 18558.0, 18554.0, 18554.0, 18554.0, 18588.0, 18558.0, 18554.0, 18556.0, 18558.0, 18554.0, 18558.0, 18560.0, 18558.0, 18556.0, 18558.0, 18554.0, 18556.0, 18592.0, 18550.0, 18562.0, 18558.0, 18560.0, 18556.0, 18558.0, 18554.0, 18560.0, 18564.0, 18556.0, 18552.0, 18592.0, 18554.0, 18556.0, 18552.0, 18586.0, 18560.0, 18560.0, 18554.0, 18554.0, 18560.0, 18558.0, 18552.0, 18588.0, 18594.0, 18556.0, 18586.0, 18558.0, 18560.0, 18560.0, 18560.0, 18554.0, 18558.0, 18562.0, 18560.0, 18584.0, 18592.0, 18588.0, 18554.0, 18558.0, 18556.0, 18560.0, 18556.0, 18558.0, 18588.0, 18556.0, 18560.0, 18560.0, 18588.0, 18558.0, 18592.0, 18562.0, 18560.0, 18554.0, 18556.0, 18586.0, 18590.0, 18560.0, 18588.0, 18556.0, 18590.0, 18556.0, 18562.0, 18564.0, 18552.0, 18558.0, 18558.0, 18590.0, 18590.0, 18588.0, 18554.0, 18558.0, 18558.0, 18560.0, 18560.0, 18586.0, 18554.0, 18584.0, 18556.0, 18554.0, 18560.0, 18586.0, 18556.0, 18552.0, 18558.0, 18560.0, 18556.0, 18560.0, 18562.0, 18560.0, 18558.0, 18556.0, 18560.0, 18588.0, 18556.0, 18558.0, 18586.0, 18560.0, 18562.0, 18560.0, 18556.0, 18590.0, 18586.0, 18556.0, 18560.0, 18560.0, 18554.0]
    },
    "slices": {}
  }
}