{
  "AcquisitionMatrixPE": 104,
  "AcquisitionNumber": 1,
  "AcquisitionTime": "13:42:35.107500",
  "BandwidthPerPixelPhaseEncode": 17.17,
  "BaseResolution": 104,
  "BodyPartExamined": "BRAIN",
  "CoilString": "HC1-7;NC1_2",
  "ConsistencyInfo": "N4_VE11C_LATEST_20160120",
  "ConversionSoftware": "dcm2niix",
  "ConversionSoftwareVersion": "v1.0.20190902",
  "DerivedVendorReportedEchoSpacing": 0.000560011,
  "DeviceSerialNumber": "167006",
  "DwellTime": 2.1e-06,
  "EchoTime": 0.037,
  "EchoTrainLength": 104,
  "EffectiveEchoSpacing": 0.000560011,
  "FlipAngle": 52,
  "ImageComments": "Unaliased_MB4_PE3_LB",
  "ImageOrientationPatientDICOM": [0.999515, 0.0161041, 0.0266719, -0.00994383, 0.976175, -0.216758],
  "ImageType": [
    "ORIGINAL",
    "PRIMARY",
    "P",
    "MB",
    "ND",
    "MOSAIC"
],
  "ImagingFrequency": 123.259,
  "InPlanePhaseEncodingDirectionDICOM": "COL",
  "InstitutionAddress": "Chemin_Queen-Mary_4565_Montreal_District_CA_H3W_1W5",
  "InstitutionName": "IUGM",
  "InstitutionalDepartmentName": "Department",
  "MRAcquisitionType": "2D",
  "MagneticFieldStrength": 3,
  "Manufacturer": "Siemens",
  "ManufacturersModelName": "Prisma_fit",
  "Modality": "MR",
  "MultibandAccelerationFactor": 4,
  "PartialFourier": 1,
  "PatientPosition": "HFS",
  "PercentPhaseFOV": 100,
  "PhaseEncodingDirection": "j",
  "PhaseEncodingSteps": 104,
  "PhaseResolution": 1,
  "PixelBandwidth": 2290,
  "ProcedureStepDescription": "memory_things",
  "ProtocolName": "func_task-things_run-3",
  "PulseSequenceDetails": "%CustomerSeq%_cmrr_mbep2d_bold",
  "ReceiveCoilActiveElements": "HC1-7;NC1,2",
  "ReceiveCoilName": "HeadNeck_64",
  "ReconMatrixPE": 104,
  "RepetitionTime": 1.49,
  "SAR": 0.0411504,
  "ScanOptions": "FS",
  "ScanningSequence": "EP",
  "SequenceName": "epfid2d1_104",
  "SequenceVariant": "SK_SS",
  "SeriesDescription": "func_task-things_run-3",
  "SeriesNumber": 17,
  "ShimSetting": [637, -7222, -8778, 717, 59, -23, 88, -8],
  "SliceThickness": 2,
  "SliceTiming": [0, 0.785, 0.0975, 0.8825, 0.1975, 0.98, 0.295, 1.0775, 0.3925, 1.1775, 0.49, 1.275, 0.5875, 1.3725, 0.6875, 0, 0.785, 0.0975, 0.8825, 0.1975, 0.98, 0.295, 1.0775, 0.3925, 1.1775, 0.49, 1.275, 0.5875, 1.3725, 0.6875, 0, 0.785, 0.0975, 0.8825, 0.1975, 0.98, 0.295, 1.0775, 0.3925, 1.1775, 0.49, 1.275, 0.5875, 1.3725, 0.6875, 0, 0.785, 0.0975, 0.8825, 0.1975, 0.98, 0.295, 1.0775, 0.3925, 1.1775, 0.49, 1.275, 0.5875, 1.3725, 0.6875],
  "SoftwareVersions": "syngo_MR_E11",
  "SpacingBetweenSlices": 2,
  "StationName": "MRC35049",
  "TaskName": "things",
  "TotalReadoutTime": 0.0576811,
  "TxRefAmp": 218.768,
  "WipMemBlock": "3516c72a-19ad-4c06-9a98-d2ca31b5861b||Sequence: R016 ve11c/master r/e634e98; Dec 19 2017 11:00:25 by eja",
  "dcmmeta_affine": [
    [-1.9990290403366089, -0.0198876541107893, 0.05905432626605034, 108.30137634277344],
    [-0.03220810368657112, 1.952349305152893, -0.4327758550643921, -75.53141784667969],
    [0.053343888372182846, 0.4335167706012726, 1.9517216682434082, -56.59928512573242],
    [0.0, 0.0, 0.0, 1.0]
],
  "dcmmeta_reorient_transform": [
    [0.0, -1.0, 0.0, 103.0],
    [1.0, 0.0, 0.0, 0.0],
    [0.0, 0.0, 1.0, 0.0],
    [0.0, 0.0, 0.0, 1.0]
],
  "dcmmeta_shape": [104, 104, 60, 190],
  "dcmmeta_slice_dim": 2,
  "dcmmeta_version": 0.6,
  "global": {
    "const": {
      "AcquisitionMatrix": [104, 0, 0, 104],
      "AngioFlag": "N",
      "BitsAllocated": 16,
      "BitsStored": 16,
      "BodyPartExamined": "BRAIN",
      "Columns": 832,
      "EchoNumbers": 1,
      "EchoTime": 37.0,
      "EchoTrainLength": 104,
      "FlipAngle": 52.0,
      "HighBit": 15,
      "ImageOrientationPatient": [0.9995145155904, 0.01610405166712, 0.02667194488588, -0.0099438267944, 0.97617463836467, -0.2167583809736],
      "ImagePositionPatient": [-826.66041021003, -847.93944318079, 126.43586753799],
      "ImageType": [
        "ORIGINAL",
        "PRIMARY",
        "P",
        "MB",
        "ND",
        "MOSAIC"
],
      "ImagedNucleus": "1H",
      "ImagingFrequency": 123.258935,
      "InPlanePhaseEncodingDirection": "COL",
      "LargestImagePixelValue": 4095,
      "MRAcquisitionType": "2D",
      "MagneticFieldStrength": 3.0,
      "Manufacturer": "SIEMENS",
      "ManufacturerModelName": "Prisma_fit",
      "Modality": "MR",
      "NumberOfAverages": 1.0,
      "NumberOfPhaseEncodingSteps": 104,
      "PercentPhaseFieldOfView": 100.0,
      "PercentSampling": 100.0,
      "PerformedProcedureStepStartTime": "130613.578000",
      "PhotometricInterpretation": "MONOCHROME2",
      "PixelBandwidth": 2290.0,
      "PixelRepresentation": 0,
      "PixelSpacing": [2.0, 2.0],
      "ProtocolName": "func_task-things_run-3",
      "RepetitionTime": 1490.0,
      "RescaleIntercept": -4096.0,
      "RescaleSlope": 2.0,
      "RescaleType": "US",
      "Rows": 832,
      "SAR": 0.04115036591945,
      "SamplesPerPixel": 1,
      "ScanOptions": "FS",
      "ScanningSequence": "EP",
      "SequenceName": "epfid2d1_104",
      "SequenceVariant": [
        "SK",
        "SS"
],
      "SeriesDescription": "func_task-things_run-3",
      "SeriesNumber": 17,
      "SeriesTime": "134354.837000",
      "SliceLocation": -35.691106514532,
      "SliceThickness": 2.0,
      "SmallestImagePixelValue": 0,
      "SoftwareVersions": "syngo MR E11",
      "SpacingBetweenSlices": 1.9999999671819,
      "SpecificCharacterSet": "ISO_IR 100",
      "StudyID": "1",
      "StudyTime": "130613.465000",
      "TransmitCoilName": "Body",
      "VariableFlipAngleFlag": "N",
      "WindowCenterWidthExplanation": "Algo1",
      "dBdt": 0.0},
    "slices": {}
  },
  "time": {
    "samples": {
      "AcquisitionNumber": [1, 2, 3, 4, 5, 6, 7, 8, 9, 10, 11, 12, 13, 14, 15, 16, 17, 18, 19, 20, 21, 22, 23, 24, 25, 26, 27, 28, 29, 30, 31, 32, 33, 34, 35, 36, 37, 38, 39, 40, 41, 42, 43, 44, 45, 46, 47, 48, 49, 50, 51, 52, 53, 54, 55, 56, 57, 58, 59, 60, 61, 62, 63, 64, 65, 66, 67, 68, 69, 70, 71, 72, 73, 74, 75, 76, 77, 78, 79, 80, 81, 82, 83, 84, 85, 86, 87, 88, 89, 90, 91, 92, 93, 94, 95, 96, 97, 98, 99, 100, 101, 102, 103, 104, 105, 106, 107, 108, 109, 110, 111, 112, 113, 114, 115, 116, 117, 118, 119, 120, 121, 122, 123, 124, 125, 126, 127, 128, 129, 130, 131, 132, 133, 134, 135, 136, 137, 138, 139, 140, 141, 142, 143, 144, 145, 146, 147, 148, 149, 150, 151, 152, 153, 154, 155, 156, 157, 158, 159, 160, 161, 162, 163, 164, 165, 166, 167, 168, 169, 170, 171, 172, 173, 174, 175, 176, 177, 178, 179, 180, 181, 182, 183, 184, 185, 186, 187, 188, 189, 190],
      "AcquisitionTime": ["134235.107500", "134236.597500", "134238.087500", "134239.577500", "134241.067500", "134242.557500", "134244.047500", "134245.537500", "134247.027500", "134248.517500", "134250.007500", "134251.497500", "134252.987500", "134254.477500", "134255.967500", "134257.457500", "134258.947500", "134300.437500", "134301.927500", "134303.417500", "134304.907500", "134306.397500", "134307.887500", "134309.377500", "134310.867500", "134312.357500", "134313.847500", "134315.337500", "134316.827500", "134318.317500", "134319.807500", "134321.297500", "134322.787500", "134324.277500", "134325.767500", "134327.257500", "134328.747500", "134330.237500", "134331.727500", "134333.217500", "134334.707500", "134336.197500", "134337.687500", "134339.177500", "134340.667500", "134342.157500", "134343.647500", "134345.137500", "134346.627500", "134348.117500", "134349.607500", "134351.097500", "134352.587500", "134354.077500", "134355.567500", "134357.057500", "134358.547500", "134400.037500", "134401.527500", "134403.017500", "134404.507500", "134405.997500", "134407.487500", "134408.977500", "134410.467500", "134411.957500", "134413.447500", "134414.937500", "134416.427500", "134417.917500", "134419.407500", "134420.897500", "134422.387500", "134423.877500", "134425.367500", "134426.857500", "134428.347500", "134429.837500", "134431.327500", "134432.817500", "134434.307500", "134435.797500", "134437.287500", "134438.777500", "134440.267500", "134441.757500", "134443.247500", "134444.737500", "134446.227500", "134447.717500", "134449.207500", "134450.697500", "134452.187500", "134453.677500", "134455.167500", "134456.657500", "134458.147500", "134459.637500", "134501.127500", "134502.617500", "134504.107500", "134505.597500", "134507.087500", "134508.577500", "134510.067500", "134511.557500", "134513.047500", "134514.537500", "134516.027500", "134517.517500", "134519.007500", "134520.497500", "134521.987500", "134523.477500", "134524.967500", "134526.457500", "134527.947500", "134529.437500", "134530.927500", "134532.417500", "134533.907500", "134535.397500", "134536.887500", "134538.377500", "134539.867500", "134541.357500", "134542.847500", "134544.337500", "134545.827500", "134547.317500", "134548.807500", "134550.297500", "134551.787500", "134553.277500", "134554.767500", "134556.257500", "134557.747500", "134559.237500", "134600.727500", "134602.217500", "134603.707500", "134605.197500", "134606.687500", "134608.177500", "134609.667500", "134611.157500", "134612.647500", "134614.137500", "134615.627500", "134617.117500", "134618.607500", "134620.097500", "134621.587500", "134623.077500", "134624.567500", "134626.057500", "134627.547500", "134629.037500", "134630.527500", "134632.017500", "134633.507500", "134634.997500", "134636.487500", "134637.977500", "134639.467500", "134640.957500", "134642.447500", "134643.937500", "134645.427500", "134646.917500", "134648.407500", "134649.897500", "134651.387500", "134652.877500", "134654.367500", "134655.857500", "134657.347500", "134658.837500", "134700.327500", "134701.817500", "134703.307500", "134704.797500", "134706.287500", "134707.777500", "134709.267500", "134710.757500", "134712.247500", "134713.737500", "134715.227500", "134716.717500"],
      "ContentTime": ["134354.839000", "134354.842000", "134354.845000", "134354.848000", "134354.850000", "134354.853000", "134354.855000", "134354.858000", "134354.861000", "134354.863000", "134354.866000", "134354.868000", "134354.871000", "134354.873000", "134354.883000", "134354.886000", "134354.888000", "134354.891000", "134354.894000", "134354.896000", "134354.899000", "134354.901000", "134354.904000", "134354.907000", "134414.807000", "134414.810000", "134414.813000", "134414.815000", "134414.818000", "134414.826000", "134414.829000", "134414.831000", "134414.834000", "134414.837000", "134414.839000", "134414.842000", "134414.844000", "134414.847000", "134414.849000", "134414.852000", "134414.854000", "134414.857000", "134414.860000", "134414.862000", "134434.773000", "134434.776000", "134434.779000", "134434.781000", "134434.784000", "134434.787000", "134434.789000", "134434.792000", "134434.794000", "134434.797000", "134434.800000", "134434.802000", "134434.805000", "134434.807000", "134434.810000", "134434.812000", "134434.817000", "134434.819000", "134434.822000", "134434.824000", "134434.827000", "134454.772000", "134454.775000", "134454.778000", "134454.780000", "134454.783000", "134454.785000", "134454.788000", "134454.791000", "134454.793000", "134454.796000", "134454.798000", "134454.801000", "134454.804000", "134454.806000", "134454.809000", "134454.811000", "134454.814000", "134454.816000", "134454.819000", "134454.822000", "134514.772000", "134514.774000", "134514.777000", "134514.780000", "134514.782000", "134514.785000", "134514.787000", "134514.790000", "134514.793000", "134514.795000", "134514.798000", "134514.806000", "134514.809000", "134514.812000", "134514.814000", "134514.817000", "134514.819000", "134514.822000", "134514.825000", "134514.827000", "134554.847000", "134554.849000", "134554.852000", "134554.855000", "134554.857000", "134554.860000", "134554.862000", "134554.865000", "134554.868000", "134554.870000", "134554.873000", "134554.875000", "134554.878000", "134554.881000", "134554.883000", "134554.886000", "134554.888000", "134554.891000", "134554.894000", "134554.896000", "134554.899000", "134554.901000", "134554.904000", "134554.907000", "134554.909000", "134554.912000", "134554.914000", "134554.917000", "134634.831000", "134634.834000", "134634.837000", "134634.839000", "134634.842000", "134634.844000", "134634.847000", "134634.850000", "134634.852000", "134634.855000", "134634.857000", "134634.860000", "134634.863000", "134634.865000", "134634.868000", "134634.870000", "134634.873000", "134634.876000", "134634.878000", "134634.881000", "134634.884000", "134634.886000", "134634.889000", "134634.891000", "134634.894000", "134634.897000", "134634.899000", "134714.811000", "134714.814000", "134714.817000", "134714.819000", "134714.822000", "134714.824000", "134714.827000", "134714.835000", "134714.838000", "134714.841000", "134714.843000", "134714.846000", "134714.848000", "134714.851000", "134714.854000", "134714.856000", "134714.859000", "134714.861000", "134714.864000", "134714.867000", "134714.869000", "134714.872000", "134714.875000", "134714.877000", "134714.880000", "134714.882000", "134714.885000", "134719.089000", "134719.092000", "134719.095000"],
      "InstanceCreationTime": ["134354.839000", "134354.842000", "134354.845000", "134354.848000", "134354.850000", "134354.853000", "134354.855000", "134354.858000", "134354.861000", "134354.863000", "134354.866000", "134354.868000", "134354.871000", "134354.873000", "134354.883000", "134354.886000", "134354.888000", "134354.891000", "134354.894000", "134354.896000", "134354.899000", "134354.901000", "134354.904000", "134354.907000", "134414.807000", "134414.810000", "134414.813000", "134414.815000", "134414.818000", "134414.826000", "134414.829000", "134414.831000", "134414.834000", "134414.837000", "134414.839000", "134414.842000", "134414.844000", "134414.847000", "134414.849000", "134414.852000", "134414.854000", "134414.857000", "134414.860000", "134414.862000", "134434.773000", "134434.776000", "134434.779000", "134434.781000", "134434.784000", "134434.787000", "134434.789000", "134434.792000", "134434.794000", "134434.797000", "134434.800000", "134434.802000", "134434.805000", "134434.807000", "134434.810000", "134434.812000", "134434.817000", "134434.819000", "134434.822000", "134434.824000", "134434.827000", "134454.772000", "134454.775000", "134454.778000", "134454.780000", "134454.783000", "134454.785000", "134454.788000", "134454.791000", "134454.793000", "134454.796000", "134454.798000", "134454.801000", "134454.804000", "134454.806000", "134454.809000", "134454.811000", "134454.814000", "134454.816000", "134454.819000", "134454.822000", "134514.772000", "134514.774000", "134514.777000", "134514.780000", "134514.782000", "134514.785000", "134514.787000", "134514.790000", "134514.793000", "134514.795000", "134514.798000", "134514.806000", "134514.809000", "134514.812000", "134514.814000", "134514.817000", "134514.819000", "134514.822000", "134514.825000", "134514.827000", "134554.847000", "134554.849000", "134554.852000", "134554.855000", "134554.857000", "134554.860000", "134554.862000", "134554.865000", "134554.868000", "134554.870000", "134554.873000", "134554.875000", "134554.878000", "134554.881000", "134554.883000", "134554.886000", "134554.888000", "134554.891000", "134554.894000", "134554.896000", "134554.899000", "134554.901000", "134554.904000", "134554.907000", "134554.909000", "134554.912000", "134554.914000", "134554.917000", "134634.831000", "134634.834000", "134634.837000", "134634.839000", "134634.842000", "134634.844000", "134634.847000", "134634.850000", "134634.852000", "134634.855000", "134634.857000", "134634.860000", "134634.863000", "134634.865000", "134634.868000", "134634.870000", "134634.873000", "134634.876000", "134634.878000", "134634.881000", "134634.884000", "134634.886000", "134634.889000", "134634.891000", "134634.894000", "134634.897000", "134634.899000", "134714.811000", "134714.814000", "134714.817000", "134714.819000", "134714.822000", "134714.824000", "134714.827000", "134714.835000", "134714.838000", "134714.841000", "134714.843000", "134714.846000", "134714.848000", "134714.851000", "134714.854000", "134714.856000", "134714.859000", "134714.861000", "134714.864000", "134714.867000", "134714.869000", "134714.872000", "134714.875000", "134714.877000", "134714.880000", "134714.882000", "134714.885000", "134719.089000", "134719.092000", "134719.095000"],
      "InstanceNumber": [1, 2, 3, 4, 5, 6, 7, 8, 9, 10, 11, 12, 13, 14, 15, 16, 17, 18, 19, 20, 21, 22, 23, 24, 25, 26, 27, 28, 29, 30, 31, 32, 33, 34, 35, 36, 37, 38, 39, 40, 41, 42, 43, 44, 45, 46, 47, 48, 49, 50, 51, 52, 53, 54, 55, 56, 57, 58, 59, 60, 61, 62, 63, 64, 65, 66, 67, 68, 69, 70, 71, 72, 73, 74, 75, 76, 77, 78, 79, 80, 81, 82, 83, 84, 85, 86, 87, 88, 89, 90, 91, 92, 93, 94, 95, 96, 97, 98, 99, 100, 101, 102, 103, 104, 105, 106, 107, 108, 109, 110, 111, 112, 113, 114, 115, 116, 117, 118, 119, 120, 121, 122, 123, 124, 125, 126, 127, 128, 129, 130, 131, 132, 133, 134, 135, 136, 137, 138, 139, 140, 141, 142, 143, 144, 145, 146, 147, 148, 149, 150, 151, 152, 153, 154, 155, 156, 157, 158, 159, 160, 161, 162, 163, 164, 165, 166, 167, 168, 169, 170, 171, 172, 173, 174, 175, 176, 177, 178, 179, 180, 181, 182, 183, 184, 185, 186, 187, 188, 189, 190],
      "WindowCenter": [4836.0, 4828.0, 4832.0, 4834.0, 4854.0, 4834.0, 4832.0, 4858.0, 4856.0, 4854.0, 4834.0, 4834.0, 4832.0, 4832.0, 4830.0, 4832.0, 4834.0, 4830.0, 4832.0, 4854.0, 4832.0, 4836.0, 4832.0, 4832.0, 4830.0, 4834.0, 4832.0, 4832.0, 4832.0, 4854.0, 4832.0, 4854.0, 4854.0, 4856.0, 4832.0, 4834.0, 4832.0, 4856.0, 4828.0, 4830.0, 4856.0, 4854.0, 4832.0, 4856.0, 4834.0, 4856.0, 4834.0, 4830.0, 4856.0, 4828.0, 4832.0, 4826.0, 4856.0, 4828.0, 4828.0, 4834.0, 4832.0, 4834.0, 4834.0, 4858.0, 4834.0, 4856.0, 4830.0, 4830.0, 4834.0, 4858.0, 4832.0, 4834.0, 4830.0, 4856.0, 4854.0, 4834.0, 4854.0, 4834.0, 4832.0, 4834.0, 4836.0, 4830.0, 4832.0, 4856.0, 4854.0, 4856.0, 4830.0, 4834.0, 4830.0, 4856.0, 4832.0, 4832.0, 4832.0, 4832.0, 4856.0, 4834.0, 4856.0, 4832.0, 4856.0, 4832.0, 4832.0, 4832.0, 4834.0, 4836.0, 4834.0, 4830.0, 4834.0, 4830.0, 4834.0, 4832.0, 4832.0, 4834.0, 4834.0, 4858.0, 4830.0, 4854.0, 4834.0, 4854.0, 4834.0, 4836.0, 4830.0, 4834.0, 4834.0, 4830.0, 4830.0, 4832.0, 4830.0, 4836.0, 4832.0, 4858.0, 4832.0, 4832.0, 4832.0, 4832.0, 4830.0, 4834.0, 4834.0, 4832.0, 4830.0, 4854.0, 4830.0, 4834.0, 4832.0, 4856.0, 4834.0, 4832.0, 4832.0, 4854.0, 4834.0, 4856.0, 4834.0, 4832.0, 4832.0, 4832.0, 4832.0, 4832.0, 4834.0, 4832.0, 4834.0, 4858.0, 4832.0, 4832.0, 4834.0, 4834.0, 4854.0, 4832.0, 4834.0, 4834.0, 4856.0, 4832.0, 4832.0, 4832.0, 4832.0, 4830.0, 4832.0, 4834.0, 4832.0, 4834.0, 4858.0, 4858.0, 4856.0, 4858.0, 4834.0, 4834.0, 4832.0, 4834.0, 4832.0, 4856.0, 4830.0, 4832.0, 4854.0, 4854.0, 4832.0, 4856.0],
      "WindowWidth": [18594.0, 18590.0, 18592.0, 18590.0, 18620.0, 18592.0, 18592.0, 18622.0, 18620.0, 18628.0, 18594.0, 18596.0, 18590.0, 18596.0, 18588.0, 18590.0, 18596.0, 18594.0, 18596.0, 18618.0, 18594.0, 18592.0, 18596.0, 18592.0, 18590.0, 18596.0, 18598.0, 18594.0, 18590.0, 18628.0, 18590.0, 18620.0, 18622.0, 18620.0, 18596.0, 18592.0, 18594.0, 18624.0, 18590.0, 18592.0, 18624.0, 18620.0, 18592.0, 18626.0, 18592.0, 18618.0, 18598.0, 18584.0, 18630.0, 18588.0, 18594.0, 18586.0, 18622.0, 18588.0, 18588.0, 18596.0, 18592.0, 18594.0, 18592.0, 18618.0, 18588.0, 18624.0, 18592.0, 18596.0, 18596.0, 18622.0, 18592.0, 18588.0, 18588.0, 18620.0, 18626.0, 18592.0, 18622.0, 18594.0, 18592.0, 18596.0, 18594.0, 18590.0, 18594.0, 18626.0, 18620.0, 18622.0, 18590.0, 18590.0, 18592.0, 18624.0, 18594.0, 18590.0, 18594.0, 18590.0, 18624.0, 18592.0, 18620.0, 18590.0, 18624.0, 18594.0, 18598.0, 18596.0, 18594.0, 18594.0, 18594.0, 18592.0, 18592.0, 18588.0, 18598.0, 18594.0, 18590.0, 18592.0, 18598.0, 18626.0, 18592.0, 18622.0, 18594.0, 18622.0, 18596.0, 18598.0, 18588.0, 18598.0, 18594.0, 18594.0, 18590.0, 18596.0, 18588.0, 18598.0, 18596.0, 18628.0, 18592.0, 18596.0, 18590.0, 18594.0, 18596.0, 18594.0, 18594.0, 18596.0, 18592.0, 18620.0, 18594.0, 18596.0, 18594.0, 18626.0, 18594.0, 18590.0, 18592.0, 18626.0, 18596.0, 18626.0, 18594.0, 18592.0, 18588.0, 18594.0, 18592.0, 18586.0, 18596.0, 18594.0, 18592.0, 18628.0, 18592.0, 18596.0, 18590.0, 18596.0, 18622.0, 18588.0, 18596.0, 18592.0, 18626.0, 18596.0, 18592.0, 18594.0, 18596.0, 18588.0, 18594.0, 18592.0, 18594.0, 18600.0, 18628.0, 18624.0, 18626.0, 18626.0, 18594.0, 18598.0, 18592.0, 18590.0, 18596.0, 18626.0, 18594.0, 18590.0, 18624.0, 18620.0, 18594.0, 18622.0]
    },
    "slices": {}
  }
}