{
  "AcquisitionMatrixPE": 104,
  "AcquisitionNumber": 1,
  "AcquisitionTime": "13:48:38.572500",
  "BandwidthPerPixelPhaseEncode": 17.17,
  "BaseResolution": 104,
  "BodyPartExamined": "BRAIN",
  "CoilString": "HC1-7;NC1_2",
  "ConsistencyInfo": "N4_VE11C_LATEST_20160120",
  "ConversionSoftware": "dcm2niix",
  "ConversionSoftwareVersion": "v1.0.20190902",
  "DerivedVendorReportedEchoSpacing": 0.000560011,
  "DeviceSerialNumber": "167006",
  "DwellTime": 2.1e-06,
  "EchoTime": 0.037,
  "EchoTrainLength": 104,
  "EffectiveEchoSpacing": 0.000560011,
  "FlipAngle": 52,
  "ImageComments": "Unaliased_MB4_PE3_LB",
  "ImageOrientationPatientDICOM": [0.999515, 0.0161041, 0.0266719, -0.00994383, 0.976175, -0.216758],
  "ImageType": [
    "ORIGINAL",
    "PRIMARY",
    "M",
    "MB",
    "ND",
    "MOSAIC"
],
  "ImagingFrequency": 123.259,
  "InPlanePhaseEncodingDirectionDICOM": "COL",
  "InstitutionAddress": "Chemin_Queen-Mary_4565_Montreal_District_CA_H3W_1W5",
  "InstitutionName": "IUGM",
  "InstitutionalDepartmentName": "Department",
  "MRAcquisitionType": "2D",
  "MagneticFieldStrength": 3,
  "Manufacturer": "Siemens",
  "ManufacturersModelName": "Prisma_fit",
  "Modality": "MR",
  "MultibandAccelerationFactor": 4,
  "PartialFourier": 1,
  "PatientPosition": "HFS",
  "PercentPhaseFOV": 100,
  "PhaseEncodingDirection": "j",
  "PhaseEncodingSteps": 104,
  "PhaseResolution": 1,
  "PixelBandwidth": 2290,
  "ProcedureStepDescription": "memory_things",
  "ProtocolName": "func_task-things_run-4",
  "PulseSequenceDetails": "%CustomerSeq%_cmrr_mbep2d_bold",
  "ReceiveCoilActiveElements": "HC1-7;NC1,2",
  "ReceiveCoilName": "HeadNeck_64",
  "ReconMatrixPE": 104,
  "RepetitionTime": 1.49,
  "SAR": 0.0411504,
  "ScanOptions": "FS",
  "ScanningSequence": "EP",
  "SequenceName": "epfid2d1_104",
  "SequenceVariant": "SK_SS",
  "SeriesDescription": "func_task-things_run-4",
  "SeriesNumber": 19,
  "ShimSetting": [637, -7222, -8778, 717, 59, -23, 88, -8],
  "SliceThickness": 2,
  "SliceTiming": [0, 0.785, 0.0975, 0.8825, 0.1975, 0.98, 0.295, 1.0775, 0.3925, 1.1775, 0.49, 1.275, 0.5875, 1.3725, 0.6875, 0, 0.785, 0.0975, 0.8825, 0.1975, 0.98, 0.295, 1.0775, 0.3925, 1.1775, 0.49, 1.275, 0.5875, 1.3725, 0.6875, 0, 0.785, 0.0975, 0.8825, 0.1975, 0.98, 0.295, 1.0775, 0.3925, 1.1775, 0.49, 1.275, 0.5875, 1.3725, 0.6875, 0, 0.785, 0.0975, 0.8825, 0.1975, 0.98, 0.295, 1.0775, 0.3925, 1.1775, 0.49, 1.275, 0.5875, 1.3725, 0.6875],
  "SoftwareVersions": "syngo_MR_E11",
  "SpacingBetweenSlices": 2,
  "StationName": "MRC35049",
  "TaskName": "things",
  "TotalReadoutTime": 0.0576811,
  "TxRefAmp": 218.768,
  "WipMemBlock": "a6b9f3fa-7654-4acb-a389-0dbc2b272845||Sequence: R016 ve11c/master r/e634e98; Dec 19 2017 11:00:25 by eja",
  "dcmmeta_affine": [
    [-1.9990290403366089, -0.0198876541107893, 0.05905432626605034, 108.30137634277344],
    [-0.03220810368657112, 1.952349305152893, -0.4327758550643921, -75.53141784667969],
    [0.053343888372182846, 0.4335167706012726, 1.9517216682434082, -56.59928512573242],
    [0.0, 0.0, 0.0, 1.0]
],
  "dcmmeta_reorient_transform": [
    [0.0, -1.0, 0.0, 103.0],
    [1.0, 0.0, 0.0, 0.0],
    [0.0, 0.0, 1.0, 0.0],
    [0.0, 0.0, 0.0, 1.0]
],
  "dcmmeta_shape": [104, 104, 60, 190],
  "dcmmeta_slice_dim": 2,
  "dcmmeta_version": 0.6,
  "global": {
    "const": {
      "AcquisitionMatrix": [104, 0, 0, 104],
      "AngioFlag": "N",
      "BitsAllocated": 16,
      "BitsStored": 16,
      "BodyPartExamined": "BRAIN",
      "Columns": 832,
      "EchoNumbers": 1,
      "EchoTime": 37.0,
      "EchoTrainLength": 104,
      "FlipAngle": 52.0,
      "HighBit": 15,
      "ImageOrientationPatient": [0.9995145155904, 0.01610405166712, 0.02667194488588, -0.0099438267944, 0.97617463836467, -0.2167583809736],
      "ImagePositionPatient": [-826.66041021003, -847.93944318079, 126.43586753799],
      "ImageType": [
        "ORIGINAL",
        "PRIMARY",
        "M",
        "MB",
        "ND",
        "MOSAIC"
],
      "ImagedNucleus": "1H",
      "ImagingFrequency": 123.25894,
      "InPlanePhaseEncodingDirection": "COL",
      "MRAcquisitionType": "2D",
      "MagneticFieldStrength": 3.0,
      "Manufacturer": "SIEMENS",
      "ManufacturerModelName": "Prisma_fit",
      "Modality": "MR",
      "NumberOfAverages": 1.0,
      "NumberOfPhaseEncodingSteps": 104,
      "PercentPhaseFieldOfView": 100.0,
      "PercentSampling": 100.0,
      "PerformedProcedureStepStartTime": "130613.578000",
      "PhotometricInterpretation": "MONOCHROME2",
      "PixelBandwidth": 2290.0,
      "PixelRepresentation": 0,
      "PixelSpacing": [2.0, 2.0],
      "ProtocolName": "func_task-things_run-4",
      "RepetitionTime": 1490.0,
      "Rows": 832,
      "SAR": 0.04115036591945,
      "SamplesPerPixel": 1,
      "ScanOptions": "FS",
      "ScanningSequence": "EP",
      "SequenceName": "epfid2d1_104",
      "SequenceVariant": [
        "SK",
        "SS"
],
      "SeriesDescription": "func_task-things_run-4",
      "SeriesNumber": 19,
      "SeriesTime": "134954.689000",
      "SliceLocation": -35.691106514532,
      "SliceThickness": 2.0,
      "SmallestImagePixelValue": 0,
      "SoftwareVersions": "syngo MR E11",
      "SpacingBetweenSlices": 1.9999999671819,
      "SpecificCharacterSet": "ISO_IR 100",
      "StudyID": "1",
      "StudyTime": "130613.465000",
      "TransmitCoilName": "Body",
      "VariableFlipAngleFlag": "N",
      "WindowCenterWidthExplanation": "Algo1",
      "dBdt": 0.0},
    "slices": {}
  },
  "time": {
    "samples": {
      "AcquisitionNumber": [1, 2, 3, 4, 5, 6, 7, 8, 9, 10, 11, 12, 13, 14, 15, 16, 17, 18, 19, 20, 21, 22, 23, 24, 25, 26, 27, 28, 29, 30, 31, 32, 33, 34, 35, 36, 37, 38, 39, 40, 41, 42, 43, 44, 45, 46, 47, 48, 49, 50, 51, 52, 53, 54, 55, 56, 57, 58, 59, 60, 61, 62, 63, 64, 65, 66, 67, 68, 69, 70, 71, 72, 73, 74, 75, 76, 77, 78, 79, 80, 81, 82, 83, 84, 85, 86, 87, 88, 89, 90, 91, 92, 93, 94, 95, 96, 97, 98, 99, 100, 101, 102, 103, 104, 105, 106, 107, 108, 109, 110, 111, 112, 113, 114, 115, 116, 117, 118, 119, 120, 121, 122, 123, 124, 125, 126, 127, 128, 129, 130, 131, 132, 133, 134, 135, 136, 137, 138, 139, 140, 141, 142, 143, 144, 145, 146, 147, 148, 149, 150, 151, 152, 153, 154, 155, 156, 157, 158, 159, 160, 161, 162, 163, 164, 165, 166, 167, 168, 169, 170, 171, 172, 173, 174, 175, 176, 177, 178, 179, 180, 181, 182, 183, 184, 185, 186, 187, 188, 189, 190],
      "AcquisitionTime": ["134838.572500", "134840.062500", "134841.552500", "134843.042500", "134844.532500", "134846.022500", "134847.512500", "134849.002500", "134850.492500", "134851.982500", "134853.472500", "134854.962500", "134856.452500", "134857.942500", "134859.432500", "134900.922500", "134902.412500", "134903.902500", "134905.392500", "134906.882500", "134908.372500", "134909.862500", "134911.352500", "134912.842500", "134914.332500", "134915.822500", "134917.312500", "134918.802500", "134920.292500", "134921.782500", "134923.272500", "134924.762500", "134926.252500", "134927.742500", "134929.232500", "134930.722500", "134932.212500", "134933.702500", "134935.192500", "134936.682500", "134938.172500", "134939.662500", "134941.152500", "134942.642500", "134944.132500", "134945.622500", "134947.112500", "134948.602500", "134950.092500", "134951.582500", "134953.072500", "134954.562500", "134956.052500", "134957.542500", "134959.032500", "135000.522500", "135002.012500", "135003.502500", "135004.992500", "135006.482500", "135007.972500", "135009.462500", "135010.952500", "135012.442500", "135013.932500", "135015.422500", "135016.912500", "135018.402500", "135019.892500", "135021.382500", "135022.872500", "135024.362500", "135025.852500", "135027.342500", "135028.832500", "135030.322500", "135031.812500", "135033.302500", "135034.792500", "135036.282500", "135037.772500", "135039.262500", "135040.752500", "135042.242500", "135043.732500", "135045.222500", "135046.712500", "135048.202500", "135049.692500", "135051.182500", "135052.672500", "135054.162500", "135055.652500", "135057.142500", "135058.632500", "135100.122500", "135101.612500", "135103.102500", "135104.592500", "135106.082500", "135107.572500", "135109.062500", "135110.552500", "135112.042500", "135113.532500", "135115.022500", "135116.512500", "135118.002500", "135119.492500", "135120.982500", "135122.472500", "135123.962500", "135125.452500", "135126.942500", "135128.432500", "135129.922500", "135131.412500", "135132.902500", "135134.392500", "135135.882500", "135137.372500", "135138.862500", "135140.352500", "135141.842500", "135143.332500", "135144.822500", "135146.312500", "135147.802500", "135149.292500", "135150.782500", "135152.272500", "135153.762500", "135155.252500", "135156.742500", "135158.232500", "135159.722500", "135201.212500", "135202.702500", "135204.192500", "135205.682500", "135207.172500", "135208.662500", "135210.152500", "135211.642500", "135213.132500", "135214.622500", "135216.112500", "135217.602500", "135219.092500", "135220.582500", "135222.072500", "135223.562500", "135225.052500", "135226.542500", "135228.032500", "135229.522500", "135231.012500", "135232.502500", "135233.992500", "135235.482500", "135236.972500", "135238.462500", "135239.952500", "135241.442500", "135242.932500", "135244.422500", "135245.912500", "135247.402500", "135248.892500", "135250.382500", "135251.872500", "135253.362500", "135254.852500", "135256.342500", "135257.832500", "135259.322500", "135300.812500", "135302.302500", "135303.792500", "135305.282500", "135306.772500", "135308.262500", "135309.752500", "135311.242500", "135312.732500", "135314.222500", "135315.712500", "135317.202500", "135318.692500", "135320.182500"],
      "ContentTime": ["134954.693000", "134954.697000", "134954.701000", "134954.710000", "134954.714000", "134954.717000", "134954.721000", "134954.727000", "134954.731000", "134954.735000", "134954.739000", "134954.742000", "134954.746000", "134954.749000", "134954.753000", "134954.756000", "134954.759000", "134954.763000", "134954.766000", "134954.770000", "134954.773000", "134954.777000", "135014.653000", "135014.657000", "135014.660000", "135014.686000", "135014.689000", "135014.692000", "135014.696000", "135014.705000", "135014.708000", "135014.712000", "135014.715000", "135014.719000", "135014.722000", "135014.725000", "135014.729000", "135014.732000", "135014.736000", "135014.739000", "135014.743000", "135014.746000", "135014.749000", "135034.653000", "135034.657000", "135034.660000", "135034.664000", "135034.667000", "135034.671000", "135034.674000", "135034.678000", "135034.681000", "135034.685000", "135034.688000", "135034.691000", "135034.695000", "135034.698000", "135034.702000", "135034.705000", "135034.709000", "135034.712000", "135034.715000", "135034.719000", "135054.653000", "135054.657000", "135054.661000", "135054.664000", "135054.668000", "135054.671000", "135054.674000", "135054.678000", "135054.681000", "135054.685000", "135054.688000", "135054.692000", "135054.695000", "135054.699000", "135054.702000", "135054.705000", "135054.709000", "135054.712000", "135054.716000", "135054.719000", "135114.653000", "135114.657000", "135114.661000", "135114.664000", "135114.668000", "135114.671000", "135114.675000", "135114.678000", "135114.681000", "135114.685000", "135114.688000", "135114.692000", "135114.695000", "135114.699000", "135114.702000", "135114.705000", "135114.709000", "135114.712000", "135114.716000", "135114.719000", "135154.654000", "135154.658000", "135154.662000", "135154.665000", "135154.669000", "135154.672000", "135154.675000", "135154.679000", "135154.682000", "135154.686000", "135154.689000", "135154.693000", "135154.696000", "135154.700000", "135154.703000", "135154.707000", "135154.710000", "135154.714000", "135154.717000", "135154.721000", "135154.724000", "135154.728000", "135154.742000", "135154.745000", "135154.749000", "135154.755000", "135154.759000", "135234.653000", "135234.657000", "135234.660000", "135234.664000", "135234.668000", "135234.671000", "135234.674000", "135234.678000", "135234.681000", "135234.685000", "135234.688000", "135234.692000", "135234.695000", "135234.699000", "135234.702000", "135234.706000", "135234.709000", "135234.713000", "135234.716000", "135234.720000", "135234.723000", "135234.726000", "135234.730000", "135234.733000", "135234.737000", "135234.740000", "135234.743000", "135314.653000", "135314.657000", "135314.661000", "135314.664000", "135314.667000", "135314.671000", "135314.674000", "135314.678000", "135314.681000", "135314.685000", "135314.688000", "135314.692000", "135314.695000", "135314.704000", "135314.707000", "135314.711000", "135314.714000", "135314.718000", "135314.721000", "135314.725000", "135314.728000", "135314.732000", "135314.735000", "135314.738000", "135314.742000", "135314.747000", "135314.751000", "135322.738000", "135322.742000", "135322.745000", "135322.762000", "135322.766000", "135322.769000"],
      "InstanceCreationTime": ["134954.693000", "134954.697000", "134954.701000", "134954.710000", "134954.714000", "134954.717000", "134954.721000", "134954.727000", "134954.731000", "134954.735000", "134954.739000", "134954.742000", "134954.746000", "134954.749000", "134954.753000", "134954.756000", "134954.759000", "134954.763000", "134954.766000", "134954.770000", "134954.773000", "134954.777000", "135014.653000", "135014.657000", "135014.660000", "135014.686000", "135014.689000", "135014.692000", "135014.696000", "135014.705000", "135014.708000", "135014.712000", "135014.715000", "135014.719000", "135014.722000", "135014.725000", "135014.729000", "135014.732000", "135014.736000", "135014.739000", "135014.743000", "135014.746000", "135014.749000", "135034.653000", "135034.657000", "135034.660000", "135034.664000", "135034.667000", "135034.671000", "135034.674000", "135034.678000", "135034.681000", "135034.685000", "135034.688000", "135034.691000", "135034.695000", "135034.698000", "135034.702000", "135034.705000", "135034.709000", "135034.712000", "135034.715000", "135034.719000", "135054.653000", "135054.657000", "135054.661000", "135054.664000", "135054.668000", "135054.671000", "135054.674000", "135054.678000", "135054.681000", "135054.685000", "135054.688000", "135054.692000", "135054.695000", "135054.699000", "135054.702000", "135054.705000", "135054.709000", "135054.712000", "135054.716000", "135054.719000", "135114.653000", "135114.657000", "135114.661000", "135114.664000", "135114.668000", "135114.671000", "135114.675000", "135114.678000", "135114.681000", "135114.685000", "135114.688000", "135114.692000", "135114.695000", "135114.699000", "135114.702000", "135114.705000", "135114.709000", "135114.712000", "135114.716000", "135114.719000", "135154.654000", "135154.658000", "135154.662000", "135154.665000", "135154.669000", "135154.672000", "135154.675000", "135154.679000", "135154.682000", "135154.686000", "135154.689000", "135154.693000", "135154.696000", "135154.700000", "135154.703000", "135154.707000", "135154.710000", "135154.714000", "135154.717000", "135154.721000", "135154.724000", "135154.728000", "135154.742000", "135154.745000", "135154.749000", "135154.755000", "135154.759000", "135234.653000", "135234.657000", "135234.660000", "135234.664000", "135234.668000", "135234.671000", "135234.674000", "135234.678000", "135234.681000", "135234.685000", "135234.688000", "135234.692000", "135234.695000", "135234.699000", "135234.702000", "135234.706000", "135234.709000", "135234.713000", "135234.716000", "135234.720000", "135234.723000", "135234.726000", "135234.730000", "135234.733000", "135234.737000", "135234.740000", "135234.743000", "135314.653000", "135314.657000", "135314.661000", "135314.664000", "135314.667000", "135314.671000", "135314.674000", "135314.678000", "135314.681000", "135314.685000", "135314.688000", "135314.692000", "135314.695000", "135314.704000", "135314.707000", "135314.711000", "135314.714000", "135314.718000", "135314.721000", "135314.725000", "135314.728000", "135314.732000", "135314.735000", "135314.738000", "135314.742000", "135314.747000", "135314.751000", "135322.738000", "135322.742000", "135322.745000", "135322.762000", "135322.766000", "135322.769000"],
      "InstanceNumber": [1, 2, 3, 4, 5, 6, 7, 8, 9, 10, 11, 12, 13, 14, 15, 16, 17, 18, 19, 20, 21, 22, 23, 24, 25, 26, 27, 28, 29, 30, 31, 32, 33, 34, 35, 36, 37, 38, 39, 40, 41, 42, 43, 44, 45, 46, 47, 48, 49, 50, 51, 52, 53, 54, 55, 56, 57, 58, 59, 60, 61, 62, 63, 64, 65, 66, 67, 68, 69, 70, 71, 72, 73, 74, 75, 76, 77, 78, 79, 80, 81, 82, 83, 84, 85, 86, 87, 88, 89, 90, 91, 92, 93, 94, 95, 96, 97, 98, 99, 100, 101, 102, 103, 104, 105, 106, 107, 108, 109, 110, 111, 112, 113, 114, 115, 116, 117, 118, 119, 120, 121, 122, 123, 124, 125, 126, 127, 128, 129, 130, 131, 132, 133, 134, 135, 136, 137, 138, 139, 140, 141, 142, 143, 144, 145, 146, 147, 148, 149, 150, 151, 152, 153, 154, 155, 156, 157, 158, 159, 160, 161, 162, 163, 164, 165, 166, 167, 168, 169, 170, 171, 172, 173, 174, 175, 176, 177, 178, 179, 180, 181, 182, 183, 184, 185, 186, 187, 188, 189, 190],
      "LargestImagePixelValue": [42159, 41390, 40455, 40507, 39466, 39291, 39145, 39248, 39395, 38971, 39466, 39040, 39003, 39254, 39875, 40036, 39714, 39562, 39184, 39388, 39147, 39567, 39719, 39045, 39270, 39253, 39534, 39473, 39645, 39603, 39481, 39151, 39360, 39254, 39229, 39280, 39350, 39626, 39138, 39093, 39195, 39639, 39048, 39076, 39545, 39086, 39148, 38987, 39240, 38835, 39739, 39497, 39064, 39120, 39346, 39304, 39375, 39583, 39400, 39112, 39385, 39250, 39604, 39965, 39449, 39465, 39192, 39847, 39997, 40294, 40204, 39703, 40046, 40308, 39892, 39596, 39781, 39323, 39275, 39053, 38996, 38773, 39148, 39371, 39613, 38945, 39153, 39473, 39199, 38728, 38658, 39028, 39151, 39145, 39552, 39039, 39017, 39043, 38965, 39230, 39331, 38817, 39193, 39355, 38989, 39538, 39324, 39370, 39177, 39119, 39014, 39048, 39230, 39427, 39717, 39345, 38986, 38852, 39153, 39454, 39381, 38882, 39061, 39110, 39298, 39031, 39094, 38830, 39460, 39370, 39715, 39990, 39866, 39370, 39427, 39713, 40235, 40016, 40091, 39472, 39755, 39403, 39611, 39331, 39591, 39137, 39597, 39541, 39467, 39636, 39276, 39124, 38348, 38451, 39297, 39729, 40204, 39562, 39435, 39357, 38727, 39142, 38978, 39287, 39338, 39134, 39882, 39627, 39422, 39303, 39247, 38970, 39444, 39228, 39085, 39217, 38870, 38811, 39022, 39149, 39309, 39280, 39387, 39448, 38748, 38959, 38594, 38682, 38956, 38997],
      "WindowCenter": [10094.0, 10071.0, 10072.0, 10080.0, 10078.0, 10070.0, 10052.0, 10043.0, 10057.0, 10077.0, 10093.0, 10081.0, 10061.0, 10050.0, 10055.0, 10078.0, 10075.0, 10067.0, 10036.0, 10032.0, 10040.0, 10063.0, 10066.0, 10054.0, 10049.0, 10058.0, 10073.0, 10075.0, 10073.0, 10066.0, 10067.0, 10069.0, 10070.0, 10076.0, 10075.0, 10081.0, 10082.0, 10089.0, 10085.0, 10086.0, 10078.0, 10060.0, 10052.0, 10058.0, 10066.0, 10060.0, 10060.0, 10055.0, 10058.0, 10044.0, 10046.0, 10048.0, 10057.0, 10053.0, 10034.0, 10015.0, 10014.0, 10029.0, 10035.0, 10057.0, 10051.0, 10025.0, 10020.0, 10033.0, 10039.0, 10026.0, 9999.0, 9984.0, 9974.0, 9988.0, 10005.0, 10009.0, 10017.0, 10032.0, 10036.0, 10037.0, 10044.0, 10048.0, 10066.0, 10076.0, 10072.0, 10046.0, 10049.0, 10057.0, 10071.0, 10066.0, 10059.0, 10058.0, 10059.0, 10061.0, 10063.0, 10060.0, 10051.0, 10050.0, 10071.0, 10075.0, 10076.0, 10059.0, 10056.0, 10055.0, 10073.0, 10071.0, 10072.0, 10052.0, 10042.0, 10046.0, 10064.0, 10065.0, 10059.0, 10043.0, 10043.0, 10048.0, 10048.0, 10046.0, 10045.0, 10051.0, 10050.0, 10036.0, 10041.0, 10055.0, 10063.0, 10052.0, 10043.0, 10032.0, 10032.0, 10022.0, 10040.0, 10035.0, 10009.0, 9989.0, 9993.0, 10023.0, 10026.0, 10013.0, 9987.0, 9975.0, 9995.0, 10008.0, 10024.0, 10013.0, 10003.0, 9994.0, 10025.0, 10046.0, 10055.0, 10034.0, 10016.0, 10009.0, 10025.0, 10062.0, 10083.0, 10070.0, 10037.0, 10029.0, 9999.0, 9978.0, 10012.0, 10043.0, 10050.0, 10049.0, 10027.0, 10018.0, 10031.0, 10056.0, 10056.0, 10042.0, 10053.0, 10048.0, 10048.0, 10041.0, 10049.0, 10048.0, 10047.0, 10056.0, 10059.0, 10059.0, 10052.0, 10044.0, 10049.0, 10041.0, 10040.0, 10040.0, 10055.0, 10057.0, 10052.0, 10049.0, 10049.0, 10053.0, 10052.0, 10027.0],
      "WindowWidth": [21479.0, 21405.0, 21400.0, 21415.0, 21412.0, 21389.0, 21345.0, 21323.0, 21353.0, 21400.0, 21435.0, 21410.0, 21363.0, 21335.0, 21346.0, 21397.0, 21394.0, 21375.0, 21307.0, 21297.0, 21314.0, 21365.0, 21375.0, 21348.0, 21332.0, 21354.0, 21388.0, 21393.0, 21385.0, 21373.0, 21375.0, 21382.0, 21384.0, 21395.0, 21391.0, 21406.0, 21407.0, 21423.0, 21418.0, 21418.0, 21400.0, 21358.0, 21342.0, 21354.0, 21374.0, 21361.0, 21360.0, 21353.0, 21353.0, 21324.0, 21323.0, 21332.0, 21353.0, 21345.0, 21301.0, 21257.0, 21255.0, 21287.0, 21300.0, 21355.0, 21339.0, 21281.0, 21264.0, 21292.0, 21312.0, 21283.0, 21220.0, 21179.0, 21156.0, 21190.0, 21229.0, 21241.0, 21258.0, 21291.0, 21302.0, 21305.0, 21319.0, 21330.0, 21374.0, 21397.0, 21392.0, 21331.0, 21332.0, 21351.0, 21382.0, 21373.0, 21359.0, 21355.0, 21358.0, 21366.0, 21370.0, 21360.0, 21338.0, 21337.0, 21381.0, 21393.0, 21396.0, 21356.0, 21347.0, 21345.0, 21388.0, 21388.0, 21388.0, 21341.0, 21318.0, 21324.0, 21367.0, 21370.0, 21355.0, 21321.0, 21322.0, 21330.0, 21331.0, 21323.0, 21321.0, 21340.0, 21335.0, 21304.0, 21312.0, 21344.0, 21361.0, 21342.0, 21320.0, 21292.0, 21293.0, 21272.0, 21314.0, 21304.0, 21240.0, 21191.0, 21198.0, 21264.0, 21277.0, 21249.0, 21189.0, 21156.0, 21200.0, 21236.0, 21274.0, 21250.0, 21227.0, 21206.0, 21277.0, 21327.0, 21346.0, 21299.0, 21257.0, 21239.0, 21274.0, 21361.0, 21414.0, 21383.0, 21308.0, 21288.0, 21217.0, 21167.0, 21241.0, 21316.0, 21339.0, 21334.0, 21287.0, 21267.0, 21292.0, 21351.0, 21350.0, 21317.0, 21336.0, 21327.0, 21327.0, 21316.0, 21331.0, 21328.0, 21327.0, 21346.0, 21356.0, 21355.0, 21342.0, 21325.0, 21333.0, 21315.0, 21311.0, 21312.0, 21345.0, 21354.0, 21342.0, 21331.0, 21334.0, 21344.0, 21339.0, 21280.0]
    },
    "slices": {}
  }
}