{
  "AcquisitionMatrixPE": 104,
  "AcquisitionNumber": 1,
  "AcquisitionTime": "15:24:47.470000",
  "BandwidthPerPixelPhaseEncode": 17.17,
  "BaseResolution": 104,
  "BodyPartExamined": "BRAIN",
  "CoilString": "HC1-7;NC1_2",
  "ConsistencyInfo": "N4_VE11C_LATEST_20160120",
  "ConversionSoftware": "dcm2niix",
  "ConversionSoftwareVersion": "v1.0.20190902",
  "DerivedVendorReportedEchoSpacing": 0.000560011,
  "DeviceSerialNumber": "167006",
  "DwellTime": 2.1e-06,
  "EchoTime": 0.037,
  "EchoTrainLength": 104,
  "EffectiveEchoSpacing": 0.000560011,
  "FlipAngle": 52,
  "HeudiconvVersion": "0.10.0",
  "ImageComments": "Unaliased_MB4_PE3_LB",
  "ImageOrientationPatientDICOM": [0.998111, -0.0569482, 0.0230354, 0.061222, 0.95302, -0.296655],
  "ImageType": [
    "ORIGINAL",
    "PRIMARY",
    "M",
    "MB",
    "ND",
    "MOSAIC"
],
  "ImagingFrequency": 123.259,
  "InPlanePhaseEncodingDirectionDICOM": "COL",
  "InstitutionAddress": "Chemin_Queen-Mary_4565_Montreal_District_CA_H3W_1W5",
  "InstitutionName": "IUGM",
  "InstitutionalDepartmentName": "Department",
  "MRAcquisitionType": "2D",
  "MagneticFieldStrength": 3,
  "Manufacturer": "Siemens",
  "ManufacturersModelName": "Prisma_fit",
  "Modality": "MR",
  "MultibandAccelerationFactor": 4,
  "PartialFourier": 1,
  "PatientPosition": "HFS",
  "PercentPhaseFOV": 100,
  "PhaseEncodingDirection": "j",
  "PhaseEncodingSteps": 104,
  "PhaseResolution": 1,
  "PixelBandwidth": 2290,
  "ProcedureStepDescription": "memory_things",
  "ProtocolName": "func_task-things_run-2",
  "PulseSequenceDetails": "%CustomerSeq%_cmrr_mbep2d_bold",
  "ReceiveCoilActiveElements": "HC1-7;NC1,2",
  "ReceiveCoilName": "HeadNeck_64",
  "ReconMatrixPE": 104,
  "RepetitionTime": 1.49,
  "SAR": 0.0375606,
  "ScanOptions": "FS",
  "ScanningSequence": "EP",
  "SequenceName": "epfid2d1_104",
  "SequenceVariant": "SK_SS",
  "SeriesDescription": "func_task-things_run-2",
  "SeriesNumber": 13,
  "ShimSetting": [626, -7249, -8820, 595, -7, -214, -35, -39],
  "SliceThickness": 2,
  "SliceTiming": [0, 0.7825, 0.0975, 0.8825, 0.195, 0.98, 0.2925, 1.0775, 0.3925, 1.175, 0.49, 1.2725, 0.5875, 1.3725, 0.685, 0, 0.7825, 0.0975, 0.8825, 0.195, 0.98, 0.2925, 1.0775, 0.3925, 1.175, 0.49, 1.2725, 0.5875, 1.3725, 0.685, 0, 0.7825, 0.0975, 0.8825, 0.195, 0.98, 0.2925, 1.0775, 0.3925, 1.175, 0.49, 1.2725, 0.5875, 1.3725, 0.685, 0, 0.7825, 0.0975, 0.8825, 0.195, 0.98, 0.2925, 1.0775, 0.3925, 1.175, 0.49, 1.2725, 0.5875, 1.3725, 0.685],
  "SoftwareVersions": "syngo_MR_E11",
  "SpacingBetweenSlices": 2,
  "StationName": "MRC35049",
  "TaskName": "things",
  "TotalReadoutTime": 0.0576811,
  "TxRefAmp": 234.544,
  "WipMemBlock": "10a984b1-573f-403b-a63f-22984177d3d2||Sequence: R016 ve11c/master r/e634e98; Dec 19 2017 11:00:25 by eja",
  "dcmmeta_affine": [
    [-1.996222734451294, 0.12244396656751633, 0.010118401609361172, 100.73633575439453],
    [0.11389639973640442, 1.9060403108596802, -0.5950109362602234, -73.4000015258789],
    [0.04607079178094864, 0.5933109521865845, 1.9094133377075195, -63.21897506713867],
    [0.0, 0.0, 0.0, 1.0]
],
  "dcmmeta_reorient_transform": [
    [0.0, -1.0, 0.0, 103.0],
    [1.0, 0.0, 0.0, 0.0],
    [0.0, 0.0, 1.0, 0.0],
    [0.0, 0.0, 0.0, 1.0]
],
  "dcmmeta_shape": [104, 104, 60, 190],
  "dcmmeta_slice_dim": 2,
  "dcmmeta_version": 0.6,
  "global": {
    "const": {
      "AcquisitionMatrix": [104, 0, 0, 104],
      "AngioFlag": "N",
      "BitsAllocated": 16,
      "BitsStored": 16,
      "BodyPartExamined": "BRAIN",
      "Columns": 832,
      "EchoNumbers": 1,
      "EchoTime": 37.0,
      "EchoTrainLength": 104,
      "FlipAngle": 52.0,
      "HighBit": 15,
      "ImageOrientationPatient": [0.99811135310903, -0.056948198584, 0.02303539608748, 0.06122198366265, 0.95302014084084, -0.2966554902039],
      "ImagePositionPatient": [-884.54273487568, -775.26252116459, 197.0874861607],
      "ImageType": [
        "ORIGINAL",
        "PRIMARY",
        "M",
        "MB",
        "ND",
        "MOSAIC"
],
      "ImagedNucleus": "1H",
      "ImagingFrequency": 123.258874,
      "InPlanePhaseEncodingDirection": "COL",
      "MRAcquisitionType": "2D",
      "MagneticFieldStrength": 3.0,
      "Manufacturer": "SIEMENS",
      "ManufacturerModelName": "Prisma_fit",
      "Modality": "MR",
      "NumberOfAverages": 1.0,
      "NumberOfPhaseEncodingSteps": 104,
      "PercentPhaseFieldOfView": 100.0,
      "PercentSampling": 100.0,
      "PerformedProcedureStepStartTime": "142517.331000",
      "PhotometricInterpretation": "MONOCHROME2",
      "PixelBandwidth": 2290.0,
      "PixelRepresentation": 0,
      "PixelSpacing": [2.0, 2.0],
      "ProtocolName": "func_task-things_run-2",
      "RepetitionTime": 1490.0,
      "Rows": 832,
      "SAR": 0.0375605875372,
      "SamplesPerPixel": 1,
      "ScanOptions": "FS",
      "ScanningSequence": "EP",
      "SequenceName": "epfid2d1_104",
      "SequenceVariant": [
        "SK",
        "SS"
],
      "SeriesDescription": "func_task-things_run-2",
      "SeriesNumber": 13,
      "SeriesTime": "152609.597000",
      "SliceLocation": -38.009029157414,
      "SliceThickness": 2.0,
      "SmallestImagePixelValue": 0,
      "SoftwareVersions": "syngo MR E11",
      "SpacingBetweenSlices": 1.999999975914,
      "SpecificCharacterSet": "ISO_IR 100",
      "StudyID": "1",
      "StudyTime": "142517.193000",
      "TransmitCoilName": "Body",
      "VariableFlipAngleFlag": "N",
      "WindowCenterWidthExplanation": "Algo1",
      "dBdt": 0.0},
    "slices": {}
  },
  "time": {
    "samples": {
      "AcquisitionNumber": [1, 2, 3, 4, 5, 6, 7, 8, 9, 10, 11, 12, 13, 14, 15, 16, 17, 18, 19, 20, 21, 22, 23, 24, 25, 26, 27, 28, 29, 30, 31, 32, 33, 34, 35, 36, 37, 38, 39, 40, 41, 42, 43, 44, 45, 46, 47, 48, 49, 50, 51, 52, 53, 54, 55, 56, 57, 58, 59, 60, 61, 62, 63, 64, 65, 66, 67, 68, 69, 70, 71, 72, 73, 74, 75, 76, 77, 78, 79, 80, 81, 82, 83, 84, 85, 86, 87, 88, 89, 90, 91, 92, 93, 94, 95, 96, 97, 98, 99, 100, 101, 102, 103, 104, 105, 106, 107, 108, 109, 110, 111, 112, 113, 114, 115, 116, 117, 118, 119, 120, 121, 122, 123, 124, 125, 126, 127, 128, 129, 130, 131, 132, 133, 134, 135, 136, 137, 138, 139, 140, 141, 142, 143, 144, 145, 146, 147, 148, 149, 150, 151, 152, 153, 154, 155, 156, 157, 158, 159, 160, 161, 162, 163, 164, 165, 166, 167, 168, 169, 170, 171, 172, 173, 174, 175, 176, 177, 178, 179, 180, 181, 182, 183, 184, 185, 186, 187, 188, 189, 190],
      "AcquisitionTime": ["152447.470000", "152448.960000", "152450.450000", "152451.940000", "152453.430000", "152454.920000", "152456.410000", "152457.900000", "152459.390000", "152500.880000", "152502.370000", "152503.860000", "152505.350000", "152506.840000", "152508.330000", "152509.820000", "152511.310000", "152512.800000", "152514.290000", "152515.780000", "152517.270000", "152518.760000", "152520.250000", "152521.740000", "152523.230000", "152524.720000", "152526.210000", "152527.700000", "152529.190000", "152530.680000", "152532.170000", "152533.660000", "152535.150000", "152536.640000", "152538.130000", "152539.620000", "152541.110000", "152542.600000", "152544.090000", "152545.580000", "152547.070000", "152548.560000", "152550.050000", "152551.540000", "152553.030000", "152554.520000", "152556.010000", "152557.500000", "152558.990000", "152600.480000", "152601.970000", "152603.460000", "152604.950000", "152606.440000", "152607.930000", "152609.420000", "152610.910000", "152612.400000", "152613.890000", "152615.380000", "152616.870000", "152618.360000", "152619.850000", "152621.340000", "152622.830000", "152624.320000", "152625.810000", "152627.300000", "152628.790000", "152630.280000", "152631.770000", "152633.260000", "152634.750000", "152636.240000", "152637.730000", "152639.220000", "152640.710000", "152642.200000", "152643.690000", "152645.180000", "152646.670000", "152648.160000", "152649.650000", "152651.140000", "152652.630000", "152654.120000", "152655.610000", "152657.100000", "152658.590000", "152700.080000", "152701.570000", "152703.060000", "152704.550000", "152706.040000", "152707.530000", "152709.020000", "152710.510000", "152712.000000", "152713.490000", "152714.980000", "152716.470000", "152717.960000", "152719.450000", "152720.940000", "152722.430000", "152723.920000", "152725.410000", "152726.900000", "152728.390000", "152729.880000", "152731.370000", "152732.860000", "152734.350000", "152735.840000", "152737.330000", "152738.820000", "152740.310000", "152741.800000", "152743.290000", "152744.780000", "152746.270000", "152747.760000", "152749.250000", "152750.740000", "152752.230000", "152753.720000", "152755.210000", "152756.700000", "152758.190000", "152759.680000", "152801.170000", "152802.660000", "152804.150000", "152805.640000", "152807.130000", "152808.620000", "152810.110000", "152811.600000", "152813.090000", "152814.580000", "152816.070000", "152817.560000", "152819.050000", "152820.540000", "152822.030000", "152823.520000", "152825.010000", "152826.500000", "152827.990000", "152829.480000", "152830.970000", "152832.460000", "152833.950000", "152835.440000", "152836.930000", "152838.420000", "152839.910000", "152841.400000", "152842.890000", "152844.380000", "152845.870000", "152847.360000", "152848.850000", "152850.340000", "152851.830000", "152853.320000", "152854.810000", "152856.300000", "152857.790000", "152859.280000", "152900.770000", "152902.260000", "152903.750000", "152905.240000", "152906.730000", "152908.220000", "152909.710000", "152911.200000", "152912.690000", "152914.180000", "152915.670000", "152917.160000", "152918.650000", "152920.140000", "152921.630000", "152923.120000", "152924.610000", "152926.100000", "152927.590000", "152929.080000"],
      "ContentTime": ["152609.601000", "152609.604000", "152609.608000", "152609.611000", "152609.614000", "152609.618000", "152609.621000", "152609.624000", "152609.628000", "152609.631000", "152609.634000", "152609.638000", "152609.642000", "152609.645000", "152609.649000", "152609.652000", "152609.655000", "152609.659000", "152609.662000", "152609.675000", "152609.678000", "152609.681000", "152609.684000", "152609.688000", "152609.691000", "152609.695000", "152609.698000", "152629.561000", "152629.565000", "152629.568000", "152629.571000", "152629.575000", "152629.578000", "152629.581000", "152629.585000", "152629.588000", "152629.591000", "152629.595000", "152629.600000", "152629.603000", "152629.606000", "152629.610000", "152629.614000", "152629.618000", "152629.621000", "152629.625000", "152629.629000", "152649.561000", "152649.565000", "152649.568000", "152649.571000", "152649.575000", "152649.578000", "152649.582000", "152649.585000", "152649.593000", "152649.597000", "152649.600000", "152649.603000", "152649.607000", "152649.610000", "152649.613000", "152649.617000", "152649.620000", "152649.623000", "152649.626000", "152649.630000", "152649.633000", "152709.562000", "152709.566000", "152709.569000", "152709.572000", "152709.576000", "152709.579000", "152709.582000", "152709.594000", "152709.597000", "152709.600000", "152709.604000", "152709.607000", "152709.610000", "152709.613000", "152709.617000", "152709.620000", "152709.623000", "152709.627000", "152709.630000", "152709.633000", "152729.562000", "152729.566000", "152729.569000", "152729.572000", "152729.576000", "152729.579000", "152729.582000", "152729.586000", "152729.589000", "152729.592000", "152729.596000", "152729.599000", "152729.602000", "152729.606000", "152729.609000", "152729.612000", "152729.615000", "152729.619000", "152729.622000", "152729.626000", "152809.562000", "152809.566000", "152809.569000", "152809.572000", "152809.581000", "152809.584000", "152809.587000", "152809.591000", "152809.594000", "152809.597000", "152809.601000", "152809.604000", "152809.607000", "152809.610000", "152809.614000", "152809.617000", "152809.633000", "152809.636000", "152809.639000", "152809.643000", "152809.646000", "152809.649000", "152809.653000", "152809.656000", "152809.659000", "152809.663000", "152809.666000", "152849.561000", "152849.565000", "152849.568000", "152849.571000", "152849.575000", "152849.578000", "152849.581000", "152849.585000", "152849.588000", "152849.591000", "152849.595000", "152849.598000", "152849.601000", "152849.605000", "152849.608000", "152849.611000", "152849.615000", "152849.618000", "152849.621000", "152849.625000", "152849.628000", "152849.631000", "152849.635000", "152849.638000", "152849.641000", "152849.645000", "152849.648000", "152929.562000", "152929.566000", "152929.569000", "152929.573000", "152929.576000", "152929.579000", "152929.583000", "152929.586000", "152929.589000", "152929.593000", "152929.596000", "152929.599000", "152929.603000", "152929.606000", "152929.609000", "152929.613000", "152929.616000", "152929.619000", "152929.623000", "152929.626000", "152929.629000", "152929.632000", "152929.636000", "152929.639000", "152929.642000", "152929.646000", "152929.649000", "152930.991000"],
      "InstanceCreationTime": ["152609.601000", "152609.604000", "152609.608000", "152609.611000", "152609.614000", "152609.618000", "152609.621000", "152609.624000", "152609.628000", "152609.631000", "152609.634000", "152609.638000", "152609.642000", "152609.645000", "152609.649000", "152609.652000", "152609.655000", "152609.659000", "152609.662000", "152609.675000", "152609.678000", "152609.681000", "152609.684000", "152609.688000", "152609.691000", "152609.695000", "152609.698000", "152629.561000", "152629.565000", "152629.568000", "152629.571000", "152629.575000", "152629.578000", "152629.581000", "152629.585000", "152629.588000", "152629.591000", "152629.595000", "152629.600000", "152629.603000", "152629.606000", "152629.610000", "152629.614000", "152629.618000", "152629.621000", "152629.625000", "152629.629000", "152649.561000", "152649.565000", "152649.568000", "152649.571000", "152649.575000", "152649.578000", "152649.582000", "152649.585000", "152649.593000", "152649.597000", "152649.600000", "152649.603000", "152649.607000", "152649.610000", "152649.613000", "152649.617000", "152649.620000", "152649.623000", "152649.626000", "152649.630000", "152649.633000", "152709.562000", "152709.566000", "152709.569000", "152709.572000", "152709.576000", "152709.579000", "152709.582000", "152709.594000", "152709.597000", "152709.600000", "152709.604000", "152709.607000", "152709.610000", "152709.613000", "152709.617000", "152709.620000", "152709.623000", "152709.627000", "152709.630000", "152709.633000", "152729.562000", "152729.566000", "152729.569000", "152729.572000", "152729.576000", "152729.579000", "152729.582000", "152729.586000", "152729.589000", "152729.592000", "152729.596000", "152729.599000", "152729.602000", "152729.606000", "152729.609000", "152729.612000", "152729.615000", "152729.619000", "152729.622000", "152729.626000", "152809.562000", "152809.566000", "152809.569000", "152809.572000", "152809.581000", "152809.584000", "152809.587000", "152809.591000", "152809.594000", "152809.597000", "152809.601000", "152809.604000", "152809.607000", "152809.610000", "152809.614000", "152809.617000", "152809.633000", "152809.636000", "152809.639000", "152809.643000", "152809.646000", "152809.649000", "152809.653000", "152809.656000", "152809.659000", "152809.663000", "152809.666000", "152849.561000", "152849.565000", "152849.568000", "152849.571000", "152849.575000", "152849.578000", "152849.581000", "152849.585000", "152849.588000", "152849.591000", "152849.595000", "152849.598000", "152849.601000", "152849.605000", "152849.608000", "152849.611000", "152849.615000", "152849.618000", "152849.621000", "152849.625000", "152849.628000", "152849.631000", "152849.635000", "152849.638000", "152849.641000", "152849.645000", "152849.648000", "152929.562000", "152929.566000", "152929.569000", "152929.573000", "152929.576000", "152929.579000", "152929.583000", "152929.586000", "152929.589000", "152929.593000", "152929.596000", "152929.599000", "152929.603000", "152929.606000", "152929.609000", "152929.613000", "152929.616000", "152929.619000", "152929.623000", "152929.626000", "152929.629000", "152929.632000", "152929.636000", "152929.639000", "152929.642000", "152929.646000", "152929.649000", "152930.991000"],
      "InstanceNumber": [1, 2, 3, 4, 5, 6, 7, 8, 9, 10, 11, 12, 13, 14, 15, 16, 17, 18, 19, 20, 21, 22, 23, 24, 25, 26, 27, 28, 29, 30, 31, 32, 33, 34, 35, 36, 37, 38, 39, 40, 41, 42, 43, 44, 45, 46, 47, 48, 49, 50, 51, 52, 53, 54, 55, 56, 57, 58, 59, 60, 61, 62, 63, 64, 65, 66, 67, 68, 69, 70, 71, 72, 73, 74, 75, 76, 77, 78, 79, 80, 81, 82, 83, 84, 85, 86, 87, 88, 89, 90, 91, 92, 93, 94, 95, 96, 97, 98, 99, 100, 101, 102, 103, 104, 105, 106, 107, 108, 109, 110, 111, 112, 113, 114, 115, 116, 117, 118, 119, 120, 121, 122, 123, 124, 125, 126, 127, 128, 129, 130, 131, 132, 133, 134, 135, 136, 137, 138, 139, 140, 141, 142, 143, 144, 145, 146, 147, 148, 149, 150, 151, 152, 153, 154, 155, 156, 157, 158, 159, 160, 161, 162, 163, 164, 165, 166, 167, 168, 169, 170, 171, 172, 173, 174, 175, 176, 177, 178, 179, 180, 181, 182, 183, 184, 185, 186, 187, 188, 189, 190],
      "LargestImagePixelValue": [43113, 41686, 42225, 42234, 39586, 38825, 38871, 39478, 39341, 39157, 39448, 39823, 38688, 39177, 39120, 38512, 38305, 39025, 40447, 40556, 39191, 38581, 39079, 39512, 40117, 40543, 39630, 39342, 39523, 39838, 39562, 39316, 39723, 38398, 39218, 39655, 38823, 39473, 39489, 39372, 39800, 39205, 38773, 39030, 39484, 38736, 39548, 38775, 39477, 40362, 38797, 37842, 38554, 39153, 38800, 38806, 39220, 38538, 38860, 38896, 38142, 38283, 38459, 37948, 39121, 38595, 39284, 40371, 39302, 38823, 38384, 38768, 38280, 38436, 38817, 38670, 38969, 39255, 38643, 39155, 38983, 37998, 38345, 38876, 38765, 39210, 39110, 39294, 39850, 39648, 39077, 38130, 38917, 38773, 39237, 38561, 38722, 39294, 38869, 39024, 39511, 39151, 38542, 38393, 38576, 39995, 38974, 38689, 39289, 39621, 38686, 38247, 40403, 37954, 37764, 38158, 39182, 38168, 38024, 37897, 39100, 38191, 38194, 38416, 38209, 38496, 38974, 38600, 38682, 39608, 39076, 37999, 38761, 39007, 37727, 38364, 39001, 38529, 38719, 38747, 38229, 38711, 38405, 38096, 39095, 38073, 38157, 38049, 38000, 38339, 38033, 38042, 38442, 39506, 37910, 37851, 37745, 37755, 38603, 38379, 38343, 37908, 39305, 38872, 39590, 38857, 38083, 38063, 39765, 38805, 38102, 37957, 38084, 38120, 37979, 38269, 39024, 38092, 38106, 38164, 38419, 38305, 37659, 38366, 38719, 39182, 39163, 38511, 39039, 38877],
      "WindowCenter": [10339.0, 10278.0, 10273.0, 10284.0, 10276.0, 10258.0, 10233.0, 10215.0, 10195.0, 10172.0, 10160.0, 10163.0, 10154.0, 10163.0, 10168.0, 10169.0, 10179.0, 10185.0, 10189.0, 10209.0, 10232.0, 10222.0, 10189.0, 10177.0, 10180.0, 10192.0, 10192.0, 10187.0, 10186.0, 10183.0, 10185.0, 10194.0, 10201.0, 10187.0, 10184.0, 10205.0, 10204.0, 10218.0, 10217.0, 10209.0, 10209.0, 10209.0, 10204.0, 10203.0, 10202.0, 10188.0, 10198.0, 10194.0, 10215.0, 10242.0, 10235.0, 10201.0, 10182.0, 10172.0, 10168.0, 10167.0, 10178.0, 10172.0, 10170.0, 10191.0, 10167.0, 10156.0, 10146.0, 10147.0, 10173.0, 10177.0, 10197.0, 10212.0, 10215.0, 10213.0, 10197.0, 10193.0, 10186.0, 10188.0, 10196.0, 10195.0, 10185.0, 10189.0, 10179.0, 10185.0, 10186.0, 10186.0, 10173.0, 10173.0, 10170.0, 10181.0, 10183.0, 10189.0, 10210.0, 10212.0, 10202.0, 10175.0, 10170.0, 10169.0, 10179.0, 10191.0, 10200.0, 10200.0, 10180.0, 10177.0, 10197.0, 10215.0, 10221.0, 10205.0, 10202.0, 10206.0, 10177.0, 10168.0, 10159.0, 10162.0, 10177.0, 10204.0, 10211.0, 10161.0, 10153.0, 10144.0, 10146.0, 10128.0, 10130.0, 10123.0, 10121.0, 10110.0, 10139.0, 10195.0, 10208.0, 10177.0, 10153.0, 10142.0, 10151.0, 10170.0, 10178.0, 10203.0, 10212.0, 10188.0, 10167.0, 10170.0, 10184.0, 10184.0, 10185.0, 10178.0, 10163.0, 10167.0, 10176.0, 10170.0, 10175.0, 10169.0, 10177.0, 10172.0, 10162.0, 10168.0, 10168.0, 10168.0, 10172.0, 10204.0, 10207.0, 10200.0, 10167.0, 10152.0, 10154.0, 10139.0, 10126.0, 10119.0, 10163.0, 10204.0, 10197.0, 10136.0, 10123.0, 10141.0, 10175.0, 10167.0, 10121.0, 10084.0, 10074.0, 10088.0, 10104.0, 10126.0, 10148.0, 10135.0, 10137.0, 10152.0, 10141.0, 10117.0, 10102.0, 10109.0, 10130.0, 10146.0, 10143.0, 10139.0, 10157.0, 10160.0],
      "WindowWidth": [22348.0, 22174.0, 22136.0, 22146.0, 22131.0, 22082.0, 22018.0, 21973.0, 21926.0, 21876.0, 21848.0, 21848.0, 21837.0, 21858.0, 21869.0, 21870.0, 21894.0, 21906.0, 21913.0, 21954.0, 22010.0, 21991.0, 21915.0, 21884.0, 21884.0, 21908.0, 21916.0, 21907.0, 21905.0, 21897.0, 21904.0, 21926.0, 21942.0, 21915.0, 21904.0, 21944.0, 21948.0, 21976.0, 21975.0, 21958.0, 21958.0, 21956.0, 21951.0, 21949.0, 21942.0, 21911.0, 21930.0, 21924.0, 21971.0, 22028.0, 22020.0, 21950.0, 21901.0, 21878.0, 21869.0, 21867.0, 21885.0, 21877.0, 21871.0, 21914.0, 21868.0, 21843.0, 21819.0, 21822.0, 21876.0, 21889.0, 21929.0, 21963.0, 21971.0, 21969.0, 21937.0, 21921.0, 21908.0, 21916.0, 21930.0, 21927.0, 21906.0, 21911.0, 21893.0, 21906.0, 21907.0, 21909.0, 21883.0, 21880.0, 21871.0, 21893.0, 21899.0, 21909.0, 21955.0, 21961.0, 21940.0, 21885.0, 21871.0, 21869.0, 21889.0, 21916.0, 21935.0, 21933.0, 21894.0, 21888.0, 21933.0, 21973.0, 21991.0, 21951.0, 21941.0, 21947.0, 21885.0, 21862.0, 21838.0, 21846.0, 21885.0, 21949.0, 21960.0, 21850.0, 21829.0, 21806.0, 21809.0, 21773.0, 21777.0, 21763.0, 21754.0, 21733.0, 21799.0, 21924.0, 21956.0, 21885.0, 21825.0, 21800.0, 21822.0, 21863.0, 21884.0, 21945.0, 21962.0, 21907.0, 21864.0, 21869.0, 21900.0, 21898.0, 21901.0, 21885.0, 21853.0, 21861.0, 21880.0, 21869.0, 21879.0, 21868.0, 21884.0, 21876.0, 21852.0, 21864.0, 21863.0, 21870.0, 21872.0, 21940.0, 21958.0, 21940.0, 21865.0, 21824.0, 21827.0, 21800.0, 21771.0, 21757.0, 21849.0, 21946.0, 21930.0, 21788.0, 21756.0, 21793.0, 21870.0, 21860.0, 21758.0, 21672.0, 21647.0, 21678.0, 21714.0, 21776.0, 21821.0, 21785.0, 21789.0, 21825.0, 21801.0, 21744.0, 21711.0, 21723.0, 21767.0, 21804.0, 21801.0, 21794.0, 21831.0, 21839.0]
    },
    "slices": {}
  }
}