{
  "AcquisitionMatrixPE": 104,
  "AcquisitionNumber": 1,
  "AcquisitionTime": "15:44:11.052500",
  "BandwidthPerPixelPhaseEncode": 17.17,
  "BaseResolution": 104,
  "BodyPartExamined": "BRAIN",
  "CoilString": "HC1-7;NC1_2",
  "ConsistencyInfo": "N4_VE11C_LATEST_20160120",
  "ConversionSoftware": "dcm2niix",
  "ConversionSoftwareVersion": "v1.0.20190902",
  "DerivedVendorReportedEchoSpacing": 0.000560011,
  "DeviceSerialNumber": "167006",
  "DwellTime": 2.1e-06,
  "EchoTime": 0.037,
  "EchoTrainLength": 104,
  "EffectiveEchoSpacing": 0.000560011,
  "FlipAngle": 52,
  "HeudiconvVersion": "0.10.0",
  "ImageComments": "Unaliased_MB4_PE3_LB",
  "ImageOrientationPatientDICOM": [0.998111, -0.0569482, 0.0230354, 0.061222, 0.95302, -0.296655],
  "ImageType": [
    "ORIGINAL",
    "PRIMARY",
    "M",
    "MB",
    "ND",
    "MOSAIC"
],
  "ImagingFrequency": 123.259,
  "InPlanePhaseEncodingDirectionDICOM": "COL",
  "InstitutionAddress": "Chemin_Queen-Mary_4565_Montreal_District_CA_H3W_1W5",
  "InstitutionName": "IUGM",
  "InstitutionalDepartmentName": "Department",
  "MRAcquisitionType": "2D",
  "MagneticFieldStrength": 3,
  "Manufacturer": "Siemens",
  "ManufacturersModelName": "Prisma_fit",
  "Modality": "MR",
  "MultibandAccelerationFactor": 4,
  "PartialFourier": 1,
  "PatientPosition": "HFS",
  "PercentPhaseFOV": 100,
  "PhaseEncodingDirection": "j",
  "PhaseEncodingSteps": 104,
  "PhaseResolution": 1,
  "PixelBandwidth": 2290,
  "ProcedureStepDescription": "memory_things",
  "ProtocolName": "func_task-things_run-5",
  "PulseSequenceDetails": "%CustomerSeq%_cmrr_mbep2d_bold",
  "ReceiveCoilActiveElements": "HC1-7;NC1,2",
  "ReceiveCoilName": "HeadNeck_64",
  "ReconMatrixPE": 104,
  "RepetitionTime": 1.49,
  "SAR": 0.0375606,
  "ScanOptions": "FS",
  "ScanningSequence": "EP",
  "SequenceName": "epfid2d1_104",
  "SequenceVariant": "SK_SS",
  "SeriesDescription": "func_task-things_run-5",
  "SeriesNumber": 22,
  "ShimSetting": [626, -7249, -8820, 595, -7, -214, -35, -39],
  "SliceThickness": 2,
  "SliceTiming": [0, 0.7825, 0.0975, 0.8825, 0.195, 0.98, 0.2925, 1.0775, 0.3925, 1.175, 0.49, 1.2725, 0.5875, 1.3725, 0.685, 0, 0.7825, 0.0975, 0.8825, 0.195, 0.98, 0.2925, 1.0775, 0.3925, 1.175, 0.49, 1.2725, 0.5875, 1.3725, 0.685, 0, 0.7825, 0.0975, 0.8825, 0.195, 0.98, 0.2925, 1.0775, 0.3925, 1.175, 0.49, 1.2725, 0.5875, 1.3725, 0.685, 0, 0.7825, 0.0975, 0.8825, 0.195, 0.98, 0.2925, 1.0775, 0.3925, 1.175, 0.49, 1.2725, 0.5875, 1.3725, 0.685],
  "SoftwareVersions": "syngo_MR_E11",
  "SpacingBetweenSlices": 2,
  "StationName": "MRC35049",
  "TaskName": "things",
  "TotalReadoutTime": 0.0576811,
  "TxRefAmp": 234.544,
  "WipMemBlock": "d891ff9d-7dca-46be-86b1-bf2c6c85ede2||Sequence: R016 ve11c/master r/e634e98; Dec 19 2017 11:00:25 by eja",
  "dcmmeta_affine": [
    [-1.996222734451294, 0.12244396656751633, 0.010118401609361172, 100.73633575439453],
    [0.11389639973640442, 1.9060403108596802, -0.5950109362602234, -73.4000015258789],
    [0.04607079178094864, 0.5933109521865845, 1.9094133377075195, -63.21897506713867],
    [0.0, 0.0, 0.0, 1.0]
],
  "dcmmeta_reorient_transform": [
    [0.0, -1.0, 0.0, 103.0],
    [1.0, 0.0, 0.0, 0.0],
    [0.0, 0.0, 1.0, 0.0],
    [0.0, 0.0, 0.0, 1.0]
],
  "dcmmeta_shape": [104, 104, 60, 190],
  "dcmmeta_slice_dim": 2,
  "dcmmeta_version": 0.6,
  "global": {
    "const": {
      "AcquisitionMatrix": [104, 0, 0, 104],
      "AngioFlag": "N",
      "BitsAllocated": 16,
      "BitsStored": 16,
      "BodyPartExamined": "BRAIN",
      "Columns": 832,
      "EchoNumbers": 1,
      "EchoTime": 37.0,
      "EchoTrainLength": 104,
      "FlipAngle": 52.0,
      "HighBit": 15,
      "ImageOrientationPatient": [0.99811135310903, -0.056948198584, 0.02303539608748, 0.06122198366265, 0.95302014084084, -0.2966554902039],
      "ImagePositionPatient": [-884.54273487568, -775.26252116459, 197.0874861607],
      "ImageType": [
        "ORIGINAL",
        "PRIMARY",
        "M",
        "MB",
        "ND",
        "MOSAIC"
],
      "ImagedNucleus": "1H",
      "ImagingFrequency": 123.258889,
      "InPlanePhaseEncodingDirection": "COL",
      "MRAcquisitionType": "2D",
      "MagneticFieldStrength": 3.0,
      "Manufacturer": "SIEMENS",
      "ManufacturerModelName": "Prisma_fit",
      "Modality": "MR",
      "NumberOfAverages": 1.0,
      "NumberOfPhaseEncodingSteps": 104,
      "PercentPhaseFieldOfView": 100.0,
      "PercentSampling": 100.0,
      "PerformedProcedureStepStartTime": "142517.331000",
      "PhotometricInterpretation": "MONOCHROME2",
      "PixelBandwidth": 2290.0,
      "PixelRepresentation": 0,
      "PixelSpacing": [2.0, 2.0],
      "ProtocolName": "func_task-things_run-5",
      "RepetitionTime": 1490.0,
      "Rows": 832,
      "SAR": 0.0375605875372,
      "SamplesPerPixel": 1,
      "ScanOptions": "FS",
      "ScanningSequence": "EP",
      "SequenceName": "epfid2d1_104",
      "SequenceVariant": [
        "SK",
        "SS"
],
      "SeriesDescription": "func_task-things_run-5",
      "SeriesNumber": 22,
      "SeriesTime": "154529.610000",
      "SliceLocation": -38.009029157414,
      "SliceThickness": 2.0,
      "SmallestImagePixelValue": 0,
      "SoftwareVersions": "syngo MR E11",
      "SpacingBetweenSlices": 1.999999975914,
      "SpecificCharacterSet": "ISO_IR 100",
      "StudyID": "1",
      "StudyTime": "142517.193000",
      "TransmitCoilName": "Body",
      "VariableFlipAngleFlag": "N",
      "WindowCenterWidthExplanation": "Algo1",
      "dBdt": 0.0},
    "slices": {}
  },
  "time": {
    "samples": {
      "AcquisitionNumber": [1, 2, 3, 4, 5, 6, 7, 8, 9, 10, 11, 12, 13, 14, 15, 16, 17, 18, 19, 20, 21, 22, 23, 24, 25, 26, 27, 28, 29, 30, 31, 32, 33, 34, 35, 36, 37, 38, 39, 40, 41, 42, 43, 44, 45, 46, 47, 48, 49, 50, 51, 52, 53, 54, 55, 56, 57, 58, 59, 60, 61, 62, 63, 64, 65, 66, 67, 68, 69, 70, 71, 72, 73, 74, 75, 76, 77, 78, 79, 80, 81, 82, 83, 84, 85, 86, 87, 88, 89, 90, 91, 92, 93, 94, 95, 96, 97, 98, 99, 100, 101, 102, 103, 104, 105, 106, 107, 108, 109, 110, 111, 112, 113, 114, 115, 116, 117, 118, 119, 120, 121, 122, 123, 124, 125, 126, 127, 128, 129, 130, 131, 132, 133, 134, 135, 136, 137, 138, 139, 140, 141, 142, 143, 144, 145, 146, 147, 148, 149, 150, 151, 152, 153, 154, 155, 156, 157, 158, 159, 160, 161, 162, 163, 164, 165, 166, 167, 168, 169, 170, 171, 172, 173, 174, 175, 176, 177, 178, 179, 180, 181, 182, 183, 184, 185, 186, 187, 188, 189, 190],
      "AcquisitionTime": ["154411.052500", "154412.542500", "154414.032500", "154415.522500", "154417.012500", "154418.502500", "154419.992500", "154421.482500", "154422.972500", "154424.462500", "154425.952500", "154427.442500", "154428.932500", "154430.422500", "154431.912500", "154433.402500", "154434.892500", "154436.382500", "154437.872500", "154439.362500", "154440.852500", "154442.342500", "154443.832500", "154445.322500", "154446.812500", "154448.302500", "154449.792500", "154451.282500", "154452.772500", "154454.262500", "154455.752500", "154457.242500", "154458.732500", "154500.222500", "154501.712500", "154503.202500", "154504.692500", "154506.182500", "154507.672500", "154509.162500", "154510.652500", "154512.142500", "154513.632500", "154515.122500", "154516.612500", "154518.102500", "154519.592500", "154521.082500", "154522.572500", "154524.062500", "154525.552500", "154527.042500", "154528.532500", "154530.022500", "154531.512500", "154533.002500", "154534.492500", "154535.982500", "154537.472500", "154538.962500", "154540.452500", "154541.942500", "154543.432500", "154544.922500", "154546.412500", "154547.902500", "154549.392500", "154550.882500", "154552.372500", "154553.862500", "154555.352500", "154556.842500", "154558.332500", "154559.822500", "154601.312500", "154602.802500", "154604.292500", "154605.782500", "154607.272500", "154608.762500", "154610.252500", "154611.742500", "154613.232500", "154614.722500", "154616.212500", "154617.702500", "154619.192500", "154620.682500", "154622.172500", "154623.662500", "154625.152500", "154626.642500", "154628.132500", "154629.622500", "154631.112500", "154632.602500", "154634.092500", "154635.582500", "154637.072500", "154638.562500", "154640.052500", "154641.542500", "154643.032500", "154644.522500", "154646.012500", "154647.502500", "154648.992500", "154650.482500", "154651.972500", "154653.462500", "154654.952500", "154656.442500", "154657.932500", "154659.422500", "154700.912500", "154702.402500", "154703.892500", "154705.382500", "154706.872500", "154708.362500", "154709.852500", "154711.342500", "154712.832500", "154714.322500", "154715.812500", "154717.302500", "154718.792500", "154720.282500", "154721.772500", "154723.262500", "154724.752500", "154726.242500", "154727.732500", "154729.222500", "154730.712500", "154732.202500", "154733.692500", "154735.182500", "154736.672500", "154738.162500", "154739.652500", "154741.142500", "154742.632500", "154744.122500", "154745.612500", "154747.102500", "154748.592500", "154750.082500", "154751.572500", "154753.062500", "154754.552500", "154756.042500", "154757.532500", "154759.022500", "154800.512500", "154802.002500", "154803.492500", "154804.982500", "154806.472500", "154807.962500", "154809.452500", "154810.942500", "154812.432500", "154813.922500", "154815.412500", "154816.902500", "154818.392500", "154819.882500", "154821.372500", "154822.862500", "154824.352500", "154825.842500", "154827.332500", "154828.822500", "154830.312500", "154831.802500", "154833.292500", "154834.782500", "154836.272500", "154837.762500", "154839.252500", "154840.742500", "154842.232500", "154843.722500", "154845.212500", "154846.702500", "154848.192500", "154849.682500", "154851.172500", "154852.662500"],
      "ContentTime": ["154529.613000", "154529.617000", "154529.620000", "154529.623000", "154529.627000", "154529.630000", "154529.634000", "154529.638000", "154529.641000", "154529.645000", "154529.648000", "154529.651000", "154529.655000", "154529.681000", "154529.685000", "154529.688000", "154529.692000", "154529.695000", "154529.699000", "154529.702000", "154529.705000", "154549.562000", "154549.566000", "154549.570000", "154549.574000", "154549.578000", "154549.581000", "154549.584000", "154549.588000", "154549.591000", "154549.594000", "154549.598000", "154549.601000", "154549.604000", "154549.608000", "154549.611000", "154549.614000", "154549.618000", "154549.621000", "154549.624000", "154549.628000", "154549.631000", "154609.562000", "154609.566000", "154609.569000", "154609.573000", "154609.576000", "154609.579000", "154609.583000", "154609.586000", "154609.589000", "154609.593000", "154609.596000", "154609.600000", "154609.604000", "154609.607000", "154609.610000", "154609.614000", "154609.617000", "154609.621000", "154609.624000", "154609.627000", "154629.562000", "154629.566000", "154629.569000", "154629.573000", "154629.576000", "154629.579000", "154629.583000", "154629.586000", "154629.589000", "154629.593000", "154629.596000", "154629.600000", "154629.603000", "154629.606000", "154629.610000", "154629.613000", "154629.616000", "154629.620000", "154629.623000", "154629.627000", "154649.562000", "154649.566000", "154649.569000", "154649.573000", "154649.576000", "154649.579000", "154649.583000", "154649.586000", "154649.590000", "154649.593000", "154649.597000", "154649.600000", "154649.603000", "154649.607000", "154649.610000", "154649.614000", "154649.617000", "154649.620000", "154649.624000", "154649.627000", "154729.561000", "154729.565000", "154729.569000", "154729.572000", "154729.575000", "154729.579000", "154729.582000", "154729.586000", "154729.604000", "154729.608000", "154729.611000", "154729.614000", "154729.618000", "154729.621000", "154729.625000", "154729.628000", "154729.631000", "154729.635000", "154729.638000", "154729.641000", "154729.644000", "154729.648000", "154729.651000", "154729.655000", "154729.658000", "154729.662000", "154729.665000", "154729.668000", "154729.672000", "154729.675000", "154809.562000", "154809.566000", "154809.570000", "154809.573000", "154809.577000", "154809.580000", "154809.584000", "154809.587000", "154809.590000", "154809.594000", "154809.597000", "154809.601000", "154809.604000", "154809.607000", "154809.611000", "154809.614000", "154809.617000", "154809.621000", "154809.624000", "154809.628000", "154809.632000", "154809.636000", "154809.640000", "154809.644000", "154809.647000", "154809.650000", "154809.654000", "154849.562000", "154849.566000", "154849.569000", "154849.573000", "154849.576000", "154849.579000", "154849.583000", "154849.586000", "154849.590000", "154849.595000", "154849.599000", "154849.602000", "154849.606000", "154849.610000", "154849.613000", "154849.617000", "154849.620000", "154849.623000", "154849.627000", "154849.630000", "154849.633000", "154849.637000", "154849.640000", "154849.644000", "154849.647000", "154849.650000", "154849.654000", "154855.069000", "154855.072000", "154855.076000", "154855.079000"],
      "InstanceCreationTime": ["154529.613000", "154529.617000", "154529.620000", "154529.623000", "154529.627000", "154529.630000", "154529.634000", "154529.638000", "154529.641000", "154529.645000", "154529.648000", "154529.651000", "154529.655000", "154529.681000", "154529.685000", "154529.688000", "154529.692000", "154529.695000", "154529.699000", "154529.702000", "154529.705000", "154549.562000", "154549.566000", "154549.570000", "154549.574000", "154549.578000", "154549.581000", "154549.584000", "154549.588000", "154549.591000", "154549.594000", "154549.598000", "154549.601000", "154549.604000", "154549.608000", "154549.611000", "154549.614000", "154549.618000", "154549.621000", "154549.624000", "154549.628000", "154549.631000", "154609.562000", "154609.566000", "154609.569000", "154609.573000", "154609.576000", "154609.579000", "154609.583000", "154609.586000", "154609.589000", "154609.593000", "154609.596000", "154609.600000", "154609.604000", "154609.607000", "154609.610000", "154609.614000", "154609.617000", "154609.621000", "154609.624000", "154609.627000", "154629.562000", "154629.566000", "154629.569000", "154629.573000", "154629.576000", "154629.579000", "154629.583000", "154629.586000", "154629.589000", "154629.593000", "154629.596000", "154629.600000", "154629.603000", "154629.606000", "154629.610000", "154629.613000", "154629.616000", "154629.620000", "154629.623000", "154629.627000", "154649.562000", "154649.566000", "154649.569000", "154649.573000", "154649.576000", "154649.579000", "154649.583000", "154649.586000", "154649.590000", "154649.593000", "154649.597000", "154649.600000", "154649.603000", "154649.607000", "154649.610000", "154649.614000", "154649.617000", "154649.620000", "154649.624000", "154649.627000", "154729.561000", "154729.565000", "154729.569000", "154729.572000", "154729.575000", "154729.579000", "154729.582000", "154729.586000", "154729.604000", "154729.608000", "154729.611000", "154729.614000", "154729.618000", "154729.621000", "154729.625000", "154729.628000", "154729.631000", "154729.635000", "154729.638000", "154729.641000", "154729.644000", "154729.648000", "154729.651000", "154729.655000", "154729.658000", "154729.662000", "154729.665000", "154729.668000", "154729.672000", "154729.675000", "154809.562000", "154809.566000", "154809.570000", "154809.573000", "154809.577000", "154809.580000", "154809.584000", "154809.587000", "154809.590000", "154809.594000", "154809.597000", "154809.601000", "154809.604000", "154809.607000", "154809.611000", "154809.614000", "154809.617000", "154809.621000", "154809.624000", "154809.628000", "154809.632000", "154809.636000", "154809.640000", "154809.644000", "154809.647000", "154809.650000", "154809.654000", "154849.562000", "154849.566000", "154849.569000", "154849.573000", "154849.576000", "154849.579000", "154849.583000", "154849.586000", "154849.590000", "154849.595000", "154849.599000", "154849.602000", "154849.606000", "154849.610000", "154849.613000", "154849.617000", "154849.620000", "154849.623000", "154849.627000", "154849.630000", "154849.633000", "154849.637000", "154849.640000", "154849.644000", "154849.647000", "154849.650000", "154849.654000", "154855.069000", "154855.072000", "154855.076000", "154855.079000"],
      "InstanceNumber": [1, 2, 3, 4, 5, 6, 7, 8, 9, 10, 11, 12, 13, 14, 15, 16, 17, 18, 19, 20, 21, 22, 23, 24, 25, 26, 27, 28, 29, 30, 31, 32, 33, 34, 35, 36, 37, 38, 39, 40, 41, 42, 43, 44, 45, 46, 47, 48, 49, 50, 51, 52, 53, 54, 55, 56, 57, 58, 59, 60, 61, 62, 63, 64, 65, 66, 67, 68, 69, 70, 71, 72, 73, 74, 75, 76, 77, 78, 79, 80, 81, 82, 83, 84, 85, 86, 87, 88, 89, 90, 91, 92, 93, 94, 95, 96, 97, 98, 99, 100, 101, 102, 103, 104, 105, 106, 107, 108, 109, 110, 111, 112, 113, 114, 115, 116, 117, 118, 119, 120, 121, 122, 123, 124, 125, 126, 127, 128, 129, 130, 131, 132, 133, 134, 135, 136, 137, 138, 139, 140, 141, 142, 143, 144, 145, 146, 147, 148, 149, 150, 151, 152, 153, 154, 155, 156, 157, 158, 159, 160, 161, 162, 163, 164, 165, 166, 167, 168, 169, 170, 171, 172, 173, 174, 175, 176, 177, 178, 179, 180, 181, 182, 183, 184, 185, 186, 187, 188, 189, 190],
      "LargestImagePixelValue": [43625, 42149, 41740, 40590, 40318, 39927, 39953, 39805, 39749, 39693, 39348, 39860, 39800, 40083, 39946, 39229, 40013, 40225, 40017, 39793, 39160, 39482, 39315, 39187, 39451, 39316, 39438, 39418, 39411, 39736, 39593, 39828, 39774, 40434, 39874, 39828, 39678, 39815, 39828, 39726, 39931, 39991, 39898, 40122, 40122, 40715, 41070, 40744, 41187, 40509, 41038, 41042, 41138, 41052, 40999, 40984, 41336, 40794, 41114, 41074, 40755, 40642, 40707, 41144, 41718, 41314, 40376, 41143, 40910, 40833, 40845, 41059, 40737, 41496, 40883, 40599, 41404, 40963, 41264, 41256, 41198, 40435, 41061, 40763, 40791, 41426, 41422, 41567, 41128, 40633, 40485, 40566, 39960, 40665, 39002, 40583, 40461, 40690, 40808, 40619, 40337, 40650, 40687, 41048, 40541, 40505, 40222, 40565, 40418, 40287, 39905, 38353, 38578, 38958, 39437, 40458, 41815, 39843, 38554, 39216, 39395, 39529, 39534, 39557, 39546, 39654, 39852, 39882, 39847, 40306, 40422, 39797, 39828, 39308, 39623, 39280, 39447, 39072, 39097, 39079, 38872, 39430, 39670, 39188, 39255, 39368, 39029, 39578, 39397, 39071, 39336, 39506, 39147, 39452, 39312, 39105, 39218, 39929, 39648, 39439, 39277, 39357, 39492, 39287, 39650, 39496, 40098, 40204, 40004, 40080, 41148, 41069, 40705, 40767, 40804, 40944, 39139, 40169, 41814, 41098, 41182, 39319, 40343, 40716, 40544, 39914, 40103, 40374, 40309, 40937],
      "WindowCenter": [10198.0, 10130.0, 10103.0, 10082.0, 10077.0, 10063.0, 10053.0, 10032.0, 10023.0, 10037.0, 10039.0, 10044.0, 10035.0, 10036.0, 10051.0, 10079.0, 10111.0, 10089.0, 10069.0, 10062.0, 10069.0, 10077.0, 10062.0, 10049.0, 10047.0, 10039.0, 10032.0, 10030.0, 10024.0, 10042.0, 10045.0, 10059.0, 10089.0, 10107.0, 10087.0, 10076.0, 10093.0, 10088.0, 10087.0, 10071.0, 10060.0, 10045.0, 10048.0, 10048.0, 10048.0, 10046.0, 10036.0, 10042.0, 10049.0, 10037.0, 10037.0, 10050.0, 10059.0, 10053.0, 10044.0, 10035.0, 10050.0, 10076.0, 10100.0, 10093.0, 10072.0, 10055.0, 10054.0, 10064.0, 10080.0, 10093.0, 10104.0, 10117.0, 10089.0, 10101.0, 10097.0, 10079.0, 10041.0, 10019.0, 10031.0, 10060.0, 10067.0, 10046.0, 10043.0, 10052.0, 10091.0, 10096.0, 10090.0, 10058.0, 10041.0, 10050.0, 10058.0, 10097.0, 10106.0, 10092.0, 10081.0, 10073.0, 10060.0, 10047.0, 10010.0, 10018.0, 10043.0, 10054.0, 10039.0, 10031.0, 10026.0, 10047.0, 10042.0, 10055.0, 10085.0, 10112.0, 10098.0, 10094.0, 10093.0, 10108.0, 10081.0, 10024.0, 9995.0, 9997.0, 10019.0, 10039.0, 10074.0, 10066.0, 10032.0, 10016.0, 9998.0, 9994.0, 10012.0, 10032.0, 10023.0, 9998.0, 9980.0, 9985.0, 10008.0, 10038.0, 10049.0, 10045.0, 10046.0, 10033.0, 10028.0, 10022.0, 10045.0, 10063.0, 10077.0, 10069.0, 10044.0, 10030.0, 10036.0, 10047.0, 10057.0, 10055.0, 10050.0, 10069.0, 10092.0, 10103.0, 10103.0, 10091.0, 10076.0, 10066.0, 10046.0, 10031.0, 10031.0, 10025.0, 10026.0, 10015.0, 10012.0, 10021.0, 10014.0, 10017.0, 10041.0, 10061.0, 10068.0, 10045.0, 10020.0, 10024.0, 10037.0, 10044.0, 10048.0, 10044.0, 10031.0, 10025.0, 10013.0, 10046.0, 10076.0, 10053.0, 10025.0, 9980.0, 9983.0, 10003.0, 10022.0, 10021.0, 9999.0, 9989.0, 9988.0, 9992.0],
      "WindowWidth": [21993.0, 21808.0, 21730.0, 21672.0, 21645.0, 21612.0, 21586.0, 21540.0, 21520.0, 21548.0, 21555.0, 21563.0, 21545.0, 21548.0, 21580.0, 21647.0, 21717.0, 21668.0, 21624.0, 21608.0, 21620.0, 21635.0, 21605.0, 21578.0, 21572.0, 21554.0, 21540.0, 21537.0, 21527.0, 21563.0, 21573.0, 21605.0, 21668.0, 21706.0, 21665.0, 21635.0, 21675.0, 21664.0, 21663.0, 21627.0, 21605.0, 21565.0, 21574.0, 21572.0, 21572.0, 21567.0, 21543.0, 21552.0, 21566.0, 21545.0, 21545.0, 21572.0, 21592.0, 21582.0, 21560.0, 21539.0, 21572.0, 21631.0, 21682.0, 21669.0, 21624.0, 21585.0, 21583.0, 21603.0, 21640.0, 21673.0, 21698.0, 21727.0, 21662.0, 21684.0, 21679.0, 21638.0, 21555.0, 21499.0, 21524.0, 21594.0, 21608.0, 21564.0, 21554.0, 21575.0, 21662.0, 21676.0, 21662.0, 21592.0, 21551.0, 21568.0, 21586.0, 21671.0, 21690.0, 21666.0, 21642.0, 21626.0, 21600.0, 21567.0, 21495.0, 21498.0, 21550.0, 21577.0, 21545.0, 21528.0, 21522.0, 21564.0, 21558.0, 21587.0, 21654.0, 21714.0, 21684.0, 21672.0, 21666.0, 21699.0, 21643.0, 21517.0, 21448.0, 21446.0, 21496.0, 21547.0, 21629.0, 21617.0, 21540.0, 21494.0, 21454.0, 21434.0, 21473.0, 21522.0, 21505.0, 21451.0, 21409.0, 21425.0, 21474.0, 21536.0, 21566.0, 21560.0, 21561.0, 21534.0, 21518.0, 21505.0, 21556.0, 21597.0, 21632.0, 21614.0, 21559.0, 21523.0, 21534.0, 21561.0, 21586.0, 21580.0, 21572.0, 21611.0, 21662.0, 21690.0, 21687.0, 21664.0, 21630.0, 21609.0, 21560.0, 21527.0, 21525.0, 21506.0, 21512.0, 21494.0, 21487.0, 21505.0, 21494.0, 21496.0, 21545.0, 21594.0, 21605.0, 21556.0, 21497.0, 21506.0, 21534.0, 21545.0, 21555.0, 21550.0, 21520.0, 21508.0, 21486.0, 21553.0, 21616.0, 21572.0, 21507.0, 21418.0, 21416.0, 21453.0, 21497.0, 21499.0, 21451.0, 21428.0, 21425.0, 21435.0]
    },
    "slices": {}
  }
}