{
  "AcquisitionMatrixPE": 104,
  "AcquisitionNumber": 1,
  "AcquisitionTime": "15:31:4.102500",
  "BandwidthPerPixelPhaseEncode": 17.17,
  "BaseResolution": 104,
  "BodyPartExamined": "BRAIN",
  "CoilString": "HC1-7;NC1_2",
  "ConsistencyInfo": "N4_VE11C_LATEST_20160120",
  "ConversionSoftware": "dcm2niix",
  "ConversionSoftwareVersion": "v1.0.20190902",
  "DerivedVendorReportedEchoSpacing": 0.000560011,
  "DeviceSerialNumber": "167006",
  "DwellTime": 2.1e-06,
  "EchoTime": 0.037,
  "EchoTrainLength": 104,
  "EffectiveEchoSpacing": 0.000560011,
  "FlipAngle": 52,
  "HeudiconvVersion": "0.10.0",
  "ImageComments": "Unaliased_MB4_PE3_LB",
  "ImageOrientationPatientDICOM": [0.998111, -0.0569482, 0.0230354, 0.061222, 0.95302, -0.296655],
  "ImageType": [
    "ORIGINAL",
    "PRIMARY",
    "M",
    "MB",
    "ND",
    "MOSAIC"
],
  "ImagingFrequency": 123.259,
  "InPlanePhaseEncodingDirectionDICOM": "COL",
  "InstitutionAddress": "Chemin_Queen-Mary_4565_Montreal_District_CA_H3W_1W5",
  "InstitutionName": "IUGM",
  "InstitutionalDepartmentName": "Department",
  "MRAcquisitionType": "2D",
  "MagneticFieldStrength": 3,
  "Manufacturer": "Siemens",
  "ManufacturersModelName": "Prisma_fit",
  "Modality": "MR",
  "MultibandAccelerationFactor": 4,
  "PartialFourier": 1,
  "PatientPosition": "HFS",
  "PercentPhaseFOV": 100,
  "PhaseEncodingDirection": "j",
  "PhaseEncodingSteps": 104,
  "PhaseResolution": 1,
  "PixelBandwidth": 2290,
  "ProcedureStepDescription": "memory_things",
  "ProtocolName": "func_task-things_run-3",
  "PulseSequenceDetails": "%CustomerSeq%_cmrr_mbep2d_bold",
  "ReceiveCoilActiveElements": "HC1-7;NC1,2",
  "ReceiveCoilName": "HeadNeck_64",
  "ReconMatrixPE": 104,
  "RepetitionTime": 1.49,
  "SAR": 0.0375606,
  "ScanOptions": "FS",
  "ScanningSequence": "EP",
  "SequenceName": "epfid2d1_104",
  "SequenceVariant": "SK_SS",
  "SeriesDescription": "func_task-things_run-3",
  "SeriesNumber": 16,
  "ShimSetting": [626, -7249, -8820, 595, -7, -214, -35, -39],
  "SliceThickness": 2,
  "SliceTiming": [0, 0.785, 0.1, 0.8825, 0.1975, 0.98, 0.295, 1.0775, 0.3925, 1.1775, 0.49, 1.275, 0.59, 1.3725, 0.6875, 0, 0.785, 0.1, 0.8825, 0.1975, 0.98, 0.295, 1.0775, 0.3925, 1.1775, 0.49, 1.275, 0.59, 1.3725, 0.6875, 0, 0.785, 0.1, 0.8825, 0.1975, 0.98, 0.295, 1.0775, 0.3925, 1.1775, 0.49, 1.275, 0.59, 1.3725, 0.6875, 0, 0.785, 0.1, 0.8825, 0.1975, 0.98, 0.295, 1.0775, 0.3925, 1.1775, 0.49, 1.275, 0.59, 1.3725, 0.6875],
  "SoftwareVersions": "syngo_MR_E11",
  "SpacingBetweenSlices": 2,
  "StationName": "MRC35049",
  "TaskName": "things",
  "TotalReadoutTime": 0.0576811,
  "TxRefAmp": 234.544,
  "WipMemBlock": "667e67a5-7e58-444c-95dc-42992271ce24||Sequence: R016 ve11c/master r/e634e98; Dec 19 2017 11:00:25 by eja",
  "dcmmeta_affine": [
    [-1.996222734451294, 0.12244396656751633, 0.010118401609361172, 100.73633575439453],
    [0.11389639973640442, 1.9060403108596802, -0.5950109362602234, -73.4000015258789],
    [0.04607079178094864, 0.5933109521865845, 1.9094133377075195, -63.21897506713867],
    [0.0, 0.0, 0.0, 1.0]
],
  "dcmmeta_reorient_transform": [
    [0.0, -1.0, 0.0, 103.0],
    [1.0, 0.0, 0.0, 0.0],
    [0.0, 0.0, 1.0, 0.0],
    [0.0, 0.0, 0.0, 1.0]
],
  "dcmmeta_shape": [104, 104, 60, 190],
  "dcmmeta_slice_dim": 2,
  "dcmmeta_version": 0.6,
  "global": {
    "const": {
      "AcquisitionMatrix": [104, 0, 0, 104],
      "AngioFlag": "N",
      "BitsAllocated": 16,
      "BitsStored": 16,
      "BodyPartExamined": "BRAIN",
      "Columns": 832,
      "EchoNumbers": 1,
      "EchoTime": 37.0,
      "EchoTrainLength": 104,
      "FlipAngle": 52.0,
      "HighBit": 15,
      "ImageOrientationPatient": [0.99811135310903, -0.056948198584, 0.02303539608748, 0.06122198366265, 0.95302014084084, -0.2966554902039],
      "ImagePositionPatient": [-884.54273487568, -775.26252116459, 197.0874861607],
      "ImageType": [
        "ORIGINAL",
        "PRIMARY",
        "M",
        "MB",
        "ND",
        "MOSAIC"
],
      "ImagedNucleus": "1H",
      "ImagingFrequency": 123.258879,
      "InPlanePhaseEncodingDirection": "COL",
      "MRAcquisitionType": "2D",
      "MagneticFieldStrength": 3.0,
      "Manufacturer": "SIEMENS",
      "ManufacturerModelName": "Prisma_fit",
      "Modality": "MR",
      "NumberOfAverages": 1.0,
      "NumberOfPhaseEncodingSteps": 104,
      "PercentPhaseFieldOfView": 100.0,
      "PercentSampling": 100.0,
      "PerformedProcedureStepStartTime": "142517.331000",
      "PhotometricInterpretation": "MONOCHROME2",
      "PixelBandwidth": 2290.0,
      "PixelRepresentation": 0,
      "PixelSpacing": [2.0, 2.0],
      "ProtocolName": "func_task-things_run-3",
      "RepetitionTime": 1490.0,
      "Rows": 832,
      "SAR": 0.0375605875372,
      "SamplesPerPixel": 1,
      "ScanOptions": "FS",
      "ScanningSequence": "EP",
      "SequenceName": "epfid2d1_104",
      "SequenceVariant": [
        "SK",
        "SS"
],
      "SeriesDescription": "func_task-things_run-3",
      "SeriesNumber": 16,
      "SeriesTime": "153224.409000",
      "SliceLocation": -38.009029157414,
      "SliceThickness": 2.0,
      "SmallestImagePixelValue": 0,
      "SoftwareVersions": "syngo MR E11",
      "SpacingBetweenSlices": 1.999999975914,
      "SpecificCharacterSet": "ISO_IR 100",
      "StudyID": "1",
      "StudyTime": "142517.193000",
      "TransmitCoilName": "Body",
      "VariableFlipAngleFlag": "N",
      "WindowCenterWidthExplanation": "Algo1",
      "dBdt": 0.0},
    "slices": {}
  },
  "time": {
    "samples": {
      "AcquisitionNumber": [1, 2, 3, 4, 5, 6, 7, 8, 9, 10, 11, 12, 13, 14, 15, 16, 17, 18, 19, 20, 21, 22, 23, 24, 25, 26, 27, 28, 29, 30, 31, 32, 33, 34, 35, 36, 37, 38, 39, 40, 41, 42, 43, 44, 45, 46, 47, 48, 49, 50, 51, 52, 53, 54, 55, 56, 57, 58, 59, 60, 61, 62, 63, 64, 65, 66, 67, 68, 69, 70, 71, 72, 73, 74, 75, 76, 77, 78, 79, 80, 81, 82, 83, 84, 85, 86, 87, 88, 89, 90, 91, 92, 93, 94, 95, 96, 97, 98, 99, 100, 101, 102, 103, 104, 105, 106, 107, 108, 109, 110, 111, 112, 113, 114, 115, 116, 117, 118, 119, 120, 121, 122, 123, 124, 125, 126, 127, 128, 129, 130, 131, 132, 133, 134, 135, 136, 137, 138, 139, 140, 141, 142, 143, 144, 145, 146, 147, 148, 149, 150, 151, 152, 153, 154, 155, 156, 157, 158, 159, 160, 161, 162, 163, 164, 165, 166, 167, 168, 169, 170, 171, 172, 173, 174, 175, 176, 177, 178, 179, 180, 181, 182, 183, 184, 185, 186, 187, 188, 189, 190],
      "AcquisitionTime": ["153104.102500", "153105.592500", "153107.082500", "153108.572500", "153110.062500", "153111.552500", "153113.042500", "153114.532500", "153116.022500", "153117.512500", "153119.002500", "153120.492500", "153121.982500", "153123.472500", "153124.962500", "153126.452500", "153127.942500", "153129.432500", "153130.922500", "153132.412500", "153133.902500", "153135.392500", "153136.882500", "153138.372500", "153139.862500", "153141.352500", "153142.842500", "153144.332500", "153145.822500", "153147.312500", "153148.802500", "153150.292500", "153151.782500", "153153.272500", "153154.762500", "153156.252500", "153157.742500", "153159.232500", "153200.722500", "153202.212500", "153203.702500", "153205.192500", "153206.682500", "153208.172500", "153209.662500", "153211.152500", "153212.642500", "153214.132500", "153215.622500", "153217.112500", "153218.602500", "153220.092500", "153221.582500", "153223.072500", "153224.562500", "153226.052500", "153227.542500", "153229.032500", "153230.522500", "153232.012500", "153233.502500", "153234.992500", "153236.482500", "153237.972500", "153239.462500", "153240.952500", "153242.442500", "153243.932500", "153245.422500", "153246.912500", "153248.402500", "153249.892500", "153251.382500", "153252.872500", "153254.362500", "153255.852500", "153257.342500", "153258.832500", "153300.322500", "153301.812500", "153303.302500", "153304.792500", "153306.282500", "153307.772500", "153309.262500", "153310.752500", "153312.242500", "153313.732500", "153315.222500", "153316.712500", "153318.202500", "153319.692500", "153321.182500", "153322.672500", "153324.162500", "153325.652500", "153327.142500", "153328.632500", "153330.122500", "153331.612500", "153333.102500", "153334.592500", "153336.082500", "153337.572500", "153339.062500", "153340.552500", "153342.042500", "153343.532500", "153345.022500", "153346.512500", "153348.002500", "153349.492500", "153350.982500", "153352.472500", "153353.962500", "153355.452500", "153356.942500", "153358.432500", "153359.922500", "153401.412500", "153402.902500", "153404.392500", "153405.882500", "153407.372500", "153408.862500", "153410.352500", "153411.842500", "153413.332500", "153414.822500", "153416.312500", "153417.802500", "153419.292500", "153420.782500", "153422.272500", "153423.762500", "153425.252500", "153426.742500", "153428.232500", "153429.722500", "153431.212500", "153432.702500", "153434.192500", "153435.682500", "153437.172500", "153438.662500", "153440.152500", "153441.642500", "153443.132500", "153444.622500", "153446.112500", "153447.602500", "153449.092500", "153450.582500", "153452.072500", "153453.562500", "153455.052500", "153456.542500", "153458.032500", "153459.522500", "153501.012500", "153502.502500", "153503.992500", "153505.482500", "153506.972500", "153508.462500", "153509.952500", "153511.442500", "153512.932500", "153514.422500", "153515.912500", "153517.402500", "153518.892500", "153520.382500", "153521.872500", "153523.362500", "153524.852500", "153526.342500", "153527.832500", "153529.322500", "153530.812500", "153532.302500", "153533.792500", "153535.282500", "153536.772500", "153538.262500", "153539.752500", "153541.242500", "153542.732500", "153544.222500", "153545.712500"],
      "ContentTime": ["153224.412000", "153224.416000", "153224.419000", "153224.423000", "153224.426000", "153224.429000", "153224.433000", "153224.436000", "153224.440000", "153224.443000", "153224.447000", "153224.450000", "153224.453000", "153224.457000", "153224.460000", "153224.463000", "153224.466000", "153224.470000", "153224.473000", "153224.480000", "153224.483000", "153224.496000", "153224.500000", "153224.503000", "153224.506000", "153244.364000", "153244.368000", "153244.371000", "153244.374000", "153244.378000", "153244.381000", "153244.384000", "153244.388000", "153244.391000", "153244.394000", "153244.397000", "153244.401000", "153244.404000", "153244.407000", "153244.411000", "153244.414000", "153244.417000", "153244.421000", "153244.424000", "153244.427000", "153304.364000", "153304.368000", "153304.371000", "153304.374000", "153304.378000", "153304.381000", "153304.384000", "153304.388000", "153304.391000", "153304.394000", "153304.398000", "153304.401000", "153304.404000", "153304.408000", "153304.411000", "153304.414000", "153304.417000", "153304.421000", "153304.424000", "153304.427000", "153324.364000", "153324.368000", "153324.371000", "153324.375000", "153324.378000", "153324.381000", "153324.384000", "153324.388000", "153324.391000", "153324.394000", "153324.398000", "153324.401000", "153324.404000", "153324.408000", "153324.411000", "153324.414000", "153324.418000", "153324.421000", "153324.424000", "153324.428000", "153344.365000", "153344.369000", "153344.373000", "153344.377000", "153344.380000", "153344.384000", "153344.388000", "153344.391000", "153344.395000", "153344.398000", "153344.401000", "153344.405000", "153344.408000", "153344.411000", "153344.415000", "153344.418000", "153344.421000", "153344.425000", "153344.428000", "153344.432000", "153424.363000", "153424.367000", "153424.370000", "153424.374000", "153424.377000", "153424.380000", "153424.384000", "153424.387000", "153424.390000", "153424.394000", "153424.397000", "153424.400000", "153424.404000", "153424.407000", "153424.410000", "153424.413000", "153424.417000", "153424.420000", "153424.423000", "153424.427000", "153424.444000", "153424.447000", "153424.451000", "153424.454000", "153424.457000", "153424.461000", "153424.464000", "153424.467000", "153504.364000", "153504.368000", "153504.371000", "153504.374000", "153504.378000", "153504.381000", "153504.385000", "153504.388000", "153504.392000", "153504.395000", "153504.398000", "153504.402000", "153504.405000", "153504.408000", "153504.412000", "153504.415000", "153504.418000", "153504.422000", "153504.425000", "153504.428000", "153504.432000", "153504.435000", "153504.438000", "153504.441000", "153504.445000", "153504.448000", "153504.451000", "153544.364000", "153544.368000", "153544.371000", "153544.374000", "153544.378000", "153544.381000", "153544.384000", "153544.388000", "153544.391000", "153544.395000", "153544.398000", "153544.401000", "153544.405000", "153544.408000", "153544.411000", "153544.415000", "153544.418000", "153544.421000", "153544.425000", "153544.428000", "153544.431000", "153544.434000", "153544.438000", "153544.441000", "153544.445000", "153544.448000", "153544.451000", "153548.230000", "153548.234000", "153548.237000"],
      "InstanceCreationTime": ["153224.412000", "153224.416000", "153224.419000", "153224.423000", "153224.426000", "153224.429000", "153224.433000", "153224.436000", "153224.440000", "153224.443000", "153224.447000", "153224.450000", "153224.453000", "153224.457000", "153224.460000", "153224.463000", "153224.466000", "153224.470000", "153224.473000", "153224.480000", "153224.483000", "153224.496000", "153224.500000", "153224.503000", "153224.506000", "153244.364000", "153244.368000", "153244.371000", "153244.374000", "153244.378000", "153244.381000", "153244.384000", "153244.388000", "153244.391000", "153244.394000", "153244.397000", "153244.401000", "153244.404000", "153244.407000", "153244.411000", "153244.414000", "153244.417000", "153244.421000", "153244.424000", "153244.427000", "153304.364000", "153304.368000", "153304.371000", "153304.374000", "153304.378000", "153304.381000", "153304.384000", "153304.388000", "153304.391000", "153304.394000", "153304.398000", "153304.401000", "153304.404000", "153304.408000", "153304.411000", "153304.414000", "153304.417000", "153304.421000", "153304.424000", "153304.427000", "153324.364000", "153324.368000", "153324.371000", "153324.375000", "153324.378000", "153324.381000", "153324.384000", "153324.388000", "153324.391000", "153324.394000", "153324.398000", "153324.401000", "153324.404000", "153324.408000", "153324.411000", "153324.414000", "153324.418000", "153324.421000", "153324.424000", "153324.428000", "153344.365000", "153344.369000", "153344.373000", "153344.377000", "153344.380000", "153344.384000", "153344.388000", "153344.391000", "153344.395000", "153344.398000", "153344.401000", "153344.405000", "153344.408000", "153344.411000", "153344.415000", "153344.418000", "153344.421000", "153344.425000", "153344.428000", "153344.432000", "153424.363000", "153424.367000", "153424.370000", "153424.374000", "153424.377000", "153424.380000", "153424.384000", "153424.387000", "153424.390000", "153424.394000", "153424.397000", "153424.400000", "153424.404000", "153424.407000", "153424.410000", "153424.413000", "153424.417000", "153424.420000", "153424.423000", "153424.427000", "153424.444000", "153424.447000", "153424.451000", "153424.454000", "153424.457000", "153424.461000", "153424.464000", "153424.467000", "153504.364000", "153504.368000", "153504.371000", "153504.374000", "153504.378000", "153504.381000", "153504.385000", "153504.388000", "153504.392000", "153504.395000", "153504.398000", "153504.402000", "153504.405000", "153504.408000", "153504.412000", "153504.415000", "153504.418000", "153504.422000", "153504.425000", "153504.428000", "153504.432000", "153504.435000", "153504.438000", "153504.441000", "153504.445000", "153504.448000", "153504.451000", "153544.364000", "153544.368000", "153544.371000", "153544.374000", "153544.378000", "153544.381000", "153544.384000", "153544.388000", "153544.391000", "153544.395000", "153544.398000", "153544.401000", "153544.405000", "153544.408000", "153544.411000", "153544.415000", "153544.418000", "153544.421000", "153544.425000", "153544.428000", "153544.431000", "153544.434000", "153544.438000", "153544.441000", "153544.445000", "153544.448000", "153544.451000", "153548.230000", "153548.234000", "153548.237000"],
      "InstanceNumber": [1, 2, 3, 4, 5, 6, 7, 8, 9, 10, 11, 12, 13, 14, 15, 16, 17, 18, 19, 20, 21, 22, 23, 24, 25, 26, 27, 28, 29, 30, 31, 32, 33, 34, 35, 36, 37, 38, 39, 40, 41, 42, 43, 44, 45, 46, 47, 48, 49, 50, 51, 52, 53, 54, 55, 56, 57, 58, 59, 60, 61, 62, 63, 64, 65, 66, 67, 68, 69, 70, 71, 72, 73, 74, 75, 76, 77, 78, 79, 80, 81, 82, 83, 84, 85, 86, 87, 88, 89, 90, 91, 92, 93, 94, 95, 96, 97, 98, 99, 100, 101, 102, 103, 104, 105, 106, 107, 108, 109, 110, 111, 112, 113, 114, 115, 116, 117, 118, 119, 120, 121, 122, 123, 124, 125, 126, 127, 128, 129, 130, 131, 132, 133, 134, 135, 136, 137, 138, 139, 140, 141, 142, 143, 144, 145, 146, 147, 148, 149, 150, 151, 152, 153, 154, 155, 156, 157, 158, 159, 160, 161, 162, 163, 164, 165, 166, 167, 168, 169, 170, 171, 172, 173, 174, 175, 176, 177, 178, 179, 180, 181, 182, 183, 184, 185, 186, 187, 188, 189, 190],
      "LargestImagePixelValue": [43045, 40361, 41028, 40667, 39842, 39329, 40450, 39294, 40078, 40366, 40582, 38962, 39844, 39792, 40089, 39894, 39719, 39942, 40297, 40059, 39195, 38932, 38796, 38927, 38930, 39315, 39044, 39416, 39319, 39451, 39268, 38949, 39054, 39409, 39121, 39822, 39099, 39297, 39799, 40243, 39549, 40095, 39489, 38728, 38458, 38462, 38629, 39401, 40774, 40650, 38338, 37652, 38248, 38791, 38053, 38056, 37807, 38480, 37703, 37646, 37911, 37634, 37744, 37812, 37517, 37769, 38097, 37788, 37962, 38374, 38011, 38094, 38193, 37858, 38134, 38077, 37856, 38712, 37791, 37923, 38304, 37987, 38111, 38338, 38574, 38151, 38169, 38224, 38007, 37989, 38085, 37996, 37918, 37854, 38909, 38222, 38582, 38459, 38984, 38278, 38008, 38498, 39029, 38996, 39050, 39400, 38497, 38135, 38961, 38156, 39112, 38484, 38606, 39095, 39482, 39576, 39555, 39197, 38878, 38594, 38012, 38375, 38881, 38978, 39248, 40273, 39819, 39208, 38702, 38431, 38711, 38076, 37996, 38420, 39323, 40491, 39851, 39592, 38512, 39856, 40041, 40382, 40222, 40098, 39769, 39820, 39096, 39390, 39783, 40446, 40655, 40590, 40432, 39791, 39599, 40298, 39695, 39846, 40332, 39259, 39625, 39905, 39923, 40187, 40235, 39987, 40388, 39617, 40030, 39532, 39619, 39504, 39494, 39656, 39372, 39104, 39106, 39237, 39095, 39427, 39797, 39011, 39647, 40100, 39202, 39582, 39380, 39999, 40241, 39805],
      "WindowCenter": [10242.0, 10194.0, 10175.0, 10155.0, 10123.0, 10108.0, 10130.0, 10158.0, 10175.0, 10177.0, 10151.0, 10121.0, 10122.0, 10099.0, 10079.0, 10064.0, 10070.0, 10114.0, 10158.0, 10169.0, 10139.0, 10098.0, 10080.0, 10083.0, 10082.0, 10097.0, 10119.0, 10148.0, 10164.0, 10161.0, 10122.0, 10094.0, 10092.0, 10099.0, 10105.0, 10120.0, 10124.0, 10126.0, 10126.0, 10131.0, 10124.0, 10124.0, 10114.0, 10124.0, 10141.0, 10131.0, 10106.0, 10091.0, 10108.0, 10143.0, 10146.0, 10122.0, 10107.0, 10092.0, 10086.0, 10086.0, 10084.0, 10090.0, 10094.0, 10087.0, 10086.0, 10086.0, 10087.0, 10087.0, 10087.0, 10095.0, 10096.0, 10089.0, 10103.0, 10110.0, 10119.0, 10133.0, 10137.0, 10121.0, 10098.0, 10087.0, 10086.0, 10100.0, 10089.0, 10094.0, 10100.0, 10088.0, 10079.0, 10076.0, 10090.0, 10091.0, 10094.0, 10094.0, 10091.0, 10100.0, 10109.0, 10128.0, 10132.0, 10132.0, 10118.0, 10088.0, 10084.0, 10081.0, 10113.0, 10113.0, 10097.0, 10095.0, 10097.0, 10099.0, 10114.0, 10131.0, 10117.0, 10096.0, 10107.0, 10103.0, 10101.0, 10091.0, 10103.0, 10125.0, 10137.0, 10114.0, 10079.0, 10053.0, 10075.0, 10118.0, 10126.0, 10104.0, 10074.0, 10060.0, 10081.0, 10116.0, 10135.0, 10138.0, 10137.0, 10135.0, 10132.0, 10098.0, 10078.0, 10075.0, 10064.0, 10049.0, 10045.0, 10058.0, 10095.0, 10147.0, 10110.0, 10081.0, 10071.0, 10070.0, 10079.0, 10098.0, 10101.0, 10110.0, 10099.0, 10090.0, 10087.0, 10094.0, 10104.0, 10117.0, 10148.0, 10154.0, 10117.0, 10093.0, 10088.0, 10081.0, 10082.0, 10096.0, 10083.0, 10055.0, 10038.0, 10045.0, 10065.0, 10077.0, 10086.0, 10079.0, 10087.0, 10090.0, 10085.0, 10073.0, 10067.0, 10073.0, 10099.0, 10106.0, 10094.0, 10076.0, 10058.0, 10059.0, 10091.0, 10120.0, 10118.0, 10097.0, 10077.0, 10082.0, 10093.0, 10090.0],
      "WindowWidth": [22101.0, 21966.0, 21895.0, 21835.0, 21757.0, 21722.0, 21760.0, 21831.0, 21873.0, 21877.0, 21816.0, 21750.0, 21746.0, 21693.0, 21647.0, 21613.0, 21627.0, 21724.0, 21824.0, 21851.0, 21788.0, 21694.0, 21655.0, 21660.0, 21659.0, 21686.0, 21740.0, 21804.0, 21843.0, 21837.0, 21753.0, 21687.0, 21679.0, 21693.0, 21707.0, 21740.0, 21754.0, 21759.0, 21758.0, 21763.0, 21748.0, 21749.0, 21728.0, 21751.0, 21791.0, 21773.0, 21714.0, 21677.0, 21717.0, 21789.0, 21807.0, 21754.0, 21715.0, 21680.0, 21669.0, 21668.0, 21663.0, 21675.0, 21683.0, 21668.0, 21666.0, 21663.0, 21667.0, 21670.0, 21672.0, 21690.0, 21693.0, 21676.0, 21703.0, 21720.0, 21744.0, 21775.0, 21783.0, 21748.0, 21696.0, 21671.0, 21667.0, 21694.0, 21676.0, 21684.0, 21694.0, 21672.0, 21650.0, 21645.0, 21674.0, 21678.0, 21682.0, 21683.0, 21677.0, 21699.0, 21719.0, 21761.0, 21771.0, 21775.0, 21736.0, 21671.0, 21664.0, 21655.0, 21721.0, 21727.0, 21692.0, 21686.0, 21686.0, 21694.0, 21725.0, 21763.0, 21721.0, 21692.0, 21710.0, 21705.0, 21696.0, 21675.0, 21701.0, 21746.0, 21775.0, 21724.0, 21645.0, 21588.0, 21635.0, 21731.0, 21755.0, 21704.0, 21633.0, 21599.0, 21645.0, 21723.0, 21770.0, 21779.0, 21782.0, 21771.0, 21763.0, 21687.0, 21638.0, 21630.0, 21602.0, 21570.0, 21563.0, 21592.0, 21680.0, 21792.0, 21714.0, 21644.0, 21619.0, 21615.0, 21634.0, 21680.0, 21689.0, 21710.0, 21689.0, 21662.0, 21654.0, 21673.0, 21695.0, 21729.0, 21798.0, 21808.0, 21723.0, 21667.0, 21653.0, 21638.0, 21641.0, 21666.0, 21642.0, 21581.0, 21541.0, 21559.0, 21601.0, 21633.0, 21652.0, 21638.0, 21654.0, 21662.0, 21654.0, 21623.0, 21613.0, 21625.0, 21682.0, 21696.0, 21671.0, 21631.0, 21594.0, 21601.0, 21661.0, 21726.0, 21724.0, 21679.0, 21635.0, 21643.0, 21665.0, 21660.0]
    },
    "slices": {}
  }
}