{
  "AcquisitionMatrixPE": 104,
  "AcquisitionNumber": 1,
  "AcquisitionTime": "15:18:33.767500",
  "BandwidthPerPixelPhaseEncode": 17.17,
  "BaseResolution": 104,
  "BodyPartExamined": "BRAIN",
  "CoilString": "HC1-7;NC1_2",
  "ConsistencyInfo": "N4_VE11C_LATEST_20160120",
  "ConversionSoftware": "dcm2niix",
  "ConversionSoftwareVersion": "v1.0.20190902",
  "DerivedVendorReportedEchoSpacing": 0.000560011,
  "DeviceSerialNumber": "167006",
  "DwellTime": 2.1e-06,
  "EchoTime": 0.037,
  "EchoTrainLength": 104,
  "EffectiveEchoSpacing": 0.000560011,
  "FlipAngle": 52,
  "HeudiconvVersion": "0.10.0",
  "ImageComments": "Unaliased_MB4_PE3_LB",
  "ImageOrientationPatientDICOM": [0.998111, -0.0569482, 0.0230354, 0.061222, 0.95302, -0.296655],
  "ImageType": [
    "ORIGINAL",
    "PRIMARY",
    "M",
    "MB",
    "ND",
    "MOSAIC"
],
  "ImagingFrequency": 123.259,
  "InPlanePhaseEncodingDirectionDICOM": "COL",
  "InstitutionAddress": "Chemin_Queen-Mary_4565_Montreal_District_CA_H3W_1W5",
  "InstitutionName": "IUGM",
  "InstitutionalDepartmentName": "Department",
  "MRAcquisitionType": "2D",
  "MagneticFieldStrength": 3,
  "Manufacturer": "Siemens",
  "ManufacturersModelName": "Prisma_fit",
  "Modality": "MR",
  "MultibandAccelerationFactor": 4,
  "PartialFourier": 1,
  "PatientPosition": "HFS",
  "PercentPhaseFOV": 100,
  "PhaseEncodingDirection": "j",
  "PhaseEncodingSteps": 104,
  "PhaseResolution": 1,
  "PixelBandwidth": 2290,
  "ProcedureStepDescription": "memory_things",
  "ProtocolName": "func_task-things_run-1",
  "PulseSequenceDetails": "%CustomerSeq%_cmrr_mbep2d_bold",
  "ReceiveCoilActiveElements": "HC1-7;NC1,2",
  "ReceiveCoilName": "HeadNeck_64",
  "ReconMatrixPE": 104,
  "RepetitionTime": 1.49,
  "SAR": 0.0375606,
  "ScanOptions": "FS",
  "ScanningSequence": "EP",
  "SequenceName": "epfid2d1_104",
  "SequenceVariant": "SK_SS",
  "SeriesDescription": "func_task-things_run-1",
  "SeriesNumber": 10,
  "ShimSetting": [626, -7249, -8820, 595, -7, -214, -35, -39],
  "SliceThickness": 2,
  "SliceTiming": [0, 0.785, 0.0975, 0.8825, 0.195, 0.98, 0.295, 1.0775, 0.3925, 1.175, 0.49, 1.275, 0.5875, 1.3725, 0.685, 0, 0.785, 0.0975, 0.8825, 0.195, 0.98, 0.295, 1.0775, 0.3925, 1.175, 0.49, 1.275, 0.5875, 1.3725, 0.685, 0, 0.785, 0.0975, 0.8825, 0.195, 0.98, 0.295, 1.0775, 0.3925, 1.175, 0.49, 1.275, 0.5875, 1.3725, 0.685, 0, 0.785, 0.0975, 0.8825, 0.195, 0.98, 0.295, 1.0775, 0.3925, 1.175, 0.49, 1.275, 0.5875, 1.3725, 0.685],
  "SoftwareVersions": "syngo_MR_E11",
  "SpacingBetweenSlices": 2,
  "StationName": "MRC35049",
  "TaskName": "things",
  "TotalReadoutTime": 0.0576811,
  "TxRefAmp": 234.544,
  "WipMemBlock": "cdd24ddc-e2a1-4e2f-a3eb-4e262728fe3d||Sequence: R016 ve11c/master r/e634e98; Dec 19 2017 11:00:25 by eja",
  "dcmmeta_affine": [
    [-1.996222734451294, 0.12244396656751633, 0.010118401609361172, 100.73633575439453],
    [0.11389639973640442, 1.9060403108596802, -0.5950109362602234, -73.4000015258789],
    [0.04607079178094864, 0.5933109521865845, 1.9094133377075195, -63.21897506713867],
    [0.0, 0.0, 0.0, 1.0]
],
  "dcmmeta_reorient_transform": [
    [0.0, -1.0, 0.0, 103.0],
    [1.0, 0.0, 0.0, 0.0],
    [0.0, 0.0, 1.0, 0.0],
    [0.0, 0.0, 0.0, 1.0]
],
  "dcmmeta_shape": [104, 104, 60, 190],
  "dcmmeta_slice_dim": 2,
  "dcmmeta_version": 0.6,
  "global": {
    "const": {
      "AcquisitionMatrix": [104, 0, 0, 104],
      "AngioFlag": "N",
      "BitsAllocated": 16,
      "BitsStored": 16,
      "BodyPartExamined": "BRAIN",
      "Columns": 832,
      "EchoNumbers": 1,
      "EchoTime": 37.0,
      "EchoTrainLength": 104,
      "FlipAngle": 52.0,
      "HighBit": 15,
      "ImageOrientationPatient": [0.99811135310903, -0.056948198584, 0.02303539608748, 0.06122198366265, 0.95302014084084, -0.2966554902039],
      "ImagePositionPatient": [-884.54273487568, -775.26252116459, 197.0874861607],
      "ImageType": [
        "ORIGINAL",
        "PRIMARY",
        "M",
        "MB",
        "ND",
        "MOSAIC"
],
      "ImagedNucleus": "1H",
      "ImagingFrequency": 123.258869,
      "InPlanePhaseEncodingDirection": "COL",
      "MRAcquisitionType": "2D",
      "MagneticFieldStrength": 3.0,
      "Manufacturer": "SIEMENS",
      "ManufacturerModelName": "Prisma_fit",
      "Modality": "MR",
      "NumberOfAverages": 1.0,
      "NumberOfPhaseEncodingSteps": 104,
      "PercentPhaseFieldOfView": 100.0,
      "PercentSampling": 100.0,
      "PerformedProcedureStepStartTime": "142517.331000",
      "PhotometricInterpretation": "MONOCHROME2",
      "PixelBandwidth": 2290.0,
      "PixelRepresentation": 0,
      "PixelSpacing": [2.0, 2.0],
      "ProtocolName": "func_task-things_run-1",
      "RepetitionTime": 1490.0,
      "Rows": 832,
      "SAR": 0.0375605875372,
      "SamplesPerPixel": 1,
      "ScanOptions": "FS",
      "ScanningSequence": "EP",
      "SequenceName": "epfid2d1_104",
      "SequenceVariant": [
        "SK",
        "SS"
],
      "SeriesDescription": "func_task-things_run-1",
      "SeriesNumber": 10,
      "SeriesTime": "151952.816000",
      "SliceLocation": -38.009029157414,
      "SliceThickness": 2.0,
      "SmallestImagePixelValue": 0,
      "SoftwareVersions": "syngo MR E11",
      "SpacingBetweenSlices": 1.999999975914,
      "SpecificCharacterSet": "ISO_IR 100",
      "StudyID": "1",
      "StudyTime": "142517.193000",
      "TransmitCoilName": "Body",
      "VariableFlipAngleFlag": "N",
      "WindowCenter": 8608.0,
      "WindowCenterWidthExplanation": "WINDOW1",
      "WindowWidth": 20150.0,
      "dBdt": 0.0},
    "slices": {}
  },
  "time": {
    "samples": {
      "AcquisitionNumber": [1, 2, 3, 4, 5, 6, 7, 8, 9, 10, 11, 12, 13, 14, 15, 16, 17, 18, 19, 20, 21, 22, 23, 24, 25, 26, 27, 28, 29, 30, 31, 32, 33, 34, 35, 36, 37, 38, 39, 40, 41, 42, 43, 44, 45, 46, 47, 48, 49, 50, 51, 52, 53, 54, 55, 56, 57, 58, 59, 60, 61, 62, 63, 64, 65, 66, 67, 68, 69, 70, 71, 72, 73, 74, 75, 76, 77, 78, 79, 80, 81, 82, 83, 84, 85, 86, 87, 88, 89, 90, 91, 92, 93, 94, 95, 96, 97, 98, 99, 100, 101, 102, 103, 104, 105, 106, 107, 108, 109, 110, 111, 112, 113, 114, 115, 116, 117, 118, 119, 120, 121, 122, 123, 124, 125, 126, 127, 128, 129, 130, 131, 132, 133, 134, 135, 136, 137, 138, 139, 140, 141, 142, 143, 144, 145, 146, 147, 148, 149, 150, 151, 152, 153, 154, 155, 156, 157, 158, 159, 160, 161, 162, 163, 164, 165, 166, 167, 168, 169, 170, 171, 172, 173, 174, 175, 176, 177, 178, 179, 180, 181, 182, 183, 184, 185, 186, 187, 188, 189, 190],
      "AcquisitionTime": ["151833.767500", "151835.257500", "151836.747500", "151838.237500", "151839.727500", "151841.217500", "151842.707500", "151844.197500", "151845.687500", "151847.177500", "151848.667500", "151850.157500", "151851.647500", "151853.137500", "151854.627500", "151856.117500", "151857.607500", "151859.097500", "151900.587500", "151902.077500", "151903.567500", "151905.057500", "151906.547500", "151908.037500", "151909.527500", "151911.017500", "151912.507500", "151913.997500", "151915.487500", "151916.977500", "151918.467500", "151919.957500", "151921.447500", "151922.937500", "151924.427500", "151925.917500", "151927.407500", "151928.897500", "151930.387500", "151931.877500", "151933.367500", "151934.857500", "151936.347500", "151937.837500", "151939.327500", "151940.817500", "151942.307500", "151943.797500", "151945.287500", "151946.777500", "151948.267500", "151949.757500", "151951.247500", "151952.737500", "151954.227500", "151955.717500", "151957.207500", "151958.697500", "152000.187500", "152001.677500", "152003.167500", "152004.657500", "152006.147500", "152007.637500", "152009.127500", "152010.617500", "152012.107500", "152013.597500", "152015.087500", "152016.577500", "152018.067500", "152019.557500", "152021.047500", "152022.537500", "152024.027500", "152025.517500", "152027.007500", "152028.497500", "152029.987500", "152031.477500", "152032.967500", "152034.457500", "152035.947500", "152037.437500", "152038.927500", "152040.417500", "152041.907500", "152043.397500", "152044.887500", "152046.377500", "152047.867500", "152049.357500", "152050.847500", "152052.337500", "152053.827500", "152055.317500", "152056.807500", "152058.297500", "152059.787500", "152101.277500", "152102.767500", "152104.257500", "152105.747500", "152107.237500", "152108.727500", "152110.217500", "152111.707500", "152113.197500", "152114.687500", "152116.177500", "152117.667500", "152119.157500", "152120.647500", "152122.137500", "152123.627500", "152125.117500", "152126.607500", "152128.097500", "152129.587500", "152131.077500", "152132.567500", "152134.057500", "152135.547500", "152137.037500", "152138.527500", "152140.017500", "152141.507500", "152142.997500", "152144.487500", "152145.977500", "152147.467500", "152148.957500", "152150.447500", "152151.937500", "152153.427500", "152154.917500", "152156.407500", "152157.897500", "152159.387500", "152200.877500", "152202.367500", "152203.857500", "152205.347500", "152206.837500", "152208.327500", "152209.817500", "152211.307500", "152212.797500", "152214.287500", "152215.777500", "152217.267500", "152218.757500", "152220.247500", "152221.737500", "152223.227500", "152224.717500", "152226.207500", "152227.697500", "152229.187500", "152230.677500", "152232.167500", "152233.657500", "152235.147500", "152236.637500", "152238.127500", "152239.617500", "152241.107500", "152242.597500", "152244.087500", "152245.577500", "152247.067500", "152248.557500", "152250.047500", "152251.537500", "152253.027500", "152254.517500", "152256.007500", "152257.497500", "152258.987500", "152300.477500", "152301.967500", "152303.457500", "152304.947500", "152306.437500", "152307.927500", "152309.417500", "152310.907500", "152312.397500", "152313.887500", "152315.377500"],
      "ContentTime": ["151952.819000", "151952.823000", "151952.826000", "151952.830000", "151952.833000", "151952.836000", "151952.840000", "151952.843000", "151952.846000", "151952.849000", "151952.853000", "151952.856000", "151952.859000", "151952.863000", "151952.866000", "151952.869000", "151952.873000", "151952.876000", "151952.879000", "151952.882000", "151952.886000", "151952.899000", "151952.902000", "151952.905000", "152012.783000", "152012.787000", "152012.790000", "152012.794000", "152012.797000", "152012.800000", "152012.803000", "152012.807000", "152012.810000", "152012.814000", "152012.817000", "152012.820000", "152012.824000", "152012.827000", "152012.830000", "152012.834000", "152012.849000", "152012.852000", "152012.855000", "152012.859000", "152032.782000", "152032.786000", "152032.789000", "152032.803000", "152032.806000", "152032.810000", "152032.813000", "152032.816000", "152032.820000", "152032.823000", "152032.826000", "152032.830000", "152032.833000", "152032.836000", "152032.843000", "152032.847000", "152032.850000", "152032.854000", "152032.857000", "152032.860000", "152032.864000", "152052.782000", "152052.786000", "152052.789000", "152052.793000", "152052.796000", "152052.799000", "152052.803000", "152052.806000", "152052.809000", "152052.813000", "152052.816000", "152052.819000", "152052.823000", "152052.826000", "152052.829000", "152052.833000", "152052.836000", "152052.839000", "152052.843000", "152052.846000", "152112.782000", "152112.786000", "152112.789000", "152112.792000", "152112.796000", "152112.799000", "152112.802000", "152112.806000", "152112.809000", "152112.812000", "152112.816000", "152112.819000", "152112.822000", "152112.825000", "152112.829000", "152112.832000", "152112.835000", "152112.839000", "152112.842000", "152112.845000", "152152.782000", "152152.786000", "152152.789000", "152152.793000", "152152.796000", "152152.799000", "152152.802000", "152152.806000", "152152.809000", "152152.812000", "152152.816000", "152152.819000", "152152.822000", "152152.826000", "152152.829000", "152152.832000", "152152.836000", "152152.839000", "152152.842000", "152152.845000", "152152.863000", "152152.866000", "152152.870000", "152152.873000", "152152.876000", "152152.879000", "152152.883000", "152152.886000", "152232.783000", "152232.787000", "152232.790000", "152232.794000", "152232.797000", "152232.800000", "152232.804000", "152232.808000", "152232.811000", "152232.814000", "152232.818000", "152232.821000", "152232.824000", "152232.828000", "152232.831000", "152232.834000", "152232.838000", "152232.841000", "152232.844000", "152232.848000", "152232.851000", "152232.855000", "152232.858000", "152232.861000", "152232.864000", "152232.868000", "152232.871000", "152312.782000", "152312.786000", "152312.789000", "152312.793000", "152312.796000", "152312.800000", "152312.803000", "152312.807000", "152312.810000", "152312.813000", "152312.817000", "152312.820000", "152312.823000", "152312.827000", "152312.830000", "152312.833000", "152312.837000", "152312.840000", "152312.843000", "152312.847000", "152312.850000", "152312.853000", "152312.857000", "152312.860000", "152312.863000", "152312.868000", "152317.423000", "152317.427000", "152317.430000", "152317.434000"],
      "InstanceCreationTime": ["151952.819000", "151952.823000", "151952.826000", "151952.830000", "151952.833000", "151952.836000", "151952.840000", "151952.843000", "151952.846000", "151952.849000", "151952.853000", "151952.856000", "151952.859000", "151952.863000", "151952.866000", "151952.869000", "151952.873000", "151952.876000", "151952.879000", "151952.882000", "151952.886000", "151952.899000", "151952.902000", "151952.905000", "152012.783000", "152012.787000", "152012.790000", "152012.794000", "152012.797000", "152012.800000", "152012.803000", "152012.807000", "152012.810000", "152012.814000", "152012.817000", "152012.820000", "152012.824000", "152012.827000", "152012.830000", "152012.834000", "152012.849000", "152012.852000", "152012.855000", "152012.859000", "152032.782000", "152032.786000", "152032.789000", "152032.803000", "152032.806000", "152032.810000", "152032.813000", "152032.816000", "152032.820000", "152032.823000", "152032.826000", "152032.830000", "152032.833000", "152032.836000", "152032.843000", "152032.847000", "152032.850000", "152032.854000", "152032.857000", "152032.860000", "152032.864000", "152052.782000", "152052.786000", "152052.789000", "152052.793000", "152052.796000", "152052.799000", "152052.803000", "152052.806000", "152052.809000", "152052.813000", "152052.816000", "152052.819000", "152052.823000", "152052.826000", "152052.829000", "152052.833000", "152052.836000", "152052.839000", "152052.843000", "152052.846000", "152112.782000", "152112.786000", "152112.789000", "152112.792000", "152112.796000", "152112.799000", "152112.802000", "152112.806000", "152112.809000", "152112.812000", "152112.816000", "152112.819000", "152112.822000", "152112.825000", "152112.829000", "152112.832000", "152112.835000", "152112.839000", "152112.842000", "152112.845000", "152152.782000", "152152.786000", "152152.789000", "152152.793000", "152152.796000", "152152.799000", "152152.802000", "152152.806000", "152152.809000", "152152.812000", "152152.816000", "152152.819000", "152152.822000", "152152.826000", "152152.829000", "152152.832000", "152152.836000", "152152.839000", "152152.842000", "152152.845000", "152152.863000", "152152.866000", "152152.870000", "152152.873000", "152152.876000", "152152.879000", "152152.883000", "152152.886000", "152232.783000", "152232.787000", "152232.790000", "152232.794000", "152232.797000", "152232.800000", "152232.804000", "152232.808000", "152232.811000", "152232.814000", "152232.818000", "152232.821000", "152232.824000", "152232.828000", "152232.831000", "152232.834000", "152232.838000", "152232.841000", "152232.844000", "152232.848000", "152232.851000", "152232.855000", "152232.858000", "152232.861000", "152232.864000", "152232.868000", "152232.871000", "152312.782000", "152312.786000", "152312.789000", "152312.793000", "152312.796000", "152312.800000", "152312.803000", "152312.807000", "152312.810000", "152312.813000", "152312.817000", "152312.820000", "152312.823000", "152312.827000", "152312.830000", "152312.833000", "152312.837000", "152312.840000", "152312.843000", "152312.847000", "152312.850000", "152312.853000", "152312.857000", "152312.860000", "152312.863000", "152312.868000", "152317.423000", "152317.427000", "152317.430000", "152317.434000"],
      "InstanceNumber": [1, 2, 3, 4, 5, 6, 7, 8, 9, 10, 11, 12, 13, 14, 15, 16, 17, 18, 19, 20, 21, 22, 23, 24, 25, 26, 27, 28, 29, 30, 31, 32, 33, 34, 35, 36, 37, 38, 39, 40, 41, 42, 43, 44, 45, 46, 47, 48, 49, 50, 51, 52, 53, 54, 55, 56, 57, 58, 59, 60, 61, 62, 63, 64, 65, 66, 67, 68, 69, 70, 71, 72, 73, 74, 75, 76, 77, 78, 79, 80, 81, 82, 83, 84, 85, 86, 87, 88, 89, 90, 91, 92, 93, 94, 95, 96, 97, 98, 99, 100, 101, 102, 103, 104, 105, 106, 107, 108, 109, 110, 111, 112, 113, 114, 115, 116, 117, 118, 119, 120, 121, 122, 123, 124, 125, 126, 127, 128, 129, 130, 131, 132, 133, 134, 135, 136, 137, 138, 139, 140, 141, 142, 143, 144, 145, 146, 147, 148, 149, 150, 151, 152, 153, 154, 155, 156, 157, 158, 159, 160, 161, 162, 163, 164, 165, 166, 167, 168, 169, 170, 171, 172, 173, 174, 175, 176, 177, 178, 179, 180, 181, 182, 183, 184, 185, 186, 187, 188, 189, 190],
      "LargestImagePixelValue": [44392, 42984, 40960, 41370, 40464, 40858, 41366, 41104, 41175, 40940, 40578, 40627, 40523, 40782, 40670, 41564, 41312, 40249, 39978, 40214, 40372, 40462, 41048, 40932, 40881, 40837, 40134, 40077, 40557, 39710, 40626, 40735, 40623, 40316, 41093, 40750, 40953, 41051, 41100, 41030, 40827, 40702, 41101, 40582, 40725, 40768, 40519, 40584, 40539, 40543, 40309, 41098, 40292, 40917, 41070, 41140, 41007, 41398, 40802, 40354, 41044, 41021, 40732, 41092, 41271, 40150, 40177, 40567, 41042, 40330, 40858, 40756, 40196, 40402, 40627, 40138, 40175, 40623, 40752, 40308, 40279, 40772, 40643, 40608, 40718, 40961, 40503, 41028, 40517, 40225, 40991, 40577, 40931, 40742, 40819, 40614, 41152, 41050, 40307, 40758, 40690, 40758, 40120, 40556, 40438, 40732, 40930, 40941, 40888, 40881, 40337, 40836, 40411, 41005, 40697, 41128, 41108, 40481, 40597, 40623, 40811, 40660, 41045, 40797, 40522, 40123, 40178, 40618, 40342, 40595, 40887, 40609, 41035, 40874, 40577, 41011, 41014, 40944, 40666, 40823, 40472, 40576, 40747, 40142, 40587, 40133, 40481, 40663, 41097, 39608, 39325, 39702, 40361, 40818, 40911, 40958, 40828, 40858, 41078, 40993, 40998, 40820, 40049, 41225, 40921, 40550, 40938, 40613, 41251, 40581, 40914, 41177, 40455, 40513, 40812, 40817, 40692, 40824, 41010, 40712, 41060, 40279, 40813, 41232, 40915, 40032, 40677, 40942, 41103, 41216]
    },
    "slices": {}
  }
}