{
  "AcquisitionMatrixPE": 104,
  "AcquisitionNumber": 1,
  "AcquisitionTime": "15:24:47.470000",
  "BandwidthPerPixelPhaseEncode": 17.17,
  "BaseResolution": 104,
  "BodyPartExamined": "BRAIN",
  "CoilString": "HC1-7;NC1_2",
  "ConsistencyInfo": "N4_VE11C_LATEST_20160120",
  "ConversionSoftware": "dcm2niix",
  "ConversionSoftwareVersion": "v1.0.20190902",
  "DerivedVendorReportedEchoSpacing": 0.000560011,
  "DeviceSerialNumber": "167006",
  "DwellTime": 2.1e-06,
  "EchoTime": 0.037,
  "EchoTrainLength": 104,
  "EffectiveEchoSpacing": 0.000560011,
  "FlipAngle": 52,
  "HeudiconvVersion": "0.10.0",
  "ImageComments": "Unaliased_MB4_PE3_LB",
  "ImageOrientationPatientDICOM": [0.998111, -0.0569482, 0.0230354, 0.061222, 0.95302, -0.296655],
  "ImageType": [
    "ORIGINAL",
    "PRIMARY",
    "P",
    "MB",
    "ND",
    "MOSAIC"
],
  "ImagingFrequency": 123.259,
  "InPlanePhaseEncodingDirectionDICOM": "COL",
  "InstitutionAddress": "Chemin_Queen-Mary_4565_Montreal_District_CA_H3W_1W5",
  "InstitutionName": "IUGM",
  "InstitutionalDepartmentName": "Department",
  "MRAcquisitionType": "2D",
  "MagneticFieldStrength": 3,
  "Manufacturer": "Siemens",
  "ManufacturersModelName": "Prisma_fit",
  "Modality": "MR",
  "MultibandAccelerationFactor": 4,
  "PartialFourier": 1,
  "PatientPosition": "HFS",
  "PercentPhaseFOV": 100,
  "PhaseEncodingDirection": "j",
  "PhaseEncodingSteps": 104,
  "PhaseResolution": 1,
  "PixelBandwidth": 2290,
  "ProcedureStepDescription": "memory_things",
  "ProtocolName": "func_task-things_run-2",
  "PulseSequenceDetails": "%CustomerSeq%_cmrr_mbep2d_bold",
  "ReceiveCoilActiveElements": "HC1-7;NC1,2",
  "ReceiveCoilName": "HeadNeck_64",
  "ReconMatrixPE": 104,
  "RepetitionTime": 1.49,
  "SAR": 0.0375606,
  "ScanOptions": "FS",
  "ScanningSequence": "EP",
  "SequenceName": "epfid2d1_104",
  "SequenceVariant": "SK_SS",
  "SeriesDescription": "func_task-things_run-2",
  "SeriesNumber": 14,
  "ShimSetting": [626, -7249, -8820, 595, -7, -214, -35, -39],
  "SliceThickness": 2,
  "SliceTiming": [0, 0.7825, 0.0975, 0.8825, 0.195, 0.98, 0.2925, 1.0775, 0.3925, 1.175, 0.49, 1.2725, 0.5875, 1.3725, 0.685, 0, 0.7825, 0.0975, 0.8825, 0.195, 0.98, 0.2925, 1.0775, 0.3925, 1.175, 0.49, 1.2725, 0.5875, 1.3725, 0.685, 0, 0.7825, 0.0975, 0.8825, 0.195, 0.98, 0.2925, 1.0775, 0.3925, 1.175, 0.49, 1.2725, 0.5875, 1.3725, 0.685, 0, 0.7825, 0.0975, 0.8825, 0.195, 0.98, 0.2925, 1.0775, 0.3925, 1.175, 0.49, 1.2725, 0.5875, 1.3725, 0.685],
  "SoftwareVersions": "syngo_MR_E11",
  "SpacingBetweenSlices": 2,
  "StationName": "MRC35049",
  "TaskName": "things",
  "TotalReadoutTime": 0.0576811,
  "TxRefAmp": 234.544,
  "WipMemBlock": "10a984b1-573f-403b-a63f-22984177d3d2||Sequence: R016 ve11c/master r/e634e98; Dec 19 2017 11:00:25 by eja",
  "dcmmeta_affine": [
    [-1.996222734451294, 0.12244396656751633, 0.010118401609361172, 100.73633575439453],
    [0.11389639973640442, 1.9060403108596802, -0.5950109362602234, -73.4000015258789],
    [0.04607079178094864, 0.5933109521865845, 1.9094133377075195, -63.21897506713867],
    [0.0, 0.0, 0.0, 1.0]
],
  "dcmmeta_reorient_transform": [
    [0.0, -1.0, 0.0, 103.0],
    [1.0, 0.0, 0.0, 0.0],
    [0.0, 0.0, 1.0, 0.0],
    [0.0, 0.0, 0.0, 1.0]
],
  "dcmmeta_shape": [104, 104, 60, 190],
  "dcmmeta_slice_dim": 2,
  "dcmmeta_version": 0.6,
  "global": {
    "const": {
      "AcquisitionMatrix": [104, 0, 0, 104],
      "AngioFlag": "N",
      "BitsAllocated": 16,
      "BitsStored": 16,
      "BodyPartExamined": "BRAIN",
      "Columns": 832,
      "EchoNumbers": 1,
      "EchoTime": 37.0,
      "EchoTrainLength": 104,
      "FlipAngle": 52.0,
      "HighBit": 15,
      "ImageOrientationPatient": [0.99811135310903, -0.056948198584, 0.02303539608748, 0.06122198366265, 0.95302014084084, -0.2966554902039],
      "ImagePositionPatient": [-884.54273487568, -775.26252116459, 197.0874861607],
      "ImageType": [
        "ORIGINAL",
        "PRIMARY",
        "P",
        "MB",
        "ND",
        "MOSAIC"
],
      "ImagedNucleus": "1H",
      "ImagingFrequency": 123.258874,
      "InPlanePhaseEncodingDirection": "COL",
      "LargestImagePixelValue": 4095,
      "MRAcquisitionType": "2D",
      "MagneticFieldStrength": 3.0,
      "Manufacturer": "SIEMENS",
      "ManufacturerModelName": "Prisma_fit",
      "Modality": "MR",
      "NumberOfAverages": 1.0,
      "NumberOfPhaseEncodingSteps": 104,
      "PercentPhaseFieldOfView": 100.0,
      "PercentSampling": 100.0,
      "PerformedProcedureStepStartTime": "142517.331000",
      "PhotometricInterpretation": "MONOCHROME2",
      "PixelBandwidth": 2290.0,
      "PixelRepresentation": 0,
      "PixelSpacing": [2.0, 2.0],
      "ProtocolName": "func_task-things_run-2",
      "RepetitionTime": 1490.0,
      "RescaleIntercept": -4096.0,
      "RescaleSlope": 2.0,
      "RescaleType": "US",
      "Rows": 832,
      "SAR": 0.0375605875372,
      "SamplesPerPixel": 1,
      "ScanOptions": "FS",
      "ScanningSequence": "EP",
      "SequenceName": "epfid2d1_104",
      "SequenceVariant": [
        "SK",
        "SS"
],
      "SeriesDescription": "func_task-things_run-2",
      "SeriesNumber": 14,
      "SeriesTime": "152609.738000",
      "SliceLocation": -38.009029157414,
      "SliceThickness": 2.0,
      "SmallestImagePixelValue": 0,
      "SoftwareVersions": "syngo MR E11",
      "SpacingBetweenSlices": 1.999999975914,
      "SpecificCharacterSet": "ISO_IR 100",
      "StudyID": "1",
      "StudyTime": "142517.193000",
      "TransmitCoilName": "Body",
      "VariableFlipAngleFlag": "N",
      "WindowCenterWidthExplanation": "Algo1",
      "dBdt": 0.0},
    "slices": {}
  },
  "time": {
    "samples": {
      "AcquisitionNumber": [1, 2, 3, 4, 5, 6, 7, 8, 9, 10, 11, 12, 13, 14, 15, 16, 17, 18, 19, 20, 21, 22, 23, 24, 25, 26, 27, 28, 29, 30, 31, 32, 33, 34, 35, 36, 37, 38, 39, 40, 41, 42, 43, 44, 45, 46, 47, 48, 49, 50, 51, 52, 53, 54, 55, 56, 57, 58, 59, 60, 61, 62, 63, 64, 65, 66, 67, 68, 69, 70, 71, 72, 73, 74, 75, 76, 77, 78, 79, 80, 81, 82, 83, 84, 85, 86, 87, 88, 89, 90, 91, 92, 93, 94, 95, 96, 97, 98, 99, 100, 101, 102, 103, 104, 105, 106, 107, 108, 109, 110, 111, 112, 113, 114, 115, 116, 117, 118, 119, 120, 121, 122, 123, 124, 125, 126, 127, 128, 129, 130, 131, 132, 133, 134, 135, 136, 137, 138, 139, 140, 141, 142, 143, 144, 145, 146, 147, 148, 149, 150, 151, 152, 153, 154, 155, 156, 157, 158, 159, 160, 161, 162, 163, 164, 165, 166, 167, 168, 169, 170, 171, 172, 173, 174, 175, 176, 177, 178, 179, 180, 181, 182, 183, 184, 185, 186, 187, 188, 189, 190],
      "AcquisitionTime": ["152447.470000", "152448.960000", "152450.450000", "152451.940000", "152453.430000", "152454.920000", "152456.410000", "152457.900000", "152459.390000", "152500.880000", "152502.370000", "152503.860000", "152505.350000", "152506.840000", "152508.330000", "152509.820000", "152511.310000", "152512.800000", "152514.290000", "152515.780000", "152517.270000", "152518.760000", "152520.250000", "152521.740000", "152523.230000", "152524.720000", "152526.210000", "152527.700000", "152529.190000", "152530.680000", "152532.170000", "152533.660000", "152535.150000", "152536.640000", "152538.130000", "152539.620000", "152541.110000", "152542.600000", "152544.090000", "152545.580000", "152547.070000", "152548.560000", "152550.050000", "152551.540000", "152553.030000", "152554.520000", "152556.010000", "152557.500000", "152558.990000", "152600.480000", "152601.970000", "152603.460000", "152604.950000", "152606.440000", "152607.930000", "152609.420000", "152610.910000", "152612.400000", "152613.890000", "152615.380000", "152616.870000", "152618.360000", "152619.850000", "152621.340000", "152622.830000", "152624.320000", "152625.810000", "152627.300000", "152628.790000", "152630.280000", "152631.770000", "152633.260000", "152634.750000", "152636.240000", "152637.730000", "152639.220000", "152640.710000", "152642.200000", "152643.690000", "152645.180000", "152646.670000", "152648.160000", "152649.650000", "152651.140000", "152652.630000", "152654.120000", "152655.610000", "152657.100000", "152658.590000", "152700.080000", "152701.570000", "152703.060000", "152704.550000", "152706.040000", "152707.530000", "152709.020000", "152710.510000", "152712.000000", "152713.490000", "152714.980000", "152716.470000", "152717.960000", "152719.450000", "152720.940000", "152722.430000", "152723.920000", "152725.410000", "152726.900000", "152728.390000", "152729.880000", "152731.370000", "152732.860000", "152734.350000", "152735.840000", "152737.330000", "152738.820000", "152740.310000", "152741.800000", "152743.290000", "152744.780000", "152746.270000", "152747.760000", "152749.250000", "152750.740000", "152752.230000", "152753.720000", "152755.210000", "152756.700000", "152758.190000", "152759.680000", "152801.170000", "152802.660000", "152804.150000", "152805.640000", "152807.130000", "152808.620000", "152810.110000", "152811.600000", "152813.090000", "152814.580000", "152816.070000", "152817.560000", "152819.050000", "152820.540000", "152822.030000", "152823.520000", "152825.010000", "152826.500000", "152827.990000", "152829.480000", "152830.970000", "152832.460000", "152833.950000", "152835.440000", "152836.930000", "152838.420000", "152839.910000", "152841.400000", "152842.890000", "152844.380000", "152845.870000", "152847.360000", "152848.850000", "152850.340000", "152851.830000", "152853.320000", "152854.810000", "152856.300000", "152857.790000", "152859.280000", "152900.770000", "152902.260000", "152903.750000", "152905.240000", "152906.730000", "152908.220000", "152909.710000", "152911.200000", "152912.690000", "152914.180000", "152915.670000", "152917.160000", "152918.650000", "152920.140000", "152921.630000", "152923.120000", "152924.610000", "152926.100000", "152927.590000", "152929.080000"],
      "ContentTime": ["152609.740000", "152609.743000", "152609.746000", "152609.749000", "152609.752000", "152609.755000", "152609.757000", "152609.760000", "152609.763000", "152609.766000", "152609.779000", "152609.782000", "152609.784000", "152609.787000", "152609.789000", "152609.792000", "152609.795000", "152609.797000", "152609.799000", "152609.802000", "152609.804000", "152609.807000", "152609.810000", "152609.812000", "152609.815000", "152609.817000", "152609.819000", "152629.697000", "152629.700000", "152629.702000", "152629.713000", "152629.716000", "152629.719000", "152629.721000", "152629.724000", "152629.726000", "152629.729000", "152629.731000", "152629.734000", "152629.736000", "152629.739000", "152629.741000", "152629.744000", "152629.746000", "152629.749000", "152629.751000", "152629.754000", "152649.679000", "152649.682000", "152649.685000", "152649.687000", "152649.690000", "152649.692000", "152649.695000", "152649.697000", "152649.700000", "152649.702000", "152649.705000", "152649.707000", "152649.710000", "152649.712000", "152649.715000", "152649.717000", "152649.720000", "152649.722000", "152649.725000", "152649.727000", "152649.730000", "152709.691000", "152709.694000", "152709.696000", "152709.698000", "152709.701000", "152709.703000", "152709.706000", "152709.708000", "152709.711000", "152709.713000", "152709.716000", "152709.719000", "152709.721000", "152709.724000", "152709.726000", "152709.729000", "152709.731000", "152709.734000", "152709.736000", "152709.739000", "152729.701000", "152729.704000", "152729.707000", "152729.709000", "152729.712000", "152729.714000", "152729.717000", "152729.719000", "152729.722000", "152729.724000", "152729.726000", "152729.729000", "152729.731000", "152729.734000", "152729.737000", "152729.739000", "152729.742000", "152729.744000", "152729.747000", "152729.749000", "152809.714000", "152809.717000", "152809.720000", "152809.722000", "152809.725000", "152809.727000", "152809.730000", "152809.732000", "152809.735000", "152809.737000", "152809.740000", "152809.743000", "152809.745000", "152809.747000", "152809.750000", "152809.752000", "152809.755000", "152809.758000", "152809.760000", "152809.763000", "152809.765000", "152809.768000", "152809.770000", "152809.773000", "152809.775000", "152809.778000", "152809.780000", "152849.705000", "152849.707000", "152849.710000", "152849.712000", "152849.715000", "152849.717000", "152849.720000", "152849.722000", "152849.725000", "152849.728000", "152849.730000", "152849.733000", "152849.735000", "152849.738000", "152849.740000", "152849.743000", "152849.745000", "152849.748000", "152849.750000", "152849.753000", "152849.755000", "152849.758000", "152849.760000", "152849.763000", "152849.765000", "152849.768000", "152849.770000", "152929.713000", "152929.716000", "152929.719000", "152929.721000", "152929.724000", "152929.726000", "152929.729000", "152929.731000", "152929.734000", "152929.736000", "152929.739000", "152929.741000", "152929.744000", "152929.746000", "152929.749000", "152929.751000", "152929.754000", "152929.756000", "152929.759000", "152929.762000", "152929.764000", "152929.767000", "152929.769000", "152929.772000", "152929.774000", "152929.777000", "152929.779000", "152931.021000"],
      "InstanceCreationTime": ["152609.740000", "152609.743000", "152609.746000", "152609.749000", "152609.752000", "152609.755000", "152609.757000", "152609.760000", "152609.763000", "152609.766000", "152609.779000", "152609.782000", "152609.784000", "152609.787000", "152609.789000", "152609.792000", "152609.795000", "152609.797000", "152609.799000", "152609.802000", "152609.804000", "152609.807000", "152609.810000", "152609.812000", "152609.815000", "152609.817000", "152609.819000", "152629.697000", "152629.700000", "152629.702000", "152629.713000", "152629.716000", "152629.719000", "152629.721000", "152629.724000", "152629.726000", "152629.729000", "152629.731000", "152629.734000", "152629.736000", "152629.739000", "152629.741000", "152629.744000", "152629.746000", "152629.749000", "152629.751000", "152629.754000", "152649.679000", "152649.682000", "152649.685000", "152649.687000", "152649.690000", "152649.692000", "152649.695000", "152649.697000", "152649.700000", "152649.702000", "152649.705000", "152649.707000", "152649.710000", "152649.712000", "152649.715000", "152649.717000", "152649.720000", "152649.722000", "152649.725000", "152649.727000", "152649.730000", "152709.691000", "152709.694000", "152709.696000", "152709.698000", "152709.701000", "152709.703000", "152709.706000", "152709.708000", "152709.711000", "152709.713000", "152709.716000", "152709.719000", "152709.721000", "152709.724000", "152709.726000", "152709.729000", "152709.731000", "152709.734000", "152709.736000", "152709.739000", "152729.701000", "152729.704000", "152729.707000", "152729.709000", "152729.712000", "152729.714000", "152729.717000", "152729.719000", "152729.722000", "152729.724000", "152729.726000", "152729.729000", "152729.731000", "152729.734000", "152729.737000", "152729.739000", "152729.742000", "152729.744000", "152729.747000", "152729.749000", "152809.714000", "152809.717000", "152809.720000", "152809.722000", "152809.725000", "152809.727000", "152809.730000", "152809.732000", "152809.735000", "152809.737000", "152809.740000", "152809.743000", "152809.745000", "152809.747000", "152809.750000", "152809.752000", "152809.755000", "152809.758000", "152809.760000", "152809.763000", "152809.765000", "152809.768000", "152809.770000", "152809.773000", "152809.775000", "152809.778000", "152809.780000", "152849.705000", "152849.707000", "152849.710000", "152849.712000", "152849.715000", "152849.717000", "152849.720000", "152849.722000", "152849.725000", "152849.728000", "152849.730000", "152849.733000", "152849.735000", "152849.738000", "152849.740000", "152849.743000", "152849.745000", "152849.748000", "152849.750000", "152849.753000", "152849.755000", "152849.758000", "152849.760000", "152849.763000", "152849.765000", "152849.768000", "152849.770000", "152929.713000", "152929.716000", "152929.719000", "152929.721000", "152929.724000", "152929.726000", "152929.729000", "152929.731000", "152929.734000", "152929.736000", "152929.739000", "152929.741000", "152929.744000", "152929.746000", "152929.749000", "152929.751000", "152929.754000", "152929.756000", "152929.759000", "152929.762000", "152929.764000", "152929.767000", "152929.769000", "152929.772000", "152929.774000", "152929.777000", "152929.779000", "152931.021000"],
      "InstanceNumber": [1, 2, 3, 4, 5, 6, 7, 8, 9, 10, 11, 12, 13, 14, 15, 16, 17, 18, 19, 20, 21, 22, 23, 24, 25, 26, 27, 28, 29, 30, 31, 32, 33, 34, 35, 36, 37, 38, 39, 40, 41, 42, 43, 44, 45, 46, 47, 48, 49, 50, 51, 52, 53, 54, 55, 56, 57, 58, 59, 60, 61, 62, 63, 64, 65, 66, 67, 68, 69, 70, 71, 72, 73, 74, 75, 76, 77, 78, 79, 80, 81, 82, 83, 84, 85, 86, 87, 88, 89, 90, 91, 92, 93, 94, 95, 96, 97, 98, 99, 100, 101, 102, 103, 104, 105, 106, 107, 108, 109, 110, 111, 112, 113, 114, 115, 116, 117, 118, 119, 120, 121, 122, 123, 124, 125, 126, 127, 128, 129, 130, 131, 132, 133, 134, 135, 136, 137, 138, 139, 140, 141, 142, 143, 144, 145, 146, 147, 148, 149, 150, 151, 152, 153, 154, 155, 156, 157, 158, 159, 160, 161, 162, 163, 164, 165, 166, 167, 168, 169, 170, 171, 172, 173, 174, 175, 176, 177, 178, 179, 180, 181, 182, 183, 184, 185, 186, 187, 188, 189, 190],
      "WindowCenter": [4818.0, 4814.0, 4816.0, 4820.0, 4816.0, 4816.0, 4814.0, 4810.0, 4814.0, 4818.0, 4816.0, 4818.0, 4816.0, 4818.0, 4818.0, 4818.0, 4818.0, 4818.0, 4816.0, 4822.0, 4820.0, 4814.0, 4810.0, 4812.0, 4812.0, 4820.0, 4814.0, 4822.0, 4814.0, 4822.0, 4820.0, 4818.0, 4820.0, 4814.0, 4816.0, 4822.0, 4814.0, 4818.0, 4818.0, 4818.0, 4822.0, 4818.0, 4818.0, 4816.0, 4818.0, 4812.0, 4818.0, 4818.0, 4816.0, 4818.0, 4818.0, 4818.0, 4818.0, 4812.0, 4814.0, 4818.0, 4820.0, 4816.0, 4818.0, 4818.0, 4818.0, 4816.0, 4820.0, 4816.0, 4816.0, 4816.0, 4818.0, 4818.0, 4820.0, 4818.0, 4812.0, 4824.0, 4822.0, 4820.0, 4818.0, 4816.0, 4820.0, 4818.0, 4820.0, 4818.0, 4822.0, 4818.0, 4816.0, 4820.0, 4820.0, 4816.0, 4816.0, 4816.0, 4820.0, 4818.0, 4818.0, 4818.0, 4818.0, 4818.0, 4818.0, 4818.0, 4818.0, 4820.0, 4812.0, 4818.0, 4818.0, 4816.0, 4816.0, 4814.0, 4812.0, 4816.0, 4816.0, 4818.0, 4818.0, 4822.0, 4794.0, 4816.0, 4810.0, 4812.0, 4808.0, 4814.0, 4816.0, 4820.0, 4814.0, 4818.0, 4816.0, 4818.0, 4818.0, 4814.0, 4814.0, 4814.0, 4810.0, 4816.0, 4814.0, 4818.0, 4818.0, 4816.0, 4816.0, 4812.0, 4818.0, 4816.0, 4816.0, 4818.0, 4816.0, 4816.0, 4818.0, 4816.0, 4820.0, 4816.0, 4814.0, 4816.0, 4816.0, 4816.0, 4814.0, 4816.0, 4812.0, 4816.0, 4812.0, 4822.0, 4820.0, 4818.0, 4814.0, 4812.0, 4814.0, 4816.0, 4816.0, 4818.0, 4822.0, 4818.0, 4814.0, 4812.0, 4782.0, 4810.0, 4816.0, 4818.0, 4818.0, 4814.0, 4814.0, 4814.0, 4816.0, 4818.0, 4788.0, 4790.0, 4792.0, 4794.0, 4820.0, 4816.0, 4814.0, 4812.0, 4814.0, 4812.0, 4820.0, 4816.0, 4814.0, 4814.0],
      "WindowWidth": [18618.0, 18616.0, 18618.0, 18606.0, 18596.0, 18620.0, 18620.0, 18614.0, 18616.0, 18622.0, 18620.0, 18608.0, 18612.0, 18614.0, 18608.0, 18612.0, 18620.0, 18624.0, 18614.0, 18600.0, 18606.0, 18620.0, 18612.0, 18614.0, 18614.0, 18620.0, 18614.0, 18616.0, 18610.0, 18616.0, 18618.0, 18622.0, 18618.0, 18620.0, 18618.0, 18614.0, 18620.0, 18620.0, 18616.0, 18620.0, 18616.0, 18618.0, 18620.0, 18620.0, 18618.0, 18618.0, 18614.0, 18620.0, 18616.0, 18604.0, 18600.0, 18624.0, 18622.0, 18612.0, 18620.0, 18620.0, 18618.0, 18614.0, 18612.0, 18606.0, 18614.0, 18618.0, 18620.0, 18614.0, 18618.0, 18614.0, 18618.0, 18608.0, 18612.0, 18618.0, 18620.0, 18616.0, 18622.0, 18616.0, 18618.0, 18614.0, 18620.0, 18618.0, 18620.0, 18618.0, 18610.0, 18618.0, 18620.0, 18616.0, 18620.0, 18622.0, 18614.0, 18614.0, 18614.0, 18620.0, 18614.0, 18618.0, 18620.0, 18624.0, 18616.0, 18616.0, 18624.0, 18616.0, 18614.0, 18616.0, 18594.0, 18602.0, 18616.0, 18618.0, 18618.0, 18620.0, 18616.0, 18622.0, 18618.0, 18590.0, 18540.0, 18600.0, 18618.0, 18618.0, 18618.0, 18622.0, 18610.0, 18620.0, 18614.0, 18612.0, 18616.0, 18612.0, 18600.0, 18610.0, 18618.0, 18620.0, 18618.0, 18620.0, 18620.0, 18618.0, 18608.0, 18610.0, 18618.0, 18614.0, 18624.0, 18618.0, 18620.0, 18620.0, 18626.0, 18620.0, 18618.0, 18622.0, 18618.0, 18622.0, 18616.0, 18620.0, 18622.0, 18618.0, 18620.0, 18620.0, 18618.0, 18614.0, 18610.0, 18596.0, 18594.0, 18616.0, 18612.0, 18616.0, 18618.0, 18626.0, 18606.0, 18608.0, 18604.0, 18590.0, 18610.0, 18624.0, 18578.0, 18612.0, 18604.0, 18584.0, 18614.0, 18618.0, 18620.0, 18624.0, 18620.0, 18622.0, 18564.0, 18576.0, 18570.0, 18562.0, 18620.0, 18622.0, 18620.0, 18616.0, 18620.0, 18616.0, 18620.0, 18616.0, 18610.0, 18610.0]
    },
    "slices": {}
  }
}