{
  "AcquisitionMatrixPE": 104,
  "AcquisitionNumber": 1,
  "AcquisitionTime": "15:37:16.710000",
  "BandwidthPerPixelPhaseEncode": 17.17,
  "BaseResolution": 104,
  "BodyPartExamined": "BRAIN",
  "CoilString": "HC1-7;NC1_2",
  "ConsistencyInfo": "N4_VE11C_LATEST_20160120",
  "ConversionSoftware": "dcm2niix",
  "ConversionSoftwareVersion": "v1.0.20190902",
  "DerivedVendorReportedEchoSpacing": 0.000560011,
  "DeviceSerialNumber": "167006",
  "DwellTime": 2.1e-06,
  "EchoTime": 0.037,
  "EchoTrainLength": 104,
  "EffectiveEchoSpacing": 0.000560011,
  "FlipAngle": 52,
  "HeudiconvVersion": "0.10.0",
  "ImageComments": "Unaliased_MB4_PE3_LB",
  "ImageOrientationPatientDICOM": [0.998111, -0.0569482, 0.0230354, 0.061222, 0.95302, -0.296655],
  "ImageType": [
    "ORIGINAL",
    "PRIMARY",
    "P",
    "MB",
    "ND",
    "MOSAIC"
],
  "ImagingFrequency": 123.259,
  "InPlanePhaseEncodingDirectionDICOM": "COL",
  "InstitutionAddress": "Chemin_Queen-Mary_4565_Montreal_District_CA_H3W_1W5",
  "InstitutionName": "IUGM",
  "InstitutionalDepartmentName": "Department",
  "MRAcquisitionType": "2D",
  "MagneticFieldStrength": 3,
  "Manufacturer": "Siemens",
  "ManufacturersModelName": "Prisma_fit",
  "Modality": "MR",
  "MultibandAccelerationFactor": 4,
  "PartialFourier": 1,
  "PatientPosition": "HFS",
  "PercentPhaseFOV": 100,
  "PhaseEncodingDirection": "j",
  "PhaseEncodingSteps": 104,
  "PhaseResolution": 1,
  "PixelBandwidth": 2290,
  "ProcedureStepDescription": "memory_things",
  "ProtocolName": "func_task-things_run-4",
  "PulseSequenceDetails": "%CustomerSeq%_cmrr_mbep2d_bold",
  "ReceiveCoilActiveElements": "HC1-7;NC1,2",
  "ReceiveCoilName": "HeadNeck_64",
  "ReconMatrixPE": 104,
  "RepetitionTime": 1.49,
  "SAR": 0.0375606,
  "ScanOptions": "FS",
  "ScanningSequence": "EP",
  "SequenceName": "epfid2d1_104",
  "SequenceVariant": "SK_SS",
  "SeriesDescription": "func_task-things_run-4",
  "SeriesNumber": 20,
  "ShimSetting": [626, -7249, -8820, 595, -7, -214, -35, -39],
  "SliceThickness": 2,
  "SliceTiming": [0, 0.785, 0.0975, 0.8825, 0.1975, 0.98, 0.295, 1.0775, 0.3925, 1.1775, 0.49, 1.275, 0.5875, 1.3725, 0.6875, 0, 0.785, 0.0975, 0.8825, 0.1975, 0.98, 0.295, 1.0775, 0.3925, 1.1775, 0.49, 1.275, 0.5875, 1.3725, 0.6875, 0, 0.785, 0.0975, 0.8825, 0.1975, 0.98, 0.295, 1.0775, 0.3925, 1.1775, 0.49, 1.275, 0.5875, 1.3725, 0.6875, 0, 0.785, 0.0975, 0.8825, 0.1975, 0.98, 0.295, 1.0775, 0.3925, 1.1775, 0.49, 1.275, 0.5875, 1.3725, 0.6875],
  "SoftwareVersions": "syngo_MR_E11",
  "SpacingBetweenSlices": 2,
  "StationName": "MRC35049",
  "TaskName": "things",
  "TotalReadoutTime": 0.0576811,
  "TxRefAmp": 234.544,
  "WipMemBlock": "f22539ba-5d1b-4e0c-b547-bc16247304cf||Sequence: R016 ve11c/master r/e634e98; Dec 19 2017 11:00:25 by eja",
  "dcmmeta_affine": [
    [-1.996222734451294, 0.12244396656751633, 0.010118401609361172, 100.73633575439453],
    [0.11389639973640442, 1.9060403108596802, -0.5950109362602234, -73.4000015258789],
    [0.04607079178094864, 0.5933109521865845, 1.9094133377075195, -63.21897506713867],
    [0.0, 0.0, 0.0, 1.0]
],
  "dcmmeta_reorient_transform": [
    [0.0, -1.0, 0.0, 103.0],
    [1.0, 0.0, 0.0, 0.0],
    [0.0, 0.0, 1.0, 0.0],
    [0.0, 0.0, 0.0, 1.0]
],
  "dcmmeta_shape": [104, 104, 60, 190],
  "dcmmeta_slice_dim": 2,
  "dcmmeta_version": 0.6,
  "global": {
    "const": {
      "AcquisitionMatrix": [104, 0, 0, 104],
      "AngioFlag": "N",
      "BitsAllocated": 16,
      "BitsStored": 16,
      "BodyPartExamined": "BRAIN",
      "Columns": 832,
      "EchoNumbers": 1,
      "EchoTime": 37.0,
      "EchoTrainLength": 104,
      "FlipAngle": 52.0,
      "HighBit": 15,
      "ImageOrientationPatient": [0.99811135310903, -0.056948198584, 0.02303539608748, 0.06122198366265, 0.95302014084084, -0.2966554902039],
      "ImagePositionPatient": [-884.54273487568, -775.26252116459, 197.0874861607],
      "ImageType": [
        "ORIGINAL",
        "PRIMARY",
        "P",
        "MB",
        "ND",
        "MOSAIC"
],
      "ImagedNucleus": "1H",
      "ImagingFrequency": 123.258881,
      "InPlanePhaseEncodingDirection": "COL",
      "LargestImagePixelValue": 4095,
      "MRAcquisitionType": "2D",
      "MagneticFieldStrength": 3.0,
      "Manufacturer": "SIEMENS",
      "ManufacturerModelName": "Prisma_fit",
      "Modality": "MR",
      "NumberOfAverages": 1.0,
      "NumberOfPhaseEncodingSteps": 104,
      "PercentPhaseFieldOfView": 100.0,
      "PercentSampling": 100.0,
      "PerformedProcedureStepStartTime": "142517.331000",
      "PhotometricInterpretation": "MONOCHROME2",
      "PixelBandwidth": 2290.0,
      "PixelRepresentation": 0,
      "PixelSpacing": [2.0, 2.0],
      "ProtocolName": "func_task-things_run-4",
      "RepetitionTime": 1490.0,
      "RescaleIntercept": -4096.0,
      "RescaleSlope": 2.0,
      "RescaleType": "US",
      "Rows": 832,
      "SAR": 0.0375605875372,
      "SamplesPerPixel": 1,
      "ScanOptions": "FS",
      "ScanningSequence": "EP",
      "SequenceName": "epfid2d1_104",
      "SequenceVariant": [
        "SK",
        "SS"
],
      "SeriesDescription": "func_task-things_run-4",
      "SeriesNumber": 20,
      "SeriesTime": "153832.947000",
      "SliceLocation": -38.009029157414,
      "SliceThickness": 2.0,
      "SmallestImagePixelValue": 0,
      "SoftwareVersions": "syngo MR E11",
      "SpacingBetweenSlices": 1.999999975914,
      "SpecificCharacterSet": "ISO_IR 100",
      "StudyID": "1",
      "StudyTime": "142517.193000",
      "TransmitCoilName": "Body",
      "VariableFlipAngleFlag": "N",
      "WindowCenterWidthExplanation": "Algo1",
      "dBdt": 0.0},
    "slices": {}
  },
  "time": {
    "samples": {
      "AcquisitionNumber": [1, 2, 3, 4, 5, 6, 7, 8, 9, 10, 11, 12, 13, 14, 15, 16, 17, 18, 19, 20, 21, 22, 23, 24, 25, 26, 27, 28, 29, 30, 31, 32, 33, 34, 35, 36, 37, 38, 39, 40, 41, 42, 43, 44, 45, 46, 47, 48, 49, 50, 51, 52, 53, 54, 55, 56, 57, 58, 59, 60, 61, 62, 63, 64, 65, 66, 67, 68, 69, 70, 71, 72, 73, 74, 75, 76, 77, 78, 79, 80, 81, 82, 83, 84, 85, 86, 87, 88, 89, 90, 91, 92, 93, 94, 95, 96, 97, 98, 99, 100, 101, 102, 103, 104, 105, 106, 107, 108, 109, 110, 111, 112, 113, 114, 115, 116, 117, 118, 119, 120, 121, 122, 123, 124, 125, 126, 127, 128, 129, 130, 131, 132, 133, 134, 135, 136, 137, 138, 139, 140, 141, 142, 143, 144, 145, 146, 147, 148, 149, 150, 151, 152, 153, 154, 155, 156, 157, 158, 159, 160, 161, 162, 163, 164, 165, 166, 167, 168, 169, 170, 171, 172, 173, 174, 175, 176, 177, 178, 179, 180, 181, 182, 183, 184, 185, 186, 187, 188, 189, 190],
      "AcquisitionTime": ["153716.710000", "153718.200000", "153719.690000", "153721.180000", "153722.670000", "153724.160000", "153725.650000", "153727.140000", "153728.630000", "153730.120000", "153731.610000", "153733.100000", "153734.590000", "153736.080000", "153737.570000", "153739.060000", "153740.550000", "153742.040000", "153743.530000", "153745.020000", "153746.510000", "153748.000000", "153749.490000", "153750.980000", "153752.470000", "153753.960000", "153755.450000", "153756.940000", "153758.430000", "153759.920000", "153801.410000", "153802.900000", "153804.390000", "153805.880000", "153807.370000", "153808.860000", "153810.350000", "153811.840000", "153813.330000", "153814.820000", "153816.310000", "153817.800000", "153819.290000", "153820.780000", "153822.270000", "153823.760000", "153825.250000", "153826.740000", "153828.230000", "153829.720000", "153831.210000", "153832.700000", "153834.190000", "153835.680000", "153837.170000", "153838.660000", "153840.150000", "153841.640000", "153843.130000", "153844.620000", "153846.110000", "153847.600000", "153849.090000", "153850.580000", "153852.070000", "153853.560000", "153855.050000", "153856.540000", "153858.030000", "153859.520000", "153901.010000", "153902.500000", "153903.990000", "153905.480000", "153906.970000", "153908.460000", "153909.950000", "153911.440000", "153912.930000", "153914.420000", "153915.910000", "153917.400000", "153918.890000", "153920.380000", "153921.870000", "153923.360000", "153924.850000", "153926.340000", "153927.830000", "153929.320000", "153930.810000", "153932.300000", "153933.790000", "153935.280000", "153936.770000", "153938.260000", "153939.750000", "153941.240000", "153942.730000", "153944.220000", "153945.710000", "153947.200000", "153948.690000", "153950.180000", "153951.670000", "153953.160000", "153954.650000", "153956.140000", "153957.630000", "153959.120000", "154000.610000", "154002.100000", "154003.590000", "154005.080000", "154006.570000", "154008.060000", "154009.550000", "154011.040000", "154012.530000", "154014.020000", "154015.510000", "154017.000000", "154018.490000", "154019.980000", "154021.470000", "154022.960000", "154024.450000", "154025.940000", "154027.430000", "154028.920000", "154030.410000", "154031.900000", "154033.390000", "154034.880000", "154036.370000", "154037.860000", "154039.350000", "154040.840000", "154042.330000", "154043.820000", "154045.310000", "154046.800000", "154048.290000", "154049.780000", "154051.270000", "154052.760000", "154054.250000", "154055.740000", "154057.230000", "154058.720000", "154100.210000", "154101.700000", "154103.190000", "154104.680000", "154106.170000", "154107.660000", "154109.150000", "154110.640000", "154112.130000", "154113.620000", "154115.110000", "154116.600000", "154118.090000", "154119.580000", "154121.070000", "154122.560000", "154124.050000", "154125.540000", "154127.030000", "154128.520000", "154130.010000", "154131.500000", "154132.990000", "154134.480000", "154135.970000", "154137.460000", "154138.950000", "154140.440000", "154141.930000", "154143.420000", "154144.910000", "154146.400000", "154147.890000", "154149.380000", "154150.870000", "154152.360000", "154153.850000", "154155.340000", "154156.830000", "154158.320000"],
      "ContentTime": ["153832.949000", "153832.951000", "153832.954000", "153832.956000", "153832.959000", "153832.961000", "153832.964000", "153832.967000", "153832.969000", "153832.972000", "153832.985000", "153832.987000", "153832.990000", "153832.992000", "153832.995000", "153832.997000", "153833.000000", "153852.912000", "153852.914000", "153852.917000", "153852.920000", "153852.922000", "153852.925000", "153852.927000", "153852.930000", "153852.932000", "153852.934000", "153852.937000", "153852.939000", "153852.942000", "153852.944000", "153852.947000", "153852.949000", "153852.952000", "153852.954000", "153852.957000", "153852.959000", "153852.962000", "153912.892000", "153912.895000", "153912.898000", "153912.900000", "153912.903000", "153912.905000", "153912.908000", "153912.910000", "153912.913000", "153912.915000", "153912.918000", "153912.921000", "153912.924000", "153912.926000", "153912.929000", "153912.932000", "153912.934000", "153912.937000", "153912.939000", "153912.942000", "153932.891000", "153932.894000", "153932.897000", "153932.899000", "153932.902000", "153932.904000", "153932.907000", "153932.909000", "153932.912000", "153932.914000", "153932.917000", "153932.919000", "153932.922000", "153932.924000", "153932.927000", "153932.930000", "153932.932000", "153932.935000", "153932.937000", "153932.940000", "153952.896000", "153952.899000", "153952.901000", "153952.904000", "153952.906000", "153952.909000", "153952.911000", "153952.914000", "153952.916000", "153952.919000", "153952.922000", "153952.924000", "153952.927000", "153952.929000", "153952.932000", "153952.934000", "153952.937000", "153952.939000", "153952.942000", "153952.944000", "154012.907000", "154012.909000", "154012.912000", "154012.914000", "154012.917000", "154012.920000", "154012.922000", "154012.925000", "154012.927000", "154012.930000", "154012.932000", "154012.935000", "154012.937000", "154012.940000", "154012.942000", "154012.944000", "154012.947000", "154012.949000", "154012.952000", "154012.955000", "154052.921000", "154052.927000", "154052.930000", "154052.933000", "154052.935000", "154052.938000", "154052.940000", "154052.943000", "154052.945000", "154052.948000", "154052.950000", "154052.953000", "154052.955000", "154052.958000", "154052.960000", "154052.963000", "154052.965000", "154052.968000", "154052.970000", "154052.973000", "154052.975000", "154052.978000", "154052.981000", "154052.983000", "154052.986000", "154052.997000", "154132.928000", "154132.931000", "154132.933000", "154132.936000", "154132.939000", "154132.941000", "154132.944000", "154132.946000", "154132.949000", "154132.951000", "154132.954000", "154132.956000", "154132.959000", "154132.961000", "154132.964000", "154132.966000", "154132.969000", "154132.971000", "154132.974000", "154132.977000", "154132.981000", "154132.983000", "154132.986000", "154132.988000", "154132.991000", "154132.993000", "154132.996000", "154200.115000", "154200.117000", "154200.120000", "154200.122000", "154200.125000", "154200.128000", "154200.130000", "154200.133000", "154200.135000", "154200.138000", "154200.141000", "154200.152000", "154200.155000", "154200.157000", "154200.218000", "154200.221000", "154200.223000", "154200.226000", "154200.228000"],
      "InstanceCreationTime": ["153832.949000", "153832.951000", "153832.954000", "153832.956000", "153832.959000", "153832.961000", "153832.964000", "153832.967000", "153832.969000", "153832.972000", "153832.985000", "153832.987000", "153832.990000", "153832.992000", "153832.995000", "153832.997000", "153833.000000", "153852.912000", "153852.914000", "153852.917000", "153852.920000", "153852.922000", "153852.925000", "153852.927000", "153852.930000", "153852.932000", "153852.934000", "153852.937000", "153852.939000", "153852.942000", "153852.944000", "153852.947000", "153852.949000", "153852.952000", "153852.954000", "153852.957000", "153852.959000", "153852.962000", "153912.892000", "153912.895000", "153912.898000", "153912.900000", "153912.903000", "153912.905000", "153912.908000", "153912.910000", "153912.913000", "153912.915000", "153912.918000", "153912.921000", "153912.924000", "153912.926000", "153912.929000", "153912.932000", "153912.934000", "153912.937000", "153912.939000", "153912.942000", "153932.891000", "153932.894000", "153932.897000", "153932.899000", "153932.902000", "153932.904000", "153932.907000", "153932.909000", "153932.912000", "153932.914000", "153932.917000", "153932.919000", "153932.922000", "153932.924000", "153932.927000", "153932.930000", "153932.932000", "153932.935000", "153932.937000", "153932.940000", "153952.896000", "153952.899000", "153952.901000", "153952.904000", "153952.906000", "153952.909000", "153952.911000", "153952.914000", "153952.916000", "153952.919000", "153952.922000", "153952.924000", "153952.927000", "153952.929000", "153952.932000", "153952.934000", "153952.937000", "153952.939000", "153952.942000", "153952.944000", "154012.907000", "154012.909000", "154012.912000", "154012.914000", "154012.917000", "154012.920000", "154012.922000", "154012.925000", "154012.927000", "154012.930000", "154012.932000", "154012.935000", "154012.937000", "154012.940000", "154012.942000", "154012.944000", "154012.947000", "154012.949000", "154012.952000", "154012.955000", "154052.921000", "154052.927000", "154052.930000", "154052.933000", "154052.935000", "154052.938000", "154052.940000", "154052.943000", "154052.945000", "154052.948000", "154052.950000", "154052.953000", "154052.955000", "154052.958000", "154052.960000", "154052.963000", "154052.965000", "154052.968000", "154052.970000", "154052.973000", "154052.975000", "154052.978000", "154052.981000", "154052.983000", "154052.986000", "154052.997000", "154132.928000", "154132.931000", "154132.933000", "154132.936000", "154132.939000", "154132.941000", "154132.944000", "154132.946000", "154132.949000", "154132.951000", "154132.954000", "154132.956000", "154132.959000", "154132.961000", "154132.964000", "154132.966000", "154132.969000", "154132.971000", "154132.974000", "154132.977000", "154132.981000", "154132.983000", "154132.986000", "154132.988000", "154132.991000", "154132.993000", "154132.996000", "154200.115000", "154200.117000", "154200.120000", "154200.122000", "154200.125000", "154200.128000", "154200.130000", "154200.133000", "154200.135000", "154200.138000", "154200.141000", "154200.152000", "154200.155000", "154200.157000", "154200.218000", "154200.221000", "154200.223000", "154200.226000", "154200.228000"],
      "InstanceNumber": [1, 2, 3, 4, 5, 6, 7, 8, 9, 10, 11, 12, 13, 14, 15, 16, 17, 18, 19, 20, 21, 22, 23, 24, 25, 26, 27, 28, 29, 30, 31, 32, 33, 34, 35, 36, 37, 38, 39, 40, 41, 42, 43, 44, 45, 46, 47, 48, 49, 50, 51, 52, 53, 54, 55, 56, 57, 58, 59, 60, 61, 62, 63, 64, 65, 66, 67, 68, 69, 70, 71, 72, 73, 74, 75, 76, 77, 78, 79, 80, 81, 82, 83, 84, 85, 86, 87, 88, 89, 90, 91, 92, 93, 94, 95, 96, 97, 98, 99, 100, 101, 102, 103, 104, 105, 106, 107, 108, 109, 110, 111, 112, 113, 114, 115, 116, 117, 118, 119, 120, 121, 122, 123, 124, 125, 126, 127, 128, 129, 130, 131, 132, 133, 134, 135, 136, 137, 138, 139, 140, 141, 142, 143, 144, 145, 146, 147, 148, 149, 150, 151, 152, 153, 154, 155, 156, 157, 158, 159, 160, 161, 162, 163, 164, 165, 166, 167, 168, 169, 170, 171, 172, 173, 174, 175, 176, 177, 178, 179, 180, 181, 182, 183, 184, 185, 186, 187, 188, 189, 190],
      "WindowCenter": [4826.0, 4828.0, 4822.0, 4814.0, 4814.0, 4818.0, 4818.0, 4816.0, 4792.0, 4800.0, 4822.0, 4822.0, 4822.0, 4820.0, 4820.0, 4822.0, 4820.0, 4818.0, 4790.0, 4798.0, 4816.0, 4818.0, 4818.0, 4820.0, 4818.0, 4818.0, 4818.0, 4814.0, 4820.0, 4818.0, 4818.0, 4816.0, 4818.0, 4820.0, 4818.0, 4818.0, 4818.0, 4814.0, 4798.0, 4818.0, 4820.0, 4820.0, 4818.0, 4818.0, 4814.0, 4814.0, 4792.0, 4792.0, 4820.0, 4792.0, 4794.0, 4794.0, 4820.0, 4816.0, 4816.0, 4816.0, 4818.0, 4812.0, 4788.0, 4812.0, 4812.0, 4788.0, 4812.0, 4816.0, 4816.0, 4818.0, 4818.0, 4816.0, 4794.0, 4792.0, 4814.0, 4818.0, 4792.0, 4818.0, 4818.0, 4816.0, 4816.0, 4814.0, 4818.0, 4818.0, 4828.0, 4794.0, 4816.0, 4814.0, 4810.0, 4816.0, 4818.0, 4816.0, 4812.0, 4790.0, 4788.0, 4816.0, 4790.0, 4796.0, 4794.0, 4814.0, 4814.0, 4812.0, 4814.0, 4814.0, 4814.0, 4792.0, 4810.0, 4796.0, 4794.0, 4794.0, 4816.0, 4814.0, 4812.0, 4810.0, 4814.0, 4812.0, 4816.0, 4792.0, 4790.0, 4812.0, 4790.0, 4812.0, 4812.0, 4812.0, 4812.0, 4818.0, 4816.0, 4792.0, 4792.0, 4818.0, 4816.0, 4812.0, 4814.0, 4814.0, 4814.0, 4810.0, 4790.0, 4814.0, 4812.0, 4788.0, 4812.0, 4790.0, 4814.0, 4814.0, 4812.0, 4790.0, 4814.0, 4790.0, 4786.0, 4790.0, 4790.0, 4814.0, 4818.0, 4790.0, 4814.0, 4816.0, 4794.0, 4792.0, 4818.0, 4820.0, 4824.0, 4796.0, 4812.0, 4810.0, 4816.0, 4814.0, 4818.0, 4792.0, 4792.0, 4794.0, 4792.0, 4798.0, 4818.0, 4788.0, 4810.0, 4812.0, 4808.0, 4812.0, 4812.0, 4792.0, 4796.0, 4792.0, 4792.0, 4814.0, 4812.0, 4812.0, 4814.0, 4816.0, 4816.0, 4788.0, 4790.0, 4814.0, 4790.0, 4816.0],
      "WindowWidth": [18596.0, 18584.0, 18606.0, 18614.0, 18618.0, 18616.0, 18598.0, 18590.0, 18554.0, 18540.0, 18592.0, 18606.0, 18614.0, 18618.0, 18618.0, 18614.0, 18586.0, 18586.0, 18558.0, 18552.0, 18596.0, 18586.0, 18616.0, 18618.0, 18618.0, 18614.0, 18594.0, 18600.0, 18600.0, 18604.0, 18608.0, 18608.0, 18612.0, 18604.0, 18596.0, 18612.0, 18612.0, 18610.0, 18560.0, 18612.0, 18616.0, 18616.0, 18608.0, 18608.0, 18610.0, 18604.0, 18564.0, 18572.0, 18612.0, 18574.0, 18546.0, 18542.0, 18610.0, 18620.0, 18624.0, 18618.0, 18618.0, 18604.0, 18570.0, 18596.0, 18592.0, 18560.0, 18610.0, 18610.0, 18612.0, 18618.0, 18622.0, 18608.0, 18556.0, 18568.0, 18604.0, 18592.0, 18578.0, 18612.0, 18588.0, 18592.0, 18618.0, 18622.0, 18612.0, 18584.0, 18570.0, 18536.0, 18610.0, 18618.0, 18616.0, 18620.0, 18614.0, 18600.0, 18598.0, 18560.0, 18558.0, 18602.0, 18570.0, 18556.0, 18544.0, 18610.0, 18622.0, 18622.0, 18618.0, 18616.0, 18610.0, 18576.0, 18592.0, 18544.0, 18544.0, 18572.0, 18622.0, 18622.0, 18620.0, 18618.0, 18614.0, 18606.0, 18594.0, 18558.0, 18560.0, 18598.0, 18576.0, 18616.0, 18618.0, 18618.0, 18612.0, 18604.0, 18612.0, 18558.0, 18558.0, 18610.0, 18610.0, 18612.0, 18616.0, 18616.0, 18616.0, 18610.0, 18564.0, 18602.0, 18600.0, 18574.0, 18608.0, 18574.0, 18616.0, 18614.0, 18608.0, 18580.0, 18608.0, 18566.0, 18572.0, 18572.0, 18568.0, 18606.0, 18614.0, 18576.0, 18614.0, 18610.0, 18556.0, 18580.0, 18610.0, 18590.0, 18574.0, 18554.0, 18610.0, 18614.0, 18622.0, 18614.0, 18612.0, 18568.0, 18562.0, 18560.0, 18558.0, 18542.0, 18572.0, 18568.0, 18622.0, 18628.0, 18622.0, 18618.0, 18608.0, 18562.0, 18546.0, 18544.0, 18554.0, 18600.0, 18604.0, 18610.0, 18614.0, 18618.0, 18612.0, 18576.0, 18570.0, 18594.0, 18564.0, 18582.0]
    },
    "slices": {}
  }
}