{
  "AcquisitionMatrixPE": 104,
  "AcquisitionNumber": 1,
  "AcquisitionTime": "15:31:4.102500",
  "BandwidthPerPixelPhaseEncode": 17.17,
  "BaseResolution": 104,
  "BodyPartExamined": "BRAIN",
  "CoilString": "HC1-7;NC1_2",
  "ConsistencyInfo": "N4_VE11C_LATEST_20160120",
  "ConversionSoftware": "dcm2niix",
  "ConversionSoftwareVersion": "v1.0.20190902",
  "DerivedVendorReportedEchoSpacing": 0.000560011,
  "DeviceSerialNumber": "167006",
  "DwellTime": 2.1e-06,
  "EchoTime": 0.037,
  "EchoTrainLength": 104,
  "EffectiveEchoSpacing": 0.000560011,
  "FlipAngle": 52,
  "HeudiconvVersion": "0.10.0",
  "ImageComments": "Unaliased_MB4_PE3_LB",
  "ImageOrientationPatientDICOM": [0.998111, -0.0569482, 0.0230354, 0.061222, 0.95302, -0.296655],
  "ImageType": [
    "ORIGINAL",
    "PRIMARY",
    "P",
    "MB",
    "ND",
    "MOSAIC"
],
  "ImagingFrequency": 123.259,
  "InPlanePhaseEncodingDirectionDICOM": "COL",
  "InstitutionAddress": "Chemin_Queen-Mary_4565_Montreal_District_CA_H3W_1W5",
  "InstitutionName": "IUGM",
  "InstitutionalDepartmentName": "Department",
  "MRAcquisitionType": "2D",
  "MagneticFieldStrength": 3,
  "Manufacturer": "Siemens",
  "ManufacturersModelName": "Prisma_fit",
  "Modality": "MR",
  "MultibandAccelerationFactor": 4,
  "PartialFourier": 1,
  "PatientPosition": "HFS",
  "PercentPhaseFOV": 100,
  "PhaseEncodingDirection": "j",
  "PhaseEncodingSteps": 104,
  "PhaseResolution": 1,
  "PixelBandwidth": 2290,
  "ProcedureStepDescription": "memory_things",
  "ProtocolName": "func_task-things_run-3",
  "PulseSequenceDetails": "%CustomerSeq%_cmrr_mbep2d_bold",
  "ReceiveCoilActiveElements": "HC1-7;NC1,2",
  "ReceiveCoilName": "HeadNeck_64",
  "ReconMatrixPE": 104,
  "RepetitionTime": 1.49,
  "SAR": 0.0375606,
  "ScanOptions": "FS",
  "ScanningSequence": "EP",
  "SequenceName": "epfid2d1_104",
  "SequenceVariant": "SK_SS",
  "SeriesDescription": "func_task-things_run-3",
  "SeriesNumber": 17,
  "ShimSetting": [626, -7249, -8820, 595, -7, -214, -35, -39],
  "SliceThickness": 2,
  "SliceTiming": [0, 0.785, 0.1, 0.8825, 0.1975, 0.98, 0.295, 1.0775, 0.3925, 1.1775, 0.49, 1.275, 0.59, 1.3725, 0.6875, 0, 0.785, 0.1, 0.8825, 0.1975, 0.98, 0.295, 1.0775, 0.3925, 1.1775, 0.49, 1.275, 0.59, 1.3725, 0.6875, 0, 0.785, 0.1, 0.8825, 0.1975, 0.98, 0.295, 1.0775, 0.3925, 1.1775, 0.49, 1.275, 0.59, 1.3725, 0.6875, 0, 0.785, 0.1, 0.8825, 0.1975, 0.98, 0.295, 1.0775, 0.3925, 1.1775, 0.49, 1.275, 0.59, 1.3725, 0.6875],
  "SoftwareVersions": "syngo_MR_E11",
  "SpacingBetweenSlices": 2,
  "StationName": "MRC35049",
  "TaskName": "things",
  "TotalReadoutTime": 0.0576811,
  "TxRefAmp": 234.544,
  "WipMemBlock": "667e67a5-7e58-444c-95dc-42992271ce24||Sequence: R016 ve11c/master r/e634e98; Dec 19 2017 11:00:25 by eja",
  "dcmmeta_affine": [
    [-1.996222734451294, 0.12244396656751633, 0.010118401609361172, 100.73633575439453],
    [0.11389639973640442, 1.9060403108596802, -0.5950109362602234, -73.4000015258789],
    [0.04607079178094864, 0.5933109521865845, 1.9094133377075195, -63.21897506713867],
    [0.0, 0.0, 0.0, 1.0]
],
  "dcmmeta_reorient_transform": [
    [0.0, -1.0, 0.0, 103.0],
    [1.0, 0.0, 0.0, 0.0],
    [0.0, 0.0, 1.0, 0.0],
    [0.0, 0.0, 0.0, 1.0]
],
  "dcmmeta_shape": [104, 104, 60, 190],
  "dcmmeta_slice_dim": 2,
  "dcmmeta_version": 0.6,
  "global": {
    "const": {
      "AcquisitionMatrix": [104, 0, 0, 104],
      "AngioFlag": "N",
      "BitsAllocated": 16,
      "BitsStored": 16,
      "BodyPartExamined": "BRAIN",
      "Columns": 832,
      "EchoNumbers": 1,
      "EchoTime": 37.0,
      "EchoTrainLength": 104,
      "FlipAngle": 52.0,
      "HighBit": 15,
      "ImageOrientationPatient": [0.99811135310903, -0.056948198584, 0.02303539608748, 0.06122198366265, 0.95302014084084, -0.2966554902039],
      "ImagePositionPatient": [-884.54273487568, -775.26252116459, 197.0874861607],
      "ImageType": [
        "ORIGINAL",
        "PRIMARY",
        "P",
        "MB",
        "ND",
        "MOSAIC"
],
      "ImagedNucleus": "1H",
      "ImagingFrequency": 123.258879,
      "InPlanePhaseEncodingDirection": "COL",
      "LargestImagePixelValue": 4095,
      "MRAcquisitionType": "2D",
      "MagneticFieldStrength": 3.0,
      "Manufacturer": "SIEMENS",
      "ManufacturerModelName": "Prisma_fit",
      "Modality": "MR",
      "NumberOfAverages": 1.0,
      "NumberOfPhaseEncodingSteps": 104,
      "PercentPhaseFieldOfView": 100.0,
      "PercentSampling": 100.0,
      "PerformedProcedureStepStartTime": "142517.331000",
      "PhotometricInterpretation": "MONOCHROME2",
      "PixelBandwidth": 2290.0,
      "PixelRepresentation": 0,
      "PixelSpacing": [2.0, 2.0],
      "ProtocolName": "func_task-things_run-3",
      "RepetitionTime": 1490.0,
      "RescaleIntercept": -4096.0,
      "RescaleSlope": 2.0,
      "RescaleType": "US",
      "Rows": 832,
      "SAR": 0.0375605875372,
      "SamplesPerPixel": 1,
      "ScanOptions": "FS",
      "ScanningSequence": "EP",
      "SequenceName": "epfid2d1_104",
      "SequenceVariant": [
        "SK",
        "SS"
],
      "SeriesDescription": "func_task-things_run-3",
      "SeriesNumber": 17,
      "SeriesTime": "153224.577000",
      "SliceLocation": -38.009029157414,
      "SliceThickness": 2.0,
      "SmallestImagePixelValue": 0,
      "SoftwareVersions": "syngo MR E11",
      "SpacingBetweenSlices": 1.999999975914,
      "SpecificCharacterSet": "ISO_IR 100",
      "StudyID": "1",
      "StudyTime": "142517.193000",
      "TransmitCoilName": "Body",
      "VariableFlipAngleFlag": "N",
      "WindowCenterWidthExplanation": "Algo1",
      "dBdt": 0.0},
    "slices": {}
  },
  "time": {
    "samples": {
      "AcquisitionNumber": [1, 2, 3, 4, 5, 6, 7, 8, 9, 10, 11, 12, 13, 14, 15, 16, 17, 18, 19, 20, 21, 22, 23, 24, 25, 26, 27, 28, 29, 30, 31, 32, 33, 34, 35, 36, 37, 38, 39, 40, 41, 42, 43, 44, 45, 46, 47, 48, 49, 50, 51, 52, 53, 54, 55, 56, 57, 58, 59, 60, 61, 62, 63, 64, 65, 66, 67, 68, 69, 70, 71, 72, 73, 74, 75, 76, 77, 78, 79, 80, 81, 82, 83, 84, 85, 86, 87, 88, 89, 90, 91, 92, 93, 94, 95, 96, 97, 98, 99, 100, 101, 102, 103, 104, 105, 106, 107, 108, 109, 110, 111, 112, 113, 114, 115, 116, 117, 118, 119, 120, 121, 122, 123, 124, 125, 126, 127, 128, 129, 130, 131, 132, 133, 134, 135, 136, 137, 138, 139, 140, 141, 142, 143, 144, 145, 146, 147, 148, 149, 150, 151, 152, 153, 154, 155, 156, 157, 158, 159, 160, 161, 162, 163, 164, 165, 166, 167, 168, 169, 170, 171, 172, 173, 174, 175, 176, 177, 178, 179, 180, 181, 182, 183, 184, 185, 186, 187, 188, 189, 190],
      "AcquisitionTime": ["153104.102500", "153105.592500", "153107.082500", "153108.572500", "153110.062500", "153111.552500", "153113.042500", "153114.532500", "153116.022500", "153117.512500", "153119.002500", "153120.492500", "153121.982500", "153123.472500", "153124.962500", "153126.452500", "153127.942500", "153129.432500", "153130.922500", "153132.412500", "153133.902500", "153135.392500", "153136.882500", "153138.372500", "153139.862500", "153141.352500", "153142.842500", "153144.332500", "153145.822500", "153147.312500", "153148.802500", "153150.292500", "153151.782500", "153153.272500", "153154.762500", "153156.252500", "153157.742500", "153159.232500", "153200.722500", "153202.212500", "153203.702500", "153205.192500", "153206.682500", "153208.172500", "153209.662500", "153211.152500", "153212.642500", "153214.132500", "153215.622500", "153217.112500", "153218.602500", "153220.092500", "153221.582500", "153223.072500", "153224.562500", "153226.052500", "153227.542500", "153229.032500", "153230.522500", "153232.012500", "153233.502500", "153234.992500", "153236.482500", "153237.972500", "153239.462500", "153240.952500", "153242.442500", "153243.932500", "153245.422500", "153246.912500", "153248.402500", "153249.892500", "153251.382500", "153252.872500", "153254.362500", "153255.852500", "153257.342500", "153258.832500", "153300.322500", "153301.812500", "153303.302500", "153304.792500", "153306.282500", "153307.772500", "153309.262500", "153310.752500", "153312.242500", "153313.732500", "153315.222500", "153316.712500", "153318.202500", "153319.692500", "153321.182500", "153322.672500", "153324.162500", "153325.652500", "153327.142500", "153328.632500", "153330.122500", "153331.612500", "153333.102500", "153334.592500", "153336.082500", "153337.572500", "153339.062500", "153340.552500", "153342.042500", "153343.532500", "153345.022500", "153346.512500", "153348.002500", "153349.492500", "153350.982500", "153352.472500", "153353.962500", "153355.452500", "153356.942500", "153358.432500", "153359.922500", "153401.412500", "153402.902500", "153404.392500", "153405.882500", "153407.372500", "153408.862500", "153410.352500", "153411.842500", "153413.332500", "153414.822500", "153416.312500", "153417.802500", "153419.292500", "153420.782500", "153422.272500", "153423.762500", "153425.252500", "153426.742500", "153428.232500", "153429.722500", "153431.212500", "153432.702500", "153434.192500", "153435.682500", "153437.172500", "153438.662500", "153440.152500", "153441.642500", "153443.132500", "153444.622500", "153446.112500", "153447.602500", "153449.092500", "153450.582500", "153452.072500", "153453.562500", "153455.052500", "153456.542500", "153458.032500", "153459.522500", "153501.012500", "153502.502500", "153503.992500", "153505.482500", "153506.972500", "153508.462500", "153509.952500", "153511.442500", "153512.932500", "153514.422500", "153515.912500", "153517.402500", "153518.892500", "153520.382500", "153521.872500", "153523.362500", "153524.852500", "153526.342500", "153527.832500", "153529.322500", "153530.812500", "153532.302500", "153533.792500", "153535.282500", "153536.772500", "153538.262500", "153539.752500", "153541.242500", "153542.732500", "153544.222500", "153545.712500"],
      "ContentTime": ["153224.579000", "153224.582000", "153224.585000", "153224.587000", "153224.590000", "153224.592000", "153224.595000", "153224.597000", "153224.600000", "153224.602000", "153224.605000", "153224.607000", "153224.609000", "153224.612000", "153224.614000", "153224.617000", "153224.619000", "153224.622000", "153224.624000", "153224.627000", "153224.629000", "153224.632000", "153224.634000", "153224.637000", "153224.639000", "153244.479000", "153244.482000", "153244.485000", "153244.487000", "153244.490000", "153244.493000", "153244.495000", "153244.498000", "153244.500000", "153244.503000", "153244.505000", "153244.508000", "153244.510000", "153244.513000", "153244.515000", "153244.518000", "153244.525000", "153244.528000", "153244.530000", "153244.532000", "153304.473000", "153304.475000", "153304.478000", "153304.480000", "153304.483000", "153304.485000", "153304.488000", "153304.490000", "153304.493000", "153304.495000", "153304.498000", "153304.500000", "153304.503000", "153304.505000", "153304.508000", "153304.510000", "153304.513000", "153304.516000", "153304.518000", "153304.521000", "153324.477000", "153324.480000", "153324.489000", "153324.492000", "153324.494000", "153324.497000", "153324.499000", "153324.502000", "153324.504000", "153324.507000", "153324.510000", "153324.512000", "153324.515000", "153324.517000", "153324.520000", "153324.522000", "153324.525000", "153324.527000", "153324.530000", "153324.532000", "153344.511000", "153344.514000", "153344.516000", "153344.519000", "153344.522000", "153344.524000", "153344.527000", "153344.529000", "153344.532000", "153344.534000", "153344.537000", "153344.540000", "153344.542000", "153344.544000", "153344.547000", "153344.549000", "153344.552000", "153344.554000", "153344.557000", "153344.560000", "153424.524000", "153424.527000", "153424.529000", "153424.532000", "153424.534000", "153424.537000", "153424.540000", "153424.542000", "153424.545000", "153424.547000", "153424.550000", "153424.552000", "153424.554000", "153424.557000", "153424.560000", "153424.562000", "153424.565000", "153424.567000", "153424.570000", "153424.572000", "153424.575000", "153424.577000", "153424.580000", "153424.582000", "153424.585000", "153424.587000", "153424.590000", "153424.592000", "153504.527000", "153504.529000", "153504.532000", "153504.534000", "153504.537000", "153504.539000", "153504.542000", "153504.544000", "153504.547000", "153504.550000", "153504.552000", "153504.555000", "153504.557000", "153504.560000", "153504.562000", "153504.565000", "153504.567000", "153504.570000", "153504.572000", "153504.575000", "153504.577000", "153504.580000", "153504.582000", "153504.585000", "153504.587000", "153504.590000", "153504.592000", "153544.517000", "153544.520000", "153544.522000", "153544.525000", "153544.528000", "153544.530000", "153544.533000", "153544.535000", "153544.538000", "153544.540000", "153544.543000", "153544.545000", "153544.548000", "153544.550000", "153544.553000", "153544.555000", "153544.558000", "153544.560000", "153544.563000", "153544.565000", "153544.568000", "153544.570000", "153544.573000", "153544.575000", "153544.578000", "153544.580000", "153544.583000", "153548.268000", "153548.271000", "153548.273000"],
      "InstanceCreationTime": ["153224.579000", "153224.582000", "153224.585000", "153224.587000", "153224.590000", "153224.592000", "153224.595000", "153224.597000", "153224.600000", "153224.602000", "153224.605000", "153224.607000", "153224.609000", "153224.612000", "153224.614000", "153224.617000", "153224.619000", "153224.622000", "153224.624000", "153224.627000", "153224.629000", "153224.632000", "153224.634000", "153224.637000", "153224.639000", "153244.479000", "153244.482000", "153244.485000", "153244.487000", "153244.490000", "153244.493000", "153244.495000", "153244.498000", "153244.500000", "153244.503000", "153244.505000", "153244.508000", "153244.510000", "153244.513000", "153244.515000", "153244.518000", "153244.525000", "153244.528000", "153244.530000", "153244.532000", "153304.473000", "153304.475000", "153304.478000", "153304.480000", "153304.483000", "153304.485000", "153304.488000", "153304.490000", "153304.493000", "153304.495000", "153304.498000", "153304.500000", "153304.503000", "153304.505000", "153304.508000", "153304.510000", "153304.513000", "153304.516000", "153304.518000", "153304.521000", "153324.477000", "153324.480000", "153324.489000", "153324.492000", "153324.494000", "153324.497000", "153324.499000", "153324.502000", "153324.504000", "153324.507000", "153324.510000", "153324.512000", "153324.515000", "153324.517000", "153324.520000", "153324.522000", "153324.525000", "153324.527000", "153324.530000", "153324.532000", "153344.511000", "153344.514000", "153344.516000", "153344.519000", "153344.522000", "153344.524000", "153344.527000", "153344.529000", "153344.532000", "153344.534000", "153344.537000", "153344.540000", "153344.542000", "153344.544000", "153344.547000", "153344.549000", "153344.552000", "153344.554000", "153344.557000", "153344.560000", "153424.524000", "153424.527000", "153424.529000", "153424.532000", "153424.534000", "153424.537000", "153424.540000", "153424.542000", "153424.545000", "153424.547000", "153424.550000", "153424.552000", "153424.554000", "153424.557000", "153424.560000", "153424.562000", "153424.565000", "153424.567000", "153424.570000", "153424.572000", "153424.575000", "153424.577000", "153424.580000", "153424.582000", "153424.585000", "153424.587000", "153424.590000", "153424.592000", "153504.527000", "153504.529000", "153504.532000", "153504.534000", "153504.537000", "153504.539000", "153504.542000", "153504.544000", "153504.547000", "153504.550000", "153504.552000", "153504.555000", "153504.557000", "153504.560000", "153504.562000", "153504.565000", "153504.567000", "153504.570000", "153504.572000", "153504.575000", "153504.577000", "153504.580000", "153504.582000", "153504.585000", "153504.587000", "153504.590000", "153504.592000", "153544.517000", "153544.520000", "153544.522000", "153544.525000", "153544.528000", "153544.530000", "153544.533000", "153544.535000", "153544.538000", "153544.540000", "153544.543000", "153544.545000", "153544.548000", "153544.550000", "153544.553000", "153544.555000", "153544.558000", "153544.560000", "153544.563000", "153544.565000", "153544.568000", "153544.570000", "153544.573000", "153544.575000", "153544.578000", "153544.580000", "153544.583000", "153548.268000", "153548.271000", "153548.273000"],
      "InstanceNumber": [1, 2, 3, 4, 5, 6, 7, 8, 9, 10, 11, 12, 13, 14, 15, 16, 17, 18, 19, 20, 21, 22, 23, 24, 25, 26, 27, 28, 29, 30, 31, 32, 33, 34, 35, 36, 37, 38, 39, 40, 41, 42, 43, 44, 45, 46, 47, 48, 49, 50, 51, 52, 53, 54, 55, 56, 57, 58, 59, 60, 61, 62, 63, 64, 65, 66, 67, 68, 69, 70, 71, 72, 73, 74, 75, 76, 77, 78, 79, 80, 81, 82, 83, 84, 85, 86, 87, 88, 89, 90, 91, 92, 93, 94, 95, 96, 97, 98, 99, 100, 101, 102, 103, 104, 105, 106, 107, 108, 109, 110, 111, 112, 113, 114, 115, 116, 117, 118, 119, 120, 121, 122, 123, 124, 125, 126, 127, 128, 129, 130, 131, 132, 133, 134, 135, 136, 137, 138, 139, 140, 141, 142, 143, 144, 145, 146, 147, 148, 149, 150, 151, 152, 153, 154, 155, 156, 157, 158, 159, 160, 161, 162, 163, 164, 165, 166, 167, 168, 169, 170, 171, 172, 173, 174, 175, 176, 177, 178, 179, 180, 181, 182, 183, 184, 185, 186, 187, 188, 189, 190],
      "WindowCenter": [4810.0, 4810.0, 4810.0, 4806.0, 4800.0, 4810.0, 4808.0, 4816.0, 4810.0, 4802.0, 4776.0, 4806.0, 4808.0, 4804.0, 4804.0, 4806.0, 4814.0, 4818.0, 4816.0, 4810.0, 4804.0, 4780.0, 4802.0, 4802.0, 4804.0, 4810.0, 4814.0, 4816.0, 4812.0, 4806.0, 4804.0, 4802.0, 4782.0, 4806.0, 4810.0, 4814.0, 4810.0, 4810.0, 4814.0, 4808.0, 4808.0, 4812.0, 4810.0, 4816.0, 4812.0, 4808.0, 4804.0, 4808.0, 4812.0, 4814.0, 4814.0, 4816.0, 4814.0, 4810.0, 4810.0, 4810.0, 4812.0, 4806.0, 4810.0, 4812.0, 4814.0, 4814.0, 4812.0, 4810.0, 4814.0, 4812.0, 4810.0, 4812.0, 4808.0, 4808.0, 4816.0, 4818.0, 4808.0, 4810.0, 4808.0, 4804.0, 4810.0, 4810.0, 4814.0, 4818.0, 4812.0, 4814.0, 4818.0, 4810.0, 4810.0, 4810.0, 4806.0, 4808.0, 4808.0, 4816.0, 4818.0, 4810.0, 4814.0, 4818.0, 4810.0, 4804.0, 4808.0, 4782.0, 4804.0, 4808.0, 4812.0, 4816.0, 4810.0, 4816.0, 4818.0, 4812.0, 4812.0, 4814.0, 4808.0, 4804.0, 4806.0, 4810.0, 4820.0, 4820.0, 4820.0, 4822.0, 4812.0, 4808.0, 4810.0, 4810.0, 4814.0, 4810.0, 4812.0, 4814.0, 4818.0, 4812.0, 4812.0, 4808.0, 4816.0, 4812.0, 4798.0, 4798.0, 4778.0, 4806.0, 4812.0, 4812.0, 4812.0, 4814.0, 4814.0, 4814.0, 4810.0, 4798.0, 4772.0, 4772.0, 4802.0, 4808.0, 4816.0, 4816.0, 4814.0, 4814.0, 4810.0, 4808.0, 4806.0, 4814.0, 4814.0, 4810.0, 4774.0, 4806.0, 4806.0, 4810.0, 4814.0, 4814.0, 4814.0, 4812.0, 4810.0, 4812.0, 4810.0, 4808.0, 4808.0, 4808.0, 4810.0, 4808.0, 4814.0, 4810.0, 4810.0, 4810.0, 4810.0, 4810.0, 4810.0, 4808.0, 4806.0, 4816.0, 4810.0, 4808.0, 4812.0, 4808.0, 4808.0, 4812.0, 4812.0, 4810.0],
      "WindowWidth": [18618.0, 18616.0, 18616.0, 18610.0, 18602.0, 18616.0, 18612.0, 18620.0, 18620.0, 18616.0, 18570.0, 18614.0, 18616.0, 18608.0, 18608.0, 18612.0, 18624.0, 18618.0, 18616.0, 18616.0, 18612.0, 18576.0, 18608.0, 18604.0, 18608.0, 18622.0, 18618.0, 18622.0, 18626.0, 18614.0, 18606.0, 18606.0, 18578.0, 18614.0, 18616.0, 18620.0, 18620.0, 18624.0, 18614.0, 18610.0, 18612.0, 18620.0, 18620.0, 18618.0, 18614.0, 18608.0, 18604.0, 18606.0, 18616.0, 18618.0, 18620.0, 18618.0, 18624.0, 18614.0, 18622.0, 18618.0, 18616.0, 18612.0, 18618.0, 18620.0, 18626.0, 18622.0, 18620.0, 18620.0, 18616.0, 18618.0, 18620.0, 18622.0, 18618.0, 18610.0, 18622.0, 18622.0, 18616.0, 18618.0, 18614.0, 18608.0, 18616.0, 18614.0, 18618.0, 18626.0, 18620.0, 18624.0, 18624.0, 18616.0, 18618.0, 18612.0, 18608.0, 18620.0, 18618.0, 18622.0, 18626.0, 18620.0, 18622.0, 18622.0, 18618.0, 18610.0, 18614.0, 18578.0, 18614.0, 18614.0, 18618.0, 18626.0, 18618.0, 18626.0, 18624.0, 18620.0, 18622.0, 18620.0, 18612.0, 18610.0, 18610.0, 18608.0, 18612.0, 18618.0, 18614.0, 18618.0, 18614.0, 18608.0, 18602.0, 18610.0, 18614.0, 18610.0, 18608.0, 18610.0, 18622.0, 18622.0, 18616.0, 18614.0, 18610.0, 18618.0, 18606.0, 18594.0, 18572.0, 18610.0, 18620.0, 18626.0, 18620.0, 18620.0, 18598.0, 18604.0, 18626.0, 18600.0, 18564.0, 18568.0, 18602.0, 18622.0, 18626.0, 18624.0, 18620.0, 18624.0, 18616.0, 18622.0, 18618.0, 18618.0, 18616.0, 18620.0, 18568.0, 18614.0, 18612.0, 18622.0, 18624.0, 18626.0, 18622.0, 18622.0, 18620.0, 18622.0, 18622.0, 18618.0, 18618.0, 18618.0, 18618.0, 18622.0, 18632.0, 18624.0, 18622.0, 18622.0, 18622.0, 18624.0, 18620.0, 18624.0, 18614.0, 18624.0, 18620.0, 18620.0, 18626.0, 18626.0, 18616.0, 18624.0, 18626.0, 18618.0]
    },
    "slices": {}
  }
}