{
  "AcquisitionMatrixPE": 104,
  "AcquisitionNumber": 1,
  "AcquisitionTime": "17:41:47.437500",
  "BandwidthPerPixelPhaseEncode": 17.17,
  "BaseResolution": 104,
  "BodyPartExamined": "BRAIN",
  "CoilString": "HC1-7;NC1_2",
  "ConsistencyInfo": "N4_VE11C_LATEST_20160120",
  "ConversionSoftware": "dcm2niix",
  "ConversionSoftwareVersion": "v1.0.20190902",
  "DerivedVendorReportedEchoSpacing": 0.000560011,
  "DeviceSerialNumber": "167006",
  "DwellTime": 2.1e-06,
  "EchoTime": 0.037,
  "EchoTrainLength": 104,
  "EffectiveEchoSpacing": 0.000560011,
  "FlipAngle": 52,
  "ImageComments": "Unaliased_MB4_PE3_LB",
  "ImageOrientationPatientDICOM": [0.995377, 0.0729619, 0.0624626, -0.0424148, 0.9174, -0.395701],
  "ImageType": [
    "ORIGINAL",
    "PRIMARY",
    "P",
    "MB",
    "ND",
    "MOSAIC"
],
  "ImagingFrequency": 123.259,
  "InPlanePhaseEncodingDirectionDICOM": "COL",
  "InstitutionAddress": "Chemin_Queen-Mary_4565_Montreal_District_CA_H3W_1W5",
  "InstitutionName": "IUGM",
  "InstitutionalDepartmentName": "Department",
  "MRAcquisitionType": "2D",
  "MagneticFieldStrength": 3,
  "Manufacturer": "Siemens",
  "ManufacturersModelName": "Prisma_fit",
  "Modality": "MR",
  "MultibandAccelerationFactor": 4,
  "PartialFourier": 1,
  "PatientPosition": "HFS",
  "PercentPhaseFOV": 100,
  "PhaseEncodingDirection": "j",
  "PhaseEncodingSteps": 104,
  "PhaseResolution": 1,
  "PixelBandwidth": 2290,
  "ProcedureStepDescription": "memory_things",
  "ProtocolName": "func_task-things_run-3",
  "PulseSequenceDetails": "%CustomerSeq%_cmrr_mbep2d_bold",
  "ReceiveCoilActiveElements": "HC1-7;NC1,2",
  "ReceiveCoilName": "HeadNeck_64",
  "ReconMatrixPE": 104,
  "RepetitionTime": 1.49,
  "SAR": 0.0498566,
  "ScanOptions": "FS",
  "ScanningSequence": "EP",
  "SequenceName": "epfid2d1_104",
  "SequenceVariant": "SK_SS",
  "SeriesDescription": "func_task-things_run-3",
  "SeriesNumber": 17,
  "ShimSetting": [640, -7174, -8842, 616, 67, 31, -101, -7],
  "SliceThickness": 2,
  "SliceTiming": [0, 0.785, 0.0975, 0.8825, 0.1975, 0.98, 0.295, 1.0775, 0.3925, 1.1775, 0.49, 1.275, 0.5875, 1.3725, 0.6875, 0, 0.785, 0.0975, 0.8825, 0.1975, 0.98, 0.295, 1.0775, 0.3925, 1.1775, 0.49, 1.275, 0.5875, 1.3725, 0.6875, 0, 0.785, 0.0975, 0.8825, 0.1975, 0.98, 0.295, 1.0775, 0.3925, 1.1775, 0.49, 1.275, 0.5875, 1.3725, 0.6875, 0, 0.785, 0.0975, 0.8825, 0.1975, 0.98, 0.295, 1.0775, 0.3925, 1.1775, 0.49, 1.275, 0.5875, 1.3725, 0.6875],
  "SoftwareVersions": "syngo_MR_E11",
  "SpacingBetweenSlices": 2,
  "StationName": "MRC35049",
  "TaskName": "things",
  "TotalReadoutTime": 0.0576811,
  "TxRefAmp": 272.053,
  "WipMemBlock": "65c9fefa-a697-4880-b73a-89efef3dcc7b||Sequence: R016 ve11c/master r/e634e98; Dec 19 2017 11:00:25 by eja",
  "dcmmeta_affine": [
    [-1.9907536506652832, -0.08482956141233444, 0.17234842479228973, 106.51788330078125],
    [-0.1459237039089203, 1.8347991704940796, -0.7824437618255615, -49.002174377441406],
    [0.12492518872022629, 0.791401207447052, 1.8325059413909912, -75.77578735351562],
    [0.0, 0.0, 0.0, 1.0]
],
  "dcmmeta_reorient_transform": [
    [0.0, -1.0, 0.0, 103.0],
    [1.0, 0.0, 0.0, 0.0],
    [0.0, 0.0, 1.0, 0.0],
    [0.0, 0.0, 0.0, 1.0]
],
  "dcmmeta_shape": [104, 104, 60, 190],
  "dcmmeta_slice_dim": 2,
  "dcmmeta_version": 0.6,
  "global": {
    "const": {
      "AcquisitionMatrix": [104, 0, 0, 104],
      "AngioFlag": "N",
      "BitsAllocated": 16,
      "BitsStored": 16,
      "BodyPartExamined": "BRAIN",
      "Columns": 832,
      "EchoNumbers": 1,
      "EchoTime": 37.0,
      "EchoTrainLength": 104,
      "FlipAngle": 52.0,
      "HighBit": 15,
      "ImageOrientationPatient": [0.9953768093261, 0.07296185147341, 0.06246259428943, -0.0424147788684, 0.91739959813076, -0.3957005987904],
      "ImagePositionPatient": [-791.53679467581, -860.96527654675, 248.33580685417],
      "ImageType": [
        "ORIGINAL",
        "PRIMARY",
        "P",
        "MB",
        "ND",
        "MOSAIC"
],
      "ImagedNucleus": "1H",
      "ImagingFrequency": 123.258984,
      "InPlanePhaseEncodingDirection": "COL",
      "LargestImagePixelValue": 4095,
      "MRAcquisitionType": "2D",
      "MagneticFieldStrength": 3.0,
      "Manufacturer": "SIEMENS",
      "ManufacturerModelName": "Prisma_fit",
      "Modality": "MR",
      "NumberOfAverages": 1.0,
      "NumberOfPhaseEncodingSteps": 104,
      "PercentPhaseFieldOfView": 100.0,
      "PercentSampling": 100.0,
      "PerformedProcedureStepStartTime": "163645.095000",
      "PhotometricInterpretation": "MONOCHROME2",
      "PixelBandwidth": 2290.0,
      "PixelRepresentation": 0,
      "PixelSpacing": [2.0, 2.0],
      "ProtocolName": "func_task-things_run-3",
      "RepetitionTime": 1490.0,
      "RescaleIntercept": -4096.0,
      "RescaleSlope": 2.0,
      "RescaleType": "US",
      "Rows": 832,
      "SAR": 0.04985657757346,
      "SamplesPerPixel": 1,
      "ScanOptions": "FS",
      "ScanningSequence": "EP",
      "SequenceName": "epfid2d1_104",
      "SequenceVariant": [
        "SK",
        "SS"
],
      "SeriesDescription": "func_task-things_run-3",
      "SeriesNumber": 17,
      "SeriesTime": "174318.019000",
      "SliceLocation": -41.079968600877,
      "SliceThickness": 2.0,
      "SmallestImagePixelValue": 0,
      "SoftwareVersions": "syngo MR E11",
      "SpacingBetweenSlices": 2.0000000455056,
      "SpecificCharacterSet": "ISO_IR 100",
      "StudyID": "1",
      "StudyTime": "163645.004000",
      "TransmitCoilName": "Body",
      "VariableFlipAngleFlag": "N",
      "WindowCenterWidthExplanation": "Algo1",
      "dBdt": 0.0},
    "slices": {}
  },
  "time": {
    "samples": {
      "AcquisitionNumber": [1, 2, 3, 4, 5, 6, 7, 8, 9, 10, 11, 12, 13, 14, 15, 16, 17, 18, 19, 20, 21, 22, 23, 24, 25, 26, 27, 28, 29, 30, 31, 32, 33, 34, 35, 36, 37, 38, 39, 40, 41, 42, 43, 44, 45, 46, 47, 48, 49, 50, 51, 52, 53, 54, 55, 56, 57, 58, 59, 60, 61, 62, 63, 64, 65, 66, 67, 68, 69, 70, 71, 72, 73, 74, 75, 76, 77, 78, 79, 80, 81, 82, 83, 84, 85, 86, 87, 88, 89, 90, 91, 92, 93, 94, 95, 96, 97, 98, 99, 100, 101, 102, 103, 104, 105, 106, 107, 108, 109, 110, 111, 112, 113, 114, 115, 116, 117, 118, 119, 120, 121, 122, 123, 124, 125, 126, 127, 128, 129, 130, 131, 132, 133, 134, 135, 136, 137, 138, 139, 140, 141, 142, 143, 144, 145, 146, 147, 148, 149, 150, 151, 152, 153, 154, 155, 156, 157, 158, 159, 160, 161, 162, 163, 164, 165, 166, 167, 168, 169, 170, 171, 172, 173, 174, 175, 176, 177, 178, 179, 180, 181, 182, 183, 184, 185, 186, 187, 188, 189, 190],
      "AcquisitionTime": ["174147.437500", "174148.927500", "174150.417500", "174151.907500", "174153.397500", "174154.887500", "174156.377500", "174157.867500", "174159.357500", "174200.847500", "174202.337500", "174203.827500", "174205.317500", "174206.807500", "174208.297500", "174209.787500", "174211.277500", "174212.767500", "174214.257500", "174215.747500", "174217.237500", "174218.727500", "174220.217500", "174221.707500", "174223.197500", "174224.687500", "174226.177500", "174227.667500", "174229.157500", "174230.647500", "174232.137500", "174233.627500", "174235.117500", "174236.607500", "174238.097500", "174239.587500", "174241.077500", "174242.567500", "174244.057500", "174245.547500", "174247.037500", "174248.527500", "174250.017500", "174251.507500", "174252.997500", "174254.487500", "174255.977500", "174257.467500", "174258.957500", "174300.447500", "174301.937500", "174303.427500", "174304.917500", "174306.407500", "174307.897500", "174309.387500", "174310.877500", "174312.367500", "174313.857500", "174315.347500", "174316.837500", "174318.327500", "174319.817500", "174321.307500", "174322.797500", "174324.287500", "174325.777500", "174327.267500", "174328.757500", "174330.247500", "174331.737500", "174333.227500", "174334.717500", "174336.207500", "174337.697500", "174339.187500", "174340.677500", "174342.167500", "174343.657500", "174345.147500", "174346.637500", "174348.127500", "174349.617500", "174351.107500", "174352.597500", "174354.087500", "174355.577500", "174357.067500", "174358.557500", "174400.047500", "174401.537500", "174403.027500", "174404.517500", "174406.007500", "174407.497500", "174408.987500", "174410.477500", "174411.967500", "174413.457500", "174414.947500", "174416.437500", "174417.927500", "174419.417500", "174420.907500", "174422.397500", "174423.887500", "174425.377500", "174426.867500", "174428.357500", "174429.847500", "174431.337500", "174432.827500", "174434.317500", "174435.807500", "174437.297500", "174438.787500", "174440.277500", "174441.767500", "174443.257500", "174444.747500", "174446.237500", "174447.727500", "174449.217500", "174450.707500", "174452.197500", "174453.687500", "174455.177500", "174456.667500", "174458.157500", "174459.647500", "174501.137500", "174502.627500", "174504.117500", "174505.607500", "174507.097500", "174508.587500", "174510.077500", "174511.567500", "174513.057500", "174514.547500", "174516.037500", "174517.527500", "174519.017500", "174520.507500", "174521.997500", "174523.487500", "174524.977500", "174526.467500", "174527.957500", "174529.447500", "174530.937500", "174532.427500", "174533.917500", "174535.407500", "174536.897500", "174538.387500", "174539.877500", "174541.367500", "174542.857500", "174544.347500", "174545.837500", "174547.327500", "174548.817500", "174550.307500", "174551.797500", "174553.287500", "174554.777500", "174556.267500", "174557.757500", "174559.247500", "174600.737500", "174602.227500", "174603.717500", "174605.207500", "174606.697500", "174608.187500", "174609.677500", "174611.167500", "174612.657500", "174614.147500", "174615.637500", "174617.127500", "174618.617500", "174620.107500", "174621.597500", "174623.087500", "174624.577500", "174626.067500", "174627.557500", "174629.047500"],
      "ContentTime": ["174318.021000", "174318.024000", "174318.026000", "174318.029000", "174318.031000", "174318.034000", "174318.036000", "174318.039000", "174318.042000", "174318.044000", "174318.052000", "174318.054000", "174318.057000", "174318.060000", "174318.062000", "174318.065000", "174318.067000", "174318.070000", "174318.072000", "174318.075000", "174318.077000", "174318.080000", "174318.082000", "174318.085000", "174318.088000", "174318.090000", "174318.093000", "174318.095000", "174318.098000", "174318.100000", "174318.103000", "174318.105000", "174318.108000", "174318.110000", "174318.113000", "174318.116000", "174318.118000", "174337.926000", "174337.929000", "174337.932000", "174337.936000", "174337.939000", "174337.942000", "174337.945000", "174337.948000", "174337.950000", "174337.953000", "174337.955000", "174337.958000", "174337.961000", "174337.963000", "174337.966000", "174337.968000", "174337.971000", "174337.974000", "174337.976000", "174337.979000", "174357.908000", "174357.911000", "174357.913000", "174357.916000", "174357.919000", "174357.921000", "174357.924000", "174357.926000", "174357.929000", "174357.931000", "174357.934000", "174357.937000", "174357.939000", "174357.942000", "174357.944000", "174357.947000", "174357.949000", "174357.952000", "174357.954000", "174357.957000", "174357.959000", "174417.925000", "174417.928000", "174417.931000", "174417.933000", "174417.936000", "174417.938000", "174417.941000", "174417.944000", "174417.946000", "174417.949000", "174417.951000", "174417.954000", "174417.956000", "174417.959000", "174417.961000", "174417.964000", "174417.967000", "174417.969000", "174417.972000", "174417.974000", "174457.962000", "174457.964000", "174457.967000", "174457.970000", "174457.972000", "174457.975000", "174457.977000", "174457.980000", "174457.982000", "174457.985000", "174457.987000", "174457.990000", "174457.992000", "174457.995000", "174457.998000", "174458.001000", "174458.006000", "174458.008000", "174458.011000", "174458.014000", "174458.016000", "174458.019000", "174458.022000", "174458.024000", "174458.027000", "174458.029000", "174458.032000", "174458.034000", "174458.037000", "174538.060000", "174538.063000", "174538.065000", "174538.068000", "174538.071000", "174538.073000", "174538.076000", "174538.078000", "174538.081000", "174538.083000", "174538.089000", "174538.092000", "174538.095000", "174538.097000", "174538.100000", "174538.102000", "174538.105000", "174538.107000", "174538.110000", "174538.113000", "174538.115000", "174538.118000", "174538.120000", "174538.123000", "174538.125000", "174538.128000", "174538.131000", "174617.942000", "174617.945000", "174617.948000", "174617.950000", "174617.953000", "174617.955000", "174617.958000", "174617.960000", "174617.963000", "174617.966000", "174617.968000", "174617.971000", "174617.973000", "174617.976000", "174617.978000", "174617.981000", "174617.983000", "174617.986000", "174617.989000", "174617.991000", "174617.994000", "174617.996000", "174617.999000", "174618.001000", "174618.004000", "174618.006000", "174618.009000", "174631.187000", "174631.190000", "174631.192000", "174631.195000", "174631.197000", "174631.200000", "174631.203000", "174631.206000", "174631.208000"],
      "InstanceCreationTime": ["174318.021000", "174318.024000", "174318.026000", "174318.029000", "174318.031000", "174318.034000", "174318.036000", "174318.039000", "174318.042000", "174318.044000", "174318.052000", "174318.054000", "174318.057000", "174318.060000", "174318.062000", "174318.065000", "174318.067000", "174318.070000", "174318.072000", "174318.075000", "174318.077000", "174318.080000", "174318.082000", "174318.085000", "174318.088000", "174318.090000", "174318.093000", "174318.095000", "174318.098000", "174318.100000", "174318.103000", "174318.105000", "174318.108000", "174318.110000", "174318.113000", "174318.116000", "174318.118000", "174337.926000", "174337.929000", "174337.932000", "174337.936000", "174337.939000", "174337.942000", "174337.945000", "174337.948000", "174337.950000", "174337.953000", "174337.955000", "174337.958000", "174337.961000", "174337.963000", "174337.966000", "174337.968000", "174337.971000", "174337.974000", "174337.976000", "174337.979000", "174357.908000", "174357.911000", "174357.913000", "174357.916000", "174357.919000", "174357.921000", "174357.924000", "174357.926000", "174357.929000", "174357.931000", "174357.934000", "174357.937000", "174357.939000", "174357.942000", "174357.944000", "174357.947000", "174357.949000", "174357.952000", "174357.954000", "174357.957000", "174357.959000", "174417.925000", "174417.928000", "174417.931000", "174417.933000", "174417.936000", "174417.938000", "174417.941000", "174417.944000", "174417.946000", "174417.949000", "174417.951000", "174417.954000", "174417.956000", "174417.959000", "174417.961000", "174417.964000", "174417.967000", "174417.969000", "174417.972000", "174417.974000", "174457.962000", "174457.964000", "174457.967000", "174457.970000", "174457.972000", "174457.975000", "174457.977000", "174457.980000", "174457.982000", "174457.985000", "174457.987000", "174457.990000", "174457.992000", "174457.995000", "174457.998000", "174458.001000", "174458.006000", "174458.008000", "174458.011000", "174458.014000", "174458.016000", "174458.019000", "174458.022000", "174458.024000", "174458.027000", "174458.029000", "174458.032000", "174458.034000", "174458.037000", "174538.060000", "174538.063000", "174538.065000", "174538.068000", "174538.071000", "174538.073000", "174538.076000", "174538.078000", "174538.081000", "174538.083000", "174538.089000", "174538.092000", "174538.095000", "174538.097000", "174538.100000", "174538.102000", "174538.105000", "174538.107000", "174538.110000", "174538.113000", "174538.115000", "174538.118000", "174538.120000", "174538.123000", "174538.125000", "174538.128000", "174538.131000", "174617.942000", "174617.945000", "174617.948000", "174617.950000", "174617.953000", "174617.955000", "174617.958000", "174617.960000", "174617.963000", "174617.966000", "174617.968000", "174617.971000", "174617.973000", "174617.976000", "174617.978000", "174617.981000", "174617.983000", "174617.986000", "174617.989000", "174617.991000", "174617.994000", "174617.996000", "174617.999000", "174618.001000", "174618.004000", "174618.006000", "174618.009000", "174631.187000", "174631.190000", "174631.192000", "174631.195000", "174631.197000", "174631.200000", "174631.203000", "174631.206000", "174631.208000"],
      "InstanceNumber": [1, 2, 3, 4, 5, 6, 7, 8, 9, 10, 11, 12, 13, 14, 15, 16, 17, 18, 19, 20, 21, 22, 23, 24, 25, 26, 27, 28, 29, 30, 31, 32, 33, 34, 35, 36, 37, 38, 39, 40, 41, 42, 43, 44, 45, 46, 47, 48, 49, 50, 51, 52, 53, 54, 55, 56, 57, 58, 59, 60, 61, 62, 63, 64, 65, 66, 67, 68, 69, 70, 71, 72, 73, 74, 75, 76, 77, 78, 79, 80, 81, 82, 83, 84, 85, 86, 87, 88, 89, 90, 91, 92, 93, 94, 95, 96, 97, 98, 99, 100, 101, 102, 103, 104, 105, 106, 107, 108, 109, 110, 111, 112, 113, 114, 115, 116, 117, 118, 119, 120, 121, 122, 123, 124, 125, 126, 127, 128, 129, 130, 131, 132, 133, 134, 135, 136, 137, 138, 139, 140, 141, 142, 143, 144, 145, 146, 147, 148, 149, 150, 151, 152, 153, 154, 155, 156, 157, 158, 159, 160, 161, 162, 163, 164, 165, 166, 167, 168, 169, 170, 171, 172, 173, 174, 175, 176, 177, 178, 179, 180, 181, 182, 183, 184, 185, 186, 187, 188, 189, 190],
      "WindowCenter": [4824.0, 4824.0, 4820.0, 4818.0, 4820.0, 4818.0, 4818.0, 4822.0, 4820.0, 4820.0, 4820.0, 4818.0, 4816.0, 4818.0, 4816.0, 4818.0, 4820.0, 4820.0, 4818.0, 4816.0, 4820.0, 4818.0, 4820.0, 4820.0, 4818.0, 4816.0, 4816.0, 4818.0, 4818.0, 4822.0, 4818.0, 4816.0, 4816.0, 4818.0, 4822.0, 4816.0, 4816.0, 4818.0, 4816.0, 4816.0, 4818.0, 4816.0, 4814.0, 4814.0, 4818.0, 4818.0, 4820.0, 4822.0, 4818.0, 4820.0, 4820.0, 4816.0, 4816.0, 4820.0, 4816.0, 4816.0, 4820.0, 4820.0, 4820.0, 4818.0, 4818.0, 4814.0, 4818.0, 4820.0, 4820.0, 4822.0, 4824.0, 4822.0, 4820.0, 4814.0, 4818.0, 4822.0, 4818.0, 4822.0, 4820.0, 4820.0, 4818.0, 4818.0, 4816.0, 4816.0, 4820.0, 4818.0, 4820.0, 4820.0, 4820.0, 4820.0, 4820.0, 4816.0, 4820.0, 4820.0, 4818.0, 4818.0, 4822.0, 4822.0, 4820.0, 4816.0, 4818.0, 4818.0, 4820.0, 4816.0, 4818.0, 4818.0, 4818.0, 4822.0, 4820.0, 4822.0, 4818.0, 4818.0, 4820.0, 4818.0, 4818.0, 4820.0, 4820.0, 4818.0, 4820.0, 4822.0, 4820.0, 4818.0, 4820.0, 4818.0, 4818.0, 4820.0, 4814.0, 4820.0, 4820.0, 4818.0, 4824.0, 4822.0, 4820.0, 4822.0, 4818.0, 4816.0, 4818.0, 4818.0, 4822.0, 4820.0, 4826.0, 4818.0, 4820.0, 4820.0, 4818.0, 4818.0, 4820.0, 4818.0, 4822.0, 4846.0, 4820.0, 4822.0, 4818.0, 4818.0, 4824.0, 4820.0, 4818.0, 4820.0, 4820.0, 4820.0, 4820.0, 4822.0, 4822.0, 4820.0, 4818.0, 4820.0, 4818.0, 4818.0, 4818.0, 4820.0, 4820.0, 4822.0, 4818.0, 4820.0, 4822.0, 4820.0, 4820.0, 4814.0, 4818.0, 4820.0, 4820.0, 4818.0, 4822.0, 4822.0, 4816.0, 4820.0, 4820.0, 4818.0, 4820.0, 4822.0, 4818.0, 4820.0, 4820.0, 4820.0],
      "WindowWidth": [18596.0, 18590.0, 18592.0, 18586.0, 18588.0, 18592.0, 18586.0, 18588.0, 18594.0, 18588.0, 18592.0, 18592.0, 18588.0, 18584.0, 18592.0, 18590.0, 18588.0, 18594.0, 18588.0, 18586.0, 18588.0, 18592.0, 18594.0, 18594.0, 18588.0, 18582.0, 18588.0, 18586.0, 18590.0, 18592.0, 18590.0, 18586.0, 18584.0, 18592.0, 18596.0, 18590.0, 18584.0, 18588.0, 18584.0, 18584.0, 18592.0, 18584.0, 18582.0, 18586.0, 18588.0, 18590.0, 18592.0, 18592.0, 18590.0, 18586.0, 18586.0, 18586.0, 18588.0, 18586.0, 18584.0, 18588.0, 18588.0, 18594.0, 18592.0, 18584.0, 18586.0, 18584.0, 18586.0, 18586.0, 18590.0, 18590.0, 18590.0, 18592.0, 18586.0, 18576.0, 18576.0, 18586.0, 18584.0, 18588.0, 18582.0, 18592.0, 18582.0, 18586.0, 18586.0, 18584.0, 18580.0, 18584.0, 18590.0, 18590.0, 18586.0, 18588.0, 18586.0, 18584.0, 18580.0, 18578.0, 18588.0, 18596.0, 18594.0, 18602.0, 18590.0, 18586.0, 18584.0, 18580.0, 18584.0, 18578.0, 18584.0, 18588.0, 18586.0, 18594.0, 18592.0, 18592.0, 18584.0, 18584.0, 18584.0, 18582.0, 18580.0, 18578.0, 18584.0, 18586.0, 18590.0, 18592.0, 18590.0, 18590.0, 18582.0, 18578.0, 18586.0, 18586.0, 18584.0, 18584.0, 18588.0, 18586.0, 18592.0, 18590.0, 18590.0, 18586.0, 18582.0, 18582.0, 18580.0, 18582.0, 18592.0, 18594.0, 18592.0, 18590.0, 18586.0, 18588.0, 18580.0, 18582.0, 18580.0, 18586.0, 18590.0, 18628.0, 18586.0, 18584.0, 18586.0, 18580.0, 18586.0, 18590.0, 18586.0, 18584.0, 18588.0, 18582.0, 18588.0, 18592.0, 18584.0, 18588.0, 18582.0, 18586.0, 18586.0, 18580.0, 18588.0, 18582.0, 18584.0, 18588.0, 18582.0, 18590.0, 18584.0, 18584.0, 18586.0, 18580.0, 18580.0, 18584.0, 18584.0, 18586.0, 18588.0, 18584.0, 18578.0, 18580.0, 18582.0, 18582.0, 18580.0, 18582.0, 18586.0, 18580.0, 18582.0, 18582.0]
    },
    "slices": {}
  }
}