{
  "AcquisitionMatrixPE": 104,
  "AcquisitionNumber": 1,
  "AcquisitionTime": "17:54:25.390000",
  "BandwidthPerPixelPhaseEncode": 17.17,
  "BaseResolution": 104,
  "BodyPartExamined": "BRAIN",
  "CoilString": "HC1-7;NC1_2",
  "ConsistencyInfo": "N4_VE11C_LATEST_20160120",
  "ConversionSoftware": "dcm2niix",
  "ConversionSoftwareVersion": "v1.0.20190902",
  "DerivedVendorReportedEchoSpacing": 0.000560011,
  "DeviceSerialNumber": "167006",
  "DwellTime": 2.1e-06,
  "EchoTime": 0.037,
  "EchoTrainLength": 104,
  "EffectiveEchoSpacing": 0.000560011,
  "FlipAngle": 52,
  "ImageComments": "Unaliased_MB4_PE3_LB",
  "ImageOrientationPatientDICOM": [0.995377, 0.0729619, 0.0624626, -0.0424148, 0.9174, -0.395701],
  "ImageType": [
    "ORIGINAL",
    "PRIMARY",
    "M",
    "MB",
    "ND",
    "MOSAIC"
],
  "ImagingFrequency": 123.259,
  "InPlanePhaseEncodingDirectionDICOM": "COL",
  "InstitutionAddress": "Chemin_Queen-Mary_4565_Montreal_District_CA_H3W_1W5",
  "InstitutionName": "IUGM",
  "InstitutionalDepartmentName": "Department",
  "MRAcquisitionType": "2D",
  "MagneticFieldStrength": 3,
  "Manufacturer": "Siemens",
  "ManufacturersModelName": "Prisma_fit",
  "Modality": "MR",
  "MultibandAccelerationFactor": 4,
  "PartialFourier": 1,
  "PatientPosition": "HFS",
  "PercentPhaseFOV": 100,
  "PhaseEncodingDirection": "j",
  "PhaseEncodingSteps": 104,
  "PhaseResolution": 1,
  "PixelBandwidth": 2290,
  "ProcedureStepDescription": "memory_things",
  "ProtocolName": "func_task-things_run-5",
  "PulseSequenceDetails": "%CustomerSeq%_cmrr_mbep2d_bold",
  "ReceiveCoilActiveElements": "HC1-7;NC1,2",
  "ReceiveCoilName": "HeadNeck_64",
  "ReconMatrixPE": 104,
  "RepetitionTime": 1.49,
  "SAR": 0.0498566,
  "ScanOptions": "FS",
  "ScanningSequence": "EP",
  "SequenceName": "epfid2d1_104",
  "SequenceVariant": "SK_SS",
  "SeriesDescription": "func_task-things_run-5",
  "SeriesNumber": 22,
  "ShimSetting": [640, -7174, -8842, 616, 67, 31, -101, -7],
  "SliceThickness": 2,
  "SliceTiming": [0, 0.785, 0.0975, 0.8825, 0.195, 0.98, 0.295, 1.0775, 0.3925, 1.175, 0.49, 1.275, 0.5875, 1.3725, 0.685, 0, 0.785, 0.0975, 0.8825, 0.195, 0.98, 0.295, 1.0775, 0.3925, 1.175, 0.49, 1.275, 0.5875, 1.3725, 0.685, 0, 0.785, 0.0975, 0.8825, 0.195, 0.98, 0.295, 1.0775, 0.3925, 1.175, 0.49, 1.275, 0.5875, 1.3725, 0.685, 0, 0.785, 0.0975, 0.8825, 0.195, 0.98, 0.295, 1.0775, 0.3925, 1.175, 0.49, 1.275, 0.5875, 1.3725, 0.685],
  "SoftwareVersions": "syngo_MR_E11",
  "SpacingBetweenSlices": 2,
  "StationName": "MRC35049",
  "TaskName": "things",
  "TotalReadoutTime": 0.0576811,
  "TxRefAmp": 272.053,
  "WipMemBlock": "f2294ad3-9f67-4078-aee0-b32b15f94fd1||Sequence: R016 ve11c/master r/e634e98; Dec 19 2017 11:00:25 by eja",
  "dcmmeta_affine": [
    [-1.9907536506652832, -0.08482956141233444, 0.17234842479228973, 106.51788330078125],
    [-0.1459237039089203, 1.8347991704940796, -0.7824437618255615, -49.002174377441406],
    [0.12492518872022629, 0.791401207447052, 1.8325059413909912, -75.77578735351562],
    [0.0, 0.0, 0.0, 1.0]
],
  "dcmmeta_reorient_transform": [
    [0.0, -1.0, 0.0, 103.0],
    [1.0, 0.0, 0.0, 0.0],
    [0.0, 0.0, 1.0, 0.0],
    [0.0, 0.0, 0.0, 1.0]
],
  "dcmmeta_shape": [104, 104, 60, 190],
  "dcmmeta_slice_dim": 2,
  "dcmmeta_version": 0.6,
  "global": {
    "const": {
      "AcquisitionMatrix": [104, 0, 0, 104],
      "AngioFlag": "N",
      "BitsAllocated": 16,
      "BitsStored": 16,
      "BodyPartExamined": "BRAIN",
      "Columns": 832,
      "EchoNumbers": 1,
      "EchoTime": 37.0,
      "EchoTrainLength": 104,
      "FlipAngle": 52.0,
      "HighBit": 15,
      "ImageOrientationPatient": [0.9953768093261, 0.07296185147341, 0.06246259428943, -0.0424147788684, 0.91739959813076, -0.3957005987904],
      "ImagePositionPatient": [-791.53679467581, -860.96527654675, 248.33580685417],
      "ImageType": [
        "ORIGINAL",
        "PRIMARY",
        "M",
        "MB",
        "ND",
        "MOSAIC"
],
      "ImagedNucleus": "1H",
      "ImagingFrequency": 123.258989,
      "InPlanePhaseEncodingDirection": "COL",
      "MRAcquisitionType": "2D",
      "MagneticFieldStrength": 3.0,
      "Manufacturer": "SIEMENS",
      "ManufacturerModelName": "Prisma_fit",
      "Modality": "MR",
      "NumberOfAverages": 1.0,
      "NumberOfPhaseEncodingSteps": 104,
      "PercentPhaseFieldOfView": 100.0,
      "PercentSampling": 100.0,
      "PerformedProcedureStepStartTime": "163645.095000",
      "PhotometricInterpretation": "MONOCHROME2",
      "PixelBandwidth": 2290.0,
      "PixelRepresentation": 0,
      "PixelSpacing": [2.0, 2.0],
      "ProtocolName": "func_task-things_run-5",
      "RepetitionTime": 1490.0,
      "Rows": 832,
      "SAR": 0.04985657757346,
      "SamplesPerPixel": 1,
      "ScanOptions": "FS",
      "ScanningSequence": "EP",
      "SequenceName": "epfid2d1_104",
      "SequenceVariant": [
        "SK",
        "SS"
],
      "SeriesDescription": "func_task-things_run-5",
      "SeriesNumber": 22,
      "SeriesTime": "175552.512000",
      "SliceLocation": -41.079968600877,
      "SliceThickness": 2.0,
      "SmallestImagePixelValue": 0,
      "SoftwareVersions": "syngo MR E11",
      "SpacingBetweenSlices": 2.0000000455056,
      "SpecificCharacterSet": "ISO_IR 100",
      "StudyID": "1",
      "StudyTime": "163645.004000",
      "TransmitCoilName": "Body",
      "VariableFlipAngleFlag": "N",
      "WindowCenterWidthExplanation": "Algo1",
      "dBdt": 0.0},
    "slices": {}
  },
  "time": {
    "samples": {
      "AcquisitionNumber": [1, 2, 3, 4, 5, 6, 7, 8, 9, 10, 11, 12, 13, 14, 15, 16, 17, 18, 19, 20, 21, 22, 23, 24, 25, 26, 27, 28, 29, 30, 31, 32, 33, 34, 35, 36, 37, 38, 39, 40, 41, 42, 43, 44, 45, 46, 47, 48, 49, 50, 51, 52, 53, 54, 55, 56, 57, 58, 59, 60, 61, 62, 63, 64, 65, 66, 67, 68, 69, 70, 71, 72, 73, 74, 75, 76, 77, 78, 79, 80, 81, 82, 83, 84, 85, 86, 87, 88, 89, 90, 91, 92, 93, 94, 95, 96, 97, 98, 99, 100, 101, 102, 103, 104, 105, 106, 107, 108, 109, 110, 111, 112, 113, 114, 115, 116, 117, 118, 119, 120, 121, 122, 123, 124, 125, 126, 127, 128, 129, 130, 131, 132, 133, 134, 135, 136, 137, 138, 139, 140, 141, 142, 143, 144, 145, 146, 147, 148, 149, 150, 151, 152, 153, 154, 155, 156, 157, 158, 159, 160, 161, 162, 163, 164, 165, 166, 167, 168, 169, 170, 171, 172, 173, 174, 175, 176, 177, 178, 179, 180, 181, 182, 183, 184, 185, 186, 187, 188, 189, 190],
      "AcquisitionTime": ["175425.390000", "175426.880000", "175428.370000", "175429.860000", "175431.350000", "175432.840000", "175434.330000", "175435.820000", "175437.310000", "175438.800000", "175440.290000", "175441.780000", "175443.270000", "175444.760000", "175446.250000", "175447.740000", "175449.230000", "175450.720000", "175452.210000", "175453.700000", "175455.190000", "175456.680000", "175458.170000", "175459.660000", "175501.150000", "175502.640000", "175504.130000", "175505.620000", "175507.110000", "175508.600000", "175510.090000", "175511.580000", "175513.070000", "175514.560000", "175516.050000", "175517.540000", "175519.030000", "175520.520000", "175522.010000", "175523.500000", "175524.990000", "175526.480000", "175527.970000", "175529.460000", "175530.950000", "175532.440000", "175533.930000", "175535.420000", "175536.910000", "175538.400000", "175539.890000", "175541.380000", "175542.870000", "175544.360000", "175545.850000", "175547.340000", "175548.830000", "175550.320000", "175551.810000", "175553.300000", "175554.790000", "175556.280000", "175557.770000", "175559.260000", "175600.750000", "175602.240000", "175603.730000", "175605.220000", "175606.710000", "175608.200000", "175609.690000", "175611.180000", "175612.670000", "175614.160000", "175615.650000", "175617.140000", "175618.630000", "175620.120000", "175621.610000", "175623.100000", "175624.590000", "175626.080000", "175627.570000", "175629.060000", "175630.550000", "175632.040000", "175633.530000", "175635.020000", "175636.510000", "175638.000000", "175639.490000", "175640.980000", "175642.470000", "175643.960000", "175645.450000", "175646.940000", "175648.430000", "175649.920000", "175651.410000", "175652.900000", "175654.390000", "175655.880000", "175657.370000", "175658.860000", "175700.350000", "175701.840000", "175703.330000", "175704.820000", "175706.310000", "175707.800000", "175709.290000", "175710.780000", "175712.270000", "175713.760000", "175715.250000", "175716.740000", "175718.230000", "175719.720000", "175721.210000", "175722.700000", "175724.190000", "175725.680000", "175727.170000", "175728.660000", "175730.150000", "175731.640000", "175733.130000", "175734.620000", "175736.110000", "175737.600000", "175739.090000", "175740.580000", "175742.070000", "175743.560000", "175745.050000", "175746.540000", "175748.030000", "175749.520000", "175751.010000", "175752.500000", "175753.990000", "175755.480000", "175756.970000", "175758.460000", "175759.950000", "175801.440000", "175802.930000", "175804.420000", "175805.910000", "175807.400000", "175808.890000", "175810.380000", "175811.870000", "175813.360000", "175814.850000", "175816.340000", "175817.830000", "175819.320000", "175820.810000", "175822.300000", "175823.790000", "175825.280000", "175826.770000", "175828.260000", "175829.750000", "175831.240000", "175832.730000", "175834.220000", "175835.710000", "175837.200000", "175838.690000", "175840.180000", "175841.670000", "175843.160000", "175844.650000", "175846.140000", "175847.630000", "175849.120000", "175850.610000", "175852.100000", "175853.590000", "175855.080000", "175856.570000", "175858.060000", "175859.550000", "175901.040000", "175902.530000", "175904.020000", "175905.510000", "175907.000000"],
      "ContentTime": ["175552.515000", "175552.525000", "175552.529000", "175552.532000", "175552.535000", "175552.539000", "175552.555000", "175552.558000", "175552.561000", "175552.571000", "175552.575000", "175552.578000", "175552.581000", "175552.585000", "175552.588000", "175552.592000", "175552.595000", "175552.599000", "175552.602000", "175552.605000", "175552.609000", "175552.612000", "175552.616000", "175552.619000", "175552.622000", "175552.634000", "175552.637000", "175552.641000", "175552.644000", "175552.648000", "175552.651000", "175552.654000", "175552.658000", "175552.661000", "175552.665000", "175612.480000", "175612.484000", "175612.488000", "175612.491000", "175612.495000", "175612.498000", "175612.501000", "175612.505000", "175612.508000", "175612.512000", "175612.515000", "175612.518000", "175612.522000", "175612.525000", "175612.529000", "175612.532000", "175612.535000", "175612.539000", "175612.542000", "175612.546000", "175612.549000", "175632.481000", "175632.485000", "175632.488000", "175632.492000", "175632.495000", "175632.499000", "175632.502000", "175632.506000", "175632.509000", "175632.512000", "175632.516000", "175632.519000", "175632.523000", "175632.526000", "175632.529000", "175632.533000", "175632.536000", "175632.540000", "175632.543000", "175632.546000", "175652.481000", "175652.485000", "175652.488000", "175652.492000", "175652.495000", "175652.499000", "175652.502000", "175652.506000", "175652.509000", "175652.512000", "175652.516000", "175652.519000", "175652.523000", "175652.526000", "175652.529000", "175652.533000", "175652.536000", "175652.540000", "175652.543000", "175652.547000", "175732.481000", "175732.485000", "175732.488000", "175732.504000", "175732.507000", "175732.511000", "175732.514000", "175732.518000", "175732.521000", "175732.524000", "175732.528000", "175732.531000", "175732.535000", "175732.538000", "175732.542000", "175732.545000", "175732.549000", "175732.552000", "175732.555000", "175732.559000", "175732.562000", "175732.566000", "175732.569000", "175732.573000", "175732.576000", "175732.580000", "175732.583000", "175732.586000", "175732.590000", "175812.480000", "175812.484000", "175812.488000", "175812.491000", "175812.494000", "175812.498000", "175812.501000", "175812.505000", "175812.508000", "175812.512000", "175812.515000", "175812.519000", "175812.523000", "175812.526000", "175812.530000", "175812.533000", "175812.537000", "175812.540000", "175812.543000", "175812.547000", "175812.550000", "175812.554000", "175812.557000", "175812.561000", "175812.564000", "175812.567000", "175812.571000", "175852.481000", "175852.485000", "175852.488000", "175852.492000", "175852.495000", "175852.499000", "175852.502000", "175852.506000", "175852.509000", "175852.513000", "175852.516000", "175852.519000", "175852.523000", "175852.526000", "175852.530000", "175852.533000", "175852.537000", "175852.540000", "175852.544000", "175852.547000", "175852.550000", "175852.554000", "175852.557000", "175852.561000", "175852.564000", "175852.576000", "175852.579000", "175908.800000", "175908.826000", "175908.830000", "175908.833000", "175908.836000", "175908.840000", "175908.843000", "175908.847000", "175908.850000", "175908.854000", "175908.857000"],
      "InstanceCreationTime": ["175552.515000", "175552.525000", "175552.529000", "175552.532000", "175552.535000", "175552.539000", "175552.555000", "175552.558000", "175552.561000", "175552.571000", "175552.575000", "175552.578000", "175552.581000", "175552.585000", "175552.588000", "175552.592000", "175552.595000", "175552.599000", "175552.602000", "175552.605000", "175552.609000", "175552.612000", "175552.616000", "175552.619000", "175552.622000", "175552.634000", "175552.637000", "175552.641000", "175552.644000", "175552.648000", "175552.651000", "175552.654000", "175552.658000", "175552.661000", "175552.665000", "175612.480000", "175612.484000", "175612.488000", "175612.491000", "175612.495000", "175612.498000", "175612.501000", "175612.505000", "175612.508000", "175612.512000", "175612.515000", "175612.518000", "175612.522000", "175612.525000", "175612.529000", "175612.532000", "175612.535000", "175612.539000", "175612.542000", "175612.546000", "175612.549000", "175632.481000", "175632.485000", "175632.488000", "175632.492000", "175632.495000", "175632.499000", "175632.502000", "175632.506000", "175632.509000", "175632.512000", "175632.516000", "175632.519000", "175632.523000", "175632.526000", "175632.529000", "175632.533000", "175632.536000", "175632.540000", "175632.543000", "175632.546000", "175652.481000", "175652.485000", "175652.488000", "175652.492000", "175652.495000", "175652.499000", "175652.502000", "175652.506000", "175652.509000", "175652.512000", "175652.516000", "175652.519000", "175652.523000", "175652.526000", "175652.529000", "175652.533000", "175652.536000", "175652.540000", "175652.543000", "175652.547000", "175732.481000", "175732.485000", "175732.488000", "175732.504000", "175732.507000", "175732.511000", "175732.514000", "175732.518000", "175732.521000", "175732.524000", "175732.528000", "175732.531000", "175732.535000", "175732.538000", "175732.542000", "175732.545000", "175732.549000", "175732.552000", "175732.555000", "175732.559000", "175732.562000", "175732.566000", "175732.569000", "175732.573000", "175732.576000", "175732.580000", "175732.583000", "175732.586000", "175732.590000", "175812.480000", "175812.484000", "175812.488000", "175812.491000", "175812.494000", "175812.498000", "175812.501000", "175812.505000", "175812.508000", "175812.512000", "175812.515000", "175812.519000", "175812.523000", "175812.526000", "175812.530000", "175812.533000", "175812.537000", "175812.540000", "175812.543000", "175812.547000", "175812.550000", "175812.554000", "175812.557000", "175812.561000", "175812.564000", "175812.567000", "175812.571000", "175852.481000", "175852.485000", "175852.488000", "175852.492000", "175852.495000", "175852.499000", "175852.502000", "175852.506000", "175852.509000", "175852.513000", "175852.516000", "175852.519000", "175852.523000", "175852.526000", "175852.530000", "175852.533000", "175852.537000", "175852.540000", "175852.544000", "175852.547000", "175852.550000", "175852.554000", "175852.557000", "175852.561000", "175852.564000", "175852.576000", "175852.579000", "175908.800000", "175908.826000", "175908.830000", "175908.833000", "175908.836000", "175908.840000", "175908.843000", "175908.847000", "175908.850000", "175908.854000", "175908.857000"],
      "InstanceNumber": [1, 2, 3, 4, 5, 6, 7, 8, 9, 10, 11, 12, 13, 14, 15, 16, 17, 18, 19, 20, 21, 22, 23, 24, 25, 26, 27, 28, 29, 30, 31, 32, 33, 34, 35, 36, 37, 38, 39, 40, 41, 42, 43, 44, 45, 46, 47, 48, 49, 50, 51, 52, 53, 54, 55, 56, 57, 58, 59, 60, 61, 62, 63, 64, 65, 66, 67, 68, 69, 70, 71, 72, 73, 74, 75, 76, 77, 78, 79, 80, 81, 82, 83, 84, 85, 86, 87, 88, 89, 90, 91, 92, 93, 94, 95, 96, 97, 98, 99, 100, 101, 102, 103, 104, 105, 106, 107, 108, 109, 110, 111, 112, 113, 114, 115, 116, 117, 118, 119, 120, 121, 122, 123, 124, 125, 126, 127, 128, 129, 130, 131, 132, 133, 134, 135, 136, 137, 138, 139, 140, 141, 142, 143, 144, 145, 146, 147, 148, 149, 150, 151, 152, 153, 154, 155, 156, 157, 158, 159, 160, 161, 162, 163, 164, 165, 166, 167, 168, 169, 170, 171, 172, 173, 174, 175, 176, 177, 178, 179, 180, 181, 182, 183, 184, 185, 186, 187, 188, 189, 190],
      "LargestImagePixelValue": [43079, 41476, 41273, 40377, 41773, 40634, 41714, 41301, 41201, 41593, 42002, 42482, 41692, 43509, 44855, 43101, 43202, 42487, 41894, 43549, 44064, 42314, 42758, 42638, 42878, 43582, 45357, 44201, 44573, 43637, 43881, 43915, 44643, 43348, 43051, 40829, 40678, 42161, 43882, 42677, 42974, 42928, 43523, 42977, 42966, 43725, 46444, 46313, 45402, 44575, 43434, 43097, 42667, 42771, 42600, 42681, 43195, 43053, 44715, 44203, 43287, 42410, 42520, 44603, 43882, 43637, 44879, 44152, 42945, 42964, 43678, 43773, 43304, 42758, 43252, 42580, 42282, 42967, 43277, 43389, 43333, 44115, 42913, 43498, 43752, 43181, 43641, 42600, 42551, 43008, 42901, 45203, 44843, 44180, 43285, 43480, 43512, 41911, 43019, 45452, 44524, 42850, 43216, 42794, 42722, 43198, 44599, 44087, 43991, 44019, 44956, 45960, 43979, 43534, 42947, 42567, 41183, 41815, 43050, 42175, 43242, 42968, 42780, 44079, 45948, 45010, 45099, 43082, 42949, 44679, 45860, 44575, 43097, 42585, 42735, 41142, 42766, 44351, 42976, 44357, 43836, 42731, 45432, 45242, 45099, 44207, 43691, 43261, 42639, 43898, 44934, 44896, 43772, 44245, 44526, 44375, 44015, 43301, 44079, 43617, 43758, 42905, 43257, 43026, 41863, 42949, 43729, 44871, 42761, 44373, 44379, 43698, 42323, 44385, 44724, 44882, 45009, 43980, 44863, 43706, 42548, 42803, 43395, 42603, 43574, 43630, 43189, 43337, 43886, 44715],
      "WindowCenter": [10445.0, 10413.0, 10416.0, 10421.0, 10437.0, 10418.0, 10422.0, 10410.0, 10417.0, 10426.0, 10448.0, 10458.0, 10446.0, 10459.0, 10475.0, 10450.0, 10433.0, 10435.0, 10433.0, 10467.0, 10488.0, 10464.0, 10446.0, 10429.0, 10424.0, 10444.0, 10478.0, 10461.0, 10433.0, 10410.0, 10407.0, 10398.0, 10418.0, 10427.0, 10435.0, 10416.0, 10426.0, 10436.0, 10419.0, 10384.0, 10389.0, 10390.0, 10395.0, 10391.0, 10407.0, 10421.0, 10465.0, 10467.0, 10445.0, 10415.0, 10408.0, 10418.0, 10422.0, 10466.0, 10457.0, 10442.0, 10443.0, 10433.0, 10447.0, 10468.0, 10452.0, 10437.0, 10421.0, 10455.0, 10466.0, 10477.0, 10480.0, 10455.0, 10428.0, 10408.0, 10405.0, 10416.0, 10428.0, 10448.0, 10449.0, 10429.0, 10404.0, 10408.0, 10412.0, 10428.0, 10432.0, 10434.0, 10413.0, 10418.0, 10417.0, 10420.0, 10442.0, 10438.0, 10419.0, 10409.0, 10413.0, 10443.0, 10447.0, 10434.0, 10412.0, 10419.0, 10422.0, 10424.0, 10441.0, 10444.0, 10419.0, 10402.0, 10401.0, 10381.0, 10383.0, 10392.0, 10419.0, 10426.0, 10434.0, 10442.0, 10446.0, 10421.0, 10397.0, 10401.0, 10414.0, 10445.0, 10475.0, 10457.0, 10428.0, 10386.0, 10373.0, 10373.0, 10394.0, 10432.0, 10454.0, 10429.0, 10410.0, 10385.0, 10378.0, 10406.0, 10434.0, 10427.0, 10405.0, 10393.0, 10398.0, 10389.0, 10407.0, 10397.0, 10355.0, 10362.0, 10382.0, 10413.0, 10435.0, 10409.0, 10390.0, 10379.0, 10388.0, 10385.0, 10386.0, 10394.0, 10408.0, 10408.0, 10395.0, 10391.0, 10400.0, 10433.0, 10430.0, 10411.0, 10413.0, 10417.0, 10415.0, 10403.0, 10411.0, 10426.0, 10425.0, 10423.0, 10411.0, 10401.0, 10368.0, 10379.0, 10383.0, 10382.0, 10388.0, 10439.0, 10450.0, 10441.0, 10434.0, 10415.0, 10420.0, 10427.0, 10422.0, 10430.0, 10426.0, 10419.0, 10403.0, 10383.0, 10368.0, 10363.0, 10378.0, 10389.0],
      "WindowWidth": [22196.0, 22112.0, 22115.0, 22125.0, 22153.0, 22110.0, 22109.0, 22087.0, 22101.0, 22123.0, 22171.0, 22193.0, 22166.0, 22187.0, 22223.0, 22168.0, 22131.0, 22135.0, 22137.0, 22212.0, 22257.0, 22208.0, 22160.0, 22122.0, 22107.0, 22149.0, 22225.0, 22192.0, 22122.0, 22071.0, 22064.0, 22046.0, 22088.0, 22117.0, 22136.0, 22099.0, 22127.0, 22147.0, 22094.0, 22024.0, 22030.0, 22034.0, 22040.0, 22035.0, 22069.0, 22102.0, 22194.0, 22200.0, 22151.0, 22083.0, 22070.0, 22095.0, 22105.0, 22209.0, 22192.0, 22154.0, 22152.0, 22129.0, 22156.0, 22213.0, 22182.0, 22145.0, 22110.0, 22193.0, 22207.0, 22236.0, 22240.0, 22180.0, 22123.0, 22074.0, 22065.0, 22086.0, 22114.0, 22165.0, 22165.0, 22122.0, 22066.0, 22073.0, 22083.0, 22122.0, 22133.0, 22133.0, 22087.0, 22094.0, 22091.0, 22107.0, 22153.0, 22159.0, 22102.0, 22077.0, 22087.0, 22147.0, 22158.0, 22131.0, 22081.0, 22096.0, 22105.0, 22121.0, 22154.0, 22152.0, 22093.0, 22057.0, 22051.0, 22008.0, 22010.0, 22034.0, 22090.0, 22113.0, 22131.0, 22148.0, 22155.0, 22092.0, 22046.0, 22057.0, 22090.0, 22165.0, 22241.0, 22194.0, 22117.0, 22021.0, 21990.0, 21992.0, 22039.0, 22128.0, 22166.0, 22113.0, 22068.0, 22016.0, 21999.0, 22055.0, 22121.0, 22110.0, 22063.0, 22036.0, 22049.0, 22036.0, 22069.0, 22037.0, 21946.0, 21957.0, 22008.0, 22085.0, 22125.0, 22061.0, 22017.0, 21997.0, 22020.0, 22022.0, 22020.0, 22032.0, 22069.0, 22063.0, 22038.0, 22026.0, 22051.0, 22125.0, 22118.0, 22071.0, 22073.0, 22089.0, 22084.0, 22058.0, 22074.0, 22113.0, 22118.0, 22106.0, 22075.0, 22044.0, 21975.0, 21995.0, 22001.0, 22003.0, 22024.0, 22137.0, 22166.0, 22142.0, 22119.0, 22082.0, 22091.0, 22112.0, 22108.0, 22127.0, 22114.0, 22096.0, 22055.0, 22011.0, 21974.0, 21964.0, 21993.0, 22014.0]
    },
    "slices": {}
  }
}