{
  "AcquisitionMatrixPE": 104,
  "AcquisitionNumber": 1,
  "AcquisitionTime": "17:35:43.762500",
  "BandwidthPerPixelPhaseEncode": 17.17,
  "BaseResolution": 104,
  "BodyPartExamined": "BRAIN",
  "CoilString": "HC1-7;NC1_2",
  "ConsistencyInfo": "N4_VE11C_LATEST_20160120",
  "ConversionSoftware": "dcm2niix",
  "ConversionSoftwareVersion": "v1.0.20190902",
  "DerivedVendorReportedEchoSpacing": 0.000560011,
  "DeviceSerialNumber": "167006",
  "DwellTime": 2.1e-06,
  "EchoTime": 0.037,
  "EchoTrainLength": 104,
  "EffectiveEchoSpacing": 0.000560011,
  "FlipAngle": 52,
  "ImageComments": "Unaliased_MB4_PE3_LB",
  "ImageOrientationPatientDICOM": [0.995377, 0.0729619, 0.0624626, -0.0424148, 0.9174, -0.395701],
  "ImageType": [
    "ORIGINAL",
    "PRIMARY",
    "M",
    "MB",
    "ND",
    "MOSAIC"
],
  "ImagingFrequency": 123.259,
  "InPlanePhaseEncodingDirectionDICOM": "COL",
  "InstitutionAddress": "Chemin_Queen-Mary_4565_Montreal_District_CA_H3W_1W5",
  "InstitutionName": "IUGM",
  "InstitutionalDepartmentName": "Department",
  "MRAcquisitionType": "2D",
  "MagneticFieldStrength": 3,
  "Manufacturer": "Siemens",
  "ManufacturersModelName": "Prisma_fit",
  "Modality": "MR",
  "MultibandAccelerationFactor": 4,
  "PartialFourier": 1,
  "PatientPosition": "HFS",
  "PercentPhaseFOV": 100,
  "PhaseEncodingDirection": "j",
  "PhaseEncodingSteps": 104,
  "PhaseResolution": 1,
  "PixelBandwidth": 2290,
  "ProcedureStepDescription": "memory_things",
  "ProtocolName": "func_task-things_run-2",
  "PulseSequenceDetails": "%CustomerSeq%_cmrr_mbep2d_bold",
  "ReceiveCoilActiveElements": "HC1-7;NC1,2",
  "ReceiveCoilName": "HeadNeck_64",
  "ReconMatrixPE": 104,
  "RepetitionTime": 1.49,
  "SAR": 0.0498566,
  "ScanOptions": "FS",
  "ScanningSequence": "EP",
  "SequenceName": "epfid2d1_104",
  "SequenceVariant": "SK_SS",
  "SeriesDescription": "func_task-things_run-2",
  "SeriesNumber": 13,
  "ShimSetting": [640, -7174, -8842, 616, 67, 31, -101, -7],
  "SliceThickness": 2,
  "SliceTiming": [0, 0.7825, 0.0975, 0.88, 0.195, 0.9775, 0.2925, 1.0775, 0.39, 1.175, 0.49, 1.2725, 0.5875, 1.37, 0.685, 0, 0.7825, 0.0975, 0.88, 0.195, 0.9775, 0.2925, 1.0775, 0.39, 1.175, 0.49, 1.2725, 0.5875, 1.37, 0.685, 0, 0.7825, 0.0975, 0.88, 0.195, 0.9775, 0.2925, 1.0775, 0.39, 1.175, 0.49, 1.2725, 0.5875, 1.37, 0.685, 0, 0.7825, 0.0975, 0.88, 0.195, 0.9775, 0.2925, 1.0775, 0.39, 1.175, 0.49, 1.2725, 0.5875, 1.37, 0.685],
  "SoftwareVersions": "syngo_MR_E11",
  "SpacingBetweenSlices": 2,
  "StationName": "MRC35049",
  "TaskName": "things",
  "TotalReadoutTime": 0.0576811,
  "TxRefAmp": 272.053,
  "WipMemBlock": "4480a715-3ef1-41e0-9f4b-ac4995a11dee||Sequence: R016 ve11c/master r/e634e98; Dec 19 2017 11:00:25 by eja",
  "dcmmeta_affine": [
    [-1.9907536506652832, -0.08482956141233444, 0.17234842479228973, 106.51788330078125],
    [-0.1459237039089203, 1.8347991704940796, -0.7824437618255615, -49.002174377441406],
    [0.12492518872022629, 0.791401207447052, 1.8325059413909912, -75.77578735351562],
    [0.0, 0.0, 0.0, 1.0]
],
  "dcmmeta_reorient_transform": [
    [0.0, -1.0, 0.0, 103.0],
    [1.0, 0.0, 0.0, 0.0],
    [0.0, 0.0, 1.0, 0.0],
    [0.0, 0.0, 0.0, 1.0]
],
  "dcmmeta_shape": [104, 104, 60, 190],
  "dcmmeta_slice_dim": 2,
  "dcmmeta_version": 0.6,
  "global": {
    "const": {
      "AcquisitionMatrix": [104, 0, 0, 104],
      "AngioFlag": "N",
      "BitsAllocated": 16,
      "BitsStored": 16,
      "BodyPartExamined": "BRAIN",
      "Columns": 832,
      "EchoNumbers": 1,
      "EchoTime": 37.0,
      "EchoTrainLength": 104,
      "FlipAngle": 52.0,
      "HighBit": 15,
      "ImageOrientationPatient": [0.9953768093261, 0.07296185147341, 0.06246259428943, -0.0424147788684, 0.91739959813076, -0.3957005987904],
      "ImagePositionPatient": [-791.53679467581, -860.96527654675, 248.33580685417],
      "ImageType": [
        "ORIGINAL",
        "PRIMARY",
        "M",
        "MB",
        "ND",
        "MOSAIC"
],
      "ImagedNucleus": "1H",
      "ImagingFrequency": 123.25898,
      "InPlanePhaseEncodingDirection": "COL",
      "MRAcquisitionType": "2D",
      "MagneticFieldStrength": 3.0,
      "Manufacturer": "SIEMENS",
      "ManufacturerModelName": "Prisma_fit",
      "Modality": "MR",
      "NumberOfAverages": 1.0,
      "NumberOfPhaseEncodingSteps": 104,
      "PercentPhaseFieldOfView": 100.0,
      "PercentSampling": 100.0,
      "PerformedProcedureStepStartTime": "163645.095000",
      "PhotometricInterpretation": "MONOCHROME2",
      "PixelBandwidth": 2290.0,
      "PixelRepresentation": 0,
      "PixelSpacing": [2.0, 2.0],
      "ProtocolName": "func_task-things_run-2",
      "RepetitionTime": 1490.0,
      "Rows": 832,
      "SAR": 0.04985657757346,
      "SamplesPerPixel": 1,
      "ScanOptions": "FS",
      "ScanningSequence": "EP",
      "SequenceName": "epfid2d1_104",
      "SequenceVariant": [
        "SK",
        "SS"
],
      "SeriesDescription": "func_task-things_run-2",
      "SeriesNumber": 13,
      "SeriesTime": "173652.510000",
      "SliceLocation": -41.079968600877,
      "SliceThickness": 2.0,
      "SmallestImagePixelValue": 0,
      "SoftwareVersions": "syngo MR E11",
      "SpacingBetweenSlices": 2.0000000455056,
      "SpecificCharacterSet": "ISO_IR 100",
      "StudyID": "1",
      "StudyTime": "163645.004000",
      "TransmitCoilName": "Body",
      "VariableFlipAngleFlag": "N",
      "WindowCenterWidthExplanation": "Algo1",
      "dBdt": 0.0},
    "slices": {}
  },
  "time": {
    "samples": {
      "AcquisitionNumber": [1, 2, 3, 4, 5, 6, 7, 8, 9, 10, 11, 12, 13, 14, 15, 16, 17, 18, 19, 20, 21, 22, 23, 24, 25, 26, 27, 28, 29, 30, 31, 32, 33, 34, 35, 36, 37, 38, 39, 40, 41, 42, 43, 44, 45, 46, 47, 48, 49, 50, 51, 52, 53, 54, 55, 56, 57, 58, 59, 60, 61, 62, 63, 64, 65, 66, 67, 68, 69, 70, 71, 72, 73, 74, 75, 76, 77, 78, 79, 80, 81, 82, 83, 84, 85, 86, 87, 88, 89, 90, 91, 92, 93, 94, 95, 96, 97, 98, 99, 100, 101, 102, 103, 104, 105, 106, 107, 108, 109, 110, 111, 112, 113, 114, 115, 116, 117, 118, 119, 120, 121, 122, 123, 124, 125, 126, 127, 128, 129, 130, 131, 132, 133, 134, 135, 136, 137, 138, 139, 140, 141, 142, 143, 144, 145, 146, 147, 148, 149, 150, 151, 152, 153, 154, 155, 156, 157, 158, 159, 160, 161, 162, 163, 164, 165, 166, 167, 168, 169, 170, 171, 172, 173, 174, 175, 176, 177, 178, 179, 180, 181, 182, 183, 184, 185, 186, 187, 188, 189, 190],
      "AcquisitionTime": ["173543.762500", "173545.252500", "173546.742500", "173548.232500", "173549.722500", "173551.212500", "173552.702500", "173554.192500", "173555.682500", "173557.172500", "173558.662500", "173600.152500", "173601.642500", "173603.132500", "173604.622500", "173606.112500", "173607.602500", "173609.092500", "173610.582500", "173612.072500", "173613.562500", "173615.052500", "173616.542500", "173618.032500", "173619.522500", "173621.012500", "173622.502500", "173623.992500", "173625.482500", "173626.972500", "173628.462500", "173629.952500", "173631.442500", "173632.932500", "173634.422500", "173635.912500", "173637.402500", "173638.892500", "173640.382500", "173641.872500", "173643.362500", "173644.852500", "173646.342500", "173647.832500", "173649.322500", "173650.812500", "173652.302500", "173653.792500", "173655.282500", "173656.772500", "173658.262500", "173659.752500", "173701.242500", "173702.732500", "173704.222500", "173705.712500", "173707.202500", "173708.692500", "173710.182500", "173711.672500", "173713.162500", "173714.652500", "173716.142500", "173717.632500", "173719.122500", "173720.612500", "173722.102500", "173723.592500", "173725.082500", "173726.572500", "173728.062500", "173729.552500", "173731.042500", "173732.532500", "173734.022500", "173735.512500", "173737.002500", "173738.492500", "173739.982500", "173741.472500", "173742.962500", "173744.452500", "173745.942500", "173747.432500", "173748.922500", "173750.412500", "173751.902500", "173753.392500", "173754.882500", "173756.372500", "173757.862500", "173759.352500", "173800.842500", "173802.332500", "173803.822500", "173805.312500", "173806.802500", "173808.292500", "173809.782500", "173811.272500", "173812.762500", "173814.252500", "173815.742500", "173817.232500", "173818.722500", "173820.212500", "173821.702500", "173823.192500", "173824.682500", "173826.172500", "173827.662500", "173829.152500", "173830.642500", "173832.132500", "173833.622500", "173835.112500", "173836.602500", "173838.092500", "173839.582500", "173841.072500", "173842.562500", "173844.052500", "173845.542500", "173847.032500", "173848.522500", "173850.012500", "173851.502500", "173852.992500", "173854.482500", "173855.972500", "173857.462500", "173858.952500", "173900.442500", "173901.932500", "173903.422500", "173904.912500", "173906.402500", "173907.892500", "173909.382500", "173910.872500", "173912.362500", "173913.852500", "173915.342500", "173916.832500", "173918.322500", "173919.812500", "173921.302500", "173922.792500", "173924.282500", "173925.772500", "173927.262500", "173928.752500", "173930.242500", "173931.732500", "173933.222500", "173934.712500", "173936.202500", "173937.692500", "173939.182500", "173940.672500", "173942.162500", "173943.652500", "173945.142500", "173946.632500", "173948.122500", "173949.612500", "173951.102500", "173952.592500", "173954.082500", "173955.572500", "173957.062500", "173958.552500", "174000.042500", "174001.532500", "174003.022500", "174004.512500", "174006.002500", "174007.492500", "174008.982500", "174010.472500", "174011.962500", "174013.452500", "174014.942500", "174016.432500", "174017.922500", "174019.412500", "174020.902500", "174022.392500", "174023.882500", "174025.372500"],
      "ContentTime": ["173652.513000", "173652.517000", "173652.520000", "173652.523000", "173652.527000", "173652.530000", "173652.534000", "173652.537000", "173652.541000", "173652.544000", "173652.547000", "173652.551000", "173652.554000", "173652.557000", "173652.561000", "173712.480000", "173712.484000", "173712.487000", "173712.491000", "173712.501000", "173712.504000", "173712.508000", "173712.511000", "173712.515000", "173712.518000", "173712.521000", "173712.525000", "173712.528000", "173712.531000", "173712.535000", "173712.538000", "173712.542000", "173712.545000", "173712.548000", "173712.552000", "173732.480000", "173732.484000", "173732.487000", "173732.491000", "173732.494000", "173732.497000", "173732.501000", "173732.504000", "173732.508000", "173732.511000", "173732.514000", "173732.518000", "173732.521000", "173732.525000", "173732.528000", "173732.531000", "173732.535000", "173732.538000", "173732.541000", "173732.545000", "173752.481000", "173752.485000", "173752.488000", "173752.492000", "173752.495000", "173752.499000", "173752.502000", "173752.506000", "173752.509000", "173752.512000", "173752.516000", "173752.519000", "173752.523000", "173752.526000", "173752.529000", "173752.533000", "173752.536000", "173752.540000", "173752.543000", "173752.546000", "173752.550000", "173812.481000", "173812.485000", "173812.489000", "173812.492000", "173812.495000", "173812.499000", "173812.502000", "173812.506000", "173812.509000", "173812.513000", "173812.531000", "173812.534000", "173812.538000", "173812.541000", "173812.545000", "173812.548000", "173812.551000", "173812.555000", "173812.558000", "173812.562000", "173852.481000", "173852.485000", "173852.489000", "173852.492000", "173852.495000", "173852.499000", "173852.502000", "173852.506000", "173852.509000", "173852.513000", "173852.516000", "173852.520000", "173852.523000", "173852.526000", "173852.530000", "173852.533000", "173852.537000", "173852.540000", "173852.544000", "173852.547000", "173852.550000", "173852.554000", "173852.557000", "173852.561000", "173852.564000", "173852.568000", "173852.571000", "173852.575000", "173852.578000", "173852.582000", "173932.480000", "173932.484000", "173932.488000", "173932.491000", "173932.494000", "173932.498000", "173932.501000", "173932.505000", "173932.508000", "173932.512000", "173932.515000", "173932.519000", "173932.522000", "173932.526000", "173932.529000", "173932.533000", "173932.536000", "173932.540000", "173932.543000", "173932.546000", "173932.550000", "173932.553000", "173932.557000", "173932.560000", "173932.563000", "173932.567000", "173932.570000", "174012.481000", "174012.485000", "174012.488000", "174012.492000", "174012.495000", "174012.499000", "174012.502000", "174012.506000", "174012.509000", "174012.513000", "174012.516000", "174012.519000", "174012.523000", "174012.526000", "174012.530000", "174012.533000", "174012.537000", "174012.540000", "174012.543000", "174012.547000", "174012.550000", "174012.554000", "174012.557000", "174012.561000", "174012.564000", "174012.568000", "174012.571000", "174027.155000", "174027.159000", "174027.163000", "174027.166000", "174027.170000", "174027.173000", "174027.186000", "174027.190000", "174027.193000", "174027.207000"],
      "InstanceCreationTime": ["173652.513000", "173652.517000", "173652.520000", "173652.523000", "173652.527000", "173652.530000", "173652.534000", "173652.537000", "173652.541000", "173652.544000", "173652.547000", "173652.551000", "173652.554000", "173652.557000", "173652.561000", "173712.480000", "173712.484000", "173712.487000", "173712.491000", "173712.501000", "173712.504000", "173712.508000", "173712.511000", "173712.515000", "173712.518000", "173712.521000", "173712.525000", "173712.528000", "173712.531000", "173712.535000", "173712.538000", "173712.542000", "173712.545000", "173712.548000", "173712.552000", "173732.480000", "173732.484000", "173732.487000", "173732.491000", "173732.494000", "173732.497000", "173732.501000", "173732.504000", "173732.508000", "173732.511000", "173732.514000", "173732.518000", "173732.521000", "173732.525000", "173732.528000", "173732.531000", "173732.535000", "173732.538000", "173732.541000", "173732.545000", "173752.481000", "173752.485000", "173752.488000", "173752.492000", "173752.495000", "173752.499000", "173752.502000", "173752.506000", "173752.509000", "173752.512000", "173752.516000", "173752.519000", "173752.523000", "173752.526000", "173752.529000", "173752.533000", "173752.536000", "173752.540000", "173752.543000", "173752.546000", "173752.550000", "173812.481000", "173812.485000", "173812.489000", "173812.492000", "173812.495000", "173812.499000", "173812.502000", "173812.506000", "173812.509000", "173812.513000", "173812.531000", "173812.534000", "173812.538000", "173812.541000", "173812.545000", "173812.548000", "173812.551000", "173812.555000", "173812.558000", "173812.562000", "173852.481000", "173852.485000", "173852.489000", "173852.492000", "173852.495000", "173852.499000", "173852.502000", "173852.506000", "173852.509000", "173852.513000", "173852.516000", "173852.520000", "173852.523000", "173852.526000", "173852.530000", "173852.533000", "173852.537000", "173852.540000", "173852.544000", "173852.547000", "173852.550000", "173852.554000", "173852.557000", "173852.561000", "173852.564000", "173852.568000", "173852.571000", "173852.575000", "173852.578000", "173852.582000", "173932.480000", "173932.484000", "173932.488000", "173932.491000", "173932.494000", "173932.498000", "173932.501000", "173932.505000", "173932.508000", "173932.512000", "173932.515000", "173932.519000", "173932.522000", "173932.526000", "173932.529000", "173932.533000", "173932.536000", "173932.540000", "173932.543000", "173932.546000", "173932.550000", "173932.553000", "173932.557000", "173932.560000", "173932.563000", "173932.567000", "173932.570000", "174012.481000", "174012.485000", "174012.488000", "174012.492000", "174012.495000", "174012.499000", "174012.502000", "174012.506000", "174012.509000", "174012.513000", "174012.516000", "174012.519000", "174012.523000", "174012.526000", "174012.530000", "174012.533000", "174012.537000", "174012.540000", "174012.543000", "174012.547000", "174012.550000", "174012.554000", "174012.557000", "174012.561000", "174012.564000", "174012.568000", "174012.571000", "174027.155000", "174027.159000", "174027.163000", "174027.166000", "174027.170000", "174027.173000", "174027.186000", "174027.190000", "174027.193000", "174027.207000"],
      "InstanceNumber": [1, 2, 3, 4, 5, 6, 7, 8, 9, 10, 11, 12, 13, 14, 15, 16, 17, 18, 19, 20, 21, 22, 23, 24, 25, 26, 27, 28, 29, 30, 31, 32, 33, 34, 35, 36, 37, 38, 39, 40, 41, 42, 43, 44, 45, 46, 47, 48, 49, 50, 51, 52, 53, 54, 55, 56, 57, 58, 59, 60, 61, 62, 63, 64, 65, 66, 67, 68, 69, 70, 71, 72, 73, 74, 75, 76, 77, 78, 79, 80, 81, 82, 83, 84, 85, 86, 87, 88, 89, 90, 91, 92, 93, 94, 95, 96, 97, 98, 99, 100, 101, 102, 103, 104, 105, 106, 107, 108, 109, 110, 111, 112, 113, 114, 115, 116, 117, 118, 119, 120, 121, 122, 123, 124, 125, 126, 127, 128, 129, 130, 131, 132, 133, 134, 135, 136, 137, 138, 139, 140, 141, 142, 143, 144, 145, 146, 147, 148, 149, 150, 151, 152, 153, 154, 155, 156, 157, 158, 159, 160, 161, 162, 163, 164, 165, 166, 167, 168, 169, 170, 171, 172, 173, 174, 175, 176, 177, 178, 179, 180, 181, 182, 183, 184, 185, 186, 187, 188, 189, 190],
      "LargestImagePixelValue": [46799, 45265, 44993, 43377, 44771, 45207, 45134, 44528, 43639, 44211, 45916, 44816, 44373, 43466, 43406, 44120, 42808, 42924, 42881, 43272, 43057, 42356, 42909, 42865, 42702, 43109, 43121, 43558, 43526, 43147, 42284, 43226, 43967, 42345, 42891, 43475, 43658, 42789, 43445, 42663, 43311, 42198, 42431, 42354, 43503, 42937, 42659, 43391, 42106, 41863, 42096, 43174, 41455, 41807, 41265, 41716, 41083, 40015, 40866, 41087, 41503, 42159, 41211, 41852, 40878, 41130, 41106, 44257, 42470, 42507, 42731, 42064, 42392, 43800, 41596, 40831, 42755, 39917, 40077, 42147, 40423, 40387, 43215, 42277, 41062, 41319, 42132, 40646, 40273, 41493, 39953, 40721, 41870, 39957, 40200, 44135, 40160, 40621, 39727, 39744, 39192, 39645, 40208, 39632, 40077, 39521, 39557, 38982, 39663, 39362, 39786, 41968, 41376, 40831, 41328, 40224, 40269, 42016, 43448, 39511, 41579, 41005, 41048, 40118, 40206, 40331, 40186, 40190, 43688, 39941, 41562, 41169, 40839, 41673, 41249, 40728, 43974, 38226, 41782, 42128, 40322, 40997, 41085, 40966, 40661, 41046, 41951, 41121, 39202, 38407, 41716, 41403, 41014, 40857, 41825, 40397, 39757, 39017, 43521, 41876, 41560, 41889, 42835, 42314, 43582, 41184, 40887, 42477, 46505, 43464, 43252, 43167, 43586, 42357, 48013, 43837, 44059, 44756, 44897, 43555, 43636, 41801, 46624, 43392, 42322, 41270, 41955, 41200, 41623, 43459],
      "WindowCenter": [10636.0, 10569.0, 10544.0, 10523.0, 10521.0, 10529.0, 10526.0, 10505.0, 10493.0, 10496.0, 10515.0, 10519.0, 10503.0, 10489.0, 10486.0, 10516.0, 10521.0, 10515.0, 10499.0, 10500.0, 10501.0, 10482.0, 10503.0, 10513.0, 10530.0, 10540.0, 10531.0, 10529.0, 10543.0, 10565.0, 10550.0, 10551.0, 10546.0, 10528.0, 10542.0, 10540.0, 10531.0, 10517.0, 10535.0, 10526.0, 10523.0, 10517.0, 10518.0, 10515.0, 10538.0, 10525.0, 10525.0, 10530.0, 10519.0, 10530.0, 10526.0, 10522.0, 10495.0, 10528.0, 10535.0, 10554.0, 10538.0, 10500.0, 10501.0, 10507.0, 10520.0, 10541.0, 10543.0, 10537.0, 10518.0, 10507.0, 10496.0, 10520.0, 10512.0, 10521.0, 10540.0, 10534.0, 10541.0, 10539.0, 10494.0, 10488.0, 10503.0, 10460.0, 10466.0, 10508.0, 10487.0, 10492.0, 10501.0, 10496.0, 10486.0, 10513.0, 10525.0, 10484.0, 10468.0, 10477.0, 10441.0, 10450.0, 10480.0, 10481.0, 10495.0, 10516.0, 10468.0, 10472.0, 10459.0, 10470.0, 10456.0, 10461.0, 10490.0, 10500.0, 10504.0, 10500.0, 10475.0, 10449.0, 10468.0, 10493.0, 10498.0, 10506.0, 10504.0, 10503.0, 10514.0, 10502.0, 10503.0, 10503.0, 10502.0, 10445.0, 10466.0, 10484.0, 10502.0, 10503.0, 10509.0, 10496.0, 10477.0, 10483.0, 10515.0, 10469.0, 10484.0, 10487.0, 10496.0, 10519.0, 10515.0, 10502.0, 10527.0, 10445.0, 10487.0, 10503.0, 10498.0, 10524.0, 10504.0, 10481.0, 10435.0, 10437.0, 10460.0, 10481.0, 10490.0, 10481.0, 10494.0, 10482.0, 10476.0, 10494.0, 10508.0, 10473.0, 10457.0, 10431.0, 10466.0, 10456.0, 10468.0, 10489.0, 10509.0, 10513.0, 10507.0, 10473.0, 10468.0, 10476.0, 10519.0, 10485.0, 10501.0, 10529.0, 10548.0, 10507.0, 10548.0, 10482.0, 10477.0, 10472.0, 10480.0, 10472.0, 10473.0, 10445.0, 10530.0, 10510.0, 10504.0, 10493.0, 10483.0, 10458.0, 10447.0, 10463.0],
      "WindowWidth": [22646.0, 22477.0, 22406.0, 22356.0, 22341.0, 22357.0, 22344.0, 22300.0, 22275.0, 22283.0, 22323.0, 22336.0, 22296.0, 22265.0, 22255.0, 22326.0, 22350.0, 22333.0, 22294.0, 22294.0, 22299.0, 22260.0, 22312.0, 22331.0, 22372.0, 22397.0, 22371.0, 22364.0, 22396.0, 22455.0, 22423.0, 22420.0, 22404.0, 22371.0, 22403.0, 22393.0, 22370.0, 22340.0, 22376.0, 22360.0, 22352.0, 22340.0, 22348.0, 22335.0, 22384.0, 22357.0, 22358.0, 22367.0, 22348.0, 22375.0, 22361.0, 22354.0, 22291.0, 22370.0, 22389.0, 22435.0, 22393.0, 22309.0, 22310.0, 22323.0, 22349.0, 22396.0, 22407.0, 22387.0, 22346.0, 22320.0, 22294.0, 22341.0, 22325.0, 22345.0, 22390.0, 22381.0, 22396.0, 22387.0, 22285.0, 22275.0, 22306.0, 22214.0, 22227.0, 22323.0, 22281.0, 22288.0, 22299.0, 22285.0, 22271.0, 22336.0, 22356.0, 22263.0, 22228.0, 22253.0, 22164.0, 22184.0, 22252.0, 22257.0, 22295.0, 22336.0, 22229.0, 22236.0, 22210.0, 22244.0, 22208.0, 22219.0, 22285.0, 22311.0, 22319.0, 22310.0, 22252.0, 22191.0, 22236.0, 22302.0, 22306.0, 22310.0, 22307.0, 22308.0, 22340.0, 22309.0, 22318.0, 22311.0, 22300.0, 22182.0, 22225.0, 22266.0, 22307.0, 22315.0, 22327.0, 22297.0, 22252.0, 22265.0, 22337.0, 22238.0, 22263.0, 22269.0, 22293.0, 22345.0, 22339.0, 22308.0, 22357.0, 22186.0, 22259.0, 22296.0, 22296.0, 22357.0, 22305.0, 22257.0, 22142.0, 22147.0, 22199.0, 22256.0, 22288.0, 22274.0, 22285.0, 22255.0, 22242.0, 22288.0, 22315.0, 22233.0, 22202.0, 22146.0, 22209.0, 22189.0, 22223.0, 22280.0, 22316.0, 22324.0, 22311.0, 22231.0, 22226.0, 22245.0, 22323.0, 22254.0, 22290.0, 22358.0, 22401.0, 22305.0, 22389.0, 22238.0, 22227.0, 22215.0, 22233.0, 22219.0, 22218.0, 22169.0, 22351.0, 22312.0, 22301.0, 22279.0, 22253.0, 22193.0, 22169.0, 22213.0]
    },
    "slices": {}
  }
}