{
  "AcquisitionMatrixPE": 104,
  "AcquisitionNumber": 1,
  "AcquisitionTime": "17:54:25.390000",
  "BandwidthPerPixelPhaseEncode": 17.17,
  "BaseResolution": 104,
  "BodyPartExamined": "BRAIN",
  "CoilString": "HC1-7;NC1_2",
  "ConsistencyInfo": "N4_VE11C_LATEST_20160120",
  "ConversionSoftware": "dcm2niix",
  "ConversionSoftwareVersion": "v1.0.20190902",
  "DerivedVendorReportedEchoSpacing": 0.000560011,
  "DeviceSerialNumber": "167006",
  "DwellTime": 2.1e-06,
  "EchoTime": 0.037,
  "EchoTrainLength": 104,
  "EffectiveEchoSpacing": 0.000560011,
  "FlipAngle": 52,
  "ImageComments": "Unaliased_MB4_PE3_LB",
  "ImageOrientationPatientDICOM": [0.995377, 0.0729619, 0.0624626, -0.0424148, 0.9174, -0.395701],
  "ImageType": [
    "ORIGINAL",
    "PRIMARY",
    "P",
    "MB",
    "ND",
    "MOSAIC"
],
  "ImagingFrequency": 123.259,
  "InPlanePhaseEncodingDirectionDICOM": "COL",
  "InstitutionAddress": "Chemin_Queen-Mary_4565_Montreal_District_CA_H3W_1W5",
  "InstitutionName": "IUGM",
  "InstitutionalDepartmentName": "Department",
  "MRAcquisitionType": "2D",
  "MagneticFieldStrength": 3,
  "Manufacturer": "Siemens",
  "ManufacturersModelName": "Prisma_fit",
  "Modality": "MR",
  "MultibandAccelerationFactor": 4,
  "PartialFourier": 1,
  "PatientPosition": "HFS",
  "PercentPhaseFOV": 100,
  "PhaseEncodingDirection": "j",
  "PhaseEncodingSteps": 104,
  "PhaseResolution": 1,
  "PixelBandwidth": 2290,
  "ProcedureStepDescription": "memory_things",
  "ProtocolName": "func_task-things_run-5",
  "PulseSequenceDetails": "%CustomerSeq%_cmrr_mbep2d_bold",
  "ReceiveCoilActiveElements": "HC1-7;NC1,2",
  "ReceiveCoilName": "HeadNeck_64",
  "ReconMatrixPE": 104,
  "RepetitionTime": 1.49,
  "SAR": 0.0498566,
  "ScanOptions": "FS",
  "ScanningSequence": "EP",
  "SequenceName": "epfid2d1_104",
  "SequenceVariant": "SK_SS",
  "SeriesDescription": "func_task-things_run-5",
  "SeriesNumber": 23,
  "ShimSetting": [640, -7174, -8842, 616, 67, 31, -101, -7],
  "SliceThickness": 2,
  "SliceTiming": [0, 0.785, 0.0975, 0.8825, 0.195, 0.98, 0.295, 1.0775, 0.3925, 1.175, 0.49, 1.275, 0.5875, 1.3725, 0.685, 0, 0.785, 0.0975, 0.8825, 0.195, 0.98, 0.295, 1.0775, 0.3925, 1.175, 0.49, 1.275, 0.5875, 1.3725, 0.685, 0, 0.785, 0.0975, 0.8825, 0.195, 0.98, 0.295, 1.0775, 0.3925, 1.175, 0.49, 1.275, 0.5875, 1.3725, 0.685, 0, 0.785, 0.0975, 0.8825, 0.195, 0.98, 0.295, 1.0775, 0.3925, 1.175, 0.49, 1.275, 0.5875, 1.3725, 0.685],
  "SoftwareVersions": "syngo_MR_E11",
  "SpacingBetweenSlices": 2,
  "StationName": "MRC35049",
  "TaskName": "things",
  "TotalReadoutTime": 0.0576811,
  "TxRefAmp": 272.053,
  "WipMemBlock": "f2294ad3-9f67-4078-aee0-b32b15f94fd1||Sequence: R016 ve11c/master r/e634e98; Dec 19 2017 11:00:25 by eja",
  "dcmmeta_affine": [
    [-1.9907536506652832, -0.08482956141233444, 0.17234842479228973, 106.51788330078125],
    [-0.1459237039089203, 1.8347991704940796, -0.7824437618255615, -49.002174377441406],
    [0.12492518872022629, 0.791401207447052, 1.8325059413909912, -75.77578735351562],
    [0.0, 0.0, 0.0, 1.0]
],
  "dcmmeta_reorient_transform": [
    [0.0, -1.0, 0.0, 103.0],
    [1.0, 0.0, 0.0, 0.0],
    [0.0, 0.0, 1.0, 0.0],
    [0.0, 0.0, 0.0, 1.0]
],
  "dcmmeta_shape": [104, 104, 60, 190],
  "dcmmeta_slice_dim": 2,
  "dcmmeta_version": 0.6,
  "global": {
    "const": {
      "AcquisitionMatrix": [104, 0, 0, 104],
      "AngioFlag": "N",
      "BitsAllocated": 16,
      "BitsStored": 16,
      "BodyPartExamined": "BRAIN",
      "Columns": 832,
      "EchoNumbers": 1,
      "EchoTime": 37.0,
      "EchoTrainLength": 104,
      "FlipAngle": 52.0,
      "HighBit": 15,
      "ImageOrientationPatient": [0.9953768093261, 0.07296185147341, 0.06246259428943, -0.0424147788684, 0.91739959813076, -0.3957005987904],
      "ImagePositionPatient": [-791.53679467581, -860.96527654675, 248.33580685417],
      "ImageType": [
        "ORIGINAL",
        "PRIMARY",
        "P",
        "MB",
        "ND",
        "MOSAIC"
],
      "ImagedNucleus": "1H",
      "ImagingFrequency": 123.258989,
      "InPlanePhaseEncodingDirection": "COL",
      "LargestImagePixelValue": 4095,
      "MRAcquisitionType": "2D",
      "MagneticFieldStrength": 3.0,
      "Manufacturer": "SIEMENS",
      "ManufacturerModelName": "Prisma_fit",
      "Modality": "MR",
      "NumberOfAverages": 1.0,
      "NumberOfPhaseEncodingSteps": 104,
      "PercentPhaseFieldOfView": 100.0,
      "PercentSampling": 100.0,
      "PerformedProcedureStepStartTime": "163645.095000",
      "PhotometricInterpretation": "MONOCHROME2",
      "PixelBandwidth": 2290.0,
      "PixelRepresentation": 0,
      "PixelSpacing": [2.0, 2.0],
      "ProtocolName": "func_task-things_run-5",
      "RepetitionTime": 1490.0,
      "RescaleIntercept": -4096.0,
      "RescaleSlope": 2.0,
      "RescaleType": "US",
      "Rows": 832,
      "SAR": 0.04985657757346,
      "SamplesPerPixel": 1,
      "ScanOptions": "FS",
      "ScanningSequence": "EP",
      "SequenceName": "epfid2d1_104",
      "SequenceVariant": [
        "SK",
        "SS"
],
      "SeriesDescription": "func_task-things_run-5",
      "SeriesNumber": 23,
      "SeriesTime": "175552.711000",
      "SliceLocation": -41.079968600877,
      "SliceThickness": 2.0,
      "SmallestImagePixelValue": 0,
      "SoftwareVersions": "syngo MR E11",
      "SpacingBetweenSlices": 2.0000000455056,
      "SpecificCharacterSet": "ISO_IR 100",
      "StudyID": "1",
      "StudyTime": "163645.004000",
      "TransmitCoilName": "Body",
      "VariableFlipAngleFlag": "N",
      "WindowCenterWidthExplanation": "Algo1",
      "dBdt": 0.0},
    "slices": {}
  },
  "time": {
    "samples": {
      "AcquisitionNumber": [1, 2, 3, 4, 5, 6, 7, 8, 9, 10, 11, 12, 13, 14, 15, 16, 17, 18, 19, 20, 21, 22, 23, 24, 25, 26, 27, 28, 29, 30, 31, 32, 33, 34, 35, 36, 37, 38, 39, 40, 41, 42, 43, 44, 45, 46, 47, 48, 49, 50, 51, 52, 53, 54, 55, 56, 57, 58, 59, 60, 61, 62, 63, 64, 65, 66, 67, 68, 69, 70, 71, 72, 73, 74, 75, 76, 77, 78, 79, 80, 81, 82, 83, 84, 85, 86, 87, 88, 89, 90, 91, 92, 93, 94, 95, 96, 97, 98, 99, 100, 101, 102, 103, 104, 105, 106, 107, 108, 109, 110, 111, 112, 113, 114, 115, 116, 117, 118, 119, 120, 121, 122, 123, 124, 125, 126, 127, 128, 129, 130, 131, 132, 133, 134, 135, 136, 137, 138, 139, 140, 141, 142, 143, 144, 145, 146, 147, 148, 149, 150, 151, 152, 153, 154, 155, 156, 157, 158, 159, 160, 161, 162, 163, 164, 165, 166, 167, 168, 169, 170, 171, 172, 173, 174, 175, 176, 177, 178, 179, 180, 181, 182, 183, 184, 185, 186, 187, 188, 189, 190],
      "AcquisitionTime": ["175425.390000", "175426.880000", "175428.370000", "175429.860000", "175431.350000", "175432.840000", "175434.330000", "175435.820000", "175437.310000", "175438.800000", "175440.290000", "175441.780000", "175443.270000", "175444.760000", "175446.250000", "175447.740000", "175449.230000", "175450.720000", "175452.210000", "175453.700000", "175455.190000", "175456.680000", "175458.170000", "175459.660000", "175501.150000", "175502.640000", "175504.130000", "175505.620000", "175507.110000", "175508.600000", "175510.090000", "175511.580000", "175513.070000", "175514.560000", "175516.050000", "175517.540000", "175519.030000", "175520.520000", "175522.010000", "175523.500000", "175524.990000", "175526.480000", "175527.970000", "175529.460000", "175530.950000", "175532.440000", "175533.930000", "175535.420000", "175536.910000", "175538.400000", "175539.890000", "175541.380000", "175542.870000", "175544.360000", "175545.850000", "175547.340000", "175548.830000", "175550.320000", "175551.810000", "175553.300000", "175554.790000", "175556.280000", "175557.770000", "175559.260000", "175600.750000", "175602.240000", "175603.730000", "175605.220000", "175606.710000", "175608.200000", "175609.690000", "175611.180000", "175612.670000", "175614.160000", "175615.650000", "175617.140000", "175618.630000", "175620.120000", "175621.610000", "175623.100000", "175624.590000", "175626.080000", "175627.570000", "175629.060000", "175630.550000", "175632.040000", "175633.530000", "175635.020000", "175636.510000", "175638.000000", "175639.490000", "175640.980000", "175642.470000", "175643.960000", "175645.450000", "175646.940000", "175648.430000", "175649.920000", "175651.410000", "175652.900000", "175654.390000", "175655.880000", "175657.370000", "175658.860000", "175700.350000", "175701.840000", "175703.330000", "175704.820000", "175706.310000", "175707.800000", "175709.290000", "175710.780000", "175712.270000", "175713.760000", "175715.250000", "175716.740000", "175718.230000", "175719.720000", "175721.210000", "175722.700000", "175724.190000", "175725.680000", "175727.170000", "175728.660000", "175730.150000", "175731.640000", "175733.130000", "175734.620000", "175736.110000", "175737.600000", "175739.090000", "175740.580000", "175742.070000", "175743.560000", "175745.050000", "175746.540000", "175748.030000", "175749.520000", "175751.010000", "175752.500000", "175753.990000", "175755.480000", "175756.970000", "175758.460000", "175759.950000", "175801.440000", "175802.930000", "175804.420000", "175805.910000", "175807.400000", "175808.890000", "175810.380000", "175811.870000", "175813.360000", "175814.850000", "175816.340000", "175817.830000", "175819.320000", "175820.810000", "175822.300000", "175823.790000", "175825.280000", "175826.770000", "175828.260000", "175829.750000", "175831.240000", "175832.730000", "175834.220000", "175835.710000", "175837.200000", "175838.690000", "175840.180000", "175841.670000", "175843.160000", "175844.650000", "175846.140000", "175847.630000", "175849.120000", "175850.610000", "175852.100000", "175853.590000", "175855.080000", "175856.570000", "175858.060000", "175859.550000", "175901.040000", "175902.530000", "175904.020000", "175905.510000", "175907.000000"],
      "ContentTime": ["175552.713000", "175552.716000", "175552.719000", "175552.721000", "175552.724000", "175552.726000", "175552.729000", "175552.731000", "175552.734000", "175552.737000", "175552.739000", "175552.745000", "175552.748000", "175552.750000", "175552.753000", "175552.755000", "175552.758000", "175552.760000", "175552.763000", "175552.765000", "175552.768000", "175552.771000", "175552.773000", "175552.776000", "175552.779000", "175552.782000", "175552.784000", "175552.787000", "175552.789000", "175552.792000", "175552.795000", "175552.797000", "175552.800000", "175552.802000", "175552.805000", "175612.602000", "175612.605000", "175612.607000", "175612.613000", "175612.616000", "175612.618000", "175612.621000", "175612.623000", "175612.626000", "175612.628000", "175612.631000", "175612.633000", "175612.636000", "175612.638000", "175612.641000", "175612.643000", "175612.646000", "175612.649000", "175612.651000", "175612.654000", "175612.656000", "175632.590000", "175632.593000", "175632.596000", "175632.605000", "175632.608000", "175632.610000", "175632.613000", "175632.615000", "175632.618000", "175632.620000", "175632.623000", "175632.625000", "175632.628000", "175632.630000", "175632.633000", "175632.635000", "175632.638000", "175632.640000", "175632.643000", "175632.645000", "175652.590000", "175652.592000", "175652.595000", "175652.598000", "175652.600000", "175652.603000", "175652.605000", "175652.608000", "175652.611000", "175652.613000", "175652.616000", "175652.618000", "175652.621000", "175652.623000", "175652.626000", "175652.628000", "175652.631000", "175652.633000", "175652.636000", "175652.639000", "175732.642000", "175732.645000", "175732.648000", "175732.651000", "175732.653000", "175732.656000", "175732.658000", "175732.661000", "175732.663000", "175732.666000", "175732.668000", "175732.671000", "175732.673000", "175732.676000", "175732.679000", "175732.681000", "175732.684000", "175732.686000", "175732.689000", "175732.691000", "175732.694000", "175732.696000", "175732.699000", "175732.702000", "175732.704000", "175732.707000", "175732.709000", "175732.712000", "175732.714000", "175812.616000", "175812.618000", "175812.626000", "175812.629000", "175812.631000", "175812.634000", "175812.637000", "175812.639000", "175812.642000", "175812.644000", "175812.647000", "175812.649000", "175812.652000", "175812.654000", "175812.657000", "175812.660000", "175812.662000", "175812.665000", "175812.667000", "175812.670000", "175812.672000", "175812.675000", "175812.677000", "175812.680000", "175812.682000", "175812.685000", "175812.688000", "175852.630000", "175852.633000", "175852.635000", "175852.638000", "175852.640000", "175852.643000", "175852.645000", "175852.648000", "175852.651000", "175852.653000", "175852.656000", "175852.658000", "175852.661000", "175852.663000", "175852.666000", "175852.668000", "175852.671000", "175852.674000", "175852.676000", "175852.679000", "175852.681000", "175852.684000", "175852.686000", "175852.689000", "175852.691000", "175852.694000", "175852.697000", "175908.898000", "175908.901000", "175908.911000", "175908.914000", "175908.917000", "175908.919000", "175908.922000", "175908.924000", "175908.927000", "175908.930000", "175908.932000"],
      "InstanceCreationTime": ["175552.713000", "175552.716000", "175552.719000", "175552.721000", "175552.724000", "175552.726000", "175552.729000", "175552.731000", "175552.734000", "175552.737000", "175552.739000", "175552.745000", "175552.748000", "175552.750000", "175552.753000", "175552.755000", "175552.758000", "175552.760000", "175552.763000", "175552.765000", "175552.768000", "175552.771000", "175552.773000", "175552.776000", "175552.779000", "175552.782000", "175552.784000", "175552.787000", "175552.789000", "175552.792000", "175552.795000", "175552.797000", "175552.800000", "175552.802000", "175552.805000", "175612.602000", "175612.605000", "175612.607000", "175612.613000", "175612.616000", "175612.618000", "175612.621000", "175612.623000", "175612.626000", "175612.628000", "175612.631000", "175612.633000", "175612.636000", "175612.638000", "175612.641000", "175612.643000", "175612.646000", "175612.649000", "175612.651000", "175612.654000", "175612.656000", "175632.590000", "175632.593000", "175632.596000", "175632.605000", "175632.608000", "175632.610000", "175632.613000", "175632.615000", "175632.618000", "175632.620000", "175632.623000", "175632.625000", "175632.628000", "175632.630000", "175632.633000", "175632.635000", "175632.638000", "175632.640000", "175632.643000", "175632.645000", "175652.590000", "175652.592000", "175652.595000", "175652.598000", "175652.600000", "175652.603000", "175652.605000", "175652.608000", "175652.611000", "175652.613000", "175652.616000", "175652.618000", "175652.621000", "175652.623000", "175652.626000", "175652.628000", "175652.631000", "175652.633000", "175652.636000", "175652.639000", "175732.642000", "175732.645000", "175732.648000", "175732.651000", "175732.653000", "175732.656000", "175732.658000", "175732.661000", "175732.663000", "175732.666000", "175732.668000", "175732.671000", "175732.673000", "175732.676000", "175732.679000", "175732.681000", "175732.684000", "175732.686000", "175732.689000", "175732.691000", "175732.694000", "175732.696000", "175732.699000", "175732.702000", "175732.704000", "175732.707000", "175732.709000", "175732.712000", "175732.714000", "175812.616000", "175812.618000", "175812.626000", "175812.629000", "175812.631000", "175812.634000", "175812.637000", "175812.639000", "175812.642000", "175812.644000", "175812.647000", "175812.649000", "175812.652000", "175812.654000", "175812.657000", "175812.660000", "175812.662000", "175812.665000", "175812.667000", "175812.670000", "175812.672000", "175812.675000", "175812.677000", "175812.680000", "175812.682000", "175812.685000", "175812.688000", "175852.630000", "175852.633000", "175852.635000", "175852.638000", "175852.640000", "175852.643000", "175852.645000", "175852.648000", "175852.651000", "175852.653000", "175852.656000", "175852.658000", "175852.661000", "175852.663000", "175852.666000", "175852.668000", "175852.671000", "175852.674000", "175852.676000", "175852.679000", "175852.681000", "175852.684000", "175852.686000", "175852.689000", "175852.691000", "175852.694000", "175852.697000", "175908.898000", "175908.901000", "175908.911000", "175908.914000", "175908.917000", "175908.919000", "175908.922000", "175908.924000", "175908.927000", "175908.930000", "175908.932000"],
      "InstanceNumber": [1, 2, 3, 4, 5, 6, 7, 8, 9, 10, 11, 12, 13, 14, 15, 16, 17, 18, 19, 20, 21, 22, 23, 24, 25, 26, 27, 28, 29, 30, 31, 32, 33, 34, 35, 36, 37, 38, 39, 40, 41, 42, 43, 44, 45, 46, 47, 48, 49, 50, 51, 52, 53, 54, 55, 56, 57, 58, 59, 60, 61, 62, 63, 64, 65, 66, 67, 68, 69, 70, 71, 72, 73, 74, 75, 76, 77, 78, 79, 80, 81, 82, 83, 84, 85, 86, 87, 88, 89, 90, 91, 92, 93, 94, 95, 96, 97, 98, 99, 100, 101, 102, 103, 104, 105, 106, 107, 108, 109, 110, 111, 112, 113, 114, 115, 116, 117, 118, 119, 120, 121, 122, 123, 124, 125, 126, 127, 128, 129, 130, 131, 132, 133, 134, 135, 136, 137, 138, 139, 140, 141, 142, 143, 144, 145, 146, 147, 148, 149, 150, 151, 152, 153, 154, 155, 156, 157, 158, 159, 160, 161, 162, 163, 164, 165, 166, 167, 168, 169, 170, 171, 172, 173, 174, 175, 176, 177, 178, 179, 180, 181, 182, 183, 184, 185, 186, 187, 188, 189, 190],
      "WindowCenter": [4822.0, 4826.0, 4822.0, 4846.0, 4822.0, 4822.0, 4816.0, 4820.0, 4826.0, 4822.0, 4816.0, 4816.0, 4818.0, 4818.0, 4824.0, 4844.0, 4824.0, 4824.0, 4822.0, 4850.0, 4824.0, 4822.0, 4820.0, 4822.0, 4822.0, 4820.0, 4822.0, 4824.0, 4820.0, 4824.0, 4826.0, 4848.0, 4822.0, 4822.0, 4844.0, 4848.0, 4822.0, 4818.0, 4786.0, 4808.0, 4814.0, 4820.0, 4818.0, 4810.0, 4818.0, 4816.0, 4816.0, 4820.0, 4820.0, 4816.0, 4820.0, 4820.0, 4822.0, 4822.0, 4820.0, 4814.0, 4818.0, 4818.0, 4818.0, 4822.0, 4820.0, 4820.0, 4820.0, 4822.0, 4846.0, 4816.0, 4816.0, 4842.0, 4816.0, 4816.0, 4820.0, 4820.0, 4818.0, 4814.0, 4814.0, 4818.0, 4844.0, 4818.0, 4820.0, 4816.0, 4822.0, 4822.0, 4818.0, 4824.0, 4820.0, 4822.0, 4822.0, 4824.0, 4822.0, 4822.0, 4820.0, 4820.0, 4820.0, 4844.0, 4822.0, 4818.0, 4846.0, 4818.0, 4824.0, 4816.0, 4814.0, 4816.0, 4820.0, 4820.0, 4814.0, 4814.0, 4816.0, 4814.0, 4818.0, 4818.0, 4822.0, 4816.0, 4814.0, 4824.0, 4852.0, 4822.0, 4820.0, 4820.0, 4818.0, 4820.0, 4818.0, 4818.0, 4818.0, 4816.0, 4820.0, 4824.0, 4820.0, 4820.0, 4820.0, 4820.0, 4824.0, 4826.0, 4824.0, 4848.0, 4850.0, 4848.0, 4818.0, 4816.0, 4816.0, 4826.0, 4820.0, 4818.0, 4818.0, 4822.0, 4820.0, 4818.0, 4822.0, 4824.0, 4818.0, 4818.0, 4818.0, 4818.0, 4822.0, 4822.0, 4820.0, 4820.0, 4818.0, 4822.0, 4818.0, 4816.0, 4820.0, 4818.0, 4818.0, 4846.0, 4844.0, 4822.0, 4814.0, 4780.0, 4808.0, 4816.0, 4820.0, 4816.0, 4822.0, 4818.0, 4814.0, 4816.0, 4820.0, 4816.0, 4828.0, 4850.0, 4848.0, 4848.0, 4852.0, 4824.0, 4814.0, 4780.0, 4812.0, 4816.0, 4816.0, 4816.0],
      "WindowWidth": [18610.0, 18602.0, 18594.0, 18626.0, 18612.0, 18618.0, 18612.0, 18618.0, 18618.0, 18608.0, 18600.0, 18584.0, 18582.0, 18598.0, 18614.0, 18646.0, 18624.0, 18606.0, 18590.0, 18634.0, 18612.0, 18614.0, 18614.0, 18612.0, 18592.0, 18586.0, 18600.0, 18612.0, 18614.0, 18618.0, 18610.0, 18640.0, 18612.0, 18604.0, 18612.0, 18622.0, 18590.0, 18610.0, 18574.0, 18610.0, 18612.0, 18616.0, 18600.0, 18586.0, 18584.0, 18576.0, 18586.0, 18612.0, 18614.0, 18616.0, 18618.0, 18612.0, 18614.0, 18612.0, 18604.0, 18594.0, 18588.0, 18586.0, 18598.0, 18618.0, 18616.0, 18618.0, 18618.0, 18598.0, 18614.0, 18588.0, 18606.0, 18650.0, 18616.0, 18616.0, 18620.0, 18604.0, 18588.0, 18586.0, 18602.0, 18606.0, 18648.0, 18608.0, 18606.0, 18592.0, 18600.0, 18616.0, 18616.0, 18610.0, 18604.0, 18604.0, 18616.0, 18618.0, 18616.0, 18604.0, 18592.0, 18602.0, 18612.0, 18644.0, 18610.0, 18590.0, 18620.0, 18590.0, 18612.0, 18608.0, 18612.0, 18614.0, 18622.0, 18612.0, 18592.0, 18582.0, 18588.0, 18580.0, 18580.0, 18586.0, 18614.0, 18612.0, 18608.0, 18608.0, 18632.0, 18598.0, 18604.0, 18614.0, 18614.0, 18618.0, 18614.0, 18602.0, 18588.0, 18594.0, 18610.0, 18620.0, 18616.0, 18608.0, 18598.0, 18594.0, 18610.0, 18612.0, 18604.0, 18624.0, 18630.0, 18644.0, 18608.0, 18608.0, 18612.0, 18610.0, 18588.0, 18584.0, 18596.0, 18610.0, 18614.0, 18618.0, 18616.0, 18612.0, 18598.0, 18602.0, 18604.0, 18602.0, 18602.0, 18604.0, 18616.0, 18616.0, 18610.0, 18608.0, 18612.0, 18606.0, 18604.0, 18594.0, 18584.0, 18614.0, 18618.0, 18604.0, 18608.0, 18566.0, 18604.0, 18618.0, 18608.0, 18578.0, 18586.0, 18582.0, 18586.0, 18604.0, 18618.0, 18614.0, 18612.0, 18630.0, 18624.0, 18630.0, 18640.0, 18610.0, 18604.0, 18570.0, 18610.0, 18612.0, 18590.0, 18584.0]
    },
    "slices": {}
  }
}