{
  "AcquisitionMatrixPE": 104,
  "AcquisitionNumber": 1,
  "AcquisitionTime": "18:00:25.892500",
  "BandwidthPerPixelPhaseEncode": 17.17,
  "BaseResolution": 104,
  "BodyPartExamined": "BRAIN",
  "CoilString": "HC1-7;NC1_2",
  "ConsistencyInfo": "N4_VE11C_LATEST_20160120",
  "ConversionSoftware": "dcm2niix",
  "ConversionSoftwareVersion": "v1.0.20190902",
  "DerivedVendorReportedEchoSpacing": 0.000560011,
  "DeviceSerialNumber": "167006",
  "DwellTime": 2.1e-06,
  "EchoTime": 0.037,
  "EchoTrainLength": 104,
  "EffectiveEchoSpacing": 0.000560011,
  "FlipAngle": 52,
  "ImageComments": "Unaliased_MB4_PE3_LB",
  "ImageOrientationPatientDICOM": [0.995377, 0.0729619, 0.0624626, -0.0424148, 0.9174, -0.395701],
  "ImageType": [
    "ORIGINAL",
    "PRIMARY",
    "M",
    "MB",
    "ND",
    "MOSAIC"
],
  "ImagingFrequency": 123.259,
  "InPlanePhaseEncodingDirectionDICOM": "COL",
  "InstitutionAddress": "Chemin_Queen-Mary_4565_Montreal_District_CA_H3W_1W5",
  "InstitutionName": "IUGM",
  "InstitutionalDepartmentName": "Department",
  "MRAcquisitionType": "2D",
  "MagneticFieldStrength": 3,
  "Manufacturer": "Siemens",
  "ManufacturersModelName": "Prisma_fit",
  "Modality": "MR",
  "MultibandAccelerationFactor": 4,
  "PartialFourier": 1,
  "PatientPosition": "HFS",
  "PercentPhaseFOV": 100,
  "PhaseEncodingDirection": "j",
  "PhaseEncodingSteps": 104,
  "PhaseResolution": 1,
  "PixelBandwidth": 2290,
  "ProcedureStepDescription": "memory_things",
  "ProtocolName": "func_task-things_run-6",
  "PulseSequenceDetails": "%CustomerSeq%_cmrr_mbep2d_bold",
  "ReceiveCoilActiveElements": "HC1-7;NC1,2",
  "ReceiveCoilName": "HeadNeck_64",
  "ReconMatrixPE": 104,
  "RepetitionTime": 1.49,
  "SAR": 0.0498566,
  "ScanOptions": "FS",
  "ScanningSequence": "EP",
  "SequenceName": "epfid2d1_104",
  "SequenceVariant": "SK_SS",
  "SeriesDescription": "func_task-things_run-6",
  "SeriesNumber": 25,
  "ShimSetting": [640, -7174, -8842, 616, 67, 31, -101, -7],
  "SliceThickness": 2,
  "SliceTiming": [0, 0.7825, 0.0975, 0.88, 0.195, 0.98, 0.2925, 1.0775, 0.39, 1.175, 0.49, 1.2725, 0.5875, 1.37, 0.685, 0, 0.7825, 0.0975, 0.88, 0.195, 0.98, 0.2925, 1.0775, 0.39, 1.175, 0.49, 1.2725, 0.5875, 1.37, 0.685, 0, 0.7825, 0.0975, 0.88, 0.195, 0.98, 0.2925, 1.0775, 0.39, 1.175, 0.49, 1.2725, 0.5875, 1.37, 0.685, 0, 0.7825, 0.0975, 0.88, 0.195, 0.98, 0.2925, 1.0775, 0.39, 1.175, 0.49, 1.2725, 0.5875, 1.37, 0.685],
  "SoftwareVersions": "syngo_MR_E11",
  "SpacingBetweenSlices": 2,
  "StationName": "MRC35049",
  "TaskName": "things",
  "TotalReadoutTime": 0.0576811,
  "TxRefAmp": 272.053,
  "WipMemBlock": "49b0b1ed-89d6-4922-b8b4-f4b481b85e4d||Sequence: R016 ve11c/master r/e634e98; Dec 19 2017 11:00:25 by eja",
  "dcmmeta_affine": [
    [-1.9907536506652832, -0.08482956141233444, 0.17234842479228973, 106.51788330078125],
    [-0.1459237039089203, 1.8347991704940796, -0.7824437618255615, -49.002174377441406],
    [0.12492518872022629, 0.791401207447052, 1.8325059413909912, -75.77578735351562],
    [0.0, 0.0, 0.0, 1.0]
],
  "dcmmeta_reorient_transform": [
    [0.0, -1.0, 0.0, 103.0],
    [1.0, 0.0, 0.0, 0.0],
    [0.0, 0.0, 1.0, 0.0],
    [0.0, 0.0, 0.0, 1.0]
],
  "dcmmeta_shape": [104, 104, 60, 190],
  "dcmmeta_slice_dim": 2,
  "dcmmeta_version": 0.6,
  "global": {
    "const": {
      "AcquisitionMatrix": [104, 0, 0, 104],
      "AngioFlag": "N",
      "BitsAllocated": 16,
      "BitsStored": 16,
      "BodyPartExamined": "BRAIN",
      "Columns": 832,
      "EchoNumbers": 1,
      "EchoTime": 37.0,
      "EchoTrainLength": 104,
      "FlipAngle": 52.0,
      "HighBit": 15,
      "ImageOrientationPatient": [0.9953768093261, 0.07296185147341, 0.06246259428943, -0.0424147788684, 0.91739959813076, -0.3957005987904],
      "ImagePositionPatient": [-791.53679467581, -860.96527654675, 248.33580685417],
      "ImageType": [
        "ORIGINAL",
        "PRIMARY",
        "M",
        "MB",
        "ND",
        "MOSAIC"
],
      "ImagedNucleus": "1H",
      "ImagingFrequency": 123.258991,
      "InPlanePhaseEncodingDirection": "COL",
      "MRAcquisitionType": "2D",
      "MagneticFieldStrength": 3.0,
      "Manufacturer": "SIEMENS",
      "ManufacturerModelName": "Prisma_fit",
      "Modality": "MR",
      "NumberOfAverages": 1.0,
      "NumberOfPhaseEncodingSteps": 104,
      "PercentPhaseFieldOfView": 100.0,
      "PercentSampling": 100.0,
      "PerformedProcedureStepStartTime": "163645.095000",
      "PhotometricInterpretation": "MONOCHROME2",
      "PixelBandwidth": 2290.0,
      "PixelRepresentation": 0,
      "PixelSpacing": [2.0, 2.0],
      "ProtocolName": "func_task-things_run-6",
      "RepetitionTime": 1490.0,
      "Rows": 832,
      "SAR": 0.04985657757346,
      "SamplesPerPixel": 1,
      "ScanOptions": "FS",
      "ScanningSequence": "EP",
      "SequenceName": "epfid2d1_104",
      "SequenceVariant": [
        "SK",
        "SS"
],
      "SeriesDescription": "func_task-things_run-6",
      "SeriesNumber": 25,
      "SeriesTime": "180157.831000",
      "SliceLocation": -41.079968600877,
      "SliceThickness": 2.0,
      "SmallestImagePixelValue": 0,
      "SoftwareVersions": "syngo MR E11",
      "SpacingBetweenSlices": 2.0000000455056,
      "SpecificCharacterSet": "ISO_IR 100",
      "StudyID": "1",
      "StudyTime": "163645.004000",
      "TransmitCoilName": "Body",
      "VariableFlipAngleFlag": "N",
      "WindowCenterWidthExplanation": "Algo1",
      "dBdt": 0.0},
    "slices": {}
  },
  "time": {
    "samples": {
      "AcquisitionNumber": [1, 2, 3, 4, 5, 6, 7, 8, 9, 10, 11, 12, 13, 14, 15, 16, 17, 18, 19, 20, 21, 22, 23, 24, 25, 26, 27, 28, 29, 30, 31, 32, 33, 34, 35, 36, 37, 38, 39, 40, 41, 42, 43, 44, 45, 46, 47, 48, 49, 50, 51, 52, 53, 54, 55, 56, 57, 58, 59, 60, 61, 62, 63, 64, 65, 66, 67, 68, 69, 70, 71, 72, 73, 74, 75, 76, 77, 78, 79, 80, 81, 82, 83, 84, 85, 86, 87, 88, 89, 90, 91, 92, 93, 94, 95, 96, 97, 98, 99, 100, 101, 102, 103, 104, 105, 106, 107, 108, 109, 110, 111, 112, 113, 114, 115, 116, 117, 118, 119, 120, 121, 122, 123, 124, 125, 126, 127, 128, 129, 130, 131, 132, 133, 134, 135, 136, 137, 138, 139, 140, 141, 142, 143, 144, 145, 146, 147, 148, 149, 150, 151, 152, 153, 154, 155, 156, 157, 158, 159, 160, 161, 162, 163, 164, 165, 166, 167, 168, 169, 170, 171, 172, 173, 174, 175, 176, 177, 178, 179, 180, 181, 182, 183, 184, 185, 186, 187, 188, 189, 190],
      "AcquisitionTime": ["180025.892500", "180027.382500", "180028.872500", "180030.362500", "180031.852500", "180033.342500", "180034.832500", "180036.322500", "180037.812500", "180039.302500", "180040.792500", "180042.282500", "180043.772500", "180045.262500", "180046.752500", "180048.242500", "180049.732500", "180051.222500", "180052.712500", "180054.202500", "180055.692500", "180057.182500", "180058.672500", "180100.162500", "180101.652500", "180103.142500", "180104.632500", "180106.122500", "180107.612500", "180109.102500", "180110.592500", "180112.082500", "180113.572500", "180115.062500", "180116.552500", "180118.042500", "180119.532500", "180121.022500", "180122.512500", "180124.002500", "180125.492500", "180126.982500", "180128.472500", "180129.962500", "180131.452500", "180132.942500", "180134.432500", "180135.922500", "180137.412500", "180138.902500", "180140.392500", "180141.882500", "180143.372500", "180144.862500", "180146.352500", "180147.842500", "180149.332500", "180150.822500", "180152.312500", "180153.802500", "180155.292500", "180156.782500", "180158.272500", "180159.762500", "180201.252500", "180202.742500", "180204.232500", "180205.722500", "180207.212500", "180208.702500", "180210.192500", "180211.682500", "180213.172500", "180214.662500", "180216.152500", "180217.642500", "180219.132500", "180220.622500", "180222.112500", "180223.602500", "180225.092500", "180226.582500", "180228.072500", "180229.562500", "180231.052500", "180232.542500", "180234.032500", "180235.522500", "180237.012500", "180238.502500", "180239.992500", "180241.482500", "180242.972500", "180244.462500", "180245.952500", "180247.442500", "180248.932500", "180250.422500", "180251.912500", "180253.402500", "180254.892500", "180256.382500", "180257.872500", "180259.362500", "180300.852500", "180302.342500", "180303.832500", "180305.322500", "180306.812500", "180308.302500", "180309.792500", "180311.282500", "180312.772500", "180314.262500", "180315.752500", "180317.242500", "180318.732500", "180320.222500", "180321.712500", "180323.202500", "180324.692500", "180326.182500", "180327.672500", "180329.162500", "180330.652500", "180332.142500", "180333.632500", "180335.122500", "180336.612500", "180338.102500", "180339.592500", "180341.082500", "180342.572500", "180344.062500", "180345.552500", "180347.042500", "180348.532500", "180350.022500", "180351.512500", "180353.002500", "180354.492500", "180355.982500", "180357.472500", "180358.962500", "180400.452500", "180401.942500", "180403.432500", "180404.922500", "180406.412500", "180407.902500", "180409.392500", "180410.882500", "180412.372500", "180413.862500", "180415.352500", "180416.842500", "180418.332500", "180419.822500", "180421.312500", "180422.802500", "180424.292500", "180425.782500", "180427.272500", "180428.762500", "180430.252500", "180431.742500", "180433.232500", "180434.722500", "180436.212500", "180437.702500", "180439.192500", "180440.682500", "180442.172500", "180443.662500", "180445.152500", "180446.642500", "180448.132500", "180449.622500", "180451.112500", "180452.602500", "180454.092500", "180455.582500", "180457.072500", "180458.562500", "180500.052500", "180501.542500", "180503.032500", "180504.522500", "180506.012500", "180507.502500"],
      "ContentTime": ["180157.834000", "180157.838000", "180157.842000", "180157.845000", "180157.849000", "180157.852000", "180157.863000", "180157.866000", "180157.870000", "180157.873000", "180157.876000", "180157.880000", "180157.883000", "180157.891000", "180157.895000", "180157.898000", "180157.902000", "180157.905000", "180157.908000", "180157.912000", "180157.915000", "180157.919000", "180157.922000", "180157.926000", "180157.929000", "180157.932000", "180157.936000", "180157.939000", "180157.943000", "180157.946000", "180157.949000", "180157.953000", "180157.962000", "180157.965000", "180157.969000", "180157.972000", "180157.976000", "180157.979000", "180217.798000", "180217.802000", "180217.806000", "180217.809000", "180217.812000", "180217.816000", "180217.819000", "180217.823000", "180217.826000", "180217.830000", "180217.833000", "180217.837000", "180217.840000", "180217.843000", "180217.847000", "180217.850000", "180217.854000", "180217.865000", "180217.868000", "180217.871000", "180237.798000", "180237.802000", "180237.806000", "180237.809000", "180237.812000", "180237.816000", "180237.819000", "180237.823000", "180237.826000", "180237.830000", "180237.833000", "180237.836000", "180237.840000", "180237.843000", "180237.847000", "180237.850000", "180237.854000", "180237.857000", "180237.860000", "180237.864000", "180257.799000", "180257.803000", "180257.807000", "180257.810000", "180257.813000", "180257.817000", "180257.820000", "180257.824000", "180257.827000", "180257.831000", "180257.834000", "180257.838000", "180257.841000", "180257.844000", "180257.848000", "180257.851000", "180257.855000", "180257.858000", "180257.861000", "180257.865000", "180337.798000", "180337.802000", "180337.806000", "180337.809000", "180337.812000", "180337.816000", "180337.819000", "180337.823000", "180337.840000", "180337.844000", "180337.847000", "180337.851000", "180337.854000", "180337.857000", "180337.861000", "180337.864000", "180337.868000", "180337.871000", "180337.875000", "180337.878000", "180337.881000", "180337.885000", "180337.888000", "180337.892000", "180337.895000", "180337.899000", "180337.902000", "180337.905000", "180337.909000", "180337.912000", "180417.798000", "180417.802000", "180417.806000", "180417.809000", "180417.813000", "180417.816000", "180417.820000", "180417.823000", "180417.826000", "180417.830000", "180417.833000", "180417.837000", "180417.840000", "180417.844000", "180417.848000", "180417.851000", "180417.854000", "180417.858000", "180417.861000", "180417.864000", "180417.868000", "180417.871000", "180417.875000", "180417.878000", "180417.882000", "180417.885000", "180457.798000", "180457.803000", "180457.807000", "180457.811000", "180457.815000", "180457.819000", "180457.823000", "180457.827000", "180457.831000", "180457.835000", "180457.839000", "180457.843000", "180457.846000", "180457.851000", "180457.855000", "180457.859000", "180457.862000", "180457.867000", "180457.870000", "180457.874000", "180457.878000", "180457.882000", "180457.887000", "180457.890000", "180457.894000", "180457.898000", "180457.902000", "180510.130000", "180510.133000", "180510.137000", "180510.151000", "180510.154000", "180510.158000", "180510.161000", "180510.164000", "180510.168000"],
      "InstanceCreationTime": ["180157.834000", "180157.838000", "180157.842000", "180157.845000", "180157.849000", "180157.852000", "180157.863000", "180157.866000", "180157.870000", "180157.873000", "180157.876000", "180157.880000", "180157.883000", "180157.891000", "180157.895000", "180157.898000", "180157.902000", "180157.905000", "180157.908000", "180157.912000", "180157.915000", "180157.919000", "180157.922000", "180157.926000", "180157.929000", "180157.932000", "180157.936000", "180157.939000", "180157.943000", "180157.946000", "180157.949000", "180157.953000", "180157.962000", "180157.965000", "180157.969000", "180157.972000", "180157.976000", "180157.979000", "180217.798000", "180217.802000", "180217.806000", "180217.809000", "180217.812000", "180217.816000", "180217.819000", "180217.823000", "180217.826000", "180217.830000", "180217.833000", "180217.837000", "180217.840000", "180217.843000", "180217.847000", "180217.850000", "180217.854000", "180217.865000", "180217.868000", "180217.871000", "180237.798000", "180237.802000", "180237.806000", "180237.809000", "180237.812000", "180237.816000", "180237.819000", "180237.823000", "180237.826000", "180237.830000", "180237.833000", "180237.836000", "180237.840000", "180237.843000", "180237.847000", "180237.850000", "180237.854000", "180237.857000", "180237.860000", "180237.864000", "180257.799000", "180257.803000", "180257.807000", "180257.810000", "180257.813000", "180257.817000", "180257.820000", "180257.824000", "180257.827000", "180257.831000", "180257.834000", "180257.838000", "180257.841000", "180257.844000", "180257.848000", "180257.851000", "180257.855000", "180257.858000", "180257.861000", "180257.865000", "180337.798000", "180337.802000", "180337.806000", "180337.809000", "180337.812000", "180337.816000", "180337.819000", "180337.823000", "180337.840000", "180337.844000", "180337.847000", "180337.851000", "180337.854000", "180337.857000", "180337.861000", "180337.864000", "180337.868000", "180337.871000", "180337.875000", "180337.878000", "180337.881000", "180337.885000", "180337.888000", "180337.892000", "180337.895000", "180337.899000", "180337.902000", "180337.905000", "180337.909000", "180337.912000", "180417.798000", "180417.802000", "180417.806000", "180417.809000", "180417.813000", "180417.816000", "180417.820000", "180417.823000", "180417.826000", "180417.830000", "180417.833000", "180417.837000", "180417.840000", "180417.844000", "180417.848000", "180417.851000", "180417.854000", "180417.858000", "180417.861000", "180417.864000", "180417.868000", "180417.871000", "180417.875000", "180417.878000", "180417.882000", "180417.885000", "180457.798000", "180457.803000", "180457.807000", "180457.811000", "180457.815000", "180457.819000", "180457.823000", "180457.827000", "180457.831000", "180457.835000", "180457.839000", "180457.843000", "180457.846000", "180457.851000", "180457.855000", "180457.859000", "180457.862000", "180457.867000", "180457.870000", "180457.874000", "180457.878000", "180457.882000", "180457.887000", "180457.890000", "180457.894000", "180457.898000", "180457.902000", "180510.130000", "180510.133000", "180510.137000", "180510.151000", "180510.154000", "180510.158000", "180510.161000", "180510.164000", "180510.168000"],
      "InstanceNumber": [1, 2, 3, 4, 5, 6, 7, 8, 9, 10, 11, 12, 13, 14, 15, 16, 17, 18, 19, 20, 21, 22, 23, 24, 25, 26, 27, 28, 29, 30, 31, 32, 33, 34, 35, 36, 37, 38, 39, 40, 41, 42, 43, 44, 45, 46, 47, 48, 49, 50, 51, 52, 53, 54, 55, 56, 57, 58, 59, 60, 61, 62, 63, 64, 65, 66, 67, 68, 69, 70, 71, 72, 73, 74, 75, 76, 77, 78, 79, 80, 81, 82, 83, 84, 85, 86, 87, 88, 89, 90, 91, 92, 93, 94, 95, 96, 97, 98, 99, 100, 101, 102, 103, 104, 105, 106, 107, 108, 109, 110, 111, 112, 113, 114, 115, 116, 117, 118, 119, 120, 121, 122, 123, 124, 125, 126, 127, 128, 129, 130, 131, 132, 133, 134, 135, 136, 137, 138, 139, 140, 141, 142, 143, 144, 145, 146, 147, 148, 149, 150, 151, 152, 153, 154, 155, 156, 157, 158, 159, 160, 161, 162, 163, 164, 165, 166, 167, 168, 169, 170, 171, 172, 173, 174, 175, 176, 177, 178, 179, 180, 181, 182, 183, 184, 185, 186, 187, 188, 189, 190],
      "LargestImagePixelValue": [44836, 44602, 43327, 44040, 43148, 42792, 41599, 41634, 42403, 43332, 42421, 42427, 43110, 40688, 40357, 43467, 43519, 42992, 42259, 41675, 42225, 43000, 43063, 43150, 41403, 41128, 41614, 41075, 41379, 41811, 43048, 42804, 41958, 41944, 41814, 42302, 42935, 42851, 41743, 40217, 41561, 39831, 42202, 42338, 43641, 43803, 43248, 42988, 43067, 43380, 43445, 42938, 41903, 42448, 42771, 42311, 43292, 43632, 43332, 42271, 40518, 42267, 44313, 40404, 41094, 42830, 43456, 43786, 43335, 42903, 41972, 41960, 42817, 42166, 42217, 42303, 42428, 41042, 41904, 42233, 42115, 42978, 43734, 43060, 41584, 42191, 41790, 40798, 43105, 41854, 45110, 43650, 41452, 41464, 41508, 41819, 42685, 42669, 42224, 41793, 41790, 41879, 41788, 41437, 41957, 43565, 42587, 41896, 41267, 44371, 42732, 40902, 41571, 42700, 44113, 43715, 42055, 43043, 43317, 43464, 43391, 42880, 41819, 42042, 42213, 42143, 42456, 42015, 42327, 43151, 43164, 42215, 42956, 42700, 42471, 41518, 42148, 41948, 44271, 42416, 42243, 40490, 42221, 41356, 42367, 41018, 42560, 43585, 42921, 42500, 42736, 43401, 44142, 44370, 43552, 42158, 42340, 42525, 43648, 43461, 44091, 43103, 42936, 42506, 43935, 43338, 43243, 42013, 41773, 42540, 43581, 44030, 43761, 43206, 42535, 42661, 42793, 41322, 41338, 41769, 40426, 41244, 41413, 41858, 42458, 42565, 43007, 44128, 44333, 44510],
      "WindowCenter": [10473.0, 10425.0, 10386.0, 10372.0, 10351.0, 10365.0, 10367.0, 10384.0, 10393.0, 10400.0, 10379.0, 10386.0, 10394.0, 10385.0, 10409.0, 10452.0, 10426.0, 10378.0, 10351.0, 10334.0, 10338.0, 10361.0, 10382.0, 10386.0, 10370.0, 10381.0, 10396.0, 10393.0, 10389.0, 10392.0, 10398.0, 10404.0, 10411.0, 10427.0, 10414.0, 10409.0, 10400.0, 10397.0, 10399.0, 10413.0, 10424.0, 10394.0, 10400.0, 10379.0, 10383.0, 10391.0, 10380.0, 10377.0, 10401.0, 10418.0, 10418.0, 10398.0, 10384.0, 10402.0, 10418.0, 10416.0, 10417.0, 10417.0, 10414.0, 10427.0, 10414.0, 10425.0, 10434.0, 10383.0, 10366.0, 10360.0, 10365.0, 10382.0, 10396.0, 10416.0, 10399.0, 10394.0, 10388.0, 10380.0, 10381.0, 10382.0, 10403.0, 10397.0, 10409.0, 10403.0, 10395.0, 10398.0, 10408.0, 10398.0, 10389.0, 10400.0, 10400.0, 10383.0, 10390.0, 10386.0, 10436.0, 10421.0, 10381.0, 10359.0, 10348.0, 10363.0, 10387.0, 10391.0, 10385.0, 10363.0, 10374.0, 10381.0, 10375.0, 10357.0, 10364.0, 10391.0, 10416.0, 10429.0, 10429.0, 10439.0, 10412.0, 10369.0, 10354.0, 10354.0, 10379.0, 10391.0, 10397.0, 10417.0, 10407.0, 10387.0, 10377.0, 10379.0, 10385.0, 10409.0, 10417.0, 10393.0, 10379.0, 10364.0, 10364.0, 10382.0, 10376.0, 10381.0, 10387.0, 10368.0, 10349.0, 10328.0, 10324.0, 10333.0, 10375.0, 10395.0, 10428.0, 10407.0, 10390.0, 10377.0, 10356.0, 10337.0, 10337.0, 10333.0, 10325.0, 10334.0, 10378.0, 10400.0, 10390.0, 10379.0, 10362.0, 10342.0, 10345.0, 10356.0, 10389.0, 10390.0, 10390.0, 10366.0, 10356.0, 10365.0, 10392.0, 10409.0, 10403.0, 10369.0, 10343.0, 10359.0, 10379.0, 10395.0, 10381.0, 10379.0, 10367.0, 10379.0, 10387.0, 10392.0, 10385.0, 10377.0, 10338.0, 10339.0, 10339.0, 10339.0, 10351.0, 10362.0, 10387.0, 10418.0, 10407.0, 10379.0],
      "WindowWidth": [22259.0, 22129.0, 22033.0, 21989.0, 21943.0, 21969.0, 21977.0, 22020.0, 22035.0, 22050.0, 22007.0, 22018.0, 22038.0, 22028.0, 22089.0, 22174.0, 22112.0, 21999.0, 21942.0, 21907.0, 21914.0, 21965.0, 22008.0, 22018.0, 21988.0, 22020.0, 22055.0, 22052.0, 22039.0, 22040.0, 22056.0, 22065.0, 22083.0, 22120.0, 22089.0, 22076.0, 22054.0, 22047.0, 22061.0, 22102.0, 22124.0, 22062.0, 22061.0, 22011.0, 22013.0, 22029.0, 22007.0, 21996.0, 22056.0, 22094.0, 22094.0, 22054.0, 22022.0, 22062.0, 22100.0, 22096.0, 22087.0, 22090.0, 22083.0, 22118.0, 22106.0, 22126.0, 22137.0, 22033.0, 21986.0, 21959.0, 21971.0, 22010.0, 22044.0, 22094.0, 22061.0, 22043.0, 22026.0, 22011.0, 22014.0, 22016.0, 22065.0, 22057.0, 22080.0, 22067.0, 22044.0, 22051.0, 22069.0, 22049.0, 22036.0, 22057.0, 22057.0, 22026.0, 22032.0, 22024.0, 22129.0, 22107.0, 22019.0, 21964.0, 21935.0, 21970.0, 22024.0, 22037.0, 22023.0, 21972.0, 21997.0, 22012.0, 22007.0, 21959.0, 21977.0, 22033.0, 22093.0, 22128.0, 22133.0, 22140.0, 22081.0, 21991.0, 21950.0, 21946.0, 21997.0, 22027.0, 22053.0, 22096.0, 22068.0, 22019.0, 22000.0, 22005.0, 22022.0, 22078.0, 22096.0, 22038.0, 22002.0, 21966.0, 21972.0, 22007.0, 21993.0, 22010.0, 22021.0, 21977.0, 21931.0, 21886.0, 21876.0, 21898.0, 21991.0, 22045.0, 22124.0, 22083.0, 22031.0, 22010.0, 21954.0, 21912.0, 21904.0, 21897.0, 21871.0, 21897.0, 21998.0, 22048.0, 22022.0, 21995.0, 21953.0, 21915.0, 21929.0, 21944.0, 22020.0, 22023.0, 22025.0, 21967.0, 21949.0, 21970.0, 22031.0, 22074.0, 22058.0, 21978.0, 21919.0, 21953.0, 22001.0, 22040.0, 22007.0, 21998.0, 21976.0, 22000.0, 22019.0, 22048.0, 22031.0, 22009.0, 21924.0, 21921.0, 21920.0, 21917.0, 21935.0, 21965.0, 22024.0, 22096.0, 22067.0, 22000.0]
    },
    "slices": {}
  }
}