{
  "AcquisitionMatrixPE": 104,
  "AcquisitionNumber": 1,
  "AcquisitionTime": "17:27:57.840000",
  "BandwidthPerPixelPhaseEncode": 17.17,
  "BaseResolution": 104,
  "BodyPartExamined": "BRAIN",
  "CoilString": "HC1-7;NC1_2",
  "ConsistencyInfo": "N4_VE11C_LATEST_20160120",
  "ConversionSoftware": "dcm2niix",
  "ConversionSoftwareVersion": "v1.0.20190902",
  "DerivedVendorReportedEchoSpacing": 0.000560011,
  "DeviceSerialNumber": "167006",
  "DwellTime": 2.1e-06,
  "EchoTime": 0.037,
  "EchoTrainLength": 104,
  "EffectiveEchoSpacing": 0.000560011,
  "FlipAngle": 52,
  "ImageComments": "Unaliased_MB4_PE3_LB",
  "ImageOrientationPatientDICOM": [0.995377, 0.0729619, 0.0624626, -0.0424148, 0.9174, -0.395701],
  "ImageType": [
    "ORIGINAL",
    "PRIMARY",
    "M",
    "MB",
    "ND",
    "MOSAIC"
],
  "ImagingFrequency": 123.259,
  "InPlanePhaseEncodingDirectionDICOM": "COL",
  "InstitutionAddress": "Chemin_Queen-Mary_4565_Montreal_District_CA_H3W_1W5",
  "InstitutionName": "IUGM",
  "InstitutionalDepartmentName": "Department",
  "MRAcquisitionType": "2D",
  "MagneticFieldStrength": 3,
  "Manufacturer": "Siemens",
  "ManufacturersModelName": "Prisma_fit",
  "Modality": "MR",
  "MultibandAccelerationFactor": 4,
  "PartialFourier": 1,
  "PatientPosition": "HFS",
  "PercentPhaseFOV": 100,
  "PhaseEncodingDirection": "j",
  "PhaseEncodingSteps": 104,
  "PhaseResolution": 1,
  "PixelBandwidth": 2290,
  "ProcedureStepDescription": "memory_things",
  "ProtocolName": "func_task-things_run-1",
  "PulseSequenceDetails": "%CustomerSeq%_cmrr_mbep2d_bold",
  "ReceiveCoilActiveElements": "HC1-7;NC1,2",
  "ReceiveCoilName": "HeadNeck_64",
  "ReconMatrixPE": 104,
  "RepetitionTime": 1.49,
  "SAR": 0.0498566,
  "ScanOptions": "FS",
  "ScanningSequence": "EP",
  "SequenceName": "epfid2d1_104",
  "SequenceVariant": "SK_SS",
  "SeriesDescription": "func_task-things_run-1",
  "SeriesNumber": 10,
  "ShimSetting": [640, -7174, -8842, 616, 67, 31, -101, -7],
  "SliceThickness": 2,
  "SliceTiming": [0, 0.785, 0.0975, 0.8825, 0.1975, 0.98, 0.295, 1.0775, 0.3925, 1.1775, 0.49, 1.275, 0.5875, 1.3725, 0.6875, 0, 0.785, 0.0975, 0.8825, 0.1975, 0.98, 0.295, 1.0775, 0.3925, 1.1775, 0.49, 1.275, 0.5875, 1.3725, 0.6875, 0, 0.785, 0.0975, 0.8825, 0.1975, 0.98, 0.295, 1.0775, 0.3925, 1.1775, 0.49, 1.275, 0.5875, 1.3725, 0.6875, 0, 0.785, 0.0975, 0.8825, 0.1975, 0.98, 0.295, 1.0775, 0.3925, 1.1775, 0.49, 1.275, 0.5875, 1.3725, 0.6875],
  "SoftwareVersions": "syngo_MR_E11",
  "SpacingBetweenSlices": 2,
  "StationName": "MRC35049",
  "TaskName": "things",
  "TotalReadoutTime": 0.0576811,
  "TxRefAmp": 272.053,
  "WipMemBlock": "8567737a-b1be-4f35-b62e-118d7c0bdb68||Sequence: R016 ve11c/master r/e634e98; Dec 19 2017 11:00:25 by eja",
  "dcmmeta_affine": [
    [-1.9907536506652832, -0.08482956141233444, 0.17234842479228973, 106.51788330078125],
    [-0.1459237039089203, 1.8347991704940796, -0.7824437618255615, -49.002174377441406],
    [0.12492518872022629, 0.791401207447052, 1.8325059413909912, -75.77578735351562],
    [0.0, 0.0, 0.0, 1.0]
],
  "dcmmeta_reorient_transform": [
    [0.0, -1.0, 0.0, 103.0],
    [1.0, 0.0, 0.0, 0.0],
    [0.0, 0.0, 1.0, 0.0],
    [0.0, 0.0, 0.0, 1.0]
],
  "dcmmeta_shape": [104, 104, 60, 190],
  "dcmmeta_slice_dim": 2,
  "dcmmeta_version": 0.6,
  "global": {
    "const": {
      "AcquisitionMatrix": [104, 0, 0, 104],
      "AngioFlag": "N",
      "BitsAllocated": 16,
      "BitsStored": 16,
      "BodyPartExamined": "BRAIN",
      "Columns": 832,
      "EchoNumbers": 1,
      "EchoTime": 37.0,
      "EchoTrainLength": 104,
      "FlipAngle": 52.0,
      "HighBit": 15,
      "ImageOrientationPatient": [0.9953768093261, 0.07296185147341, 0.06246259428943, -0.0424147788684, 0.91739959813076, -0.3957005987904],
      "ImagePositionPatient": [-791.53679467581, -860.96527654675, 248.33580685417],
      "ImageType": [
        "ORIGINAL",
        "PRIMARY",
        "M",
        "MB",
        "ND",
        "MOSAIC"
],
      "ImagedNucleus": "1H",
      "ImagingFrequency": 123.258974,
      "InPlanePhaseEncodingDirection": "COL",
      "MRAcquisitionType": "2D",
      "MagneticFieldStrength": 3.0,
      "Manufacturer": "SIEMENS",
      "ManufacturerModelName": "Prisma_fit",
      "Modality": "MR",
      "NumberOfAverages": 1.0,
      "NumberOfPhaseEncodingSteps": 104,
      "PercentPhaseFieldOfView": 100.0,
      "PercentSampling": 100.0,
      "PerformedProcedureStepStartTime": "163645.095000",
      "PhotometricInterpretation": "MONOCHROME2",
      "PixelBandwidth": 2290.0,
      "PixelRepresentation": 0,
      "PixelSpacing": [2.0, 2.0],
      "ProtocolName": "func_task-things_run-1",
      "RepetitionTime": 1490.0,
      "Rows": 832,
      "SAR": 0.04985657757346,
      "SamplesPerPixel": 1,
      "ScanOptions": "FS",
      "ScanningSequence": "EP",
      "SequenceName": "epfid2d1_104",
      "SequenceVariant": [
        "SK",
        "SS"
],
      "SeriesDescription": "func_task-things_run-1",
      "SeriesNumber": 10,
      "SeriesTime": "172904.013000",
      "SliceLocation": -41.079968600877,
      "SliceThickness": 2.0,
      "SmallestImagePixelValue": 0,
      "SoftwareVersions": "syngo MR E11",
      "SpacingBetweenSlices": 2.0000000455056,
      "SpecificCharacterSet": "ISO_IR 100",
      "StudyID": "1",
      "StudyTime": "163645.004000",
      "TransmitCoilName": "Body",
      "VariableFlipAngleFlag": "N",
      "WindowCenterWidthExplanation": "Algo1",
      "dBdt": 0.0},
    "slices": {}
  },
  "time": {
    "samples": {
      "AcquisitionNumber": [1, 2, 3, 4, 5, 6, 7, 8, 9, 10, 11, 12, 13, 14, 15, 16, 17, 18, 19, 20, 21, 22, 23, 24, 25, 26, 27, 28, 29, 30, 31, 32, 33, 34, 35, 36, 37, 38, 39, 40, 41, 42, 43, 44, 45, 46, 47, 48, 49, 50, 51, 52, 53, 54, 55, 56, 57, 58, 59, 60, 61, 62, 63, 64, 65, 66, 67, 68, 69, 70, 71, 72, 73, 74, 75, 76, 77, 78, 79, 80, 81, 82, 83, 84, 85, 86, 87, 88, 89, 90, 91, 92, 93, 94, 95, 96, 97, 98, 99, 100, 101, 102, 103, 104, 105, 106, 107, 108, 109, 110, 111, 112, 113, 114, 115, 116, 117, 118, 119, 120, 121, 122, 123, 124, 125, 126, 127, 128, 129, 130, 131, 132, 133, 134, 135, 136, 137, 138, 139, 140, 141, 142, 143, 144, 145, 146, 147, 148, 149, 150, 151, 152, 153, 154, 155, 156, 157, 158, 159, 160, 161, 162, 163, 164, 165, 166, 167, 168, 169, 170, 171, 172, 173, 174, 175, 176, 177, 178, 179, 180, 181, 182, 183, 184, 185, 186, 187, 188, 189, 190],
      "AcquisitionTime": ["172757.840000", "172759.330000", "172800.820000", "172802.310000", "172803.800000", "172805.290000", "172806.780000", "172808.270000", "172809.760000", "172811.250000", "172812.740000", "172814.230000", "172815.720000", "172817.210000", "172818.700000", "172820.190000", "172821.680000", "172823.170000", "172824.660000", "172826.150000", "172827.640000", "172829.130000", "172830.620000", "172832.110000", "172833.600000", "172835.090000", "172836.580000", "172838.070000", "172839.560000", "172841.050000", "172842.540000", "172844.030000", "172845.520000", "172847.010000", "172848.500000", "172849.990000", "172851.480000", "172852.970000", "172854.460000", "172855.950000", "172857.440000", "172858.930000", "172900.420000", "172901.910000", "172903.400000", "172904.890000", "172906.380000", "172907.870000", "172909.360000", "172910.850000", "172912.340000", "172913.830000", "172915.320000", "172916.810000", "172918.300000", "172919.790000", "172921.280000", "172922.770000", "172924.260000", "172925.750000", "172927.240000", "172928.730000", "172930.220000", "172931.710000", "172933.200000", "172934.690000", "172936.180000", "172937.670000", "172939.160000", "172940.650000", "172942.140000", "172943.630000", "172945.120000", "172946.610000", "172948.100000", "172949.590000", "172951.080000", "172952.570000", "172954.060000", "172955.550000", "172957.040000", "172958.530000", "173000.020000", "173001.510000", "173003.000000", "173004.490000", "173005.980000", "173007.470000", "173008.960000", "173010.450000", "173011.940000", "173013.430000", "173014.920000", "173016.410000", "173017.900000", "173019.390000", "173020.880000", "173022.370000", "173023.860000", "173025.350000", "173026.840000", "173028.330000", "173029.820000", "173031.310000", "173032.800000", "173034.290000", "173035.780000", "173037.270000", "173038.760000", "173040.250000", "173041.740000", "173043.230000", "173044.720000", "173046.210000", "173047.700000", "173049.190000", "173050.680000", "173052.170000", "173053.660000", "173055.150000", "173056.640000", "173058.130000", "173059.620000", "173101.110000", "173102.600000", "173104.090000", "173105.580000", "173107.070000", "173108.560000", "173110.050000", "173111.540000", "173113.030000", "173114.520000", "173116.010000", "173117.500000", "173118.990000", "173120.480000", "173121.970000", "173123.460000", "173124.950000", "173126.440000", "173127.930000", "173129.420000", "173130.910000", "173132.400000", "173133.890000", "173135.380000", "173136.870000", "173138.360000", "173139.850000", "173141.340000", "173142.830000", "173144.320000", "173145.810000", "173147.300000", "173148.790000", "173150.280000", "173151.770000", "173153.260000", "173154.750000", "173156.240000", "173157.730000", "173159.220000", "173200.710000", "173202.200000", "173203.690000", "173205.180000", "173206.670000", "173208.160000", "173209.650000", "173211.140000", "173212.630000", "173214.120000", "173215.610000", "173217.100000", "173218.590000", "173220.080000", "173221.570000", "173223.060000", "173224.550000", "173226.040000", "173227.530000", "173229.020000", "173230.510000", "173232.000000", "173233.490000", "173234.980000", "173236.470000", "173237.960000", "173239.450000"],
      "ContentTime": ["172904.016000", "172904.020000", "172904.024000", "172904.035000", "172904.040000", "172904.044000", "172904.047000", "172904.051000", "172904.054000", "172904.057000", "172904.061000", "172923.978000", "172923.982000", "172923.985000", "172923.989000", "172923.992000", "172924.000000", "172924.003000", "172924.006000", "172924.010000", "172924.013000", "172924.017000", "172924.020000", "172924.023000", "172924.027000", "172924.030000", "172924.034000", "172924.037000", "172924.041000", "172924.044000", "172924.047000", "172924.051000", "172943.978000", "172943.982000", "172943.985000", "172943.989000", "172943.992000", "172943.995000", "172943.999000", "172944.002000", "172944.006000", "172944.009000", "172944.012000", "172944.016000", "172944.019000", "172944.022000", "172944.026000", "172944.029000", "172944.033000", "172944.036000", "172944.039000", "172944.043000", "173003.978000", "173003.982000", "173003.985000", "173003.989000", "173003.992000", "173003.996000", "173003.999000", "173004.002000", "173004.006000", "173004.009000", "173004.012000", "173004.016000", "173004.019000", "173004.022000", "173004.026000", "173004.029000", "173004.033000", "173004.036000", "173004.039000", "173004.043000", "173023.978000", "173023.982000", "173023.985000", "173023.989000", "173023.992000", "173023.996000", "173024.000000", "173024.010000", "173024.014000", "173024.017000", "173024.020000", "173024.024000", "173024.027000", "173024.031000", "173024.034000", "173024.038000", "173024.041000", "173024.044000", "173024.048000", "173024.051000", "173103.978000", "173103.982000", "173103.985000", "173103.989000", "173103.992000", "173103.996000", "173104.000000", "173104.004000", "173104.007000", "173104.010000", "173104.014000", "173104.017000", "173104.021000", "173104.024000", "173104.028000", "173104.031000", "173104.035000", "173104.038000", "173104.041000", "173104.045000", "173104.048000", "173104.052000", "173104.055000", "173104.059000", "173104.062000", "173104.065000", "173104.069000", "173104.072000", "173104.091000", "173104.094000", "173104.098000", "173104.101000", "173143.978000", "173143.982000", "173143.985000", "173143.989000", "173143.992000", "173143.996000", "173144.000000", "173144.004000", "173144.007000", "173144.011000", "173144.014000", "173144.018000", "173144.021000", "173144.024000", "173144.028000", "173144.031000", "173144.035000", "173144.038000", "173144.041000", "173144.045000", "173144.048000", "173144.052000", "173144.055000", "173144.058000", "173144.062000", "173144.065000", "173144.068000", "173223.978000", "173223.982000", "173223.986000", "173223.989000", "173223.992000", "173223.996000", "173224.001000", "173224.004000", "173224.007000", "173224.011000", "173224.015000", "173224.018000", "173224.021000", "173224.025000", "173224.028000", "173224.032000", "173224.035000", "173224.039000", "173224.042000", "173224.046000", "173224.049000", "173224.053000", "173224.056000", "173224.060000", "173224.063000", "173224.067000", "173241.987000", "173241.991000", "173242.007000", "173242.011000", "173242.014000", "173242.018000", "173242.022000", "173242.025000", "173242.029000", "173242.032000", "173242.036000", "173242.039000", "173242.043000"],
      "InstanceCreationTime": ["172904.016000", "172904.020000", "172904.024000", "172904.035000", "172904.040000", "172904.044000", "172904.047000", "172904.051000", "172904.054000", "172904.057000", "172904.061000", "172923.978000", "172923.982000", "172923.985000", "172923.989000", "172923.992000", "172924.000000", "172924.003000", "172924.006000", "172924.010000", "172924.013000", "172924.017000", "172924.020000", "172924.023000", "172924.027000", "172924.030000", "172924.034000", "172924.037000", "172924.041000", "172924.044000", "172924.047000", "172924.051000", "172943.978000", "172943.982000", "172943.985000", "172943.989000", "172943.992000", "172943.995000", "172943.999000", "172944.002000", "172944.006000", "172944.009000", "172944.012000", "172944.016000", "172944.019000", "172944.022000", "172944.026000", "172944.029000", "172944.033000", "172944.036000", "172944.039000", "172944.043000", "173003.978000", "173003.982000", "173003.985000", "173003.989000", "173003.992000", "173003.996000", "173003.999000", "173004.002000", "173004.006000", "173004.009000", "173004.012000", "173004.016000", "173004.019000", "173004.022000", "173004.026000", "173004.029000", "173004.033000", "173004.036000", "173004.039000", "173004.043000", "173023.978000", "173023.982000", "173023.985000", "173023.989000", "173023.992000", "173023.996000", "173024.000000", "173024.010000", "173024.014000", "173024.017000", "173024.020000", "173024.024000", "173024.027000", "173024.031000", "173024.034000", "173024.038000", "173024.041000", "173024.044000", "173024.048000", "173024.051000", "173103.978000", "173103.982000", "173103.985000", "173103.989000", "173103.992000", "173103.996000", "173104.000000", "173104.004000", "173104.007000", "173104.010000", "173104.014000", "173104.017000", "173104.021000", "173104.024000", "173104.028000", "173104.031000", "173104.035000", "173104.038000", "173104.041000", "173104.045000", "173104.048000", "173104.052000", "173104.055000", "173104.059000", "173104.062000", "173104.065000", "173104.069000", "173104.072000", "173104.091000", "173104.094000", "173104.098000", "173104.101000", "173143.978000", "173143.982000", "173143.985000", "173143.989000", "173143.992000", "173143.996000", "173144.000000", "173144.004000", "173144.007000", "173144.011000", "173144.014000", "173144.018000", "173144.021000", "173144.024000", "173144.028000", "173144.031000", "173144.035000", "173144.038000", "173144.041000", "173144.045000", "173144.048000", "173144.052000", "173144.055000", "173144.058000", "173144.062000", "173144.065000", "173144.068000", "173223.978000", "173223.982000", "173223.986000", "173223.989000", "173223.992000", "173223.996000", "173224.001000", "173224.004000", "173224.007000", "173224.011000", "173224.015000", "173224.018000", "173224.021000", "173224.025000", "173224.028000", "173224.032000", "173224.035000", "173224.039000", "173224.042000", "173224.046000", "173224.049000", "173224.053000", "173224.056000", "173224.060000", "173224.063000", "173224.067000", "173241.987000", "173241.991000", "173242.007000", "173242.011000", "173242.014000", "173242.018000", "173242.022000", "173242.025000", "173242.029000", "173242.032000", "173242.036000", "173242.039000", "173242.043000"],
      "InstanceNumber": [1, 2, 3, 4, 5, 6, 7, 8, 9, 10, 11, 12, 13, 14, 15, 16, 17, 18, 19, 20, 21, 22, 23, 24, 25, 26, 27, 28, 29, 30, 31, 32, 33, 34, 35, 36, 37, 38, 39, 40, 41, 42, 43, 44, 45, 46, 47, 48, 49, 50, 51, 52, 53, 54, 55, 56, 57, 58, 59, 60, 61, 62, 63, 64, 65, 66, 67, 68, 69, 70, 71, 72, 73, 74, 75, 76, 77, 78, 79, 80, 81, 82, 83, 84, 85, 86, 87, 88, 89, 90, 91, 92, 93, 94, 95, 96, 97, 98, 99, 100, 101, 102, 103, 104, 105, 106, 107, 108, 109, 110, 111, 112, 113, 114, 115, 116, 117, 118, 119, 120, 121, 122, 123, 124, 125, 126, 127, 128, 129, 130, 131, 132, 133, 134, 135, 136, 137, 138, 139, 140, 141, 142, 143, 144, 145, 146, 147, 148, 149, 150, 151, 152, 153, 154, 155, 156, 157, 158, 159, 160, 161, 162, 163, 164, 165, 166, 167, 168, 169, 170, 171, 172, 173, 174, 175, 176, 177, 178, 179, 180, 181, 182, 183, 184, 185, 186, 187, 188, 189, 190],
      "LargestImagePixelValue": [42726, 42677, 41555, 41391, 41847, 40511, 41682, 44311, 41449, 42582, 42170, 41243, 41681, 42472, 41173, 41774, 43604, 44084, 43703, 43441, 42795, 43021, 43360, 43954, 45149, 43773, 43370, 43968, 44580, 44611, 43750, 42835, 43080, 44439, 43882, 43730, 44005, 43573, 43643, 44086, 42103, 43094, 44934, 44859, 44474, 44144, 44483, 44101, 44624, 44393, 44092, 44898, 44289, 44292, 44251, 44419, 44170, 43642, 45017, 44917, 44408, 43975, 42322, 43007, 42436, 42907, 43148, 44305, 44201, 44037, 44426, 44241, 44763, 44699, 44305, 44031, 44380, 44350, 44904, 44454, 44209, 44353, 44016, 43474, 43621, 43605, 42616, 42373, 43324, 42221, 42829, 41788, 42377, 42767, 42583, 42929, 42723, 42567, 42940, 42823, 42742, 42628, 43064, 42926, 42873, 43466, 43551, 42844, 43595, 43621, 42862, 42587, 43519, 43086, 42647, 42853, 42609, 43135, 42550, 43161, 42817, 42571, 42399, 41645, 42326, 42621, 42619, 42376, 42540, 42366, 41755, 41460, 42145, 41567, 42597, 42199, 41844, 41817, 42049, 41847, 42027, 41740, 42236, 42421, 42371, 42154, 41882, 42064, 41828, 41884, 41467, 41241, 42016, 41671, 41534, 42453, 40761, 41038, 41297, 41198, 41455, 41520, 41275, 41210, 41625, 40920, 42038, 40737, 41564, 47284, 42258, 42219, 41550, 42345, 42464, 42060, 41493, 45348, 41519, 42353, 43007, 41586, 42565, 43911, 41621, 41543, 42088, 42198, 41960, 42125],
      "WindowCenter": [10637.0, 10570.0, 10543.0, 10546.0, 10553.0, 10541.0, 10536.0, 10581.0, 10578.0, 10576.0, 10582.0, 10574.0, 10562.0, 10581.0, 10591.0, 10590.0, 10606.0, 10621.0, 10625.0, 10603.0, 10582.0, 10562.0, 10573.0, 10590.0, 10594.0, 10572.0, 10563.0, 10594.0, 10610.0, 10584.0, 10561.0, 10542.0, 10546.0, 10587.0, 10592.0, 10565.0, 10559.0, 10549.0, 10553.0, 10548.0, 10535.0, 10544.0, 10557.0, 10566.0, 10563.0, 10559.0, 10567.0, 10552.0, 10571.0, 10582.0, 10578.0, 10572.0, 10581.0, 10599.0, 10602.0, 10609.0, 10610.0, 10600.0, 10617.0, 10619.0, 10613.0, 10590.0, 10557.0, 10559.0, 10580.0, 10602.0, 10618.0, 10605.0, 10587.0, 10596.0, 10619.0, 10623.0, 10629.0, 10636.0, 10616.0, 10599.0, 10592.0, 10581.0, 10598.0, 10610.0, 10614.0, 10605.0, 10599.0, 10584.0, 10582.0, 10590.0, 10581.0, 10573.0, 10603.0, 10602.0, 10596.0, 10582.0, 10578.0, 10584.0, 10583.0, 10602.0, 10602.0, 10582.0, 10585.0, 10591.0, 10586.0, 10577.0, 10582.0, 10588.0, 10585.0, 10582.0, 10599.0, 10588.0, 10575.0, 10581.0, 10575.0, 10569.0, 10572.0, 10582.0, 10577.0, 10560.0, 10549.0, 10562.0, 10570.0, 10576.0, 10590.0, 10579.0, 10575.0, 10566.0, 10573.0, 10587.0, 10594.0, 10588.0, 10576.0, 10544.0, 10534.0, 10545.0, 10560.0, 10557.0, 10569.0, 10570.0, 10567.0, 10574.0, 10581.0, 10571.0, 10579.0, 10580.0, 10575.0, 10572.0, 10569.0, 10580.0, 10582.0, 10565.0, 10548.0, 10560.0, 10559.0, 10567.0, 10581.0, 10569.0, 10560.0, 10576.0, 10550.0, 10568.0, 10569.0, 10558.0, 10565.0, 10564.0, 10568.0, 10562.0, 10559.0, 10555.0, 10563.0, 10557.0, 10581.0, 10634.0, 10597.0, 10608.0, 10612.0, 10609.0, 10605.0, 10568.0, 10542.0, 10575.0, 10541.0, 10536.0, 10550.0, 10557.0, 10559.0, 10578.0, 10549.0, 10538.0, 10537.0, 10545.0, 10545.0, 10546.0],
      "WindowWidth": [22670.0, 22494.0, 22422.0, 22425.0, 22437.0, 22412.0, 22396.0, 22500.0, 22496.0, 22489.0, 22502.0, 22491.0, 22459.0, 22500.0, 22536.0, 22527.0, 22552.0, 22587.0, 22600.0, 22546.0, 22500.0, 22448.0, 22476.0, 22515.0, 22530.0, 22471.0, 22450.0, 22522.0, 22562.0, 22499.0, 22442.0, 22406.0, 22410.0, 22504.0, 22531.0, 22454.0, 22436.0, 22417.0, 22429.0, 22415.0, 22390.0, 22406.0, 22430.0, 22452.0, 22448.0, 22443.0, 22462.0, 22425.0, 22467.0, 22493.0, 22487.0, 22471.0, 22492.0, 22536.0, 22545.0, 22560.0, 22561.0, 22542.0, 22577.0, 22586.0, 22573.0, 22520.0, 22445.0, 22446.0, 22505.0, 22546.0, 22588.0, 22549.0, 22510.0, 22532.0, 22586.0, 22596.0, 22612.0, 22627.0, 22579.0, 22539.0, 22519.0, 22490.0, 22538.0, 22566.0, 22582.0, 22556.0, 22540.0, 22505.0, 22502.0, 22520.0, 22503.0, 22480.0, 22552.0, 22556.0, 22531.0, 22504.0, 22490.0, 22503.0, 22501.0, 22549.0, 22546.0, 22501.0, 22509.0, 22522.0, 22514.0, 22489.0, 22503.0, 22520.0, 22508.0, 22499.0, 22541.0, 22519.0, 22483.0, 22499.0, 22485.0, 22470.0, 22479.0, 22500.0, 22488.0, 22446.0, 22416.0, 22451.0, 22476.0, 22487.0, 22520.0, 22494.0, 22489.0, 22466.0, 22484.0, 22516.0, 22531.0, 22517.0, 22484.0, 22409.0, 22394.0, 22417.0, 22451.0, 22451.0, 22472.0, 22474.0, 22475.0, 22487.0, 22500.0, 22477.0, 22500.0, 22513.0, 22492.0, 22483.0, 22475.0, 22508.0, 22507.0, 22466.0, 22427.0, 22456.0, 22456.0, 22473.0, 22501.0, 22477.0, 22456.0, 22491.0, 22444.0, 22476.0, 22482.0, 22451.0, 22462.0, 22460.0, 22474.0, 22457.0, 22448.0, 22446.0, 22454.0, 22452.0, 22503.0, 22613.0, 22535.0, 22563.0, 22575.0, 22568.0, 22558.0, 22473.0, 22408.0, 22479.0, 22413.0, 22394.0, 22427.0, 22447.0, 22446.0, 22490.0, 22425.0, 22398.0, 22395.0, 22417.0, 22417.0, 22422.0]
    },
    "slices": {}
  }
}