{
  "AcquisitionMatrixPE": 104,
  "AcquisitionNumber": 1,
  "AcquisitionTime": "16:01:58.052500",
  "BandwidthPerPixelPhaseEncode": 17.17,
  "BaseResolution": 104,
  "BodyPartExamined": "BRAIN",
  "CoilString": "HC1-7;NC1_2",
  "ConsistencyInfo": "N4_VE11C_LATEST_20160120",
  "ConversionSoftware": "dcm2niix",
  "ConversionSoftwareVersion": "v1.0.20190902",
  "DerivedVendorReportedEchoSpacing": 0.000560011,
  "DeviceSerialNumber": "167006",
  "DwellTime": 2.1e-06,
  "EchoTime": 0.037,
  "EchoTrainLength": 104,
  "EffectiveEchoSpacing": 0.000560011,
  "FlipAngle": 52,
  "ImageComments": "Unaliased_MB4_PE3_LB",
  "ImageOrientationPatientDICOM": [0.999484, -0.0308142, 0.00904607, 0.0321085, 0.953335, -0.300202],
  "ImageType": [
    "ORIGINAL",
    "PRIMARY",
    "P",
    "MB",
    "ND",
    "MOSAIC"
],
  "ImagingFrequency": 123.259,
  "InPlanePhaseEncodingDirectionDICOM": "COL",
  "InstitutionAddress": "Chemin_Queen-Mary_4565_Montreal_District_CA_H3W_1W5",
  "InstitutionName": "IUGM",
  "InstitutionalDepartmentName": "Department",
  "MRAcquisitionType": "2D",
  "MagneticFieldStrength": 3,
  "Manufacturer": "Siemens",
  "ManufacturersModelName": "Prisma_fit",
  "Modality": "MR",
  "MultibandAccelerationFactor": 4,
  "PartialFourier": 1,
  "PatientPosition": "HFS",
  "PercentPhaseFOV": 100,
  "PhaseEncodingDirection": "j",
  "PhaseEncodingSteps": 104,
  "PhaseResolution": 1,
  "PixelBandwidth": 2290,
  "ProcedureStepDescription": "memory_things",
  "ProtocolName": "func_task-things_run-6",
  "PulseSequenceDetails": "%CustomerSeq%_cmrr_mbep2d_bold",
  "ReceiveCoilActiveElements": "HC1-7;NC1,2",
  "ReceiveCoilName": "HeadNeck_64",
  "ReconMatrixPE": 104,
  "RepetitionTime": 1.49,
  "SAR": 0.0549325,
  "ScanOptions": "FS",
  "ScanningSequence": "EP",
  "SequenceName": "epfid2d1_104",
  "SequenceVariant": "SK_SS",
  "SeriesDescription": "func_task-things_run-6",
  "SeriesNumber": 26,
  "ShimSetting": [623, -7264, -8813, 599, -20, -245, -37, -16],
  "SliceThickness": 2,
  "SliceTiming": [0, 0.7825, 0.0975, 0.8825, 0.195, 0.98, 0.2925, 1.0775, 0.3925, 1.175, 0.49, 1.2725, 0.5875, 1.37, 0.685, 0, 0.7825, 0.0975, 0.8825, 0.195, 0.98, 0.2925, 1.0775, 0.3925, 1.175, 0.49, 1.2725, 0.5875, 1.37, 0.685, 0, 0.7825, 0.0975, 0.8825, 0.195, 0.98, 0.2925, 1.0775, 0.3925, 1.175, 0.49, 1.2725, 0.5875, 1.37, 0.685, 0, 0.7825, 0.0975, 0.8825, 0.195, 0.98, 0.2925, 1.0775, 0.3925, 1.175, 0.49, 1.2725, 0.5875, 1.37, 0.685],
  "SoftwareVersions": "syngo_MR_E11",
  "SpacingBetweenSlices": 2,
  "StationName": "MRC35049",
  "TaskName": "things",
  "TotalReadoutTime": 0.0576811,
  "TxRefAmp": 272.281,
  "WipMemBlock": "fe1bb877-432e-4d50-98d2-7ba2d4471c48||Sequence: R016 ve11c/master r/e634e98; Dec 19 2017 11:00:25 by eja",
  "dcmmeta_affine": [
    [-1.9989683628082275, 0.06421700865030289, -0.0012531279353424907, 104.25762939453125],
    [0.06162847951054573, 1.9066702127456665, -0.6006753444671631, -67.75911712646484],
    [0.018092136830091476, 0.6004040837287903, 1.907665491104126, -60.60963439941406],
    [0.0, 0.0, 0.0, 1.0]
],
  "dcmmeta_reorient_transform": [
    [0.0, -1.0, 0.0, 103.0],
    [1.0, 0.0, 0.0, 0.0],
    [0.0, 0.0, 1.0, 0.0],
    [0.0, 0.0, 0.0, 1.0]
],
  "dcmmeta_shape": [104, 104, 60, 190],
  "dcmmeta_slice_dim": 2,
  "dcmmeta_version": 0.6,
  "global": {
    "const": {
      "AcquisitionMatrix": [104, 0, 0, 104],
      "AngioFlag": "N",
      "BitsAllocated": 16,
      "BitsStored": 16,
      "BodyPartExamined": "BRAIN",
      "Columns": 832,
      "EchoNumbers": 1,
      "EchoTime": 37.0,
      "EchoTrainLength": 104,
      "FlipAngle": 52.0,
      "HighBit": 15,
      "ImageOrientationPatient": [0.99948419260541, -0.0308142398933, 0.00904606830127, 0.0321085058747, 0.95333507698287, -0.3002020566961],
      "ImagePositionPatient": [-861.87146532443, -800.22308169775, 213.1935474049],
      "ImageType": [
        "ORIGINAL",
        "PRIMARY",
        "P",
        "MB",
        "ND",
        "MOSAIC"
],
      "ImagedNucleus": "1H",
      "ImagingFrequency": 123.258905,
      "InPlanePhaseEncodingDirection": "COL",
      "LargestImagePixelValue": 4095,
      "MRAcquisitionType": "2D",
      "MagneticFieldStrength": 3.0,
      "Manufacturer": "SIEMENS",
      "ManufacturerModelName": "Prisma_fit",
      "Modality": "MR",
      "NumberOfAverages": 1.0,
      "NumberOfPhaseEncodingSteps": 104,
      "PercentPhaseFieldOfView": 100.0,
      "PercentSampling": 100.0,
      "PerformedProcedureStepStartTime": "145447.123000",
      "PhotometricInterpretation": "MONOCHROME2",
      "PixelBandwidth": 2290.0,
      "PixelRepresentation": 0,
      "PixelSpacing": [2.0, 2.0],
      "ProtocolName": "func_task-things_run-6",
      "RepetitionTime": 1490.0,
      "RescaleIntercept": -4096.0,
      "RescaleSlope": 2.0,
      "RescaleType": "US",
      "Rows": 832,
      "SAR": 0.05493245776295,
      "SamplesPerPixel": 1,
      "ScanOptions": "FS",
      "ScanningSequence": "EP",
      "SequenceName": "epfid2d1_104",
      "SequenceVariant": [
        "SK",
        "SS"
],
      "SeriesDescription": "func_task-things_run-6",
      "SeriesNumber": 26,
      "SeriesTime": "160313.311000",
      "SliceLocation": -37.526165000658,
      "SliceThickness": 2.0,
      "SmallestImagePixelValue": 0,
      "SoftwareVersions": "syngo MR E11",
      "SpacingBetweenSlices": 1.999999987883,
      "SpecificCharacterSet": "ISO_IR 100",
      "StudyID": "1",
      "StudyTime": "145447.006000",
      "TransmitCoilName": "Body",
      "VariableFlipAngleFlag": "N",
      "WindowCenterWidthExplanation": "Algo1",
      "dBdt": 0.0},
    "slices": {}
  },
  "time": {
    "samples": {
      "AcquisitionNumber": [1, 2, 3, 4, 5, 6, 7, 8, 9, 10, 11, 12, 13, 14, 15, 16, 17, 18, 19, 20, 21, 22, 23, 24, 25, 26, 27, 28, 29, 30, 31, 32, 33, 34, 35, 36, 37, 38, 39, 40, 41, 42, 43, 44, 45, 46, 47, 48, 49, 50, 51, 52, 53, 54, 55, 56, 57, 58, 59, 60, 61, 62, 63, 64, 65, 66, 67, 68, 69, 70, 71, 72, 73, 74, 75, 76, 77, 78, 79, 80, 81, 82, 83, 84, 85, 86, 87, 88, 89, 90, 91, 92, 93, 94, 95, 96, 97, 98, 99, 100, 101, 102, 103, 104, 105, 106, 107, 108, 109, 110, 111, 112, 113, 114, 115, 116, 117, 118, 119, 120, 121, 122, 123, 124, 125, 126, 127, 128, 129, 130, 131, 132, 133, 134, 135, 136, 137, 138, 139, 140, 141, 142, 143, 144, 145, 146, 147, 148, 149, 150, 151, 152, 153, 154, 155, 156, 157, 158, 159, 160, 161, 162, 163, 164, 165, 166, 167, 168, 169, 170, 171, 172, 173, 174, 175, 176, 177, 178, 179, 180, 181, 182, 183, 184, 185, 186, 187, 188, 189, 190],
      "AcquisitionTime": ["160158.052500", "160159.542500", "160201.032500", "160202.522500", "160204.012500", "160205.502500", "160206.992500", "160208.482500", "160209.972500", "160211.462500", "160212.952500", "160214.442500", "160215.932500", "160217.422500", "160218.912500", "160220.402500", "160221.892500", "160223.382500", "160224.872500", "160226.362500", "160227.852500", "160229.342500", "160230.832500", "160232.322500", "160233.812500", "160235.302500", "160236.792500", "160238.282500", "160239.772500", "160241.262500", "160242.752500", "160244.242500", "160245.732500", "160247.222500", "160248.712500", "160250.202500", "160251.692500", "160253.182500", "160254.672500", "160256.162500", "160257.652500", "160259.142500", "160300.632500", "160302.122500", "160303.612500", "160305.102500", "160306.592500", "160308.082500", "160309.572500", "160311.062500", "160312.552500", "160314.042500", "160315.532500", "160317.022500", "160318.512500", "160320.002500", "160321.492500", "160322.982500", "160324.472500", "160325.962500", "160327.452500", "160328.942500", "160330.432500", "160331.922500", "160333.412500", "160334.902500", "160336.392500", "160337.882500", "160339.372500", "160340.862500", "160342.352500", "160343.842500", "160345.332500", "160346.822500", "160348.312500", "160349.802500", "160351.292500", "160352.782500", "160354.272500", "160355.762500", "160357.252500", "160358.742500", "160400.232500", "160401.722500", "160403.212500", "160404.702500", "160406.192500", "160407.682500", "160409.172500", "160410.662500", "160412.152500", "160413.642500", "160415.132500", "160416.622500", "160418.112500", "160419.602500", "160421.092500", "160422.582500", "160424.072500", "160425.562500", "160427.052500", "160428.542500", "160430.032500", "160431.522500", "160433.012500", "160434.502500", "160435.992500", "160437.482500", "160438.972500", "160440.462500", "160441.952500", "160443.442500", "160444.932500", "160446.422500", "160447.912500", "160449.402500", "160450.892500", "160452.382500", "160453.872500", "160455.362500", "160456.852500", "160458.342500", "160459.832500", "160501.322500", "160502.812500", "160504.302500", "160505.792500", "160507.282500", "160508.772500", "160510.262500", "160511.752500", "160513.242500", "160514.732500", "160516.222500", "160517.712500", "160519.202500", "160520.692500", "160522.182500", "160523.672500", "160525.162500", "160526.652500", "160528.142500", "160529.632500", "160531.122500", "160532.612500", "160534.102500", "160535.592500", "160537.082500", "160538.572500", "160540.062500", "160541.552500", "160543.042500", "160544.532500", "160546.022500", "160547.512500", "160549.002500", "160550.492500", "160551.982500", "160553.472500", "160554.962500", "160556.452500", "160557.942500", "160559.432500", "160600.922500", "160602.412500", "160603.902500", "160605.392500", "160606.882500", "160608.372500", "160609.862500", "160611.352500", "160612.842500", "160614.332500", "160615.822500", "160617.312500", "160618.802500", "160620.292500", "160621.782500", "160623.272500", "160624.762500", "160626.252500", "160627.742500", "160629.232500", "160630.722500", "160632.212500", "160633.702500", "160635.192500", "160636.682500", "160638.172500", "160639.662500"],
      "ContentTime": ["160313.313000", "160313.316000", "160313.319000", "160313.321000", "160313.324000", "160313.327000", "160313.329000", "160313.332000", "160313.334000", "160313.337000", "160313.339000", "160313.342000", "160313.344000", "160313.347000", "160313.349000", "160313.352000", "160313.354000", "160313.357000", "160313.359000", "160313.362000", "160313.365000", "160333.408000", "160333.411000", "160333.414000", "160333.416000", "160333.419000", "160333.421000", "160333.424000", "160333.426000", "160333.429000", "160333.431000", "160333.434000", "160333.436000", "160333.439000", "160333.441000", "160333.444000", "160333.446000", "160333.449000", "160333.451000", "160333.454000", "160333.456000", "160333.459000", "160353.264000", "160353.267000", "160353.270000", "160353.272000", "160353.275000", "160353.277000", "160353.280000", "160353.282000", "160353.285000", "160353.288000", "160353.290000", "160353.293000", "160353.295000", "160353.298000", "160353.300000", "160353.303000", "160353.305000", "160353.308000", "160353.310000", "160353.313000", "160413.275000", "160413.277000", "160413.280000", "160413.282000", "160413.285000", "160413.288000", "160413.290000", "160413.293000", "160413.295000", "160413.298000", "160413.300000", "160413.303000", "160413.305000", "160413.308000", "160413.311000", "160413.313000", "160413.316000", "160413.318000", "160413.321000", "160413.323000", "160433.273000", "160433.276000", "160433.296000", "160433.299000", "160433.301000", "160433.312000", "160433.315000", "160433.318000", "160433.320000", "160433.323000", "160433.325000", "160433.328000", "160433.331000", "160433.333000", "160433.336000", "160433.338000", "160433.341000", "160433.344000", "160433.346000", "160433.349000", "160513.299000", "160513.302000", "160513.305000", "160513.307000", "160513.310000", "160513.312000", "160513.315000", "160513.318000", "160513.320000", "160513.323000", "160513.326000", "160513.328000", "160513.331000", "160513.333000", "160513.336000", "160513.338000", "160513.341000", "160513.344000", "160513.346000", "160513.349000", "160513.351000", "160513.354000", "160513.356000", "160513.359000", "160513.362000", "160513.364000", "160513.367000", "160513.369000", "160553.318000", "160553.321000", "160553.324000", "160553.326000", "160553.329000", "160553.331000", "160553.334000", "160553.337000", "160553.339000", "160553.342000", "160553.344000", "160553.347000", "160553.350000", "160553.352000", "160553.355000", "160553.357000", "160553.360000", "160553.362000", "160553.365000", "160553.368000", "160553.370000", "160553.373000", "160553.375000", "160553.378000", "160553.380000", "160553.383000", "160553.386000", "160633.308000", "160633.311000", "160633.314000", "160633.316000", "160633.319000", "160633.322000", "160633.324000", "160633.327000", "160633.329000", "160633.332000", "160633.335000", "160633.337000", "160633.340000", "160633.342000", "160633.345000", "160633.348000", "160633.350000", "160633.353000", "160633.355000", "160633.358000", "160633.360000", "160633.363000", "160633.366000", "160633.368000", "160633.371000", "160633.373000", "160633.376000", "160641.847000", "160641.850000", "160641.853000", "160641.855000", "160641.858000", "160641.866000"],
      "InstanceCreationTime": ["160313.313000", "160313.316000", "160313.319000", "160313.321000", "160313.324000", "160313.327000", "160313.329000", "160313.332000", "160313.334000", "160313.337000", "160313.339000", "160313.342000", "160313.344000", "160313.347000", "160313.349000", "160313.352000", "160313.354000", "160313.357000", "160313.359000", "160313.362000", "160313.365000", "160333.408000", "160333.411000", "160333.414000", "160333.416000", "160333.419000", "160333.421000", "160333.424000", "160333.426000", "160333.429000", "160333.431000", "160333.434000", "160333.436000", "160333.439000", "160333.441000", "160333.444000", "160333.446000", "160333.449000", "160333.451000", "160333.454000", "160333.456000", "160333.459000", "160353.264000", "160353.267000", "160353.270000", "160353.272000", "160353.275000", "160353.277000", "160353.280000", "160353.282000", "160353.285000", "160353.288000", "160353.290000", "160353.293000", "160353.295000", "160353.298000", "160353.300000", "160353.303000", "160353.305000", "160353.308000", "160353.310000", "160353.313000", "160413.275000", "160413.277000", "160413.280000", "160413.282000", "160413.285000", "160413.288000", "160413.290000", "160413.293000", "160413.295000", "160413.298000", "160413.300000", "160413.303000", "160413.305000", "160413.308000", "160413.311000", "160413.313000", "160413.316000", "160413.318000", "160413.321000", "160413.323000", "160433.273000", "160433.276000", "160433.296000", "160433.299000", "160433.301000", "160433.312000", "160433.315000", "160433.318000", "160433.320000", "160433.323000", "160433.325000", "160433.328000", "160433.331000", "160433.333000", "160433.336000", "160433.338000", "160433.341000", "160433.344000", "160433.346000", "160433.349000", "160513.299000", "160513.302000", "160513.305000", "160513.307000", "160513.310000", "160513.312000", "160513.315000", "160513.318000", "160513.320000", "160513.323000", "160513.326000", "160513.328000", "160513.331000", "160513.333000", "160513.336000", "160513.338000", "160513.341000", "160513.344000", "160513.346000", "160513.349000", "160513.351000", "160513.354000", "160513.356000", "160513.359000", "160513.362000", "160513.364000", "160513.367000", "160513.369000", "160553.318000", "160553.321000", "160553.324000", "160553.326000", "160553.329000", "160553.331000", "160553.334000", "160553.337000", "160553.339000", "160553.342000", "160553.344000", "160553.347000", "160553.350000", "160553.352000", "160553.355000", "160553.357000", "160553.360000", "160553.362000", "160553.365000", "160553.368000", "160553.370000", "160553.373000", "160553.375000", "160553.378000", "160553.380000", "160553.383000", "160553.386000", "160633.308000", "160633.311000", "160633.314000", "160633.316000", "160633.319000", "160633.322000", "160633.324000", "160633.327000", "160633.329000", "160633.332000", "160633.335000", "160633.337000", "160633.340000", "160633.342000", "160633.345000", "160633.348000", "160633.350000", "160633.353000", "160633.355000", "160633.358000", "160633.360000", "160633.363000", "160633.366000", "160633.368000", "160633.371000", "160633.373000", "160633.376000", "160641.847000", "160641.850000", "160641.853000", "160641.855000", "160641.858000", "160641.866000"],
      "InstanceNumber": [1, 2, 3, 4, 5, 6, 7, 8, 9, 10, 11, 12, 13, 14, 15, 16, 17, 18, 19, 20, 21, 22, 23, 24, 25, 26, 27, 28, 29, 30, 31, 32, 33, 34, 35, 36, 37, 38, 39, 40, 41, 42, 43, 44, 45, 46, 47, 48, 49, 50, 51, 52, 53, 54, 55, 56, 57, 58, 59, 60, 61, 62, 63, 64, 65, 66, 67, 68, 69, 70, 71, 72, 73, 74, 75, 76, 77, 78, 79, 80, 81, 82, 83, 84, 85, 86, 87, 88, 89, 90, 91, 92, 93, 94, 95, 96, 97, 98, 99, 100, 101, 102, 103, 104, 105, 106, 107, 108, 109, 110, 111, 112, 113, 114, 115, 116, 117, 118, 119, 120, 121, 122, 123, 124, 125, 126, 127, 128, 129, 130, 131, 132, 133, 134, 135, 136, 137, 138, 139, 140, 141, 142, 143, 144, 145, 146, 147, 148, 149, 150, 151, 152, 153, 154, 155, 156, 157, 158, 159, 160, 161, 162, 163, 164, 165, 166, 167, 168, 169, 170, 171, 172, 173, 174, 175, 176, 177, 178, 179, 180, 181, 182, 183, 184, 185, 186, 187, 188, 189, 190],
      "WindowCenter": [4818.0, 4798.0, 4826.0, 4826.0, 4818.0, 4824.0, 4822.0, 4796.0, 4820.0, 4826.0, 4828.0, 4820.0, 4830.0, 4830.0, 4826.0, 4818.0, 4816.0, 4814.0, 4822.0, 4854.0, 4826.0, 4824.0, 4828.0, 4822.0, 4822.0, 4824.0, 4800.0, 4824.0, 4800.0, 4824.0, 4824.0, 4824.0, 4820.0, 4826.0, 4822.0, 4800.0, 4820.0, 4826.0, 4824.0, 4824.0, 4828.0, 4820.0, 4824.0, 4826.0, 4820.0, 4824.0, 4826.0, 4822.0, 4822.0, 4822.0, 4824.0, 4822.0, 4822.0, 4820.0, 4822.0, 4824.0, 4824.0, 4822.0, 4828.0, 4824.0, 4826.0, 4818.0, 4820.0, 4820.0, 4822.0, 4822.0, 4822.0, 4822.0, 4822.0, 4820.0, 4822.0, 4822.0, 4800.0, 4820.0, 4824.0, 4822.0, 4824.0, 4820.0, 4818.0, 4820.0, 4824.0, 4824.0, 4824.0, 4850.0, 4830.0, 4824.0, 4796.0, 4822.0, 4824.0, 4822.0, 4820.0, 4830.0, 4826.0, 4828.0, 4824.0, 4824.0, 4824.0, 4822.0, 4822.0, 4822.0, 4796.0, 4878.0, 4854.0, 4824.0, 4818.0, 4816.0, 4814.0, 4814.0, 4820.0, 4876.0, 4868.0, 4902.0, 4792.0, 4818.0, 4788.0, 4814.0, 4790.0, 4794.0, 4818.0, 4828.0, 4850.0, 4852.0, 4876.0, 4852.0, 4818.0, 4796.0, 4824.0, 4820.0, 4820.0, 4818.0, 4818.0, 4820.0, 4824.0, 4854.0, 4852.0, 4824.0, 4794.0, 4814.0, 4816.0, 4816.0, 4818.0, 4818.0, 4824.0, 4876.0, 4902.0, 4852.0, 4822.0, 4790.0, 4792.0, 4792.0, 4792.0, 4794.0, 4820.0, 4826.0, 4826.0, 4826.0, 4828.0, 4826.0, 4854.0, 4854.0, 4856.0, 4828.0, 4794.0, 4788.0, 4790.0, 4794.0, 4798.0, 4826.0, 4830.0, 4856.0, 4878.0, 4826.0, 4824.0, 4824.0, 4814.0, 4796.0, 4826.0, 4828.0, 4826.0, 4824.0, 4854.0, 4830.0, 4820.0, 4850.0, 4828.0, 4828.0, 4822.0, 4824.0, 4826.0, 4826.0],
      "WindowWidth": [18576.0, 18552.0, 18582.0, 18582.0, 18578.0, 18578.0, 18582.0, 18556.0, 18582.0, 18584.0, 18586.0, 18580.0, 18586.0, 18584.0, 18586.0, 18584.0, 18588.0, 18586.0, 18580.0, 18616.0, 18584.0, 18584.0, 18586.0, 18582.0, 18584.0, 18586.0, 18554.0, 18584.0, 18554.0, 18582.0, 18580.0, 18580.0, 18582.0, 18584.0, 18586.0, 18554.0, 18582.0, 18590.0, 18586.0, 18582.0, 18584.0, 18582.0, 18590.0, 18586.0, 18586.0, 18584.0, 18594.0, 18584.0, 18582.0, 18578.0, 18580.0, 18582.0, 18582.0, 18588.0, 18590.0, 18582.0, 18584.0, 18580.0, 18586.0, 18584.0, 18584.0, 18578.0, 18582.0, 18582.0, 18584.0, 18584.0, 18584.0, 18584.0, 18584.0, 18592.0, 18586.0, 18588.0, 18552.0, 18584.0, 18586.0, 18582.0, 18586.0, 18580.0, 18592.0, 18580.0, 18584.0, 18590.0, 18580.0, 18618.0, 18590.0, 18586.0, 18552.0, 18588.0, 18588.0, 18584.0, 18580.0, 18590.0, 18588.0, 18586.0, 18586.0, 18588.0, 18580.0, 18588.0, 18588.0, 18590.0, 18552.0, 18666.0, 18626.0, 18590.0, 18590.0, 18590.0, 18594.0, 18592.0, 18586.0, 18682.0, 18690.0, 18720.0, 18556.0, 18592.0, 18572.0, 18602.0, 18568.0, 18558.0, 18582.0, 18588.0, 18622.0, 18620.0, 18660.0, 18622.0, 18588.0, 18556.0, 18580.0, 18584.0, 18580.0, 18584.0, 18578.0, 18586.0, 18590.0, 18638.0, 18630.0, 18590.0, 18558.0, 18590.0, 18586.0, 18586.0, 18588.0, 18582.0, 18590.0, 18678.0, 18716.0, 18626.0, 18580.0, 18560.0, 18564.0, 18564.0, 18552.0, 18554.0, 18588.0, 18582.0, 18582.0, 18584.0, 18586.0, 18580.0, 18616.0, 18622.0, 18632.0, 18584.0, 18558.0, 18560.0, 18562.0, 18562.0, 18554.0, 18584.0, 18588.0, 18630.0, 18668.0, 18578.0, 18584.0, 18588.0, 18592.0, 18558.0, 18580.0, 18582.0, 18588.0, 18584.0, 18616.0, 18588.0, 18582.0, 18614.0, 18586.0, 18588.0, 18580.0, 18584.0, 18588.0, 18586.0]
    },
    "slices": {}
  }
}