{
  "AcquisitionMatrixPE": 104,
  "AcquisitionNumber": 1,
  "AcquisitionTime": "15:28:53.950000",
  "BandwidthPerPixelPhaseEncode": 17.17,
  "BaseResolution": 104,
  "BodyPartExamined": "BRAIN",
  "CoilString": "HC1-7;NC1_2",
  "ConsistencyInfo": "N4_VE11C_LATEST_20160120",
  "ConversionSoftware": "dcm2niix",
  "ConversionSoftwareVersion": "v1.0.20190902",
  "DerivedVendorReportedEchoSpacing": 0.000560011,
  "DeviceSerialNumber": "167006",
  "DwellTime": 2.1e-06,
  "EchoTime": 0.037,
  "EchoTrainLength": 104,
  "EffectiveEchoSpacing": 0.000560011,
  "FlipAngle": 52,
  "ImageComments": "Unaliased_MB4_PE3_LB",
  "ImageOrientationPatientDICOM": [0.999484, -0.0308142, 0.00904607, 0.0321085, 0.953335, -0.300202],
  "ImageType": [
    "ORIGINAL",
    "PRIMARY",
    "M",
    "MB",
    "ND",
    "MOSAIC"
],
  "ImagingFrequency": 123.259,
  "InPlanePhaseEncodingDirectionDICOM": "COL",
  "InstitutionAddress": "Chemin_Queen-Mary_4565_Montreal_District_CA_H3W_1W5",
  "InstitutionName": "IUGM",
  "InstitutionalDepartmentName": "Department",
  "MRAcquisitionType": "2D",
  "MagneticFieldStrength": 3,
  "Manufacturer": "Siemens",
  "ManufacturersModelName": "Prisma_fit",
  "Modality": "MR",
  "MultibandAccelerationFactor": 4,
  "PartialFourier": 1,
  "PatientPosition": "HFS",
  "PercentPhaseFOV": 100,
  "PhaseEncodingDirection": "j",
  "PhaseEncodingSteps": 104,
  "PhaseResolution": 1,
  "PixelBandwidth": 2290,
  "ProcedureStepDescription": "memory_things",
  "ProtocolName": "func_task-things_run-1",
  "PulseSequenceDetails": "%CustomerSeq%_cmrr_mbep2d_bold",
  "ReceiveCoilActiveElements": "HC1-7;NC1,2",
  "ReceiveCoilName": "HeadNeck_64",
  "ReconMatrixPE": 104,
  "RepetitionTime": 1.49,
  "SAR": 0.0549325,
  "ScanOptions": "FS",
  "ScanningSequence": "EP",
  "SequenceName": "epfid2d1_104",
  "SequenceVariant": "SK_SS",
  "SeriesDescription": "func_task-things_run-1",
  "SeriesNumber": 10,
  "ShimSetting": [623, -7264, -8813, 599, -20, -245, -37, -16],
  "SliceThickness": 2,
  "SliceTiming": [0, 0.785, 0.0975, 0.8825, 0.1975, 0.98, 0.295, 1.0775, 0.3925, 1.1775, 0.49, 1.275, 0.5875, 1.3725, 0.6875, 0, 0.785, 0.0975, 0.8825, 0.1975, 0.98, 0.295, 1.0775, 0.3925, 1.1775, 0.49, 1.275, 0.5875, 1.3725, 0.6875, 0, 0.785, 0.0975, 0.8825, 0.1975, 0.98, 0.295, 1.0775, 0.3925, 1.1775, 0.49, 1.275, 0.5875, 1.3725, 0.6875, 0, 0.785, 0.0975, 0.8825, 0.1975, 0.98, 0.295, 1.0775, 0.3925, 1.1775, 0.49, 1.275, 0.5875, 1.3725, 0.6875],
  "SoftwareVersions": "syngo_MR_E11",
  "SpacingBetweenSlices": 2,
  "StationName": "MRC35049",
  "TaskName": "things",
  "TotalReadoutTime": 0.0576811,
  "TxRefAmp": 272.281,
  "WipMemBlock": "2107c534-6405-4e97-aee8-6ad8beacef49||Sequence: R016 ve11c/master r/e634e98; Dec 19 2017 11:00:25 by eja",
  "dcmmeta_affine": [
    [-1.9989683628082275, 0.06421700865030289, -0.0012531279353424907, 104.25762939453125],
    [0.06162847951054573, 1.9066702127456665, -0.6006753444671631, -67.75911712646484],
    [0.018092136830091476, 0.6004040837287903, 1.907665491104126, -60.60963439941406],
    [0.0, 0.0, 0.0, 1.0]
],
  "dcmmeta_reorient_transform": [
    [0.0, -1.0, 0.0, 103.0],
    [1.0, 0.0, 0.0, 0.0],
    [0.0, 0.0, 1.0, 0.0],
    [0.0, 0.0, 0.0, 1.0]
],
  "dcmmeta_shape": [104, 104, 60, 190],
  "dcmmeta_slice_dim": 2,
  "dcmmeta_version": 0.6,
  "global": {
    "const": {
      "AcquisitionMatrix": [104, 0, 0, 104],
      "AngioFlag": "N",
      "BitsAllocated": 16,
      "BitsStored": 16,
      "BodyPartExamined": "BRAIN",
      "Columns": 832,
      "EchoNumbers": 1,
      "EchoTime": 37.0,
      "EchoTrainLength": 104,
      "FlipAngle": 52.0,
      "HighBit": 15,
      "ImageOrientationPatient": [0.99948419260541, -0.0308142398933, 0.00904606830127, 0.0321085058747, 0.95333507698287, -0.3002020566961],
      "ImagePositionPatient": [-861.87146532443, -800.22308169775, 213.1935474049],
      "ImageType": [
        "ORIGINAL",
        "PRIMARY",
        "M",
        "MB",
        "ND",
        "MOSAIC"
],
      "ImagedNucleus": "1H",
      "ImagingFrequency": 123.258891,
      "InPlanePhaseEncodingDirection": "COL",
      "MRAcquisitionType": "2D",
      "MagneticFieldStrength": 3.0,
      "Manufacturer": "SIEMENS",
      "ManufacturerModelName": "Prisma_fit",
      "Modality": "MR",
      "NumberOfAverages": 1.0,
      "NumberOfPhaseEncodingSteps": 104,
      "PercentPhaseFieldOfView": 100.0,
      "PercentSampling": 100.0,
      "PerformedProcedureStepStartTime": "145447.123000",
      "PhotometricInterpretation": "MONOCHROME2",
      "PixelBandwidth": 2290.0,
      "PixelRepresentation": 0,
      "PixelSpacing": [2.0, 2.0],
      "ProtocolName": "func_task-things_run-1",
      "RepetitionTime": 1490.0,
      "Rows": 832,
      "SAR": 0.05493245776295,
      "SamplesPerPixel": 1,
      "ScanOptions": "FS",
      "ScanningSequence": "EP",
      "SequenceName": "epfid2d1_104",
      "SequenceVariant": [
        "SK",
        "SS"
],
      "SeriesDescription": "func_task-things_run-1",
      "SeriesNumber": 10,
      "SeriesTime": "153015.766000",
      "SliceLocation": -37.526165000658,
      "SliceThickness": 2.0,
      "SmallestImagePixelValue": 0,
      "SoftwareVersions": "syngo MR E11",
      "SpacingBetweenSlices": 1.999999987883,
      "SpecificCharacterSet": "ISO_IR 100",
      "StudyID": "1",
      "StudyTime": "145447.006000",
      "TransmitCoilName": "Body",
      "VariableFlipAngleFlag": "N",
      "WindowCenterWidthExplanation": "Algo1",
      "dBdt": 0.0},
    "slices": {}
  },
  "time": {
    "samples": {
      "AcquisitionNumber": [1, 2, 3, 4, 5, 6, 7, 8, 9, 10, 11, 12, 13, 14, 15, 16, 17, 18, 19, 20, 21, 22, 23, 24, 25, 26, 27, 28, 29, 30, 31, 32, 33, 34, 35, 36, 37, 38, 39, 40, 41, 42, 43, 44, 45, 46, 47, 48, 49, 50, 51, 52, 53, 54, 55, 56, 57, 58, 59, 60, 61, 62, 63, 64, 65, 66, 67, 68, 69, 70, 71, 72, 73, 74, 75, 76, 77, 78, 79, 80, 81, 82, 83, 84, 85, 86, 87, 88, 89, 90, 91, 92, 93, 94, 95, 96, 97, 98, 99, 100, 101, 102, 103, 104, 105, 106, 107, 108, 109, 110, 111, 112, 113, 114, 115, 116, 117, 118, 119, 120, 121, 122, 123, 124, 125, 126, 127, 128, 129, 130, 131, 132, 133, 134, 135, 136, 137, 138, 139, 140, 141, 142, 143, 144, 145, 146, 147, 148, 149, 150, 151, 152, 153, 154, 155, 156, 157, 158, 159, 160, 161, 162, 163, 164, 165, 166, 167, 168, 169, 170, 171, 172, 173, 174, 175, 176, 177, 178, 179, 180, 181, 182, 183, 184, 185, 186, 187, 188, 189, 190],
      "AcquisitionTime": ["152853.950000", "152855.440000", "152856.930000", "152858.420000", "152859.910000", "152901.400000", "152902.890000", "152904.380000", "152905.870000", "152907.360000", "152908.850000", "152910.340000", "152911.830000", "152913.320000", "152914.810000", "152916.300000", "152917.790000", "152919.280000", "152920.770000", "152922.260000", "152923.750000", "152925.240000", "152926.730000", "152928.220000", "152929.710000", "152931.200000", "152932.690000", "152934.180000", "152935.670000", "152937.160000", "152938.650000", "152940.140000", "152941.630000", "152943.120000", "152944.610000", "152946.100000", "152947.590000", "152949.080000", "152950.570000", "152952.060000", "152953.550000", "152955.040000", "152956.530000", "152958.020000", "152959.510000", "153001.000000", "153002.490000", "153003.980000", "153005.470000", "153006.960000", "153008.450000", "153009.940000", "153011.430000", "153012.920000", "153014.410000", "153015.900000", "153017.390000", "153018.880000", "153020.370000", "153021.860000", "153023.350000", "153024.840000", "153026.330000", "153027.820000", "153029.310000", "153030.800000", "153032.290000", "153033.780000", "153035.270000", "153036.760000", "153038.250000", "153039.740000", "153041.230000", "153042.720000", "153044.210000", "153045.700000", "153047.190000", "153048.680000", "153050.170000", "153051.660000", "153053.150000", "153054.640000", "153056.130000", "153057.620000", "153059.110000", "153100.600000", "153102.090000", "153103.580000", "153105.070000", "153106.560000", "153108.050000", "153109.540000", "153111.030000", "153112.520000", "153114.010000", "153115.500000", "153116.990000", "153118.480000", "153119.970000", "153121.460000", "153122.950000", "153124.440000", "153125.930000", "153127.420000", "153128.910000", "153130.400000", "153131.890000", "153133.380000", "153134.870000", "153136.360000", "153137.850000", "153139.340000", "153140.830000", "153142.320000", "153143.810000", "153145.300000", "153146.790000", "153148.280000", "153149.770000", "153151.260000", "153152.750000", "153154.240000", "153155.730000", "153157.220000", "153158.710000", "153200.200000", "153201.690000", "153203.180000", "153204.670000", "153206.160000", "153207.650000", "153209.140000", "153210.630000", "153212.120000", "153213.610000", "153215.100000", "153216.590000", "153218.080000", "153219.570000", "153221.060000", "153222.550000", "153224.040000", "153225.530000", "153227.020000", "153228.510000", "153230.000000", "153231.490000", "153232.980000", "153234.470000", "153235.960000", "153237.450000", "153238.940000", "153240.430000", "153241.920000", "153243.410000", "153244.900000", "153246.390000", "153247.880000", "153249.370000", "153250.860000", "153252.350000", "153253.840000", "153255.330000", "153256.820000", "153258.310000", "153259.800000", "153301.290000", "153302.780000", "153304.270000", "153305.760000", "153307.250000", "153308.740000", "153310.230000", "153311.720000", "153313.210000", "153314.700000", "153316.190000", "153317.680000", "153319.170000", "153320.660000", "153322.150000", "153323.640000", "153325.130000", "153326.620000", "153328.110000", "153329.600000", "153331.090000", "153332.580000", "153334.070000", "153335.560000"],
      "ContentTime": ["153015.769000", "153015.773000", "153015.776000", "153015.779000", "153015.783000", "153015.786000", "153015.790000", "153015.793000", "153015.796000", "153015.800000", "153015.803000", "153015.807000", "153015.810000", "153015.813000", "153015.817000", "153015.820000", "153015.824000", "153015.827000", "153015.830000", "153015.834000", "153015.837000", "153015.851000", "153015.855000", "153015.858000", "153015.861000", "153015.865000", "153015.868000", "153015.871000", "153035.729000", "153035.733000", "153035.736000", "153035.740000", "153035.743000", "153035.746000", "153035.757000", "153035.760000", "153035.764000", "153035.767000", "153035.771000", "153035.774000", "153035.777000", "153035.781000", "153035.784000", "153035.787000", "153035.791000", "153035.794000", "153035.798000", "153035.801000", "153055.728000", "153055.732000", "153055.735000", "153055.739000", "153055.742000", "153055.746000", "153055.749000", "153055.752000", "153055.756000", "153055.759000", "153055.762000", "153055.766000", "153055.769000", "153055.773000", "153055.776000", "153055.789000", "153055.793000", "153055.796000", "153055.799000", "153055.803000", "153055.806000", "153115.728000", "153115.732000", "153115.735000", "153115.739000", "153115.742000", "153115.746000", "153115.749000", "153115.752000", "153115.756000", "153115.759000", "153115.762000", "153115.766000", "153115.769000", "153115.772000", "153115.776000", "153115.779000", "153115.783000", "153115.786000", "153115.789000", "153115.793000", "153155.729000", "153155.733000", "153155.736000", "153155.740000", "153155.743000", "153155.747000", "153155.750000", "153155.753000", "153155.757000", "153155.760000", "153155.764000", "153155.767000", "153155.770000", "153155.774000", "153155.777000", "153155.781000", "153155.799000", "153155.802000", "153155.805000", "153155.809000", "153155.812000", "153155.816000", "153155.819000", "153155.822000", "153155.826000", "153155.829000", "153155.833000", "153155.836000", "153155.839000", "153155.843000", "153155.846000", "153155.850000", "153235.729000", "153235.733000", "153235.736000", "153235.740000", "153235.743000", "153235.747000", "153235.750000", "153235.754000", "153235.757000", "153235.761000", "153235.764000", "153235.767000", "153235.771000", "153235.774000", "153235.777000", "153235.781000", "153235.784000", "153235.788000", "153235.791000", "153235.794000", "153235.798000", "153235.801000", "153235.804000", "153235.808000", "153235.811000", "153235.815000", "153235.818000", "153315.728000", "153315.732000", "153315.735000", "153315.739000", "153315.742000", "153315.746000", "153315.749000", "153315.753000", "153315.757000", "153315.760000", "153315.763000", "153315.767000", "153315.770000", "153315.774000", "153315.777000", "153315.780000", "153315.784000", "153315.787000", "153315.791000", "153315.794000", "153315.797000", "153315.801000", "153315.804000", "153315.808000", "153315.811000", "153315.815000", "153315.818000", "153335.728000", "153335.732000", "153335.735000", "153335.739000", "153335.742000", "153335.746000", "153335.749000", "153335.752000", "153335.756000", "153335.759000", "153335.763000", "153335.766000", "153335.769000", "153335.773000", "153337.250000"],
      "InstanceCreationTime": ["153015.769000", "153015.773000", "153015.776000", "153015.779000", "153015.783000", "153015.786000", "153015.790000", "153015.793000", "153015.796000", "153015.800000", "153015.803000", "153015.807000", "153015.810000", "153015.813000", "153015.817000", "153015.820000", "153015.824000", "153015.827000", "153015.830000", "153015.834000", "153015.837000", "153015.851000", "153015.855000", "153015.858000", "153015.861000", "153015.865000", "153015.868000", "153015.871000", "153035.729000", "153035.733000", "153035.736000", "153035.740000", "153035.743000", "153035.746000", "153035.757000", "153035.760000", "153035.764000", "153035.767000", "153035.771000", "153035.774000", "153035.777000", "153035.781000", "153035.784000", "153035.787000", "153035.791000", "153035.794000", "153035.798000", "153035.801000", "153055.728000", "153055.732000", "153055.735000", "153055.739000", "153055.742000", "153055.746000", "153055.749000", "153055.752000", "153055.756000", "153055.759000", "153055.762000", "153055.766000", "153055.769000", "153055.773000", "153055.776000", "153055.789000", "153055.793000", "153055.796000", "153055.799000", "153055.803000", "153055.806000", "153115.728000", "153115.732000", "153115.735000", "153115.739000", "153115.742000", "153115.746000", "153115.749000", "153115.752000", "153115.756000", "153115.759000", "153115.762000", "153115.766000", "153115.769000", "153115.772000", "153115.776000", "153115.779000", "153115.783000", "153115.786000", "153115.789000", "153115.793000", "153155.729000", "153155.733000", "153155.736000", "153155.740000", "153155.743000", "153155.747000", "153155.750000", "153155.753000", "153155.757000", "153155.760000", "153155.764000", "153155.767000", "153155.770000", "153155.774000", "153155.777000", "153155.781000", "153155.799000", "153155.802000", "153155.805000", "153155.809000", "153155.812000", "153155.816000", "153155.819000", "153155.822000", "153155.826000", "153155.829000", "153155.833000", "153155.836000", "153155.839000", "153155.843000", "153155.846000", "153155.850000", "153235.729000", "153235.733000", "153235.736000", "153235.740000", "153235.743000", "153235.747000", "153235.750000", "153235.754000", "153235.757000", "153235.761000", "153235.764000", "153235.767000", "153235.771000", "153235.774000", "153235.777000", "153235.781000", "153235.784000", "153235.788000", "153235.791000", "153235.794000", "153235.798000", "153235.801000", "153235.804000", "153235.808000", "153235.811000", "153235.815000", "153235.818000", "153315.728000", "153315.732000", "153315.735000", "153315.739000", "153315.742000", "153315.746000", "153315.749000", "153315.753000", "153315.757000", "153315.760000", "153315.763000", "153315.767000", "153315.770000", "153315.774000", "153315.777000", "153315.780000", "153315.784000", "153315.787000", "153315.791000", "153315.794000", "153315.797000", "153315.801000", "153315.804000", "153315.808000", "153315.811000", "153315.815000", "153315.818000", "153335.728000", "153335.732000", "153335.735000", "153335.739000", "153335.742000", "153335.746000", "153335.749000", "153335.752000", "153335.756000", "153335.759000", "153335.763000", "153335.766000", "153335.769000", "153335.773000", "153337.250000"],
      "InstanceNumber": [1, 2, 3, 4, 5, 6, 7, 8, 9, 10, 11, 12, 13, 14, 15, 16, 17, 18, 19, 20, 21, 22, 23, 24, 25, 26, 27, 28, 29, 30, 31, 32, 33, 34, 35, 36, 37, 38, 39, 40, 41, 42, 43, 44, 45, 46, 47, 48, 49, 50, 51, 52, 53, 54, 55, 56, 57, 58, 59, 60, 61, 62, 63, 64, 65, 66, 67, 68, 69, 70, 71, 72, 73, 74, 75, 76, 77, 78, 79, 80, 81, 82, 83, 84, 85, 86, 87, 88, 89, 90, 91, 92, 93, 94, 95, 96, 97, 98, 99, 100, 101, 102, 103, 104, 105, 106, 107, 108, 109, 110, 111, 112, 113, 114, 115, 116, 117, 118, 119, 120, 121, 122, 123, 124, 125, 126, 127, 128, 129, 130, 131, 132, 133, 134, 135, 136, 137, 138, 139, 140, 141, 142, 143, 144, 145, 146, 147, 148, 149, 150, 151, 152, 153, 154, 155, 156, 157, 158, 159, 160, 161, 162, 163, 164, 165, 166, 167, 168, 169, 170, 171, 172, 173, 174, 175, 176, 177, 178, 179, 180, 181, 182, 183, 184, 185, 186, 187, 188, 189, 190],
      "LargestImagePixelValue": [42156, 40477, 40438, 40562, 40128, 39690, 39716, 39714, 39476, 39531, 38958, 39831, 39702, 39769, 39269, 39192, 39623, 39799, 40279, 39171, 40619, 39716, 39737, 39880, 39546, 40443, 39831, 39529, 40110, 39729, 40258, 39699, 39685, 39776, 39526, 39410, 39732, 40038, 40033, 39498, 40381, 40468, 39911, 39979, 39785, 40117, 39928, 38851, 39640, 40310, 39885, 39312, 39445, 40541, 40421, 40085, 39147, 39279, 40165, 39771, 40206, 39759, 40217, 40352, 39998, 39570, 39546, 39840, 40247, 39052, 39621, 39375, 39768, 39752, 40376, 40363, 39507, 39819, 39231, 39938, 40320, 39820, 40358, 39968, 40319, 40388, 40020, 39943, 39827, 39778, 39314, 40017, 39430, 40161, 40000, 40062, 39352, 39782, 40022, 39937, 39575, 39680, 39919, 39283, 39097, 39732, 39777, 39936, 39903, 38953, 39906, 40181, 39661, 39058, 39448, 39216, 39468, 40465, 40458, 39818, 39328, 38646, 39552, 39377, 39236, 40069, 39405, 39340, 39627, 40014, 40164, 40153, 39473, 39738, 39844, 39417, 39946, 40261, 39254, 40051, 39219, 39836, 40176, 40265, 39745, 39516, 39999, 39779, 39431, 39889, 40389, 40101, 39803, 39515, 39903, 39681, 39501, 39352, 40409, 39087, 39339, 39850, 38662, 39335, 39865, 38481, 38636, 38656, 39359, 39340, 38800, 39630, 39247, 38195, 37604, 37995, 38937, 39005, 38967, 38869, 39264, 39614, 39920, 39495, 39598, 38183, 38091, 38694, 38616, 38951],
      "WindowCenter": [10367.0, 10266.0, 10223.0, 10214.0, 10200.0, 10185.0, 10170.0, 10154.0, 10147.0, 10144.0, 10147.0, 10169.0, 10182.0, 10198.0, 10181.0, 10171.0, 10183.0, 10195.0, 10198.0, 10189.0, 10205.0, 10191.0, 10201.0, 10201.0, 10194.0, 10208.0, 10205.0, 10210.0, 10207.0, 10213.0, 10229.0, 10233.0, 10225.0, 10209.0, 10193.0, 10176.0, 10172.0, 10185.0, 10190.0, 10182.0, 10172.0, 10162.0, 10171.0, 10188.0, 10176.0, 10173.0, 10187.0, 10195.0, 10192.0, 10184.0, 10173.0, 10180.0, 10173.0, 10183.0, 10176.0, 10165.0, 10158.0, 10158.0, 10176.0, 10172.0, 10172.0, 10165.0, 10184.0, 10192.0, 10195.0, 10183.0, 10181.0, 10196.0, 10196.0, 10184.0, 10200.0, 10197.0, 10197.0, 10188.0, 10186.0, 10186.0, 10184.0, 10189.0, 10183.0, 10180.0, 10170.0, 10165.0, 10175.0, 10172.0, 10179.0, 10170.0, 10157.0, 10154.0, 10185.0, 10203.0, 10198.0, 10180.0, 10164.0, 10175.0, 10169.0, 10171.0, 10157.0, 10148.0, 10148.0, 10153.0, 10172.0, 10179.0, 10166.0, 10143.0, 10139.0, 10169.0, 10178.0, 10196.0, 10195.0, 10169.0, 10162.0, 10165.0, 10164.0, 10143.0, 10117.0, 10115.0, 10129.0, 10129.0, 10123.0, 10135.0, 10147.0, 10145.0, 10149.0, 10125.0, 10121.0, 10136.0, 10148.0, 10157.0, 10149.0, 10147.0, 10168.0, 10187.0, 10182.0, 10181.0, 10165.0, 10166.0, 10201.0, 10211.0, 10201.0, 10203.0, 10186.0, 10182.0, 10188.0, 10196.0, 10184.0, 10158.0, 10138.0, 10138.0, 10148.0, 10168.0, 10162.0, 10155.0, 10141.0, 10135.0, 10147.0, 10133.0, 10140.0, 10143.0, 10154.0, 10140.0, 10156.0, 10195.0, 10207.0, 10209.0, 10213.0, 10173.0, 10121.0, 10086.0, 10095.0, 10095.0, 10098.0, 10102.0, 10117.0, 10089.0, 10082.0, 10080.0, 10092.0, 10084.0, 10076.0, 10067.0, 10065.0, 10081.0, 10113.0, 10133.0, 10157.0, 10155.0, 10134.0, 10136.0, 10150.0, 10180.0],
      "WindowWidth": [22420.0, 22145.0, 22016.0, 21974.0, 21938.0, 21899.0, 21860.0, 21827.0, 21813.0, 21805.0, 21816.0, 21865.0, 21890.0, 21925.0, 21888.0, 21863.0, 21887.0, 21919.0, 21918.0, 21908.0, 21938.0, 21907.0, 21931.0, 21933.0, 21917.0, 21948.0, 21941.0, 21959.0, 21945.0, 21956.0, 21993.0, 22002.0, 21987.0, 21951.0, 21914.0, 21877.0, 21862.0, 21890.0, 21904.0, 21889.0, 21865.0, 21838.0, 21863.0, 21900.0, 21876.0, 21870.0, 21903.0, 21926.0, 21915.0, 21889.0, 21865.0, 21879.0, 21863.0, 21884.0, 21867.0, 21848.0, 21835.0, 21834.0, 21870.0, 21865.0, 21866.0, 21849.0, 21889.0, 21907.0, 21914.0, 21892.0, 21886.0, 21919.0, 21918.0, 21896.0, 21930.0, 21920.0, 21920.0, 21899.0, 21894.0, 21895.0, 21895.0, 21906.0, 21893.0, 21883.0, 21858.0, 21851.0, 21871.0, 21867.0, 21880.0, 21859.0, 21835.0, 21826.0, 21895.0, 21935.0, 21929.0, 21883.0, 21848.0, 21868.0, 21853.0, 21860.0, 21834.0, 21813.0, 21813.0, 21823.0, 21868.0, 21881.0, 21852.0, 21800.0, 21792.0, 21857.0, 21880.0, 21919.0, 21918.0, 21866.0, 21843.0, 21848.0, 21850.0, 21804.0, 21744.0, 21736.0, 21767.0, 21764.0, 21747.0, 21780.0, 21811.0, 21810.0, 21817.0, 21760.0, 21748.0, 21779.0, 21810.0, 21831.0, 21814.0, 21805.0, 21850.0, 21897.0, 21889.0, 21885.0, 21848.0, 21853.0, 21926.0, 21950.0, 21933.0, 21929.0, 21900.0, 21888.0, 21901.0, 21917.0, 21894.0, 21835.0, 21786.0, 21787.0, 21810.0, 21853.0, 21840.0, 21824.0, 21796.0, 21785.0, 21808.0, 21782.0, 21797.0, 21804.0, 21825.0, 21797.0, 21834.0, 21917.0, 21959.0, 21955.0, 21964.0, 21882.0, 21756.0, 21676.0, 21688.0, 21690.0, 21705.0, 21709.0, 21746.0, 21686.0, 21671.0, 21660.0, 21681.0, 21662.0, 21643.0, 21619.0, 21613.0, 21649.0, 21716.0, 21766.0, 21820.0, 21825.0, 21779.0, 21779.0, 21811.0, 21877.0]
    },
    "slices": {}
  }
}