{
  "AcquisitionMatrixPE": 104,
  "AcquisitionNumber": 1,
  "AcquisitionTime": "15:49:29.057500",
  "BandwidthPerPixelPhaseEncode": 17.17,
  "BaseResolution": 104,
  "BodyPartExamined": "BRAIN",
  "CoilString": "HC1-7;NC1_2",
  "ConsistencyInfo": "N4_VE11C_LATEST_20160120",
  "ConversionSoftware": "dcm2niix",
  "ConversionSoftwareVersion": "v1.0.20190902",
  "DerivedVendorReportedEchoSpacing": 0.000560011,
  "DeviceSerialNumber": "167006",
  "DwellTime": 2.1e-06,
  "EchoTime": 0.037,
  "EchoTrainLength": 104,
  "EffectiveEchoSpacing": 0.000560011,
  "FlipAngle": 52,
  "ImageComments": "Unaliased_MB4_PE3_LB",
  "ImageOrientationPatientDICOM": [0.999484, -0.0308142, 0.00904607, 0.0321085, 0.953335, -0.300202],
  "ImageType": [
    "ORIGINAL",
    "PRIMARY",
    "M",
    "MB",
    "ND",
    "MOSAIC"
],
  "ImagingFrequency": 123.259,
  "InPlanePhaseEncodingDirectionDICOM": "COL",
  "InstitutionAddress": "Chemin_Queen-Mary_4565_Montreal_District_CA_H3W_1W5",
  "InstitutionName": "IUGM",
  "InstitutionalDepartmentName": "Department",
  "MRAcquisitionType": "2D",
  "MagneticFieldStrength": 3,
  "Manufacturer": "Siemens",
  "ManufacturersModelName": "Prisma_fit",
  "Modality": "MR",
  "MultibandAccelerationFactor": 4,
  "PartialFourier": 1,
  "PatientPosition": "HFS",
  "PercentPhaseFOV": 100,
  "PhaseEncodingDirection": "j",
  "PhaseEncodingSteps": 104,
  "PhaseResolution": 1,
  "PixelBandwidth": 2290,
  "ProcedureStepDescription": "memory_things",
  "ProtocolName": "func_task-things_run-4",
  "PulseSequenceDetails": "%CustomerSeq%_cmrr_mbep2d_bold",
  "ReceiveCoilActiveElements": "HC1-7;NC1,2",
  "ReceiveCoilName": "HeadNeck_64",
  "ReconMatrixPE": 104,
  "RepetitionTime": 1.49,
  "SAR": 0.0549325,
  "ScanOptions": "FS",
  "ScanningSequence": "EP",
  "SequenceName": "epfid2d1_104",
  "SequenceVariant": "SK_SS",
  "SeriesDescription": "func_task-things_run-4",
  "SeriesNumber": 19,
  "ShimSetting": [623, -7264, -8813, 599, -20, -245, -37, -16],
  "SliceThickness": 2,
  "SliceTiming": [0, 0.785, 0.1, 0.8825, 0.1975, 0.98, 0.295, 1.08, 0.3925, 1.1775, 0.49, 1.275, 0.59, 1.3725, 0.6875, 0, 0.785, 0.1, 0.8825, 0.1975, 0.98, 0.295, 1.08, 0.3925, 1.1775, 0.49, 1.275, 0.59, 1.3725, 0.6875, 0, 0.785, 0.1, 0.8825, 0.1975, 0.98, 0.295, 1.08, 0.3925, 1.1775, 0.49, 1.275, 0.59, 1.3725, 0.6875, 0, 0.785, 0.1, 0.8825, 0.1975, 0.98, 0.295, 1.08, 0.3925, 1.1775, 0.49, 1.275, 0.59, 1.3725, 0.6875],
  "SoftwareVersions": "syngo_MR_E11",
  "SpacingBetweenSlices": 2,
  "StationName": "MRC35049",
  "TaskName": "things",
  "TotalReadoutTime": 0.0576811,
  "TxRefAmp": 272.281,
  "WipMemBlock": "674bcd47-b144-4bb0-a1a5-fb8fb73f89a7||Sequence: R016 ve11c/master r/e634e98; Dec 19 2017 11:00:25 by eja",
  "dcmmeta_affine": [
    [-1.9989683628082275, 0.06421700865030289, -0.0012531279353424907, 104.25762939453125],
    [0.06162847951054573, 1.9066702127456665, -0.6006753444671631, -67.75911712646484],
    [0.018092136830091476, 0.6004040837287903, 1.907665491104126, -60.60963439941406],
    [0.0, 0.0, 0.0, 1.0]
],
  "dcmmeta_reorient_transform": [
    [0.0, -1.0, 0.0, 103.0],
    [1.0, 0.0, 0.0, 0.0],
    [0.0, 0.0, 1.0, 0.0],
    [0.0, 0.0, 0.0, 1.0]
],
  "dcmmeta_shape": [104, 104, 60, 190],
  "dcmmeta_slice_dim": 2,
  "dcmmeta_version": 0.6,
  "global": {
    "const": {
      "AcquisitionMatrix": [104, 0, 0, 104],
      "AngioFlag": "N",
      "BitsAllocated": 16,
      "BitsStored": 16,
      "BodyPartExamined": "BRAIN",
      "Columns": 832,
      "EchoNumbers": 1,
      "EchoTime": 37.0,
      "EchoTrainLength": 104,
      "FlipAngle": 52.0,
      "HighBit": 15,
      "ImageOrientationPatient": [0.99948419260541, -0.0308142398933, 0.00904606830127, 0.0321085058747, 0.95333507698287, -0.3002020566961],
      "ImagePositionPatient": [-861.87146532443, -800.22308169775, 213.1935474049],
      "ImageType": [
        "ORIGINAL",
        "PRIMARY",
        "M",
        "MB",
        "ND",
        "MOSAIC"
],
      "ImagedNucleus": "1H",
      "ImagingFrequency": 123.258897,
      "InPlanePhaseEncodingDirection": "COL",
      "MRAcquisitionType": "2D",
      "MagneticFieldStrength": 3.0,
      "Manufacturer": "SIEMENS",
      "ManufacturerModelName": "Prisma_fit",
      "Modality": "MR",
      "NumberOfAverages": 1.0,
      "NumberOfPhaseEncodingSteps": 104,
      "PercentPhaseFieldOfView": 100.0,
      "PercentSampling": 100.0,
      "PerformedProcedureStepStartTime": "145447.123000",
      "PhotometricInterpretation": "MONOCHROME2",
      "PixelBandwidth": 2290.0,
      "PixelRepresentation": 0,
      "PixelSpacing": [2.0, 2.0],
      "ProtocolName": "func_task-things_run-4",
      "RepetitionTime": 1490.0,
      "Rows": 832,
      "SAR": 0.05493245776295,
      "SamplesPerPixel": 1,
      "ScanOptions": "FS",
      "ScanningSequence": "EP",
      "SequenceName": "epfid2d1_104",
      "SequenceVariant": [
        "SK",
        "SS"
],
      "SeriesDescription": "func_task-things_run-4",
      "SeriesNumber": 19,
      "SeriesTime": "155055.779000",
      "SliceLocation": -37.526165000658,
      "SliceThickness": 2.0,
      "SmallestImagePixelValue": 0,
      "SoftwareVersions": "syngo MR E11",
      "SpacingBetweenSlices": 1.999999987883,
      "SpecificCharacterSet": "ISO_IR 100",
      "StudyID": "1",
      "StudyTime": "145447.006000",
      "TransmitCoilName": "Body",
      "VariableFlipAngleFlag": "N",
      "WindowCenterWidthExplanation": "Algo1",
      "dBdt": 0.0},
    "slices": {}
  },
  "time": {
    "samples": {
      "AcquisitionNumber": [1, 2, 3, 4, 5, 6, 7, 8, 9, 10, 11, 12, 13, 14, 15, 16, 17, 18, 19, 20, 21, 22, 23, 24, 25, 26, 27, 28, 29, 30, 31, 32, 33, 34, 35, 36, 37, 38, 39, 40, 41, 42, 43, 44, 45, 46, 47, 48, 49, 50, 51, 52, 53, 54, 55, 56, 57, 58, 59, 60, 61, 62, 63, 64, 65, 66, 67, 68, 69, 70, 71, 72, 73, 74, 75, 76, 77, 78, 79, 80, 81, 82, 83, 84, 85, 86, 87, 88, 89, 90, 91, 92, 93, 94, 95, 96, 97, 98, 99, 100, 101, 102, 103, 104, 105, 106, 107, 108, 109, 110, 111, 112, 113, 114, 115, 116, 117, 118, 119, 120, 121, 122, 123, 124, 125, 126, 127, 128, 129, 130, 131, 132, 133, 134, 135, 136, 137, 138, 139, 140, 141, 142, 143, 144, 145, 146, 147, 148, 149, 150, 151, 152, 153, 154, 155, 156, 157, 158, 159, 160, 161, 162, 163, 164, 165, 166, 167, 168, 169, 170, 171, 172, 173, 174, 175, 176, 177, 178, 179, 180, 181, 182, 183, 184, 185, 186, 187, 188, 189, 190],
      "AcquisitionTime": ["154929.057500", "154930.547500", "154932.037500", "154933.527500", "154935.017500", "154936.507500", "154937.997500", "154939.487500", "154940.977500", "154942.467500", "154943.957500", "154945.447500", "154946.937500", "154948.427500", "154949.917500", "154951.407500", "154952.897500", "154954.387500", "154955.877500", "154957.367500", "154958.857500", "155000.347500", "155001.837500", "155003.327500", "155004.817500", "155006.307500", "155007.797500", "155009.287500", "155010.777500", "155012.267500", "155013.757500", "155015.247500", "155016.737500", "155018.227500", "155019.717500", "155021.207500", "155022.697500", "155024.187500", "155025.677500", "155027.167500", "155028.657500", "155030.147500", "155031.637500", "155033.127500", "155034.617500", "155036.107500", "155037.597500", "155039.087500", "155040.577500", "155042.067500", "155043.557500", "155045.047500", "155046.537500", "155048.027500", "155049.517500", "155051.007500", "155052.497500", "155053.987500", "155055.477500", "155056.967500", "155058.457500", "155059.947500", "155101.437500", "155102.927500", "155104.417500", "155105.907500", "155107.397500", "155108.887500", "155110.377500", "155111.867500", "155113.357500", "155114.847500", "155116.337500", "155117.827500", "155119.317500", "155120.807500", "155122.297500", "155123.787500", "155125.277500", "155126.767500", "155128.257500", "155129.747500", "155131.237500", "155132.727500", "155134.217500", "155135.707500", "155137.197500", "155138.687500", "155140.177500", "155141.667500", "155143.157500", "155144.647500", "155146.137500", "155147.627500", "155149.117500", "155150.607500", "155152.097500", "155153.587500", "155155.077500", "155156.567500", "155158.057500", "155159.547500", "155201.037500", "155202.527500", "155204.017500", "155205.507500", "155206.997500", "155208.487500", "155209.977500", "155211.467500", "155212.957500", "155214.447500", "155215.937500", "155217.427500", "155218.917500", "155220.407500", "155221.897500", "155223.387500", "155224.877500", "155226.367500", "155227.857500", "155229.347500", "155230.837500", "155232.327500", "155233.817500", "155235.307500", "155236.797500", "155238.287500", "155239.777500", "155241.267500", "155242.757500", "155244.247500", "155245.737500", "155247.227500", "155248.717500", "155250.207500", "155251.697500", "155253.187500", "155254.677500", "155256.167500", "155257.657500", "155259.147500", "155300.637500", "155302.127500", "155303.617500", "155305.107500", "155306.597500", "155308.087500", "155309.577500", "155311.067500", "155312.557500", "155314.047500", "155315.537500", "155317.027500", "155318.517500", "155320.007500", "155321.497500", "155322.987500", "155324.477500", "155325.967500", "155327.457500", "155328.947500", "155330.437500", "155331.927500", "155333.417500", "155334.907500", "155336.397500", "155337.887500", "155339.377500", "155340.867500", "155342.357500", "155343.847500", "155345.337500", "155346.827500", "155348.317500", "155349.807500", "155351.297500", "155352.787500", "155354.277500", "155355.767500", "155357.257500", "155358.747500", "155400.237500", "155401.727500", "155403.217500", "155404.707500", "155406.197500", "155407.687500", "155409.177500", "155410.667500"],
      "ContentTime": ["155055.782000", "155055.786000", "155055.789000", "155055.792000", "155055.796000", "155055.799000", "155055.802000", "155055.806000", "155055.809000", "155055.813000", "155055.816000", "155055.819000", "155055.823000", "155055.826000", "155055.829000", "155055.833000", "155055.836000", "155055.840000", "155055.843000", "155055.846000", "155055.850000", "155055.866000", "155055.869000", "155055.872000", "155055.876000", "155055.879000", "155055.882000", "155055.886000", "155055.893000", "155055.896000", "155055.899000", "155055.903000", "155055.906000", "155115.729000", "155115.733000", "155115.736000", "155115.740000", "155115.743000", "155115.746000", "155115.750000", "155115.753000", "155115.757000", "155115.760000", "155115.763000", "155115.767000", "155115.770000", "155115.773000", "155115.777000", "155115.780000", "155115.784000", "155115.787000", "155115.791000", "155115.794000", "155135.729000", "155135.733000", "155135.736000", "155135.740000", "155135.743000", "155135.746000", "155135.750000", "155135.753000", "155135.757000", "155135.760000", "155135.763000", "155135.767000", "155135.770000", "155135.773000", "155135.777000", "155135.780000", "155135.784000", "155135.787000", "155135.790000", "155135.794000", "155155.728000", "155155.732000", "155155.735000", "155155.739000", "155155.742000", "155155.746000", "155155.749000", "155155.753000", "155155.756000", "155155.759000", "155155.763000", "155155.766000", "155155.769000", "155155.773000", "155155.776000", "155155.780000", "155155.783000", "155155.786000", "155155.790000", "155155.793000", "155155.796000", "155235.729000", "155235.734000", "155235.737000", "155235.741000", "155235.745000", "155235.749000", "155235.753000", "155235.756000", "155235.760000", "155235.763000", "155235.766000", "155235.770000", "155235.773000", "155235.776000", "155235.780000", "155235.783000", "155235.787000", "155235.790000", "155235.794000", "155235.797000", "155235.800000", "155235.804000", "155235.807000", "155235.810000", "155235.890000", "155235.893000", "155235.897000", "155235.900000", "155235.916000", "155235.920000", "155315.729000", "155315.733000", "155315.736000", "155315.740000", "155315.743000", "155315.747000", "155315.750000", "155315.754000", "155315.757000", "155315.760000", "155315.764000", "155315.767000", "155315.771000", "155315.774000", "155315.777000", "155315.781000", "155315.784000", "155315.788000", "155315.791000", "155315.795000", "155315.798000", "155315.801000", "155315.805000", "155315.808000", "155315.812000", "155315.815000", "155315.818000", "155335.729000", "155335.733000", "155335.736000", "155335.740000", "155335.743000", "155335.747000", "155335.750000", "155335.753000", "155335.757000", "155335.760000", "155335.764000", "155335.767000", "155335.770000", "155335.774000", "155412.653000", "155412.657000", "155412.660000", "155412.664000", "155412.667000", "155412.671000", "155412.674000", "155412.678000", "155412.681000", "155412.685000", "155412.688000", "155412.692000", "155412.695000", "155412.699000", "155412.702000", "155412.706000", "155412.710000", "155412.714000", "155412.717000", "155412.721000", "155412.724000", "155412.728000", "155412.731000", "155412.735000", "155412.738000"],
      "InstanceCreationTime": ["155055.782000", "155055.786000", "155055.789000", "155055.792000", "155055.796000", "155055.799000", "155055.802000", "155055.806000", "155055.809000", "155055.813000", "155055.816000", "155055.819000", "155055.823000", "155055.826000", "155055.829000", "155055.833000", "155055.836000", "155055.840000", "155055.843000", "155055.846000", "155055.850000", "155055.866000", "155055.869000", "155055.872000", "155055.876000", "155055.879000", "155055.882000", "155055.886000", "155055.893000", "155055.896000", "155055.899000", "155055.903000", "155055.906000", "155115.729000", "155115.733000", "155115.736000", "155115.740000", "155115.743000", "155115.746000", "155115.750000", "155115.753000", "155115.757000", "155115.760000", "155115.763000", "155115.767000", "155115.770000", "155115.773000", "155115.777000", "155115.780000", "155115.784000", "155115.787000", "155115.791000", "155115.794000", "155135.729000", "155135.733000", "155135.736000", "155135.740000", "155135.743000", "155135.746000", "155135.750000", "155135.753000", "155135.757000", "155135.760000", "155135.763000", "155135.767000", "155135.770000", "155135.773000", "155135.777000", "155135.780000", "155135.784000", "155135.787000", "155135.790000", "155135.794000", "155155.728000", "155155.732000", "155155.735000", "155155.739000", "155155.742000", "155155.746000", "155155.749000", "155155.753000", "155155.756000", "155155.759000", "155155.763000", "155155.766000", "155155.769000", "155155.773000", "155155.776000", "155155.780000", "155155.783000", "155155.786000", "155155.790000", "155155.793000", "155155.796000", "155235.729000", "155235.734000", "155235.737000", "155235.741000", "155235.745000", "155235.749000", "155235.753000", "155235.756000", "155235.760000", "155235.763000", "155235.766000", "155235.770000", "155235.773000", "155235.776000", "155235.780000", "155235.783000", "155235.787000", "155235.790000", "155235.794000", "155235.797000", "155235.800000", "155235.804000", "155235.807000", "155235.810000", "155235.890000", "155235.893000", "155235.897000", "155235.900000", "155235.916000", "155235.920000", "155315.729000", "155315.733000", "155315.736000", "155315.740000", "155315.743000", "155315.747000", "155315.750000", "155315.754000", "155315.757000", "155315.760000", "155315.764000", "155315.767000", "155315.771000", "155315.774000", "155315.777000", "155315.781000", "155315.784000", "155315.788000", "155315.791000", "155315.795000", "155315.798000", "155315.801000", "155315.805000", "155315.808000", "155315.812000", "155315.815000", "155315.818000", "155335.729000", "155335.733000", "155335.736000", "155335.740000", "155335.743000", "155335.747000", "155335.750000", "155335.753000", "155335.757000", "155335.760000", "155335.764000", "155335.767000", "155335.770000", "155335.774000", "155412.653000", "155412.657000", "155412.660000", "155412.664000", "155412.667000", "155412.671000", "155412.674000", "155412.678000", "155412.681000", "155412.685000", "155412.688000", "155412.692000", "155412.695000", "155412.699000", "155412.702000", "155412.706000", "155412.710000", "155412.714000", "155412.717000", "155412.721000", "155412.724000", "155412.728000", "155412.731000", "155412.735000", "155412.738000"],
      "InstanceNumber": [1, 2, 3, 4, 5, 6, 7, 8, 9, 10, 11, 12, 13, 14, 15, 16, 17, 18, 19, 20, 21, 22, 23, 24, 25, 26, 27, 28, 29, 30, 31, 32, 33, 34, 35, 36, 37, 38, 39, 40, 41, 42, 43, 44, 45, 46, 47, 48, 49, 50, 51, 52, 53, 54, 55, 56, 57, 58, 59, 60, 61, 62, 63, 64, 65, 66, 67, 68, 69, 70, 71, 72, 73, 74, 75, 76, 77, 78, 79, 80, 81, 82, 83, 84, 85, 86, 87, 88, 89, 90, 91, 92, 93, 94, 95, 96, 97, 98, 99, 100, 101, 102, 103, 104, 105, 106, 107, 108, 109, 110, 111, 112, 113, 114, 115, 116, 117, 118, 119, 120, 121, 122, 123, 124, 125, 126, 127, 128, 129, 130, 131, 132, 133, 134, 135, 136, 137, 138, 139, 140, 141, 142, 143, 144, 145, 146, 147, 148, 149, 150, 151, 152, 153, 154, 155, 156, 157, 158, 159, 160, 161, 162, 163, 164, 165, 166, 167, 168, 169, 170, 171, 172, 173, 174, 175, 176, 177, 178, 179, 180, 181, 182, 183, 184, 185, 186, 187, 188, 189, 190],
      "LargestImagePixelValue": [42951, 41034, 41651, 40766, 39965, 40293, 39866, 39719, 40317, 40767, 40300, 40381, 40660, 39493, 39784, 40313, 39166, 39932, 40025, 40747, 40020, 39712, 40822, 41139, 40350, 39222, 39212, 39441, 39858, 40378, 39287, 38104, 37571, 37641, 37824, 37646, 37876, 37851, 38632, 39079, 39492, 38970, 38405, 38506, 38422, 39574, 40658, 39230, 39563, 40513, 39340, 39241, 40101, 39445, 38684, 39469, 39402, 40152, 40393, 40215, 39842, 39559, 39589, 39910, 39445, 40452, 39581, 39432, 39678, 38870, 39640, 39298, 37306, 40659, 39428, 38901, 40144, 39634, 39932, 41009, 39965, 40578, 39018, 38496, 38513, 39410, 39448, 38723, 38422, 38231, 39178, 38804, 39004, 39355, 38272, 39653, 39524, 38727, 38931, 39131, 39425, 38962, 39505, 39873, 39317, 39239, 40061, 38962, 38839, 39260, 39843, 39656, 39782, 40036, 39761, 40688, 39756, 39157, 39386, 39339, 39973, 39693, 39902, 40971, 40608, 40720, 39941, 40184, 39976, 39424, 40099, 40211, 40200, 39279, 39901, 40297, 40504, 40779, 40714, 39888, 40762, 40072, 40389, 41016, 39467, 40607, 40764, 40148, 41426, 40672, 39717, 40276, 39136, 39377, 38711, 39180, 38554, 38821, 38706, 38270, 38381, 39098, 38286, 38107, 38523, 37881, 39621, 39958, 39911, 39818, 39668, 38844, 38421, 39691, 40087, 37937, 39643, 39667, 38588, 40172, 40056, 38114, 39485, 39006, 38196, 38451, 38500, 38671, 38629, 38770],
      "WindowCenter": [10229.0, 10147.0, 10147.0, 10137.0, 10154.0, 10146.0, 10138.0, 10130.0, 10113.0, 10100.0, 10096.0, 10109.0, 10117.0, 10101.0, 10090.0, 10087.0, 10081.0, 10134.0, 10136.0, 10119.0, 10097.0, 10093.0, 10122.0, 10150.0, 10151.0, 10117.0, 10082.0, 10070.0, 10080.0, 10119.0, 10116.0, 10077.0, 10065.0, 10060.0, 10030.0, 9996.0, 9982.0, 9965.0, 9989.0, 10013.0, 10046.0, 10083.0, 10091.0, 10090.0, 10088.0, 10090.0, 10098.0, 10082.0, 10065.0, 10068.0, 10078.0, 10109.0, 10123.0, 10104.0, 10084.0, 10077.0, 10084.0, 10111.0, 10120.0, 10128.0, 10115.0, 10093.0, 10082.0, 10072.0, 10064.0, 10085.0, 10086.0, 10080.0, 10073.0, 10062.0, 10081.0, 10077.0, 10060.0, 10107.0, 10097.0, 10079.0, 10079.0, 10087.0, 10088.0, 10092.0, 10097.0, 10080.0, 10066.0, 10038.0, 10021.0, 10002.0, 9973.0, 9951.0, 9967.0, 9979.0, 10000.0, 10015.0, 10051.0, 10099.0, 10107.0, 10093.0, 10076.0, 10084.0, 10118.0, 10133.0, 10135.0, 10114.0, 10085.0, 10078.0, 10090.0, 10080.0, 10077.0, 10057.0, 10053.0, 10027.0, 10005.0, 9988.0, 10012.0, 10037.0, 10039.0, 10076.0, 10097.0, 10103.0, 10100.0, 10078.0, 10077.0, 10079.0, 10109.0, 10126.0, 10104.0, 10083.0, 10076.0, 10092.0, 10097.0, 10078.0, 10074.0, 10061.0, 10051.0, 10046.0, 10071.0, 10086.0, 10087.0, 10092.0, 10078.0, 10070.0, 10091.0, 10111.0, 10119.0, 10122.0, 10091.0, 10075.0, 10065.0, 10067.0, 10069.0, 10060.0, 10050.0, 10083.0, 10011.0, 10027.0, 9986.0, 9959.0, 9920.0, 9902.0, 9921.0, 9943.0, 9969.0, 9994.0, 9997.0, 9992.0, 9997.0, 9996.0, 10064.0, 10114.0, 10110.0, 10074.0, 10069.0, 10072.0, 10092.0, 10100.0, 10107.0, 10116.0, 10120.0, 10102.0, 10083.0, 10095.0, 10089.0, 10081.0, 10095.0, 10082.0, 10054.0, 10034.0, 10017.0, 10027.0, 10021.0, 10012.0],
      "WindowWidth": [22078.0, 21859.0, 21831.0, 21795.0, 21825.0, 21801.0, 21783.0, 21761.0, 21720.0, 21687.0, 21675.0, 21711.0, 21730.0, 21700.0, 21676.0, 21665.0, 21658.0, 21769.0, 21774.0, 21735.0, 21688.0, 21676.0, 21735.0, 21802.0, 21814.0, 21742.0, 21660.0, 21631.0, 21648.0, 21737.0, 21747.0, 21659.0, 21641.0, 21620.0, 21545.0, 21464.0, 21433.0, 21397.0, 21447.0, 21500.0, 21575.0, 21663.0, 21685.0, 21678.0, 21672.0, 21672.0, 21684.0, 21652.0, 21613.0, 21617.0, 21645.0, 21718.0, 21747.0, 21710.0, 21669.0, 21648.0, 21665.0, 21719.0, 21740.0, 21758.0, 21732.0, 21684.0, 21659.0, 21635.0, 21618.0, 21663.0, 21665.0, 21654.0, 21639.0, 21619.0, 21658.0, 21654.0, 21622.0, 21713.0, 21697.0, 21660.0, 21654.0, 21672.0, 21675.0, 21680.0, 21701.0, 21666.0, 21629.0, 21557.0, 21518.0, 21471.0, 21407.0, 21364.0, 21402.0, 21435.0, 21476.0, 21511.0, 21592.0, 21699.0, 21724.0, 21685.0, 21646.0, 21664.0, 21741.0, 21772.0, 21778.0, 21732.0, 21667.0, 21650.0, 21678.0, 21659.0, 21644.0, 21605.0, 21597.0, 21535.0, 21479.0, 21444.0, 21498.0, 21552.0, 21559.0, 21642.0, 21695.0, 21711.0, 21700.0, 21651.0, 21644.0, 21649.0, 21712.0, 21750.0, 21702.0, 21652.0, 21637.0, 21673.0, 21690.0, 21652.0, 21641.0, 21609.0, 21587.0, 21579.0, 21634.0, 21666.0, 21667.0, 21675.0, 21647.0, 21631.0, 21676.0, 21725.0, 21744.0, 21747.0, 21685.0, 21639.0, 21617.0, 21621.0, 21618.0, 21601.0, 21592.0, 21677.0, 21498.0, 21543.0, 21447.0, 21380.0, 21298.0, 21259.0, 21294.0, 21348.0, 21408.0, 21463.0, 21471.0, 21464.0, 21472.0, 21468.0, 21609.0, 21722.0, 21714.0, 21637.0, 21626.0, 21639.0, 21687.0, 21702.0, 21713.0, 21744.0, 21746.0, 21704.0, 21665.0, 21682.0, 21670.0, 21666.0, 21685.0, 21659.0, 21604.0, 21559.0, 21523.0, 21540.0, 21530.0, 21509.0]
    },
    "slices": {}
  }
}