{
  "AcquisitionMatrixPE": 104,
  "AcquisitionNumber": 1,
  "AcquisitionTime": "16:01:58.052500",
  "BandwidthPerPixelPhaseEncode": 17.17,
  "BaseResolution": 104,
  "BodyPartExamined": "BRAIN",
  "CoilString": "HC1-7;NC1_2",
  "ConsistencyInfo": "N4_VE11C_LATEST_20160120",
  "ConversionSoftware": "dcm2niix",
  "ConversionSoftwareVersion": "v1.0.20190902",
  "DerivedVendorReportedEchoSpacing": 0.000560011,
  "DeviceSerialNumber": "167006",
  "DwellTime": 2.1e-06,
  "EchoTime": 0.037,
  "EchoTrainLength": 104,
  "EffectiveEchoSpacing": 0.000560011,
  "FlipAngle": 52,
  "ImageComments": "Unaliased_MB4_PE3_LB",
  "ImageOrientationPatientDICOM": [0.999484, -0.0308142, 0.00904607, 0.0321085, 0.953335, -0.300202],
  "ImageType": [
    "ORIGINAL",
    "PRIMARY",
    "M",
    "MB",
    "ND",
    "MOSAIC"
],
  "ImagingFrequency": 123.259,
  "InPlanePhaseEncodingDirectionDICOM": "COL",
  "InstitutionAddress": "Chemin_Queen-Mary_4565_Montreal_District_CA_H3W_1W5",
  "InstitutionName": "IUGM",
  "InstitutionalDepartmentName": "Department",
  "MRAcquisitionType": "2D",
  "MagneticFieldStrength": 3,
  "Manufacturer": "Siemens",
  "ManufacturersModelName": "Prisma_fit",
  "Modality": "MR",
  "MultibandAccelerationFactor": 4,
  "PartialFourier": 1,
  "PatientPosition": "HFS",
  "PercentPhaseFOV": 100,
  "PhaseEncodingDirection": "j",
  "PhaseEncodingSteps": 104,
  "PhaseResolution": 1,
  "PixelBandwidth": 2290,
  "ProcedureStepDescription": "memory_things",
  "ProtocolName": "func_task-things_run-6",
  "PulseSequenceDetails": "%CustomerSeq%_cmrr_mbep2d_bold",
  "ReceiveCoilActiveElements": "HC1-7;NC1,2",
  "ReceiveCoilName": "HeadNeck_64",
  "ReconMatrixPE": 104,
  "RepetitionTime": 1.49,
  "SAR": 0.0549325,
  "ScanOptions": "FS",
  "ScanningSequence": "EP",
  "SequenceName": "epfid2d1_104",
  "SequenceVariant": "SK_SS",
  "SeriesDescription": "func_task-things_run-6",
  "SeriesNumber": 25,
  "ShimSetting": [623, -7264, -8813, 599, -20, -245, -37, -16],
  "SliceThickness": 2,
  "SliceTiming": [0, 0.7825, 0.0975, 0.8825, 0.195, 0.98, 0.2925, 1.0775, 0.3925, 1.175, 0.49, 1.2725, 0.5875, 1.37, 0.685, 0, 0.7825, 0.0975, 0.8825, 0.195, 0.98, 0.2925, 1.0775, 0.3925, 1.175, 0.49, 1.2725, 0.5875, 1.37, 0.685, 0, 0.7825, 0.0975, 0.8825, 0.195, 0.98, 0.2925, 1.0775, 0.3925, 1.175, 0.49, 1.2725, 0.5875, 1.37, 0.685, 0, 0.7825, 0.0975, 0.8825, 0.195, 0.98, 0.2925, 1.0775, 0.3925, 1.175, 0.49, 1.2725, 0.5875, 1.37, 0.685],
  "SoftwareVersions": "syngo_MR_E11",
  "SpacingBetweenSlices": 2,
  "StationName": "MRC35049",
  "TaskName": "things",
  "TotalReadoutTime": 0.0576811,
  "TxRefAmp": 272.281,
  "WipMemBlock": "fe1bb877-432e-4d50-98d2-7ba2d4471c48||Sequence: R016 ve11c/master r/e634e98; Dec 19 2017 11:00:25 by eja",
  "dcmmeta_affine": [
    [-1.9989683628082275, 0.06421700865030289, -0.0012531279353424907, 104.25762939453125],
    [0.06162847951054573, 1.9066702127456665, -0.6006753444671631, -67.75911712646484],
    [0.018092136830091476, 0.6004040837287903, 1.907665491104126, -60.60963439941406],
    [0.0, 0.0, 0.0, 1.0]
],
  "dcmmeta_reorient_transform": [
    [0.0, -1.0, 0.0, 103.0],
    [1.0, 0.0, 0.0, 0.0],
    [0.0, 0.0, 1.0, 0.0],
    [0.0, 0.0, 0.0, 1.0]
],
  "dcmmeta_shape": [104, 104, 60, 190],
  "dcmmeta_slice_dim": 2,
  "dcmmeta_version": 0.6,
  "global": {
    "const": {
      "AcquisitionMatrix": [104, 0, 0, 104],
      "AngioFlag": "N",
      "BitsAllocated": 16,
      "BitsStored": 16,
      "BodyPartExamined": "BRAIN",
      "Columns": 832,
      "EchoNumbers": 1,
      "EchoTime": 37.0,
      "EchoTrainLength": 104,
      "FlipAngle": 52.0,
      "HighBit": 15,
      "ImageOrientationPatient": [0.99948419260541, -0.0308142398933, 0.00904606830127, 0.0321085058747, 0.95333507698287, -0.3002020566961],
      "ImagePositionPatient": [-861.87146532443, -800.22308169775, 213.1935474049],
      "ImageType": [
        "ORIGINAL",
        "PRIMARY",
        "M",
        "MB",
        "ND",
        "MOSAIC"
],
      "ImagedNucleus": "1H",
      "ImagingFrequency": 123.258905,
      "InPlanePhaseEncodingDirection": "COL",
      "MRAcquisitionType": "2D",
      "MagneticFieldStrength": 3.0,
      "Manufacturer": "SIEMENS",
      "ManufacturerModelName": "Prisma_fit",
      "Modality": "MR",
      "NumberOfAverages": 1.0,
      "NumberOfPhaseEncodingSteps": 104,
      "PercentPhaseFieldOfView": 100.0,
      "PercentSampling": 100.0,
      "PerformedProcedureStepStartTime": "145447.123000",
      "PhotometricInterpretation": "MONOCHROME2",
      "PixelBandwidth": 2290.0,
      "PixelRepresentation": 0,
      "PixelSpacing": [2.0, 2.0],
      "ProtocolName": "func_task-things_run-6",
      "RepetitionTime": 1490.0,
      "Rows": 832,
      "SAR": 0.05493245776295,
      "SamplesPerPixel": 1,
      "ScanOptions": "FS",
      "ScanningSequence": "EP",
      "SequenceName": "epfid2d1_104",
      "SequenceVariant": [
        "SK",
        "SS"
],
      "SeriesDescription": "func_task-things_run-6",
      "SeriesNumber": 25,
      "SeriesTime": "160313.189000",
      "SliceLocation": -37.526165000658,
      "SliceThickness": 2.0,
      "SmallestImagePixelValue": 0,
      "SoftwareVersions": "syngo MR E11",
      "SpacingBetweenSlices": 1.999999987883,
      "SpecificCharacterSet": "ISO_IR 100",
      "StudyID": "1",
      "StudyTime": "145447.006000",
      "TransmitCoilName": "Body",
      "VariableFlipAngleFlag": "N",
      "WindowCenterWidthExplanation": "Algo1",
      "dBdt": 0.0},
    "slices": {}
  },
  "time": {
    "samples": {
      "AcquisitionNumber": [1, 2, 3, 4, 5, 6, 7, 8, 9, 10, 11, 12, 13, 14, 15, 16, 17, 18, 19, 20, 21, 22, 23, 24, 25, 26, 27, 28, 29, 30, 31, 32, 33, 34, 35, 36, 37, 38, 39, 40, 41, 42, 43, 44, 45, 46, 47, 48, 49, 50, 51, 52, 53, 54, 55, 56, 57, 58, 59, 60, 61, 62, 63, 64, 65, 66, 67, 68, 69, 70, 71, 72, 73, 74, 75, 76, 77, 78, 79, 80, 81, 82, 83, 84, 85, 86, 87, 88, 89, 90, 91, 92, 93, 94, 95, 96, 97, 98, 99, 100, 101, 102, 103, 104, 105, 106, 107, 108, 109, 110, 111, 112, 113, 114, 115, 116, 117, 118, 119, 120, 121, 122, 123, 124, 125, 126, 127, 128, 129, 130, 131, 132, 133, 134, 135, 136, 137, 138, 139, 140, 141, 142, 143, 144, 145, 146, 147, 148, 149, 150, 151, 152, 153, 154, 155, 156, 157, 158, 159, 160, 161, 162, 163, 164, 165, 166, 167, 168, 169, 170, 171, 172, 173, 174, 175, 176, 177, 178, 179, 180, 181, 182, 183, 184, 185, 186, 187, 188, 189, 190],
      "AcquisitionTime": ["160158.052500", "160159.542500", "160201.032500", "160202.522500", "160204.012500", "160205.502500", "160206.992500", "160208.482500", "160209.972500", "160211.462500", "160212.952500", "160214.442500", "160215.932500", "160217.422500", "160218.912500", "160220.402500", "160221.892500", "160223.382500", "160224.872500", "160226.362500", "160227.852500", "160229.342500", "160230.832500", "160232.322500", "160233.812500", "160235.302500", "160236.792500", "160238.282500", "160239.772500", "160241.262500", "160242.752500", "160244.242500", "160245.732500", "160247.222500", "160248.712500", "160250.202500", "160251.692500", "160253.182500", "160254.672500", "160256.162500", "160257.652500", "160259.142500", "160300.632500", "160302.122500", "160303.612500", "160305.102500", "160306.592500", "160308.082500", "160309.572500", "160311.062500", "160312.552500", "160314.042500", "160315.532500", "160317.022500", "160318.512500", "160320.002500", "160321.492500", "160322.982500", "160324.472500", "160325.962500", "160327.452500", "160328.942500", "160330.432500", "160331.922500", "160333.412500", "160334.902500", "160336.392500", "160337.882500", "160339.372500", "160340.862500", "160342.352500", "160343.842500", "160345.332500", "160346.822500", "160348.312500", "160349.802500", "160351.292500", "160352.782500", "160354.272500", "160355.762500", "160357.252500", "160358.742500", "160400.232500", "160401.722500", "160403.212500", "160404.702500", "160406.192500", "160407.682500", "160409.172500", "160410.662500", "160412.152500", "160413.642500", "160415.132500", "160416.622500", "160418.112500", "160419.602500", "160421.092500", "160422.582500", "160424.072500", "160425.562500", "160427.052500", "160428.542500", "160430.032500", "160431.522500", "160433.012500", "160434.502500", "160435.992500", "160437.482500", "160438.972500", "160440.462500", "160441.952500", "160443.442500", "160444.932500", "160446.422500", "160447.912500", "160449.402500", "160450.892500", "160452.382500", "160453.872500", "160455.362500", "160456.852500", "160458.342500", "160459.832500", "160501.322500", "160502.812500", "160504.302500", "160505.792500", "160507.282500", "160508.772500", "160510.262500", "160511.752500", "160513.242500", "160514.732500", "160516.222500", "160517.712500", "160519.202500", "160520.692500", "160522.182500", "160523.672500", "160525.162500", "160526.652500", "160528.142500", "160529.632500", "160531.122500", "160532.612500", "160534.102500", "160535.592500", "160537.082500", "160538.572500", "160540.062500", "160541.552500", "160543.042500", "160544.532500", "160546.022500", "160547.512500", "160549.002500", "160550.492500", "160551.982500", "160553.472500", "160554.962500", "160556.452500", "160557.942500", "160559.432500", "160600.922500", "160602.412500", "160603.902500", "160605.392500", "160606.882500", "160608.372500", "160609.862500", "160611.352500", "160612.842500", "160614.332500", "160615.822500", "160617.312500", "160618.802500", "160620.292500", "160621.782500", "160623.272500", "160624.762500", "160626.252500", "160627.742500", "160629.232500", "160630.722500", "160632.212500", "160633.702500", "160635.192500", "160636.682500", "160638.172500", "160639.662500"],
      "ContentTime": ["160313.192000", "160313.196000", "160313.200000", "160313.203000", "160313.206000", "160313.210000", "160313.213000", "160313.217000", "160313.221000", "160313.225000", "160313.228000", "160313.231000", "160313.235000", "160313.238000", "160313.242000", "160313.245000", "160313.249000", "160313.264000", "160313.267000", "160313.271000", "160313.274000", "160333.154000", "160333.158000", "160333.270000", "160333.285000", "160333.288000", "160333.291000", "160333.295000", "160333.298000", "160333.301000", "160333.305000", "160333.308000", "160333.312000", "160333.315000", "160333.318000", "160333.322000", "160333.325000", "160333.328000", "160333.332000", "160333.335000", "160333.338000", "160333.356000", "160353.154000", "160353.158000", "160353.161000", "160353.165000", "160353.168000", "160353.172000", "160353.175000", "160353.178000", "160353.182000", "160353.185000", "160353.188000", "160353.192000", "160353.195000", "160353.198000", "160353.202000", "160353.205000", "160353.209000", "160353.213000", "160353.216000", "160353.220000", "160413.153000", "160413.157000", "160413.161000", "160413.164000", "160413.167000", "160413.171000", "160413.174000", "160413.178000", "160413.181000", "160413.184000", "160413.188000", "160413.191000", "160413.194000", "160413.198000", "160413.201000", "160413.205000", "160413.208000", "160413.211000", "160413.215000", "160413.218000", "160433.154000", "160433.157000", "160433.161000", "160433.165000", "160433.168000", "160433.172000", "160433.175000", "160433.178000", "160433.182000", "160433.185000", "160433.189000", "160433.192000", "160433.195000", "160433.199000", "160433.202000", "160433.205000", "160433.209000", "160433.212000", "160433.215000", "160433.219000", "160513.154000", "160513.158000", "160513.162000", "160513.166000", "160513.169000", "160513.173000", "160513.176000", "160513.180000", "160513.183000", "160513.186000", "160513.190000", "160513.193000", "160513.204000", "160513.207000", "160513.211000", "160513.214000", "160513.218000", "160513.221000", "160513.225000", "160513.228000", "160513.232000", "160513.235000", "160513.239000", "160513.242000", "160513.245000", "160513.249000", "160513.253000", "160513.256000", "160553.154000", "160553.158000", "160553.162000", "160553.165000", "160553.169000", "160553.172000", "160553.176000", "160553.179000", "160553.182000", "160553.186000", "160553.190000", "160553.193000", "160553.196000", "160553.200000", "160553.203000", "160553.207000", "160553.210000", "160553.231000", "160553.234000", "160553.237000", "160553.241000", "160553.244000", "160553.248000", "160553.251000", "160553.255000", "160553.258000", "160553.262000", "160633.153000", "160633.157000", "160633.161000", "160633.164000", "160633.168000", "160633.171000", "160633.175000", "160633.178000", "160633.182000", "160633.185000", "160633.189000", "160633.192000", "160633.196000", "160633.199000", "160633.202000", "160633.206000", "160633.209000", "160633.213000", "160633.216000", "160633.220000", "160633.223000", "160633.227000", "160633.230000", "160633.233000", "160633.237000", "160633.240000", "160633.244000", "160641.778000", "160641.782000", "160641.785000", "160641.792000", "160641.796000", "160641.799000"],
      "InstanceCreationTime": ["160313.192000", "160313.196000", "160313.200000", "160313.203000", "160313.206000", "160313.210000", "160313.213000", "160313.217000", "160313.221000", "160313.225000", "160313.228000", "160313.231000", "160313.235000", "160313.238000", "160313.242000", "160313.245000", "160313.249000", "160313.264000", "160313.267000", "160313.271000", "160313.274000", "160333.154000", "160333.158000", "160333.270000", "160333.285000", "160333.288000", "160333.291000", "160333.295000", "160333.298000", "160333.301000", "160333.305000", "160333.308000", "160333.312000", "160333.315000", "160333.318000", "160333.322000", "160333.325000", "160333.328000", "160333.332000", "160333.335000", "160333.338000", "160333.356000", "160353.154000", "160353.158000", "160353.161000", "160353.165000", "160353.168000", "160353.172000", "160353.175000", "160353.178000", "160353.182000", "160353.185000", "160353.188000", "160353.192000", "160353.195000", "160353.198000", "160353.202000", "160353.205000", "160353.209000", "160353.213000", "160353.216000", "160353.220000", "160413.153000", "160413.157000", "160413.161000", "160413.164000", "160413.167000", "160413.171000", "160413.174000", "160413.178000", "160413.181000", "160413.184000", "160413.188000", "160413.191000", "160413.194000", "160413.198000", "160413.201000", "160413.205000", "160413.208000", "160413.211000", "160413.215000", "160413.218000", "160433.154000", "160433.157000", "160433.161000", "160433.165000", "160433.168000", "160433.172000", "160433.175000", "160433.178000", "160433.182000", "160433.185000", "160433.189000", "160433.192000", "160433.195000", "160433.199000", "160433.202000", "160433.205000", "160433.209000", "160433.212000", "160433.215000", "160433.219000", "160513.154000", "160513.158000", "160513.162000", "160513.166000", "160513.169000", "160513.173000", "160513.176000", "160513.180000", "160513.183000", "160513.186000", "160513.190000", "160513.193000", "160513.204000", "160513.207000", "160513.211000", "160513.214000", "160513.218000", "160513.221000", "160513.225000", "160513.228000", "160513.232000", "160513.235000", "160513.239000", "160513.242000", "160513.245000", "160513.249000", "160513.253000", "160513.256000", "160553.154000", "160553.158000", "160553.162000", "160553.165000", "160553.169000", "160553.172000", "160553.176000", "160553.179000", "160553.182000", "160553.186000", "160553.190000", "160553.193000", "160553.196000", "160553.200000", "160553.203000", "160553.207000", "160553.210000", "160553.231000", "160553.234000", "160553.237000", "160553.241000", "160553.244000", "160553.248000", "160553.251000", "160553.255000", "160553.258000", "160553.262000", "160633.153000", "160633.157000", "160633.161000", "160633.164000", "160633.168000", "160633.171000", "160633.175000", "160633.178000", "160633.182000", "160633.185000", "160633.189000", "160633.192000", "160633.196000", "160633.199000", "160633.202000", "160633.206000", "160633.209000", "160633.213000", "160633.216000", "160633.220000", "160633.223000", "160633.227000", "160633.230000", "160633.233000", "160633.237000", "160633.240000", "160633.244000", "160641.778000", "160641.782000", "160641.785000", "160641.792000", "160641.796000", "160641.799000"],
      "InstanceNumber": [1, 2, 3, 4, 5, 6, 7, 8, 9, 10, 11, 12, 13, 14, 15, 16, 17, 18, 19, 20, 21, 22, 23, 24, 25, 26, 27, 28, 29, 30, 31, 32, 33, 34, 35, 36, 37, 38, 39, 40, 41, 42, 43, 44, 45, 46, 47, 48, 49, 50, 51, 52, 53, 54, 55, 56, 57, 58, 59, 60, 61, 62, 63, 64, 65, 66, 67, 68, 69, 70, 71, 72, 73, 74, 75, 76, 77, 78, 79, 80, 81, 82, 83, 84, 85, 86, 87, 88, 89, 90, 91, 92, 93, 94, 95, 96, 97, 98, 99, 100, 101, 102, 103, 104, 105, 106, 107, 108, 109, 110, 111, 112, 113, 114, 115, 116, 117, 118, 119, 120, 121, 122, 123, 124, 125, 126, 127, 128, 129, 130, 131, 132, 133, 134, 135, 136, 137, 138, 139, 140, 141, 142, 143, 144, 145, 146, 147, 148, 149, 150, 151, 152, 153, 154, 155, 156, 157, 158, 159, 160, 161, 162, 163, 164, 165, 166, 167, 168, 169, 170, 171, 172, 173, 174, 175, 176, 177, 178, 179, 180, 181, 182, 183, 184, 185, 186, 187, 188, 189, 190],
      "LargestImagePixelValue": [42407, 40240, 41303, 39929, 38833, 40276, 39651, 39077, 40316, 40976, 39167, 38901, 40329, 40168, 39349, 38845, 38725, 38620, 40615, 40913, 39730, 38899, 40322, 39067, 40228, 39766, 39457, 39864, 39286, 40472, 38753, 39999, 38815, 39909, 39277, 39127, 39357, 39583, 39529, 39639, 40445, 39423, 39917, 39653, 39459, 40303, 39637, 39791, 39753, 40563, 39498, 39051, 39587, 39114, 39630, 39816, 39042, 40005, 39668, 39060, 39702, 39110, 39069, 39756, 39284, 39589, 38967, 39653, 39239, 39833, 39511, 39136, 39414, 38930, 39491, 39825, 39642, 39893, 39663, 39421, 39098, 40596, 39478, 39598, 40636, 39546, 40145, 39204, 39802, 39466, 40048, 39293, 39226, 40615, 39125, 40162, 39084, 39329, 40837, 41020, 40437, 40209, 40361, 40321, 40274, 40266, 40139, 39143, 39633, 40942, 39668, 40478, 41165, 38645, 40130, 39566, 39237, 38892, 39309, 38940, 39208, 39743, 39643, 39384, 40804, 39478, 39540, 39975, 39792, 39428, 39027, 38614, 40258, 39924, 39372, 39567, 39585, 39778, 39348, 38939, 39229, 39689, 39766, 39258, 39598, 39968, 40200, 40788, 41340, 39487, 39402, 39403, 39335, 38817, 38857, 39147, 39318, 39876, 39590, 39058, 39478, 39168, 39354, 38659, 39003, 39207, 38984, 39453, 39103, 38692, 39407, 40336, 40187, 40050, 40991, 39340, 40395, 39567, 39325, 39287, 40377, 40847, 40824, 39404, 39508, 39801, 40264, 40334, 40144, 40272],
      "WindowCenter": [10162.0, 10076.0, 10069.0, 10063.0, 10049.0, 10057.0, 10050.0, 10060.0, 10087.0, 10094.0, 10087.0, 10086.0, 10097.0, 10111.0, 10104.0, 10075.0, 10056.0, 10045.0, 10069.0, 10094.0, 10079.0, 10034.0, 10039.0, 10052.0, 10104.0, 10112.0, 10091.0, 10069.0, 10066.0, 10102.0, 10098.0, 10102.0, 10068.0, 10073.0, 10061.0, 10054.0, 10052.0, 10052.0, 10065.0, 10083.0, 10090.0, 10072.0, 10052.0, 10043.0, 10050.0, 10058.0, 10051.0, 10052.0, 10047.0, 10039.0, 10028.0, 10027.0, 10025.0, 10021.0, 10041.0, 10044.0, 10047.0, 10066.0, 10068.0, 10073.0, 10073.0, 10057.0, 10058.0, 10060.0, 10054.0, 10069.0, 10073.0, 10080.0, 10073.0, 10066.0, 10044.0, 10054.0, 10078.0, 10074.0, 10081.0, 10065.0, 10053.0, 10060.0, 10055.0, 10032.0, 10054.0, 10098.0, 10084.0, 10070.0, 10082.0, 10064.0, 10044.0, 10032.0, 10044.0, 10046.0, 10053.0, 10048.0, 10064.0, 10109.0, 10108.0, 10097.0, 10046.0, 10037.0, 10056.0, 10057.0, 10039.0, 10075.0, 10083.0, 10051.0, 10017.0, 10005.0, 10019.0, 10020.0, 10020.0, 10047.0, 10056.0, 10058.0, 10061.0, 10028.0, 10047.0, 10021.0, 9983.0, 9943.0, 9940.0, 9966.0, 10001.0, 10017.0, 10040.0, 10061.0, 10097.0, 10077.0, 10090.0, 10129.0, 10155.0, 10138.0, 10105.0, 10077.0, 10069.0, 10072.0, 10076.0, 10060.0, 10038.0, 10028.0, 10052.0, 10067.0, 10059.0, 10039.0, 10028.0, 10048.0, 10081.0, 10077.0, 10074.0, 10070.0, 10095.0, 10051.0, 9993.0, 9969.0, 9969.0, 9982.0, 9994.0, 10001.0, 9996.0, 10019.0, 10056.0, 10081.0, 10102.0, 10097.0, 10065.0, 10032.0, 10037.0, 10058.0, 10065.0, 10064.0, 10044.0, 10034.0, 10060.0, 10105.0, 10099.0, 10081.0, 10102.0, 10103.0, 10121.0, 10113.0, 10092.0, 10076.0, 10071.0, 10073.0, 10063.0, 10063.0, 10064.0, 10070.0, 10050.0, 10024.0, 10015.0, 10036.0],
      "WindowWidth": [21937.0, 21708.0, 21661.0, 21637.0, 21604.0, 21609.0, 21594.0, 21616.0, 21668.0, 21682.0, 21676.0, 21673.0, 21689.0, 21723.0, 21715.0, 21654.0, 21607.0, 21581.0, 21624.0, 21681.0, 21657.0, 21562.0, 21562.0, 21599.0, 21710.0, 21732.0, 21690.0, 21636.0, 21628.0, 21703.0, 21704.0, 21707.0, 21638.0, 21645.0, 21621.0, 21606.0, 21601.0, 21602.0, 21630.0, 21669.0, 21682.0, 21643.0, 21598.0, 21577.0, 21595.0, 21612.0, 21601.0, 21600.0, 21592.0, 21568.0, 21551.0, 21546.0, 21538.0, 21530.0, 21570.0, 21581.0, 21588.0, 21630.0, 21635.0, 21648.0, 21649.0, 21612.0, 21616.0, 21613.0, 21603.0, 21635.0, 21643.0, 21656.0, 21640.0, 21628.0, 21585.0, 21602.0, 21654.0, 21646.0, 21659.0, 21629.0, 21598.0, 21612.0, 21602.0, 21556.0, 21603.0, 21696.0, 21677.0, 21637.0, 21667.0, 21627.0, 21580.0, 21556.0, 21580.0, 21585.0, 21598.0, 21593.0, 21630.0, 21723.0, 21727.0, 21702.0, 21595.0, 21564.0, 21603.0, 21606.0, 21559.0, 21646.0, 21668.0, 21594.0, 21519.0, 21489.0, 21520.0, 21526.0, 21526.0, 21582.0, 21613.0, 21619.0, 21634.0, 21560.0, 21587.0, 21525.0, 21442.0, 21353.0, 21345.0, 21405.0, 21483.0, 21520.0, 21572.0, 21625.0, 21698.0, 21660.0, 21684.0, 21774.0, 21831.0, 21793.0, 21717.0, 21660.0, 21630.0, 21643.0, 21653.0, 21618.0, 21564.0, 21540.0, 21595.0, 21633.0, 21613.0, 21567.0, 21542.0, 21586.0, 21658.0, 21649.0, 21642.0, 21640.0, 21717.0, 21621.0, 21468.0, 21402.0, 21401.0, 21435.0, 21464.0, 21481.0, 21468.0, 21517.0, 21603.0, 21664.0, 21712.0, 21702.0, 21627.0, 21553.0, 21557.0, 21603.0, 21620.0, 21616.0, 21574.0, 21552.0, 21611.0, 21710.0, 21701.0, 21660.0, 21703.0, 21711.0, 21745.0, 21734.0, 21691.0, 21650.0, 21635.0, 21635.0, 21614.0, 21619.0, 21625.0, 21636.0, 21589.0, 21533.0, 21512.0, 21557.0]
    },
    "slices": {}
  }
}