{
  "AcquisitionMatrixPE": 104,
  "AcquisitionNumber": 1,
  "AcquisitionTime": "15:42:20.015000",
  "BandwidthPerPixelPhaseEncode": 17.17,
  "BaseResolution": 104,
  "BodyPartExamined": "BRAIN",
  "CoilString": "HC1-7;NC1_2",
  "ConsistencyInfo": "N4_VE11C_LATEST_20160120",
  "ConversionSoftware": "dcm2niix",
  "ConversionSoftwareVersion": "v1.0.20190902",
  "DerivedVendorReportedEchoSpacing": 0.000560011,
  "DeviceSerialNumber": "167006",
  "DwellTime": 2.1e-06,
  "EchoTime": 0.037,
  "EchoTrainLength": 104,
  "EffectiveEchoSpacing": 0.000560011,
  "FlipAngle": 52,
  "ImageComments": "Unaliased_MB4_PE3_LB",
  "ImageOrientationPatientDICOM": [0.999484, -0.0308142, 0.00904607, 0.0321085, 0.953335, -0.300202],
  "ImageType": [
    "ORIGINAL",
    "PRIMARY",
    "M",
    "MB",
    "ND",
    "MOSAIC"
],
  "ImagingFrequency": 123.259,
  "InPlanePhaseEncodingDirectionDICOM": "COL",
  "InstitutionAddress": "Chemin_Queen-Mary_4565_Montreal_District_CA_H3W_1W5",
  "InstitutionName": "IUGM",
  "InstitutionalDepartmentName": "Department",
  "MRAcquisitionType": "2D",
  "MagneticFieldStrength": 3,
  "Manufacturer": "Siemens",
  "ManufacturersModelName": "Prisma_fit",
  "Modality": "MR",
  "MultibandAccelerationFactor": 4,
  "PartialFourier": 1,
  "PatientPosition": "HFS",
  "PercentPhaseFOV": 100,
  "PhaseEncodingDirection": "j",
  "PhaseEncodingSteps": 104,
  "PhaseResolution": 1,
  "PixelBandwidth": 2290,
  "ProcedureStepDescription": "memory_things",
  "ProtocolName": "func_task-things_run-3",
  "PulseSequenceDetails": "%CustomerSeq%_cmrr_mbep2d_bold",
  "ReceiveCoilActiveElements": "HC1-7;NC1,2",
  "ReceiveCoilName": "HeadNeck_64",
  "ReconMatrixPE": 104,
  "RepetitionTime": 1.49,
  "SAR": 0.0549325,
  "ScanOptions": "FS",
  "ScanningSequence": "EP",
  "SequenceName": "epfid2d1_104",
  "SequenceVariant": "SK_SS",
  "SeriesDescription": "func_task-things_run-3",
  "SeriesNumber": 16,
  "ShimSetting": [623, -7264, -8813, 599, -20, -245, -37, -16],
  "SliceThickness": 2,
  "SliceTiming": [0, 0.785, 0.0975, 0.8825, 0.195, 0.98, 0.295, 1.0775, 0.3925, 1.175, 0.49, 1.275, 0.5875, 1.3725, 0.685, 0, 0.785, 0.0975, 0.8825, 0.195, 0.98, 0.295, 1.0775, 0.3925, 1.175, 0.49, 1.275, 0.5875, 1.3725, 0.685, 0, 0.785, 0.0975, 0.8825, 0.195, 0.98, 0.295, 1.0775, 0.3925, 1.175, 0.49, 1.275, 0.5875, 1.3725, 0.685, 0, 0.785, 0.0975, 0.8825, 0.195, 0.98, 0.295, 1.0775, 0.3925, 1.175, 0.49, 1.275, 0.5875, 1.3725, 0.685],
  "SoftwareVersions": "syngo_MR_E11",
  "SpacingBetweenSlices": 2,
  "StationName": "MRC35049",
  "TaskName": "things",
  "TotalReadoutTime": 0.0576811,
  "TxRefAmp": 272.281,
  "WipMemBlock": "b57ed065-6a4d-42f1-bd0e-9b5697055908||Sequence: R016 ve11c/master r/e634e98; Dec 19 2017 11:00:25 by eja",
  "dcmmeta_affine": [
    [-1.9989683628082275, 0.06421700865030289, -0.0012531279353424907, 104.25762939453125],
    [0.06162847951054573, 1.9066702127456665, -0.6006753444671631, -67.75911712646484],
    [0.018092136830091476, 0.6004040837287903, 1.907665491104126, -60.60963439941406],
    [0.0, 0.0, 0.0, 1.0]
],
  "dcmmeta_reorient_transform": [
    [0.0, -1.0, 0.0, 103.0],
    [1.0, 0.0, 0.0, 0.0],
    [0.0, 0.0, 1.0, 0.0],
    [0.0, 0.0, 0.0, 1.0]
],
  "dcmmeta_shape": [104, 104, 60, 190],
  "dcmmeta_slice_dim": 2,
  "dcmmeta_version": 0.6,
  "global": {
    "const": {
      "AcquisitionMatrix": [104, 0, 0, 104],
      "AngioFlag": "N",
      "BitsAllocated": 16,
      "BitsStored": 16,
      "BodyPartExamined": "BRAIN",
      "Columns": 832,
      "EchoNumbers": 1,
      "EchoTime": 37.0,
      "EchoTrainLength": 104,
      "FlipAngle": 52.0,
      "HighBit": 15,
      "ImageOrientationPatient": [0.99948419260541, -0.0308142398933, 0.00904606830127, 0.0321085058747, 0.95333507698287, -0.3002020566961],
      "ImagePositionPatient": [-861.87146532443, -800.22308169775, 213.1935474049],
      "ImageType": [
        "ORIGINAL",
        "PRIMARY",
        "M",
        "MB",
        "ND",
        "MOSAIC"
],
      "ImagedNucleus": "1H",
      "ImagingFrequency": 123.258896,
      "InPlanePhaseEncodingDirection": "COL",
      "MRAcquisitionType": "2D",
      "MagneticFieldStrength": 3.0,
      "Manufacturer": "SIEMENS",
      "ManufacturerModelName": "Prisma_fit",
      "Modality": "MR",
      "NumberOfAverages": 1.0,
      "NumberOfPhaseEncodingSteps": 104,
      "PercentPhaseFieldOfView": 100.0,
      "PercentSampling": 100.0,
      "PerformedProcedureStepStartTime": "145447.123000",
      "PhotometricInterpretation": "MONOCHROME2",
      "PixelBandwidth": 2290.0,
      "PixelRepresentation": 0,
      "PixelSpacing": [2.0, 2.0],
      "ProtocolName": "func_task-things_run-3",
      "RepetitionTime": 1490.0,
      "Rows": 832,
      "SAR": 0.05493245776295,
      "SamplesPerPixel": 1,
      "ScanOptions": "FS",
      "ScanningSequence": "EP",
      "SequenceName": "epfid2d1_104",
      "SequenceVariant": [
        "SK",
        "SS"
],
      "SeriesDescription": "func_task-things_run-3",
      "SeriesNumber": 16,
      "SeriesTime": "154333.200000",
      "SliceLocation": -37.526165000658,
      "SliceThickness": 2.0,
      "SmallestImagePixelValue": 0,
      "SoftwareVersions": "syngo MR E11",
      "SpacingBetweenSlices": 1.999999987883,
      "SpecificCharacterSet": "ISO_IR 100",
      "StudyID": "1",
      "StudyTime": "145447.006000",
      "TransmitCoilName": "Body",
      "VariableFlipAngleFlag": "N",
      "WindowCenterWidthExplanation": "Algo1",
      "dBdt": 0.0},
    "slices": {}
  },
  "time": {
    "samples": {
      "AcquisitionNumber": [1, 2, 3, 4, 5, 6, 7, 8, 9, 10, 11, 12, 13, 14, 15, 16, 17, 18, 19, 20, 21, 22, 23, 24, 25, 26, 27, 28, 29, 30, 31, 32, 33, 34, 35, 36, 37, 38, 39, 40, 41, 42, 43, 44, 45, 46, 47, 48, 49, 50, 51, 52, 53, 54, 55, 56, 57, 58, 59, 60, 61, 62, 63, 64, 65, 66, 67, 68, 69, 70, 71, 72, 73, 74, 75, 76, 77, 78, 79, 80, 81, 82, 83, 84, 85, 86, 87, 88, 89, 90, 91, 92, 93, 94, 95, 96, 97, 98, 99, 100, 101, 102, 103, 104, 105, 106, 107, 108, 109, 110, 111, 112, 113, 114, 115, 116, 117, 118, 119, 120, 121, 122, 123, 124, 125, 126, 127, 128, 129, 130, 131, 132, 133, 134, 135, 136, 137, 138, 139, 140, 141, 142, 143, 144, 145, 146, 147, 148, 149, 150, 151, 152, 153, 154, 155, 156, 157, 158, 159, 160, 161, 162, 163, 164, 165, 166, 167, 168, 169, 170, 171, 172, 173, 174, 175, 176, 177, 178, 179, 180, 181, 182, 183, 184, 185, 186, 187, 188, 189, 190],
      "AcquisitionTime": ["154220.015000", "154221.505000", "154222.995000", "154224.485000", "154225.975000", "154227.465000", "154228.955000", "154230.445000", "154231.935000", "154233.425000", "154234.915000", "154236.405000", "154237.895000", "154239.385000", "154240.875000", "154242.365000", "154243.855000", "154245.345000", "154246.835000", "154248.325000", "154249.815000", "154251.305000", "154252.795000", "154254.285000", "154255.775000", "154257.265000", "154258.755000", "154300.245000", "154301.735000", "154303.225000", "154304.715000", "154306.205000", "154307.695000", "154309.185000", "154310.675000", "154312.165000", "154313.655000", "154315.145000", "154316.635000", "154318.125000", "154319.615000", "154321.105000", "154322.595000", "154324.085000", "154325.575000", "154327.065000", "154328.555000", "154330.045000", "154331.535000", "154333.025000", "154334.515000", "154336.005000", "154337.495000", "154338.985000", "154340.475000", "154341.965000", "154343.455000", "154344.945000", "154346.435000", "154347.925000", "154349.415000", "154350.905000", "154352.395000", "154353.885000", "154355.375000", "154356.865000", "154358.355000", "154359.845000", "154401.335000", "154402.825000", "154404.315000", "154405.805000", "154407.295000", "154408.785000", "154410.275000", "154411.765000", "154413.255000", "154414.745000", "154416.235000", "154417.725000", "154419.215000", "154420.705000", "154422.195000", "154423.685000", "154425.175000", "154426.665000", "154428.155000", "154429.645000", "154431.135000", "154432.625000", "154434.115000", "154435.605000", "154437.095000", "154438.585000", "154440.075000", "154441.565000", "154443.055000", "154444.545000", "154446.035000", "154447.525000", "154449.015000", "154450.505000", "154451.995000", "154453.485000", "154454.975000", "154456.465000", "154457.955000", "154459.445000", "154500.935000", "154502.425000", "154503.915000", "154505.405000", "154506.895000", "154508.385000", "154509.875000", "154511.365000", "154512.855000", "154514.345000", "154515.835000", "154517.325000", "154518.815000", "154520.305000", "154521.795000", "154523.285000", "154524.775000", "154526.265000", "154527.755000", "154529.245000", "154530.735000", "154532.225000", "154533.715000", "154535.205000", "154536.695000", "154538.185000", "154539.675000", "154541.165000", "154542.655000", "154544.145000", "154545.635000", "154547.125000", "154548.615000", "154550.105000", "154551.595000", "154553.085000", "154554.575000", "154556.065000", "154557.555000", "154559.045000", "154600.535000", "154602.025000", "154603.515000", "154605.005000", "154606.495000", "154607.985000", "154609.475000", "154610.965000", "154612.455000", "154613.945000", "154615.435000", "154616.925000", "154618.415000", "154619.905000", "154621.395000", "154622.885000", "154624.375000", "154625.865000", "154627.355000", "154628.845000", "154630.335000", "154631.825000", "154633.315000", "154634.805000", "154636.295000", "154637.785000", "154639.275000", "154640.765000", "154642.255000", "154643.745000", "154645.235000", "154646.725000", "154648.215000", "154649.705000", "154651.195000", "154652.685000", "154654.175000", "154655.665000", "154657.155000", "154658.645000", "154700.135000", "154701.625000"],
      "ContentTime": ["154333.203000", "154333.207000", "154333.210000", "154333.214000", "154333.217000", "154333.220000", "154333.224000", "154333.227000", "154333.232000", "154333.235000", "154333.239000", "154333.242000", "154333.246000", "154333.249000", "154333.252000", "154333.261000", "154333.265000", "154333.268000", "154333.271000", "154333.275000", "154353.153000", "154353.157000", "154353.160000", "154353.164000", "154353.167000", "154353.171000", "154353.174000", "154353.177000", "154353.181000", "154353.184000", "154353.188000", "154353.191000", "154353.194000", "154353.198000", "154353.201000", "154353.205000", "154353.208000", "154353.211000", "154353.215000", "154353.218000", "154353.222000", "154413.154000", "154413.158000", "154413.161000", "154413.165000", "154413.168000", "154413.171000", "154413.175000", "154413.178000", "154413.181000", "154413.185000", "154413.188000", "154413.192000", "154413.195000", "154413.198000", "154413.202000", "154413.205000", "154413.209000", "154413.233000", "154413.236000", "154413.239000", "154433.154000", "154433.158000", "154433.161000", "154433.165000", "154433.168000", "154433.171000", "154433.175000", "154433.178000", "154433.181000", "154433.185000", "154433.188000", "154433.192000", "154433.195000", "154433.198000", "154433.202000", "154433.205000", "154433.208000", "154433.212000", "154433.215000", "154433.218000", "154453.154000", "154453.158000", "154453.161000", "154453.165000", "154453.168000", "154453.172000", "154453.175000", "154453.178000", "154453.182000", "154453.185000", "154453.188000", "154453.192000", "154453.195000", "154453.199000", "154453.202000", "154453.205000", "154453.209000", "154453.212000", "154453.215000", "154453.219000", "154453.222000", "154533.153000", "154533.157000", "154533.161000", "154533.164000", "154533.168000", "154533.171000", "154533.174000", "154533.178000", "154533.181000", "154533.184000", "154533.188000", "154533.191000", "154533.195000", "154533.198000", "154533.201000", "154533.205000", "154533.208000", "154533.211000", "154533.215000", "154533.235000", "154533.238000", "154533.241000", "154533.245000", "154533.248000", "154533.251000", "154533.255000", "154533.258000", "154613.153000", "154613.157000", "154613.160000", "154613.164000", "154613.167000", "154613.171000", "154613.174000", "154613.178000", "154613.181000", "154613.184000", "154613.188000", "154613.191000", "154613.195000", "154613.198000", "154613.201000", "154613.205000", "154613.208000", "154613.211000", "154613.215000", "154613.218000", "154613.222000", "154613.225000", "154613.228000", "154613.232000", "154613.235000", "154613.238000", "154613.242000", "154653.154000", "154653.158000", "154653.186000", "154653.190000", "154653.193000", "154653.196000", "154653.200000", "154653.203000", "154653.206000", "154653.210000", "154653.213000", "154653.217000", "154653.220000", "154653.223000", "154653.227000", "154653.230000", "154653.233000", "154653.237000", "154653.240000", "154653.244000", "154653.247000", "154653.250000", "154653.254000", "154653.257000", "154653.260000", "154653.264000", "154653.267000", "154703.523000", "154703.527000", "154703.530000", "154703.534000", "154703.537000", "154703.540000", "154703.544000"],
      "InstanceCreationTime": ["154333.203000", "154333.207000", "154333.210000", "154333.214000", "154333.217000", "154333.220000", "154333.224000", "154333.227000", "154333.232000", "154333.235000", "154333.239000", "154333.242000", "154333.246000", "154333.249000", "154333.252000", "154333.261000", "154333.265000", "154333.268000", "154333.271000", "154333.275000", "154353.153000", "154353.157000", "154353.160000", "154353.164000", "154353.167000", "154353.171000", "154353.174000", "154353.177000", "154353.181000", "154353.184000", "154353.188000", "154353.191000", "154353.194000", "154353.198000", "154353.201000", "154353.205000", "154353.208000", "154353.211000", "154353.215000", "154353.218000", "154353.222000", "154413.154000", "154413.158000", "154413.161000", "154413.165000", "154413.168000", "154413.171000", "154413.175000", "154413.178000", "154413.181000", "154413.185000", "154413.188000", "154413.192000", "154413.195000", "154413.198000", "154413.202000", "154413.205000", "154413.209000", "154413.233000", "154413.236000", "154413.239000", "154433.154000", "154433.158000", "154433.161000", "154433.165000", "154433.168000", "154433.171000", "154433.175000", "154433.178000", "154433.181000", "154433.185000", "154433.188000", "154433.192000", "154433.195000", "154433.198000", "154433.202000", "154433.205000", "154433.208000", "154433.212000", "154433.215000", "154433.218000", "154453.154000", "154453.158000", "154453.161000", "154453.165000", "154453.168000", "154453.172000", "154453.175000", "154453.178000", "154453.182000", "154453.185000", "154453.188000", "154453.192000", "154453.195000", "154453.199000", "154453.202000", "154453.205000", "154453.209000", "154453.212000", "154453.215000", "154453.219000", "154453.222000", "154533.153000", "154533.157000", "154533.161000", "154533.164000", "154533.168000", "154533.171000", "154533.174000", "154533.178000", "154533.181000", "154533.184000", "154533.188000", "154533.191000", "154533.195000", "154533.198000", "154533.201000", "154533.205000", "154533.208000", "154533.211000", "154533.215000", "154533.235000", "154533.238000", "154533.241000", "154533.245000", "154533.248000", "154533.251000", "154533.255000", "154533.258000", "154613.153000", "154613.157000", "154613.160000", "154613.164000", "154613.167000", "154613.171000", "154613.174000", "154613.178000", "154613.181000", "154613.184000", "154613.188000", "154613.191000", "154613.195000", "154613.198000", "154613.201000", "154613.205000", "154613.208000", "154613.211000", "154613.215000", "154613.218000", "154613.222000", "154613.225000", "154613.228000", "154613.232000", "154613.235000", "154613.238000", "154613.242000", "154653.154000", "154653.158000", "154653.186000", "154653.190000", "154653.193000", "154653.196000", "154653.200000", "154653.203000", "154653.206000", "154653.210000", "154653.213000", "154653.217000", "154653.220000", "154653.223000", "154653.227000", "154653.230000", "154653.233000", "154653.237000", "154653.240000", "154653.244000", "154653.247000", "154653.250000", "154653.254000", "154653.257000", "154653.260000", "154653.264000", "154653.267000", "154703.523000", "154703.527000", "154703.530000", "154703.534000", "154703.537000", "154703.540000", "154703.544000"],
      "InstanceNumber": [1, 2, 3, 4, 5, 6, 7, 8, 9, 10, 11, 12, 13, 14, 15, 16, 17, 18, 19, 20, 21, 22, 23, 24, 25, 26, 27, 28, 29, 30, 31, 32, 33, 34, 35, 36, 37, 38, 39, 40, 41, 42, 43, 44, 45, 46, 47, 48, 49, 50, 51, 52, 53, 54, 55, 56, 57, 58, 59, 60, 61, 62, 63, 64, 65, 66, 67, 68, 69, 70, 71, 72, 73, 74, 75, 76, 77, 78, 79, 80, 81, 82, 83, 84, 85, 86, 87, 88, 89, 90, 91, 92, 93, 94, 95, 96, 97, 98, 99, 100, 101, 102, 103, 104, 105, 106, 107, 108, 109, 110, 111, 112, 113, 114, 115, 116, 117, 118, 119, 120, 121, 122, 123, 124, 125, 126, 127, 128, 129, 130, 131, 132, 133, 134, 135, 136, 137, 138, 139, 140, 141, 142, 143, 144, 145, 146, 147, 148, 149, 150, 151, 152, 153, 154, 155, 156, 157, 158, 159, 160, 161, 162, 163, 164, 165, 166, 167, 168, 169, 170, 171, 172, 173, 174, 175, 176, 177, 178, 179, 180, 181, 182, 183, 184, 185, 186, 187, 188, 189, 190],
      "LargestImagePixelValue": [40320, 39542, 38489, 39590, 38361, 38464, 38042, 38105, 37935, 38096, 38369, 38119, 38414, 37651, 38097, 38184, 37983, 38618, 38494, 38317, 38307, 38715, 38380, 37771, 37692, 38088, 38101, 38020, 38242, 38214, 38819, 38047, 38033, 38366, 38385, 38055, 37775, 38630, 37634, 38515, 38245, 38600, 38471, 38405, 37699, 38724, 37904, 38772, 38136, 38707, 38317, 38205, 38263, 37877, 38914, 38438, 39267, 40445, 39868, 38567, 37580, 37521, 37017, 37591, 38541, 38444, 38510, 38526, 38068, 38236, 37425, 37834, 38182, 37908, 38274, 38204, 38637, 38439, 38611, 38143, 38445, 38504, 38431, 38472, 37593, 38315, 38384, 38345, 38572, 38983, 38460, 38362, 37978, 38340, 38026, 38785, 38588, 38613, 39426, 38737, 40536, 39978, 38228, 37388, 37501, 38153, 38143, 37904, 37901, 37983, 37612, 37415, 37205, 37705, 37525, 37638, 37620, 38047, 37583, 37171, 37082, 37330, 37254, 37913, 39630, 38606, 37920, 37749, 37260, 37337, 37520, 37871, 37044, 37341, 37261, 37453, 37196, 37409, 37988, 38170, 37836, 37291, 37319, 37538, 37563, 38352, 38067, 38063, 37623, 37526, 37262, 37189, 37665, 37754, 38456, 38227, 37911, 37663, 37534, 37290, 37586, 37430, 37224, 37417, 37515, 37200, 37599, 38499, 38006, 38259, 37026, 37321, 37141, 37760, 37451, 37776, 37818, 36764, 37474, 37949, 38426, 38007, 38100, 37560, 38003, 38118, 37630, 37224, 37348, 37341],
      "WindowCenter": [10142.0, 10097.0, 10077.0, 10084.0, 10056.0, 10044.0, 10020.0, 10017.0, 10032.0, 10057.0, 10089.0, 10112.0, 10097.0, 10066.0, 10076.0, 10099.0, 10120.0, 10109.0, 10097.0, 10096.0, 10112.0, 10142.0, 10155.0, 10150.0, 10151.0, 10142.0, 10100.0, 10067.0, 10077.0, 10087.0, 10101.0, 10095.0, 10105.0, 10106.0, 10121.0, 10139.0, 10126.0, 10114.0, 10090.0, 10087.0, 10094.0, 10101.0, 10095.0, 10097.0, 10090.0, 10120.0, 10125.0, 10125.0, 10122.0, 10129.0, 10086.0, 10063.0, 10074.0, 10087.0, 10093.0, 10075.0, 10077.0, 10107.0, 10119.0, 10085.0, 10048.0, 10021.0, 10028.0, 10052.0, 10038.0, 10010.0, 9985.0, 9990.0, 10009.0, 10034.0, 10049.0, 10101.0, 10131.0, 10119.0, 10103.0, 10102.0, 10133.0, 10151.0, 10176.0, 10156.0, 10138.0, 10117.0, 10104.0, 10080.0, 10066.0, 10071.0, 10069.0, 10077.0, 10077.0, 10083.0, 10076.0, 10081.0, 10081.0, 10081.0, 10063.0, 10059.0, 10050.0, 10055.0, 10109.0, 10130.0, 10142.0, 10100.0, 10057.0, 10011.0, 9980.0, 9981.0, 9998.0, 10026.0, 10037.0, 10025.0, 9993.0, 9975.0, 9982.0, 10013.0, 10045.0, 10052.0, 10035.0, 10043.0, 10061.0, 10089.0, 10094.0, 10083.0, 10067.0, 10069.0, 10106.0, 10144.0, 10132.0, 10103.0, 10087.0, 10076.0, 10082.0, 10074.0, 10037.0, 10032.0, 10042.0, 10052.0, 10045.0, 10067.0, 10099.0, 10116.0, 10102.0, 10071.0, 10062.0, 10070.0, 10093.0, 10099.0, 10054.0, 10024.0, 10010.0, 10046.0, 10028.0, 9979.0, 9995.0, 10076.0, 10143.0, 10160.0, 10123.0, 10086.0, 10077.0, 10067.0, 10068.0, 10077.0, 10056.0, 10038.0, 10052.0, 10068.0, 10095.0, 10121.0, 10107.0, 10079.0, 10033.0, 10044.0, 10053.0, 10065.0, 10075.0, 10061.0, 10036.0, 10000.0, 10008.0, 10036.0, 10091.0, 10114.0, 10102.0, 10071.0, 10073.0, 10081.0, 10092.0, 10074.0, 10064.0, 10057.0],
      "WindowWidth": [21891.0, 21744.0, 21681.0, 21678.0, 21614.0, 21578.0, 21524.0, 21513.0, 21543.0, 21602.0, 21674.0, 21730.0, 21700.0, 21631.0, 21648.0, 21697.0, 21744.0, 21720.0, 21694.0, 21689.0, 21731.0, 21797.0, 21830.0, 21823.0, 21824.0, 21803.0, 21709.0, 21636.0, 21652.0, 21677.0, 21704.0, 21693.0, 21716.0, 21720.0, 21754.0, 21798.0, 21772.0, 21738.0, 21687.0, 21676.0, 21693.0, 21706.0, 21697.0, 21703.0, 21688.0, 21751.0, 21775.0, 21760.0, 21763.0, 21776.0, 21677.0, 21628.0, 21649.0, 21680.0, 21687.0, 21650.0, 21658.0, 21733.0, 21754.0, 21674.0, 21593.0, 21528.0, 21544.0, 21593.0, 21559.0, 21491.0, 21437.0, 21449.0, 21495.0, 21557.0, 21597.0, 21710.0, 21781.0, 21758.0, 21715.0, 21710.0, 21778.0, 21819.0, 21875.0, 21835.0, 21791.0, 21747.0, 21715.0, 21664.0, 21634.0, 21641.0, 21639.0, 21652.0, 21651.0, 21666.0, 21652.0, 21666.0, 21666.0, 21665.0, 21627.0, 21614.0, 21592.0, 21605.0, 21728.0, 21788.0, 21816.0, 21708.0, 21611.0, 21507.0, 21434.0, 21430.0, 21472.0, 21540.0, 21568.0, 21540.0, 21469.0, 21428.0, 21441.0, 21504.0, 21576.0, 21587.0, 21549.0, 21567.0, 21615.0, 21679.0, 21694.0, 21668.0, 21633.0, 21633.0, 21712.0, 21801.0, 21777.0, 21707.0, 21673.0, 21645.0, 21656.0, 21636.0, 21555.0, 21541.0, 21566.0, 21590.0, 21580.0, 21625.0, 21698.0, 21734.0, 21707.0, 21638.0, 21619.0, 21639.0, 21687.0, 21696.0, 21597.0, 21528.0, 21500.0, 21577.0, 21541.0, 21434.0, 21462.0, 21641.0, 21790.0, 21838.0, 21755.0, 21671.0, 21650.0, 21627.0, 21630.0, 21649.0, 21606.0, 21563.0, 21594.0, 21629.0, 21691.0, 21745.0, 21723.0, 21658.0, 21557.0, 21574.0, 21594.0, 21617.0, 21637.0, 21608.0, 21552.0, 21482.0, 21494.0, 21554.0, 21675.0, 21729.0, 21704.0, 21637.0, 21637.0, 21655.0, 21683.0, 21647.0, 21626.0, 21612.0]
    },
    "slices": {}
  }
}