{
  "AcquisitionMatrixPE": 104,
  "AcquisitionNumber": 1,
  "AcquisitionTime": "15:35:0.202500",
  "BandwidthPerPixelPhaseEncode": 17.17,
  "BaseResolution": 104,
  "BodyPartExamined": "BRAIN",
  "CoilString": "HC1-7;NC1_2",
  "ConsistencyInfo": "N4_VE11C_LATEST_20160120",
  "ConversionSoftware": "dcm2niix",
  "ConversionSoftwareVersion": "v1.0.20190902",
  "DerivedVendorReportedEchoSpacing": 0.000560011,
  "DeviceSerialNumber": "167006",
  "DwellTime": 2.1e-06,
  "EchoTime": 0.037,
  "EchoTrainLength": 104,
  "EffectiveEchoSpacing": 0.000560011,
  "FlipAngle": 52,
  "ImageComments": "Unaliased_MB4_PE3_LB",
  "ImageOrientationPatientDICOM": [0.999484, -0.0308142, 0.00904607, 0.0321085, 0.953335, -0.300202],
  "ImageType": [
    "ORIGINAL",
    "PRIMARY",
    "P",
    "MB",
    "ND",
    "MOSAIC"
],
  "ImagingFrequency": 123.259,
  "InPlanePhaseEncodingDirectionDICOM": "COL",
  "InstitutionAddress": "Chemin_Queen-Mary_4565_Montreal_District_CA_H3W_1W5",
  "InstitutionName": "IUGM",
  "InstitutionalDepartmentName": "Department",
  "MRAcquisitionType": "2D",
  "MagneticFieldStrength": 3,
  "Manufacturer": "Siemens",
  "ManufacturersModelName": "Prisma_fit",
  "Modality": "MR",
  "MultibandAccelerationFactor": 4,
  "PartialFourier": 1,
  "PatientPosition": "HFS",
  "PercentPhaseFOV": 100,
  "PhaseEncodingDirection": "j",
  "PhaseEncodingSteps": 104,
  "PhaseResolution": 1,
  "PixelBandwidth": 2290,
  "ProcedureStepDescription": "memory_things",
  "ProtocolName": "func_task-things_run-2",
  "PulseSequenceDetails": "%CustomerSeq%_cmrr_mbep2d_bold",
  "ReceiveCoilActiveElements": "HC1-7;NC1,2",
  "ReceiveCoilName": "HeadNeck_64",
  "ReconMatrixPE": 104,
  "RepetitionTime": 1.49,
  "SAR": 0.0549325,
  "ScanOptions": "FS",
  "ScanningSequence": "EP",
  "SequenceName": "epfid2d1_104",
  "SequenceVariant": "SK_SS",
  "SeriesDescription": "func_task-things_run-2",
  "SeriesNumber": 14,
  "ShimSetting": [623, -7264, -8813, 599, -20, -245, -37, -16],
  "SliceThickness": 2,
  "SliceTiming": [0, 0.785, 0.0975, 0.8825, 0.1975, 0.98, 0.295, 1.0775, 0.3925, 1.1775, 0.49, 1.275, 0.5875, 1.3725, 0.6875, 0, 0.785, 0.0975, 0.8825, 0.1975, 0.98, 0.295, 1.0775, 0.3925, 1.1775, 0.49, 1.275, 0.5875, 1.3725, 0.6875, 0, 0.785, 0.0975, 0.8825, 0.1975, 0.98, 0.295, 1.0775, 0.3925, 1.1775, 0.49, 1.275, 0.5875, 1.3725, 0.6875, 0, 0.785, 0.0975, 0.8825, 0.1975, 0.98, 0.295, 1.0775, 0.3925, 1.1775, 0.49, 1.275, 0.5875, 1.3725, 0.6875],
  "SoftwareVersions": "syngo_MR_E11",
  "SpacingBetweenSlices": 2,
  "StationName": "MRC35049",
  "TaskName": "things",
  "TotalReadoutTime": 0.0576811,
  "TxRefAmp": 272.281,
  "WipMemBlock": "c44039f5-0d18-44e8-89b4-0c7b2183745d||Sequence: R016 ve11c/master r/e634e98; Dec 19 2017 11:00:25 by eja",
  "dcmmeta_affine": [
    [-1.9989683628082275, 0.06421700865030289, -0.0012531279353424907, 104.25762939453125],
    [0.06162847951054573, 1.9066702127456665, -0.6006753444671631, -67.75911712646484],
    [0.018092136830091476, 0.6004040837287903, 1.907665491104126, -60.60963439941406],
    [0.0, 0.0, 0.0, 1.0]
],
  "dcmmeta_reorient_transform": [
    [0.0, -1.0, 0.0, 103.0],
    [1.0, 0.0, 0.0, 0.0],
    [0.0, 0.0, 1.0, 0.0],
    [0.0, 0.0, 0.0, 1.0]
],
  "dcmmeta_shape": [104, 104, 60, 190],
  "dcmmeta_slice_dim": 2,
  "dcmmeta_version": 0.6,
  "global": {
    "const": {
      "AcquisitionMatrix": [104, 0, 0, 104],
      "AngioFlag": "N",
      "BitsAllocated": 16,
      "BitsStored": 16,
      "BodyPartExamined": "BRAIN",
      "Columns": 832,
      "EchoNumbers": 1,
      "EchoTime": 37.0,
      "EchoTrainLength": 104,
      "FlipAngle": 52.0,
      "HighBit": 15,
      "ImageOrientationPatient": [0.99948419260541, -0.0308142398933, 0.00904606830127, 0.0321085058747, 0.95333507698287, -0.3002020566961],
      "ImagePositionPatient": [-861.87146532443, -800.22308169775, 213.1935474049],
      "ImageType": [
        "ORIGINAL",
        "PRIMARY",
        "P",
        "MB",
        "ND",
        "MOSAIC"
],
      "ImagedNucleus": "1H",
      "ImagingFrequency": 123.258896,
      "InPlanePhaseEncodingDirection": "COL",
      "LargestImagePixelValue": 4095,
      "MRAcquisitionType": "2D",
      "MagneticFieldStrength": 3.0,
      "Manufacturer": "SIEMENS",
      "ManufacturerModelName": "Prisma_fit",
      "Modality": "MR",
      "NumberOfAverages": 1.0,
      "NumberOfPhaseEncodingSteps": 104,
      "PercentPhaseFieldOfView": 100.0,
      "PercentSampling": 100.0,
      "PerformedProcedureStepStartTime": "145447.123000",
      "PhotometricInterpretation": "MONOCHROME2",
      "PixelBandwidth": 2290.0,
      "PixelRepresentation": 0,
      "PixelSpacing": [2.0, 2.0],
      "ProtocolName": "func_task-things_run-2",
      "RepetitionTime": 1490.0,
      "RescaleIntercept": -4096.0,
      "RescaleSlope": 2.0,
      "RescaleType": "US",
      "Rows": 832,
      "SAR": 0.05493245776295,
      "SamplesPerPixel": 1,
      "ScanOptions": "FS",
      "ScanningSequence": "EP",
      "SequenceName": "epfid2d1_104",
      "SequenceVariant": [
        "SK",
        "SS"
],
      "SeriesDescription": "func_task-things_run-2",
      "SeriesNumber": 14,
      "SeriesTime": "153634.084000",
      "SliceLocation": -37.526165000658,
      "SliceThickness": 2.0,
      "SmallestImagePixelValue": 0,
      "SoftwareVersions": "syngo MR E11",
      "SpacingBetweenSlices": 1.999999987883,
      "SpecificCharacterSet": "ISO_IR 100",
      "StudyID": "1",
      "StudyTime": "145447.006000",
      "TransmitCoilName": "Body",
      "VariableFlipAngleFlag": "N",
      "WindowCenterWidthExplanation": "Algo1",
      "dBdt": 0.0},
    "slices": {}
  },
  "time": {
    "samples": {
      "AcquisitionNumber": [1, 2, 3, 4, 5, 6, 7, 8, 9, 10, 11, 12, 13, 14, 15, 16, 17, 18, 19, 20, 21, 22, 23, 24, 25, 26, 27, 28, 29, 30, 31, 32, 33, 34, 35, 36, 37, 38, 39, 40, 41, 42, 43, 44, 45, 46, 47, 48, 49, 50, 51, 52, 53, 54, 55, 56, 57, 58, 59, 60, 61, 62, 63, 64, 65, 66, 67, 68, 69, 70, 71, 72, 73, 74, 75, 76, 77, 78, 79, 80, 81, 82, 83, 84, 85, 86, 87, 88, 89, 90, 91, 92, 93, 94, 95, 96, 97, 98, 99, 100, 101, 102, 103, 104, 105, 106, 107, 108, 109, 110, 111, 112, 113, 114, 115, 116, 117, 118, 119, 120, 121, 122, 123, 124, 125, 126, 127, 128, 129, 130, 131, 132, 133, 134, 135, 136, 137, 138, 139, 140, 141, 142, 143, 144, 145, 146, 147, 148, 149, 150, 151, 152, 153, 154, 155, 156, 157, 158, 159, 160, 161, 162, 163, 164, 165, 166, 167, 168, 169, 170, 171, 172, 173, 174, 175, 176, 177, 178, 179, 180, 181, 182, 183, 184, 185, 186, 187, 188, 189, 190],
      "AcquisitionTime": ["153500.202500", "153501.692500", "153503.182500", "153504.672500", "153506.162500", "153507.652500", "153509.142500", "153510.632500", "153512.122500", "153513.612500", "153515.102500", "153516.592500", "153518.082500", "153519.572500", "153521.062500", "153522.552500", "153524.042500", "153525.532500", "153527.022500", "153528.512500", "153530.002500", "153531.492500", "153532.982500", "153534.472500", "153535.962500", "153537.452500", "153538.942500", "153540.432500", "153541.922500", "153543.412500", "153544.902500", "153546.392500", "153547.882500", "153549.372500", "153550.862500", "153552.352500", "153553.842500", "153555.332500", "153556.822500", "153558.312500", "153559.802500", "153601.292500", "153602.782500", "153604.272500", "153605.762500", "153607.252500", "153608.742500", "153610.232500", "153611.722500", "153613.212500", "153614.702500", "153616.192500", "153617.682500", "153619.172500", "153620.662500", "153622.152500", "153623.642500", "153625.132500", "153626.622500", "153628.112500", "153629.602500", "153631.092500", "153632.582500", "153634.072500", "153635.562500", "153637.052500", "153638.542500", "153640.032500", "153641.522500", "153643.012500", "153644.502500", "153645.992500", "153647.482500", "153648.972500", "153650.462500", "153651.952500", "153653.442500", "153654.932500", "153656.422500", "153657.912500", "153659.402500", "153700.892500", "153702.382500", "153703.872500", "153705.362500", "153706.852500", "153708.342500", "153709.832500", "153711.322500", "153712.812500", "153714.302500", "153715.792500", "153717.282500", "153718.772500", "153720.262500", "153721.752500", "153723.242500", "153724.732500", "153726.222500", "153727.712500", "153729.202500", "153730.692500", "153732.182500", "153733.672500", "153735.162500", "153736.652500", "153738.142500", "153739.632500", "153741.122500", "153742.612500", "153744.102500", "153745.592500", "153747.082500", "153748.572500", "153750.062500", "153751.552500", "153753.042500", "153754.532500", "153756.022500", "153757.512500", "153759.002500", "153800.492500", "153801.982500", "153803.472500", "153804.962500", "153806.452500", "153807.942500", "153809.432500", "153810.922500", "153812.412500", "153813.902500", "153815.392500", "153816.882500", "153818.372500", "153819.862500", "153821.352500", "153822.842500", "153824.332500", "153825.822500", "153827.312500", "153828.802500", "153830.292500", "153831.782500", "153833.272500", "153834.762500", "153836.252500", "153837.742500", "153839.232500", "153840.722500", "153842.212500", "153843.702500", "153845.192500", "153846.682500", "153848.172500", "153849.662500", "153851.152500", "153852.642500", "153854.132500", "153855.622500", "153857.112500", "153858.602500", "153900.092500", "153901.582500", "153903.072500", "153904.562500", "153906.052500", "153907.542500", "153909.032500", "153910.522500", "153912.012500", "153913.502500", "153914.992500", "153916.482500", "153917.972500", "153919.462500", "153920.952500", "153922.442500", "153923.932500", "153925.422500", "153926.912500", "153928.402500", "153929.892500", "153931.382500", "153932.872500", "153934.362500", "153935.852500", "153937.342500", "153938.832500", "153940.322500", "153941.812500"],
      "ContentTime": ["153634.086000", "153634.089000", "153634.091000", "153634.094000", "153634.096000", "153634.099000", "153634.101000", "153634.104000", "153634.106000", "153634.109000", "153634.112000", "153634.114000", "153634.124000", "153634.127000", "153634.129000", "153634.132000", "153634.135000", "153634.137000", "153634.140000", "153634.142000", "153634.145000", "153634.148000", "153634.150000", "153634.153000", "153634.155000", "153634.158000", "153634.160000", "153634.163000", "153634.166000", "153634.168000", "153634.171000", "153634.173000", "153634.176000", "153634.178000", "153634.181000", "153634.184000", "153634.186000", "153634.189000", "153634.191000", "153634.194000", "153653.945000", "153653.948000", "153653.951000", "153653.953000", "153653.956000", "153653.958000", "153653.961000", "153653.963000", "153653.966000", "153653.968000", "153653.971000", "153653.973000", "153653.976000", "153653.979000", "153653.981000", "153653.984000", "153653.986000", "153653.989000", "153653.991000", "153653.994000", "153713.938000", "153713.941000", "153713.943000", "153713.946000", "153713.948000", "153713.951000", "153713.953000", "153713.956000", "153713.959000", "153713.961000", "153713.964000", "153713.966000", "153713.969000", "153713.971000", "153713.974000", "153713.976000", "153713.979000", "153713.981000", "153713.984000", "153713.986000", "153734.410000", "153734.413000", "153734.416000", "153734.418000", "153734.421000", "153734.423000", "153734.426000", "153734.428000", "153734.431000", "153734.433000", "153734.436000", "153734.439000", "153734.441000", "153734.444000", "153734.446000", "153734.449000", "153734.451000", "153734.454000", "153734.456000", "153734.459000", "153813.990000", "153813.993000", "153813.995000", "153813.998000", "153814.002000", "153814.004000", "153814.012000", "153814.015000", "153814.017000", "153814.020000", "153814.023000", "153814.025000", "153814.028000", "153814.030000", "153814.033000", "153814.035000", "153814.038000", "153814.040000", "153814.043000", "153814.045000", "153814.048000", "153814.050000", "153814.053000", "153814.056000", "153814.058000", "153814.061000", "153814.063000", "153814.066000", "153814.068000", "153853.964000", "153853.966000", "153853.969000", "153853.972000", "153853.974000", "153853.977000", "153853.979000", "153853.982000", "153853.984000", "153853.987000", "153853.990000", "153853.992000", "153853.995000", "153853.997000", "153854.001000", "153854.003000", "153854.006000", "153854.008000", "153854.011000", "153854.014000", "153854.016000", "153854.019000", "153854.021000", "153854.024000", "153854.026000", "153854.029000", "153854.031000", "153933.960000", "153933.963000", "153933.966000", "153933.968000", "153933.971000", "153933.973000", "153933.976000", "153933.979000", "153933.981000", "153933.984000", "153933.986000", "153933.989000", "153933.991000", "153933.994000", "153933.996000", "153933.999000", "153934.002000", "153934.004000", "153934.007000", "153934.009000", "153934.012000", "153934.014000", "153934.017000", "153934.020000", "153934.022000", "153934.025000", "153934.027000", "153944.016000", "153944.018000", "153944.021000", "153944.024000", "153944.026000", "153944.029000", "153944.032000"],
      "InstanceCreationTime": ["153634.086000", "153634.089000", "153634.091000", "153634.094000", "153634.096000", "153634.099000", "153634.101000", "153634.104000", "153634.106000", "153634.109000", "153634.112000", "153634.114000", "153634.124000", "153634.127000", "153634.129000", "153634.132000", "153634.135000", "153634.137000", "153634.140000", "153634.142000", "153634.145000", "153634.148000", "153634.150000", "153634.153000", "153634.155000", "153634.158000", "153634.160000", "153634.163000", "153634.166000", "153634.168000", "153634.171000", "153634.173000", "153634.176000", "153634.178000", "153634.181000", "153634.184000", "153634.186000", "153634.189000", "153634.191000", "153634.194000", "153653.945000", "153653.948000", "153653.951000", "153653.953000", "153653.956000", "153653.958000", "153653.961000", "153653.963000", "153653.966000", "153653.968000", "153653.971000", "153653.973000", "153653.976000", "153653.979000", "153653.981000", "153653.984000", "153653.986000", "153653.989000", "153653.991000", "153653.994000", "153713.938000", "153713.941000", "153713.943000", "153713.946000", "153713.948000", "153713.951000", "153713.953000", "153713.956000", "153713.959000", "153713.961000", "153713.964000", "153713.966000", "153713.969000", "153713.971000", "153713.974000", "153713.976000", "153713.979000", "153713.981000", "153713.984000", "153713.986000", "153734.410000", "153734.413000", "153734.416000", "153734.418000", "153734.421000", "153734.423000", "153734.426000", "153734.428000", "153734.431000", "153734.433000", "153734.436000", "153734.439000", "153734.441000", "153734.444000", "153734.446000", "153734.449000", "153734.451000", "153734.454000", "153734.456000", "153734.459000", "153813.990000", "153813.993000", "153813.995000", "153813.998000", "153814.002000", "153814.004000", "153814.012000", "153814.015000", "153814.017000", "153814.020000", "153814.023000", "153814.025000", "153814.028000", "153814.030000", "153814.033000", "153814.035000", "153814.038000", "153814.040000", "153814.043000", "153814.045000", "153814.048000", "153814.050000", "153814.053000", "153814.056000", "153814.058000", "153814.061000", "153814.063000", "153814.066000", "153814.068000", "153853.964000", "153853.966000", "153853.969000", "153853.972000", "153853.974000", "153853.977000", "153853.979000", "153853.982000", "153853.984000", "153853.987000", "153853.990000", "153853.992000", "153853.995000", "153853.997000", "153854.001000", "153854.003000", "153854.006000", "153854.008000", "153854.011000", "153854.014000", "153854.016000", "153854.019000", "153854.021000", "153854.024000", "153854.026000", "153854.029000", "153854.031000", "153933.960000", "153933.963000", "153933.966000", "153933.968000", "153933.971000", "153933.973000", "153933.976000", "153933.979000", "153933.981000", "153933.984000", "153933.986000", "153933.989000", "153933.991000", "153933.994000", "153933.996000", "153933.999000", "153934.002000", "153934.004000", "153934.007000", "153934.009000", "153934.012000", "153934.014000", "153934.017000", "153934.020000", "153934.022000", "153934.025000", "153934.027000", "153944.016000", "153944.018000", "153944.021000", "153944.024000", "153944.026000", "153944.029000", "153944.032000"],
      "InstanceNumber": [1, 2, 3, 4, 5, 6, 7, 8, 9, 10, 11, 12, 13, 14, 15, 16, 17, 18, 19, 20, 21, 22, 23, 24, 25, 26, 27, 28, 29, 30, 31, 32, 33, 34, 35, 36, 37, 38, 39, 40, 41, 42, 43, 44, 45, 46, 47, 48, 49, 50, 51, 52, 53, 54, 55, 56, 57, 58, 59, 60, 61, 62, 63, 64, 65, 66, 67, 68, 69, 70, 71, 72, 73, 74, 75, 76, 77, 78, 79, 80, 81, 82, 83, 84, 85, 86, 87, 88, 89, 90, 91, 92, 93, 94, 95, 96, 97, 98, 99, 100, 101, 102, 103, 104, 105, 106, 107, 108, 109, 110, 111, 112, 113, 114, 115, 116, 117, 118, 119, 120, 121, 122, 123, 124, 125, 126, 127, 128, 129, 130, 131, 132, 133, 134, 135, 136, 137, 138, 139, 140, 141, 142, 143, 144, 145, 146, 147, 148, 149, 150, 151, 152, 153, 154, 155, 156, 157, 158, 159, 160, 161, 162, 163, 164, 165, 166, 167, 168, 169, 170, 171, 172, 173, 174, 175, 176, 177, 178, 179, 180, 181, 182, 183, 184, 185, 186, 187, 188, 189, 190],
      "WindowCenter": [4822.0, 4822.0, 4820.0, 4818.0, 4820.0, 4818.0, 4820.0, 4826.0, 4828.0, 4824.0, 4826.0, 4828.0, 4824.0, 4822.0, 4826.0, 4824.0, 4824.0, 4820.0, 4826.0, 4824.0, 4822.0, 4826.0, 4824.0, 4826.0, 4820.0, 4822.0, 4818.0, 4820.0, 4820.0, 4822.0, 4826.0, 4822.0, 4826.0, 4826.0, 4850.0, 4826.0, 4822.0, 4822.0, 4818.0, 4822.0, 4820.0, 4820.0, 4820.0, 4826.0, 4822.0, 4824.0, 4820.0, 4824.0, 4824.0, 4820.0, 4820.0, 4822.0, 4820.0, 4822.0, 4818.0, 4826.0, 4830.0, 4824.0, 4824.0, 4820.0, 4822.0, 4818.0, 4818.0, 4818.0, 4822.0, 4820.0, 4824.0, 4826.0, 4824.0, 4820.0, 4822.0, 4824.0, 4818.0, 4820.0, 4820.0, 4820.0, 4826.0, 4820.0, 4826.0, 4820.0, 4824.0, 4822.0, 4820.0, 4822.0, 4826.0, 4822.0, 4820.0, 4818.0, 4822.0, 4816.0, 4822.0, 4822.0, 4822.0, 4830.0, 4826.0, 4824.0, 4822.0, 4824.0, 4824.0, 4824.0, 4824.0, 4826.0, 4828.0, 4826.0, 4824.0, 4824.0, 4822.0, 4824.0, 4820.0, 4824.0, 4824.0, 4824.0, 4824.0, 4824.0, 4822.0, 4822.0, 4824.0, 4822.0, 4824.0, 4822.0, 4818.0, 4820.0, 4818.0, 4822.0, 4820.0, 4824.0, 4818.0, 4822.0, 4820.0, 4820.0, 4824.0, 4818.0, 4822.0, 4818.0, 4822.0, 4828.0, 4824.0, 4822.0, 4822.0, 4822.0, 4822.0, 4818.0, 4822.0, 4822.0, 4824.0, 4818.0, 4818.0, 4824.0, 4822.0, 4820.0, 4816.0, 4818.0, 4814.0, 4826.0, 4822.0, 4822.0, 4852.0, 4824.0, 4826.0, 4826.0, 4826.0, 4816.0, 4818.0, 4818.0, 4814.0, 4824.0, 4878.0, 4876.0, 4876.0, 4882.0, 4822.0, 4812.0, 4812.0, 4814.0, 4812.0, 4792.0, 4850.0, 4848.0, 4804.0, 4878.0, 4826.0, 4814.0, 4810.0, 4808.0, 4788.0, 4818.0, 4822.0, 4852.0, 4852.0, 4878.0],
      "WindowWidth": [18592.0, 18590.0, 18590.0, 18590.0, 18588.0, 18592.0, 18586.0, 18594.0, 18592.0, 18586.0, 18592.0, 18592.0, 18596.0, 18590.0, 18592.0, 18594.0, 18590.0, 18592.0, 18590.0, 18590.0, 18592.0, 18590.0, 18588.0, 18590.0, 18582.0, 18590.0, 18590.0, 18590.0, 18588.0, 18588.0, 18592.0, 18590.0, 18588.0, 18596.0, 18624.0, 18588.0, 18586.0, 18590.0, 18590.0, 18588.0, 18588.0, 18590.0, 18582.0, 18596.0, 18590.0, 18594.0, 18586.0, 18590.0, 18590.0, 18588.0, 18592.0, 18594.0, 18592.0, 18584.0, 18590.0, 18594.0, 18590.0, 18588.0, 18588.0, 18590.0, 18586.0, 18588.0, 18588.0, 18586.0, 18586.0, 18590.0, 18588.0, 18592.0, 18582.0, 18584.0, 18592.0, 18590.0, 18586.0, 18584.0, 18588.0, 18592.0, 18592.0, 18588.0, 18596.0, 18588.0, 18588.0, 18588.0, 18590.0, 18588.0, 18588.0, 18590.0, 18584.0, 18582.0, 18588.0, 18582.0, 18592.0, 18584.0, 18588.0, 18588.0, 18586.0, 18584.0, 18586.0, 18588.0, 18584.0, 18586.0, 18580.0, 18586.0, 18588.0, 18578.0, 18588.0, 18580.0, 18594.0, 18590.0, 18592.0, 18588.0, 18594.0, 18592.0, 18586.0, 18588.0, 18586.0, 18588.0, 18592.0, 18586.0, 18592.0, 18588.0, 18586.0, 18590.0, 18590.0, 18588.0, 18586.0, 18592.0, 18586.0, 18590.0, 18584.0, 18590.0, 18594.0, 18586.0, 18590.0, 18590.0, 18592.0, 18592.0, 18592.0, 18584.0, 18588.0, 18584.0, 18586.0, 18590.0, 18586.0, 18590.0, 18588.0, 18590.0, 18586.0, 18586.0, 18592.0, 18586.0, 18588.0, 18584.0, 18586.0, 18590.0, 18590.0, 18588.0, 18624.0, 18590.0, 18588.0, 18590.0, 18586.0, 18596.0, 18596.0, 18596.0, 18592.0, 18590.0, 18670.0, 18684.0, 18674.0, 18672.0, 18588.0, 18586.0, 18606.0, 18606.0, 18606.0, 18558.0, 18628.0, 18638.0, 18598.0, 18684.0, 18588.0, 18592.0, 18594.0, 18600.0, 18562.0, 18590.0, 18584.0, 18630.0, 18634.0, 18664.0]
    },
    "slices": {}
  }
}