{
  "AcquisitionMatrixPE": 104,
  "AcquisitionNumber": 1,
  "AcquisitionTime": "15:49:29.057500",
  "BandwidthPerPixelPhaseEncode": 17.17,
  "BaseResolution": 104,
  "BodyPartExamined": "BRAIN",
  "CoilString": "HC1-7;NC1_2",
  "ConsistencyInfo": "N4_VE11C_LATEST_20160120",
  "ConversionSoftware": "dcm2niix",
  "ConversionSoftwareVersion": "v1.0.20190902",
  "DerivedVendorReportedEchoSpacing": 0.000560011,
  "DeviceSerialNumber": "167006",
  "DwellTime": 2.1e-06,
  "EchoTime": 0.037,
  "EchoTrainLength": 104,
  "EffectiveEchoSpacing": 0.000560011,
  "FlipAngle": 52,
  "ImageComments": "Unaliased_MB4_PE3_LB",
  "ImageOrientationPatientDICOM": [0.999484, -0.0308142, 0.00904607, 0.0321085, 0.953335, -0.300202],
  "ImageType": [
    "ORIGINAL",
    "PRIMARY",
    "P",
    "MB",
    "ND",
    "MOSAIC"
],
  "ImagingFrequency": 123.259,
  "InPlanePhaseEncodingDirectionDICOM": "COL",
  "InstitutionAddress": "Chemin_Queen-Mary_4565_Montreal_District_CA_H3W_1W5",
  "InstitutionName": "IUGM",
  "InstitutionalDepartmentName": "Department",
  "MRAcquisitionType": "2D",
  "MagneticFieldStrength": 3,
  "Manufacturer": "Siemens",
  "ManufacturersModelName": "Prisma_fit",
  "Modality": "MR",
  "MultibandAccelerationFactor": 4,
  "PartialFourier": 1,
  "PatientPosition": "HFS",
  "PercentPhaseFOV": 100,
  "PhaseEncodingDirection": "j",
  "PhaseEncodingSteps": 104,
  "PhaseResolution": 1,
  "PixelBandwidth": 2290,
  "ProcedureStepDescription": "memory_things",
  "ProtocolName": "func_task-things_run-4",
  "PulseSequenceDetails": "%CustomerSeq%_cmrr_mbep2d_bold",
  "ReceiveCoilActiveElements": "HC1-7;NC1,2",
  "ReceiveCoilName": "HeadNeck_64",
  "ReconMatrixPE": 104,
  "RepetitionTime": 1.49,
  "SAR": 0.0549325,
  "ScanOptions": "FS",
  "ScanningSequence": "EP",
  "SequenceName": "epfid2d1_104",
  "SequenceVariant": "SK_SS",
  "SeriesDescription": "func_task-things_run-4",
  "SeriesNumber": 20,
  "ShimSetting": [623, -7264, -8813, 599, -20, -245, -37, -16],
  "SliceThickness": 2,
  "SliceTiming": [0, 0.785, 0.1, 0.8825, 0.1975, 0.98, 0.295, 1.08, 0.3925, 1.1775, 0.49, 1.275, 0.59, 1.3725, 0.6875, 0, 0.785, 0.1, 0.8825, 0.1975, 0.98, 0.295, 1.08, 0.3925, 1.1775, 0.49, 1.275, 0.59, 1.3725, 0.6875, 0, 0.785, 0.1, 0.8825, 0.1975, 0.98, 0.295, 1.08, 0.3925, 1.1775, 0.49, 1.275, 0.59, 1.3725, 0.6875, 0, 0.785, 0.1, 0.8825, 0.1975, 0.98, 0.295, 1.08, 0.3925, 1.1775, 0.49, 1.275, 0.59, 1.3725, 0.6875],
  "SoftwareVersions": "syngo_MR_E11",
  "SpacingBetweenSlices": 2,
  "StationName": "MRC35049",
  "TaskName": "things",
  "TotalReadoutTime": 0.0576811,
  "TxRefAmp": 272.281,
  "WipMemBlock": "674bcd47-b144-4bb0-a1a5-fb8fb73f89a7||Sequence: R016 ve11c/master r/e634e98; Dec 19 2017 11:00:25 by eja",
  "dcmmeta_affine": [
    [-1.9989683628082275, 0.06421700865030289, -0.0012531279353424907, 104.25762939453125],
    [0.06162847951054573, 1.9066702127456665, -0.6006753444671631, -67.75911712646484],
    [0.018092136830091476, 0.6004040837287903, 1.907665491104126, -60.60963439941406],
    [0.0, 0.0, 0.0, 1.0]
],
  "dcmmeta_reorient_transform": [
    [0.0, -1.0, 0.0, 103.0],
    [1.0, 0.0, 0.0, 0.0],
    [0.0, 0.0, 1.0, 0.0],
    [0.0, 0.0, 0.0, 1.0]
],
  "dcmmeta_shape": [104, 104, 60, 190],
  "dcmmeta_slice_dim": 2,
  "dcmmeta_version": 0.6,
  "global": {
    "const": {
      "AcquisitionMatrix": [104, 0, 0, 104],
      "AngioFlag": "N",
      "BitsAllocated": 16,
      "BitsStored": 16,
      "BodyPartExamined": "BRAIN",
      "Columns": 832,
      "EchoNumbers": 1,
      "EchoTime": 37.0,
      "EchoTrainLength": 104,
      "FlipAngle": 52.0,
      "HighBit": 15,
      "ImageOrientationPatient": [0.99948419260541, -0.0308142398933, 0.00904606830127, 0.0321085058747, 0.95333507698287, -0.3002020566961],
      "ImagePositionPatient": [-861.87146532443, -800.22308169775, 213.1935474049],
      "ImageType": [
        "ORIGINAL",
        "PRIMARY",
        "P",
        "MB",
        "ND",
        "MOSAIC"
],
      "ImagedNucleus": "1H",
      "ImagingFrequency": 123.258897,
      "InPlanePhaseEncodingDirection": "COL",
      "LargestImagePixelValue": 4095,
      "MRAcquisitionType": "2D",
      "MagneticFieldStrength": 3.0,
      "Manufacturer": "SIEMENS",
      "ManufacturerModelName": "Prisma_fit",
      "Modality": "MR",
      "NumberOfAverages": 1.0,
      "NumberOfPhaseEncodingSteps": 104,
      "PercentPhaseFieldOfView": 100.0,
      "PercentSampling": 100.0,
      "PerformedProcedureStepStartTime": "145447.123000",
      "PhotometricInterpretation": "MONOCHROME2",
      "PixelBandwidth": 2290.0,
      "PixelRepresentation": 0,
      "PixelSpacing": [2.0, 2.0],
      "ProtocolName": "func_task-things_run-4",
      "RepetitionTime": 1490.0,
      "RescaleIntercept": -4096.0,
      "RescaleSlope": 2.0,
      "RescaleType": "US",
      "Rows": 832,
      "SAR": 0.05493245776295,
      "SamplesPerPixel": 1,
      "ScanOptions": "FS",
      "ScanningSequence": "EP",
      "SequenceName": "epfid2d1_104",
      "SequenceVariant": [
        "SK",
        "SS"
],
      "SeriesDescription": "func_task-things_run-4",
      "SeriesNumber": 20,
      "SeriesTime": "155055.953000",
      "SliceLocation": -37.526165000658,
      "SliceThickness": 2.0,
      "SmallestImagePixelValue": 0,
      "SoftwareVersions": "syngo MR E11",
      "SpacingBetweenSlices": 1.999999987883,
      "SpecificCharacterSet": "ISO_IR 100",
      "StudyID": "1",
      "StudyTime": "145447.006000",
      "TransmitCoilName": "Body",
      "VariableFlipAngleFlag": "N",
      "WindowCenterWidthExplanation": "Algo1",
      "dBdt": 0.0},
    "slices": {}
  },
  "time": {
    "samples": {
      "AcquisitionNumber": [1, 2, 3, 4, 5, 6, 7, 8, 9, 10, 11, 12, 13, 14, 15, 16, 17, 18, 19, 20, 21, 22, 23, 24, 25, 26, 27, 28, 29, 30, 31, 32, 33, 34, 35, 36, 37, 38, 39, 40, 41, 42, 43, 44, 45, 46, 47, 48, 49, 50, 51, 52, 53, 54, 55, 56, 57, 58, 59, 60, 61, 62, 63, 64, 65, 66, 67, 68, 69, 70, 71, 72, 73, 74, 75, 76, 77, 78, 79, 80, 81, 82, 83, 84, 85, 86, 87, 88, 89, 90, 91, 92, 93, 94, 95, 96, 97, 98, 99, 100, 101, 102, 103, 104, 105, 106, 107, 108, 109, 110, 111, 112, 113, 114, 115, 116, 117, 118, 119, 120, 121, 122, 123, 124, 125, 126, 127, 128, 129, 130, 131, 132, 133, 134, 135, 136, 137, 138, 139, 140, 141, 142, 143, 144, 145, 146, 147, 148, 149, 150, 151, 152, 153, 154, 155, 156, 157, 158, 159, 160, 161, 162, 163, 164, 165, 166, 167, 168, 169, 170, 171, 172, 173, 174, 175, 176, 177, 178, 179, 180, 181, 182, 183, 184, 185, 186, 187, 188, 189, 190],
      "AcquisitionTime": ["154929.057500", "154930.547500", "154932.037500", "154933.527500", "154935.017500", "154936.507500", "154937.997500", "154939.487500", "154940.977500", "154942.467500", "154943.957500", "154945.447500", "154946.937500", "154948.427500", "154949.917500", "154951.407500", "154952.897500", "154954.387500", "154955.877500", "154957.367500", "154958.857500", "155000.347500", "155001.837500", "155003.327500", "155004.817500", "155006.307500", "155007.797500", "155009.287500", "155010.777500", "155012.267500", "155013.757500", "155015.247500", "155016.737500", "155018.227500", "155019.717500", "155021.207500", "155022.697500", "155024.187500", "155025.677500", "155027.167500", "155028.657500", "155030.147500", "155031.637500", "155033.127500", "155034.617500", "155036.107500", "155037.597500", "155039.087500", "155040.577500", "155042.067500", "155043.557500", "155045.047500", "155046.537500", "155048.027500", "155049.517500", "155051.007500", "155052.497500", "155053.987500", "155055.477500", "155056.967500", "155058.457500", "155059.947500", "155101.437500", "155102.927500", "155104.417500", "155105.907500", "155107.397500", "155108.887500", "155110.377500", "155111.867500", "155113.357500", "155114.847500", "155116.337500", "155117.827500", "155119.317500", "155120.807500", "155122.297500", "155123.787500", "155125.277500", "155126.767500", "155128.257500", "155129.747500", "155131.237500", "155132.727500", "155134.217500", "155135.707500", "155137.197500", "155138.687500", "155140.177500", "155141.667500", "155143.157500", "155144.647500", "155146.137500", "155147.627500", "155149.117500", "155150.607500", "155152.097500", "155153.587500", "155155.077500", "155156.567500", "155158.057500", "155159.547500", "155201.037500", "155202.527500", "155204.017500", "155205.507500", "155206.997500", "155208.487500", "155209.977500", "155211.467500", "155212.957500", "155214.447500", "155215.937500", "155217.427500", "155218.917500", "155220.407500", "155221.897500", "155223.387500", "155224.877500", "155226.367500", "155227.857500", "155229.347500", "155230.837500", "155232.327500", "155233.817500", "155235.307500", "155236.797500", "155238.287500", "155239.777500", "155241.267500", "155242.757500", "155244.247500", "155245.737500", "155247.227500", "155248.717500", "155250.207500", "155251.697500", "155253.187500", "155254.677500", "155256.167500", "155257.657500", "155259.147500", "155300.637500", "155302.127500", "155303.617500", "155305.107500", "155306.597500", "155308.087500", "155309.577500", "155311.067500", "155312.557500", "155314.047500", "155315.537500", "155317.027500", "155318.517500", "155320.007500", "155321.497500", "155322.987500", "155324.477500", "155325.967500", "155327.457500", "155328.947500", "155330.437500", "155331.927500", "155333.417500", "155334.907500", "155336.397500", "155337.887500", "155339.377500", "155340.867500", "155342.357500", "155343.847500", "155345.337500", "155346.827500", "155348.317500", "155349.807500", "155351.297500", "155352.787500", "155354.277500", "155355.767500", "155357.257500", "155358.747500", "155400.237500", "155401.727500", "155403.217500", "155404.707500", "155406.197500", "155407.687500", "155409.177500", "155410.667500"],
      "ContentTime": ["155055.955000", "155055.958000", "155055.961000", "155055.963000", "155055.966000", "155055.968000", "155055.971000", "155055.973000", "155055.976000", "155055.978000", "155055.981000", "155055.983000", "155055.986000", "155055.989000", "155055.991000", "155055.994000", "155055.996000", "155056.000000", "155056.002000", "155056.005000", "155056.011000", "155056.014000", "155056.016000", "155056.019000", "155056.021000", "155056.024000", "155056.027000", "155056.029000", "155056.032000", "155056.043000", "155056.046000", "155056.048000", "155056.051000", "155115.838000", "155115.841000", "155115.843000", "155115.846000", "155115.849000", "155115.851000", "155115.854000", "155115.856000", "155115.859000", "155115.861000", "155115.864000", "155115.866000", "155115.869000", "155115.871000", "155115.874000", "155115.877000", "155115.879000", "155115.882000", "155115.884000", "155115.887000", "155135.854000", "155135.857000", "155135.860000", "155135.862000", "155135.865000", "155135.867000", "155135.870000", "155135.872000", "155135.875000", "155135.877000", "155135.880000", "155135.882000", "155135.885000", "155135.887000", "155135.890000", "155135.893000", "155135.895000", "155135.898000", "155135.900000", "155135.903000", "155155.847000", "155155.850000", "155155.853000", "155155.855000", "155155.858000", "155155.861000", "155155.863000", "155155.866000", "155155.868000", "155155.871000", "155155.873000", "155155.876000", "155155.878000", "155155.881000", "155155.883000", "155155.886000", "155155.888000", "155155.891000", "155155.894000", "155155.896000", "155155.899000", "155235.981000", "155235.984000", "155235.986000", "155235.989000", "155235.992000", "155235.994000", "155235.997000", "155236.000000", "155236.003000", "155236.006000", "155236.008000", "155236.011000", "155236.013000", "155236.016000", "155236.018000", "155236.021000", "155236.023000", "155236.026000", "155236.028000", "155236.031000", "155236.033000", "155236.036000", "155236.038000", "155236.041000", "155236.044000", "155236.046000", "155236.049000", "155236.051000", "155236.054000", "155236.056000", "155315.875000", "155315.878000", "155315.881000", "155315.883000", "155315.886000", "155315.888000", "155315.891000", "155315.894000", "155315.896000", "155315.899000", "155315.901000", "155315.904000", "155315.906000", "155315.909000", "155315.912000", "155315.914000", "155315.917000", "155315.919000", "155315.922000", "155315.924000", "155315.927000", "155315.929000", "155315.932000", "155315.935000", "155315.937000", "155315.940000", "155315.942000", "155335.866000", "155335.869000", "155335.871000", "155335.874000", "155335.876000", "155335.879000", "155335.881000", "155335.889000", "155335.891000", "155335.894000", "155335.897000", "155335.899000", "155335.902000", "155335.904000", "155413.245000", "155413.249000", "155413.251000", "155413.254000", "155413.257000", "155413.260000", "155413.262000", "155413.265000", "155413.268000", "155413.271000", "155413.273000", "155413.276000", "155413.279000", "155413.282000", "155413.284000", "155413.287000", "155413.290000", "155413.293000", "155413.295000", "155413.299000", "155413.303000", "155413.307000", "155413.309000", "155413.312000", "155413.314000"],
      "InstanceCreationTime": ["155055.955000", "155055.958000", "155055.961000", "155055.963000", "155055.966000", "155055.968000", "155055.971000", "155055.973000", "155055.976000", "155055.978000", "155055.981000", "155055.983000", "155055.986000", "155055.989000", "155055.991000", "155055.994000", "155055.996000", "155056.000000", "155056.002000", "155056.005000", "155056.011000", "155056.014000", "155056.016000", "155056.019000", "155056.021000", "155056.024000", "155056.027000", "155056.029000", "155056.032000", "155056.043000", "155056.046000", "155056.048000", "155056.051000", "155115.838000", "155115.841000", "155115.843000", "155115.846000", "155115.849000", "155115.851000", "155115.854000", "155115.856000", "155115.859000", "155115.861000", "155115.864000", "155115.866000", "155115.869000", "155115.871000", "155115.874000", "155115.877000", "155115.879000", "155115.882000", "155115.884000", "155115.887000", "155135.854000", "155135.857000", "155135.860000", "155135.862000", "155135.865000", "155135.867000", "155135.870000", "155135.872000", "155135.875000", "155135.877000", "155135.880000", "155135.882000", "155135.885000", "155135.887000", "155135.890000", "155135.893000", "155135.895000", "155135.898000", "155135.900000", "155135.903000", "155155.847000", "155155.850000", "155155.853000", "155155.855000", "155155.858000", "155155.861000", "155155.863000", "155155.866000", "155155.868000", "155155.871000", "155155.873000", "155155.876000", "155155.878000", "155155.881000", "155155.883000", "155155.886000", "155155.888000", "155155.891000", "155155.894000", "155155.896000", "155155.899000", "155235.981000", "155235.984000", "155235.986000", "155235.989000", "155235.992000", "155235.994000", "155235.997000", "155236.000000", "155236.003000", "155236.006000", "155236.008000", "155236.011000", "155236.013000", "155236.016000", "155236.018000", "155236.021000", "155236.023000", "155236.026000", "155236.028000", "155236.031000", "155236.033000", "155236.036000", "155236.038000", "155236.041000", "155236.044000", "155236.046000", "155236.049000", "155236.051000", "155236.054000", "155236.056000", "155315.875000", "155315.878000", "155315.881000", "155315.883000", "155315.886000", "155315.888000", "155315.891000", "155315.894000", "155315.896000", "155315.899000", "155315.901000", "155315.904000", "155315.906000", "155315.909000", "155315.912000", "155315.914000", "155315.917000", "155315.919000", "155315.922000", "155315.924000", "155315.927000", "155315.929000", "155315.932000", "155315.935000", "155315.937000", "155315.940000", "155315.942000", "155335.866000", "155335.869000", "155335.871000", "155335.874000", "155335.876000", "155335.879000", "155335.881000", "155335.889000", "155335.891000", "155335.894000", "155335.897000", "155335.899000", "155335.902000", "155335.904000", "155413.245000", "155413.249000", "155413.251000", "155413.254000", "155413.257000", "155413.260000", "155413.262000", "155413.265000", "155413.268000", "155413.271000", "155413.273000", "155413.276000", "155413.279000", "155413.282000", "155413.284000", "155413.287000", "155413.290000", "155413.293000", "155413.295000", "155413.299000", "155413.303000", "155413.307000", "155413.309000", "155413.312000", "155413.314000"],
      "InstanceNumber": [1, 2, 3, 4, 5, 6, 7, 8, 9, 10, 11, 12, 13, 14, 15, 16, 17, 18, 19, 20, 21, 22, 23, 24, 25, 26, 27, 28, 29, 30, 31, 32, 33, 34, 35, 36, 37, 38, 39, 40, 41, 42, 43, 44, 45, 46, 47, 48, 49, 50, 51, 52, 53, 54, 55, 56, 57, 58, 59, 60, 61, 62, 63, 64, 65, 66, 67, 68, 69, 70, 71, 72, 73, 74, 75, 76, 77, 78, 79, 80, 81, 82, 83, 84, 85, 86, 87, 88, 89, 90, 91, 92, 93, 94, 95, 96, 97, 98, 99, 100, 101, 102, 103, 104, 105, 106, 107, 108, 109, 110, 111, 112, 113, 114, 115, 116, 117, 118, 119, 120, 121, 122, 123, 124, 125, 126, 127, 128, 129, 130, 131, 132, 133, 134, 135, 136, 137, 138, 139, 140, 141, 142, 143, 144, 145, 146, 147, 148, 149, 150, 151, 152, 153, 154, 155, 156, 157, 158, 159, 160, 161, 162, 163, 164, 165, 166, 167, 168, 169, 170, 171, 172, 173, 174, 175, 176, 177, 178, 179, 180, 181, 182, 183, 184, 185, 186, 187, 188, 189, 190],
      "WindowCenter": [4854.0, 4852.0, 4878.0, 4878.0, 4852.0, 4856.0, 4848.0, 4820.0, 4824.0, 4852.0, 4854.0, 4876.0, 4880.0, 4854.0, 4850.0, 4852.0, 4824.0, 4848.0, 4850.0, 4850.0, 4850.0, 4856.0, 4874.0, 4896.0, 4872.0, 4846.0, 4822.0, 4818.0, 4822.0, 4868.0, 4862.0, 4852.0, 4854.0, 4830.0, 4820.0, 4826.0, 4852.0, 4854.0, 4854.0, 4880.0, 4868.0, 4876.0, 4856.0, 4852.0, 4826.0, 4828.0, 4858.0, 4854.0, 4852.0, 4878.0, 4882.0, 4878.0, 4878.0, 4856.0, 4854.0, 4854.0, 4826.0, 4852.0, 4854.0, 4852.0, 4876.0, 4852.0, 4850.0, 4854.0, 4826.0, 4854.0, 4824.0, 4850.0, 4850.0, 4828.0, 4876.0, 4848.0, 4852.0, 4880.0, 4880.0, 4858.0, 4880.0, 4880.0, 4854.0, 4854.0, 4880.0, 4796.0, 4824.0, 4826.0, 4826.0, 4852.0, 4856.0, 4854.0, 4876.0, 4876.0, 4856.0, 4854.0, 4876.0, 4878.0, 4852.0, 4826.0, 4852.0, 4826.0, 4824.0, 4852.0, 4878.0, 4878.0, 4878.0, 4870.0, 4900.0, 4850.0, 4852.0, 4826.0, 4824.0, 4826.0, 4824.0, 4850.0, 4852.0, 4856.0, 4856.0, 4876.0, 4878.0, 4850.0, 4828.0, 4822.0, 4826.0, 4826.0, 4826.0, 4854.0, 4854.0, 4854.0, 4854.0, 4852.0, 4856.0, 4828.0, 4852.0, 4826.0, 4828.0, 4822.0, 4852.0, 4828.0, 4856.0, 4850.0, 4852.0, 4856.0, 4880.0, 4878.0, 4850.0, 4880.0, 4852.0, 4830.0, 4882.0, 4856.0, 4852.0, 4874.0, 4854.0, 4876.0, 4822.0, 4828.0, 4826.0, 4828.0, 4852.0, 4856.0, 4852.0, 4856.0, 4880.0, 4902.0, 4878.0, 4852.0, 4826.0, 4826.0, 4826.0, 4852.0, 4854.0, 4856.0, 4876.0, 4876.0, 4878.0, 4878.0, 4878.0, 4852.0, 4824.0, 4828.0, 4830.0, 4828.0, 4878.0, 4854.0, 4882.0, 4880.0, 4854.0, 4876.0, 4852.0, 4850.0, 4826.0, 4850.0],
      "WindowWidth": [18626.0, 18624.0, 18682.0, 18674.0, 18622.0, 18628.0, 18622.0, 18576.0, 18588.0, 18626.0, 18622.0, 18662.0, 18680.0, 18632.0, 18620.0, 18630.0, 18590.0, 18616.0, 18618.0, 18620.0, 18622.0, 18624.0, 18680.0, 18726.0, 18682.0, 18628.0, 18580.0, 18584.0, 18592.0, 18694.0, 18686.0, 18628.0, 18618.0, 18588.0, 18588.0, 18584.0, 18622.0, 18628.0, 18628.0, 18686.0, 18682.0, 18682.0, 18628.0, 18616.0, 18590.0, 18586.0, 18626.0, 18624.0, 18620.0, 18670.0, 18668.0, 18662.0, 18670.0, 18624.0, 18618.0, 18626.0, 18586.0, 18624.0, 18630.0, 18620.0, 18664.0, 18628.0, 18618.0, 18628.0, 18584.0, 18632.0, 18588.0, 18618.0, 18622.0, 18588.0, 18660.0, 18622.0, 18622.0, 18678.0, 18672.0, 18624.0, 18668.0, 18672.0, 18624.0, 18634.0, 18688.0, 18558.0, 18584.0, 18584.0, 18586.0, 18622.0, 18634.0, 18634.0, 18664.0, 18664.0, 18628.0, 18622.0, 18666.0, 18670.0, 18618.0, 18582.0, 18622.0, 18584.0, 18584.0, 18628.0, 18672.0, 18662.0, 18672.0, 18690.0, 18716.0, 18622.0, 18624.0, 18586.0, 18582.0, 18588.0, 18580.0, 18620.0, 18630.0, 18634.0, 18628.0, 18680.0, 18668.0, 18616.0, 18586.0, 18578.0, 18582.0, 18586.0, 18580.0, 18626.0, 18618.0, 18638.0, 18624.0, 18622.0, 18632.0, 18592.0, 18624.0, 18582.0, 18590.0, 18584.0, 18620.0, 18586.0, 18632.0, 18620.0, 18626.0, 18628.0, 18674.0, 18664.0, 18622.0, 18668.0, 18624.0, 18582.0, 18674.0, 18632.0, 18630.0, 18686.0, 18634.0, 18678.0, 18582.0, 18590.0, 18582.0, 18590.0, 18620.0, 18626.0, 18628.0, 18634.0, 18672.0, 18710.0, 18660.0, 18618.0, 18588.0, 18592.0, 18586.0, 18620.0, 18626.0, 18630.0, 18670.0, 18686.0, 18664.0, 18660.0, 18668.0, 18620.0, 18586.0, 18584.0, 18582.0, 18584.0, 18656.0, 18628.0, 18678.0, 18680.0, 18632.0, 18660.0, 18622.0, 18618.0, 18582.0, 18618.0]
    },
    "slices": {}
  }
}