{
  "AcquisitionMatrixPE": 104,
  "AcquisitionNumber": 1,
  "AcquisitionTime": "15:28:53.950000",
  "BandwidthPerPixelPhaseEncode": 17.17,
  "BaseResolution": 104,
  "BodyPartExamined": "BRAIN",
  "CoilString": "HC1-7;NC1_2",
  "ConsistencyInfo": "N4_VE11C_LATEST_20160120",
  "ConversionSoftware": "dcm2niix",
  "ConversionSoftwareVersion": "v1.0.20190902",
  "DerivedVendorReportedEchoSpacing": 0.000560011,
  "DeviceSerialNumber": "167006",
  "DwellTime": 2.1e-06,
  "EchoTime": 0.037,
  "EchoTrainLength": 104,
  "EffectiveEchoSpacing": 0.000560011,
  "FlipAngle": 52,
  "ImageComments": "Unaliased_MB4_PE3_LB",
  "ImageOrientationPatientDICOM": [0.999484, -0.0308142, 0.00904607, 0.0321085, 0.953335, -0.300202],
  "ImageType": [
    "ORIGINAL",
    "PRIMARY",
    "P",
    "MB",
    "ND",
    "MOSAIC"
],
  "ImagingFrequency": 123.259,
  "InPlanePhaseEncodingDirectionDICOM": "COL",
  "InstitutionAddress": "Chemin_Queen-Mary_4565_Montreal_District_CA_H3W_1W5",
  "InstitutionName": "IUGM",
  "InstitutionalDepartmentName": "Department",
  "MRAcquisitionType": "2D",
  "MagneticFieldStrength": 3,
  "Manufacturer": "Siemens",
  "ManufacturersModelName": "Prisma_fit",
  "Modality": "MR",
  "MultibandAccelerationFactor": 4,
  "PartialFourier": 1,
  "PatientPosition": "HFS",
  "PercentPhaseFOV": 100,
  "PhaseEncodingDirection": "j",
  "PhaseEncodingSteps": 104,
  "PhaseResolution": 1,
  "PixelBandwidth": 2290,
  "ProcedureStepDescription": "memory_things",
  "ProtocolName": "func_task-things_run-1",
  "PulseSequenceDetails": "%CustomerSeq%_cmrr_mbep2d_bold",
  "ReceiveCoilActiveElements": "HC1-7;NC1,2",
  "ReceiveCoilName": "HeadNeck_64",
  "ReconMatrixPE": 104,
  "RepetitionTime": 1.49,
  "SAR": 0.0549325,
  "ScanOptions": "FS",
  "ScanningSequence": "EP",
  "SequenceName": "epfid2d1_104",
  "SequenceVariant": "SK_SS",
  "SeriesDescription": "func_task-things_run-1",
  "SeriesNumber": 11,
  "ShimSetting": [623, -7264, -8813, 599, -20, -245, -37, -16],
  "SliceThickness": 2,
  "SliceTiming": [0, 0.785, 0.0975, 0.8825, 0.1975, 0.98, 0.295, 1.0775, 0.3925, 1.1775, 0.49, 1.275, 0.5875, 1.3725, 0.6875, 0, 0.785, 0.0975, 0.8825, 0.1975, 0.98, 0.295, 1.0775, 0.3925, 1.1775, 0.49, 1.275, 0.5875, 1.3725, 0.6875, 0, 0.785, 0.0975, 0.8825, 0.1975, 0.98, 0.295, 1.0775, 0.3925, 1.1775, 0.49, 1.275, 0.5875, 1.3725, 0.6875, 0, 0.785, 0.0975, 0.8825, 0.1975, 0.98, 0.295, 1.0775, 0.3925, 1.1775, 0.49, 1.275, 0.5875, 1.3725, 0.6875],
  "SoftwareVersions": "syngo_MR_E11",
  "SpacingBetweenSlices": 2,
  "StationName": "MRC35049",
  "TaskName": "things",
  "TotalReadoutTime": 0.0576811,
  "TxRefAmp": 272.281,
  "WipMemBlock": "2107c534-6405-4e97-aee8-6ad8beacef49||Sequence: R016 ve11c/master r/e634e98; Dec 19 2017 11:00:25 by eja",
  "dcmmeta_affine": [
    [-1.9989683628082275, 0.06421700865030289, -0.0012531279353424907, 104.25762939453125],
    [0.06162847951054573, 1.9066702127456665, -0.6006753444671631, -67.75911712646484],
    [0.018092136830091476, 0.6004040837287903, 1.907665491104126, -60.60963439941406],
    [0.0, 0.0, 0.0, 1.0]
],
  "dcmmeta_reorient_transform": [
    [0.0, -1.0, 0.0, 103.0],
    [1.0, 0.0, 0.0, 0.0],
    [0.0, 0.0, 1.0, 0.0],
    [0.0, 0.0, 0.0, 1.0]
],
  "dcmmeta_shape": [104, 104, 60, 190],
  "dcmmeta_slice_dim": 2,
  "dcmmeta_version": 0.6,
  "global": {
    "const": {
      "AcquisitionMatrix": [104, 0, 0, 104],
      "AngioFlag": "N",
      "BitsAllocated": 16,
      "BitsStored": 16,
      "BodyPartExamined": "BRAIN",
      "Columns": 832,
      "EchoNumbers": 1,
      "EchoTime": 37.0,
      "EchoTrainLength": 104,
      "FlipAngle": 52.0,
      "HighBit": 15,
      "ImageOrientationPatient": [0.99948419260541, -0.0308142398933, 0.00904606830127, 0.0321085058747, 0.95333507698287, -0.3002020566961],
      "ImagePositionPatient": [-861.87146532443, -800.22308169775, 213.1935474049],
      "ImageType": [
        "ORIGINAL",
        "PRIMARY",
        "P",
        "MB",
        "ND",
        "MOSAIC"
],
      "ImagedNucleus": "1H",
      "ImagingFrequency": 123.258891,
      "InPlanePhaseEncodingDirection": "COL",
      "LargestImagePixelValue": 4095,
      "MRAcquisitionType": "2D",
      "MagneticFieldStrength": 3.0,
      "Manufacturer": "SIEMENS",
      "ManufacturerModelName": "Prisma_fit",
      "Modality": "MR",
      "NumberOfAverages": 1.0,
      "NumberOfPhaseEncodingSteps": 104,
      "PercentPhaseFieldOfView": 100.0,
      "PercentSampling": 100.0,
      "PerformedProcedureStepStartTime": "145447.123000",
      "PhotometricInterpretation": "MONOCHROME2",
      "PixelBandwidth": 2290.0,
      "PixelRepresentation": 0,
      "PixelSpacing": [2.0, 2.0],
      "ProtocolName": "func_task-things_run-1",
      "RepetitionTime": 1490.0,
      "RescaleIntercept": -4096.0,
      "RescaleSlope": 2.0,
      "RescaleType": "US",
      "Rows": 832,
      "SAR": 0.05493245776295,
      "SamplesPerPixel": 1,
      "ScanOptions": "FS",
      "ScanningSequence": "EP",
      "SequenceName": "epfid2d1_104",
      "SequenceVariant": [
        "SK",
        "SS"
],
      "SeriesDescription": "func_task-things_run-1",
      "SeriesNumber": 11,
      "SeriesTime": "153015.918000",
      "SliceLocation": -37.526165000658,
      "SliceThickness": 2.0,
      "SmallestImagePixelValue": 0,
      "SoftwareVersions": "syngo MR E11",
      "SpacingBetweenSlices": 1.999999987883,
      "SpecificCharacterSet": "ISO_IR 100",
      "StudyID": "1",
      "StudyTime": "145447.006000",
      "TransmitCoilName": "Body",
      "VariableFlipAngleFlag": "N",
      "WindowCenterWidthExplanation": "Algo1",
      "dBdt": 0.0},
    "slices": {}
  },
  "time": {
    "samples": {
      "AcquisitionNumber": [1, 2, 3, 4, 5, 6, 7, 8, 9, 10, 11, 12, 13, 14, 15, 16, 17, 18, 19, 20, 21, 22, 23, 24, 25, 26, 27, 28, 29, 30, 31, 32, 33, 34, 35, 36, 37, 38, 39, 40, 41, 42, 43, 44, 45, 46, 47, 48, 49, 50, 51, 52, 53, 54, 55, 56, 57, 58, 59, 60, 61, 62, 63, 64, 65, 66, 67, 68, 69, 70, 71, 72, 73, 74, 75, 76, 77, 78, 79, 80, 81, 82, 83, 84, 85, 86, 87, 88, 89, 90, 91, 92, 93, 94, 95, 96, 97, 98, 99, 100, 101, 102, 103, 104, 105, 106, 107, 108, 109, 110, 111, 112, 113, 114, 115, 116, 117, 118, 119, 120, 121, 122, 123, 124, 125, 126, 127, 128, 129, 130, 131, 132, 133, 134, 135, 136, 137, 138, 139, 140, 141, 142, 143, 144, 145, 146, 147, 148, 149, 150, 151, 152, 153, 154, 155, 156, 157, 158, 159, 160, 161, 162, 163, 164, 165, 166, 167, 168, 169, 170, 171, 172, 173, 174, 175, 176, 177, 178, 179, 180, 181, 182, 183, 184, 185, 186, 187, 188, 189, 190],
      "AcquisitionTime": ["152853.950000", "152855.440000", "152856.930000", "152858.420000", "152859.910000", "152901.400000", "152902.890000", "152904.380000", "152905.870000", "152907.360000", "152908.850000", "152910.340000", "152911.830000", "152913.320000", "152914.810000", "152916.300000", "152917.790000", "152919.280000", "152920.770000", "152922.260000", "152923.750000", "152925.240000", "152926.730000", "152928.220000", "152929.710000", "152931.200000", "152932.690000", "152934.180000", "152935.670000", "152937.160000", "152938.650000", "152940.140000", "152941.630000", "152943.120000", "152944.610000", "152946.100000", "152947.590000", "152949.080000", "152950.570000", "152952.060000", "152953.550000", "152955.040000", "152956.530000", "152958.020000", "152959.510000", "153001.000000", "153002.490000", "153003.980000", "153005.470000", "153006.960000", "153008.450000", "153009.940000", "153011.430000", "153012.920000", "153014.410000", "153015.900000", "153017.390000", "153018.880000", "153020.370000", "153021.860000", "153023.350000", "153024.840000", "153026.330000", "153027.820000", "153029.310000", "153030.800000", "153032.290000", "153033.780000", "153035.270000", "153036.760000", "153038.250000", "153039.740000", "153041.230000", "153042.720000", "153044.210000", "153045.700000", "153047.190000", "153048.680000", "153050.170000", "153051.660000", "153053.150000", "153054.640000", "153056.130000", "153057.620000", "153059.110000", "153100.600000", "153102.090000", "153103.580000", "153105.070000", "153106.560000", "153108.050000", "153109.540000", "153111.030000", "153112.520000", "153114.010000", "153115.500000", "153116.990000", "153118.480000", "153119.970000", "153121.460000", "153122.950000", "153124.440000", "153125.930000", "153127.420000", "153128.910000", "153130.400000", "153131.890000", "153133.380000", "153134.870000", "153136.360000", "153137.850000", "153139.340000", "153140.830000", "153142.320000", "153143.810000", "153145.300000", "153146.790000", "153148.280000", "153149.770000", "153151.260000", "153152.750000", "153154.240000", "153155.730000", "153157.220000", "153158.710000", "153200.200000", "153201.690000", "153203.180000", "153204.670000", "153206.160000", "153207.650000", "153209.140000", "153210.630000", "153212.120000", "153213.610000", "153215.100000", "153216.590000", "153218.080000", "153219.570000", "153221.060000", "153222.550000", "153224.040000", "153225.530000", "153227.020000", "153228.510000", "153230.000000", "153231.490000", "153232.980000", "153234.470000", "153235.960000", "153237.450000", "153238.940000", "153240.430000", "153241.920000", "153243.410000", "153244.900000", "153246.390000", "153247.880000", "153249.370000", "153250.860000", "153252.350000", "153253.840000", "153255.330000", "153256.820000", "153258.310000", "153259.800000", "153301.290000", "153302.780000", "153304.270000", "153305.760000", "153307.250000", "153308.740000", "153310.230000", "153311.720000", "153313.210000", "153314.700000", "153316.190000", "153317.680000", "153319.170000", "153320.660000", "153322.150000", "153323.640000", "153325.130000", "153326.620000", "153328.110000", "153329.600000", "153331.090000", "153332.580000", "153334.070000", "153335.560000"],
      "ContentTime": ["153015.920000", "153015.923000", "153015.926000", "153015.928000", "153015.931000", "153015.933000", "153015.936000", "153015.938000", "153015.941000", "153015.944000", "153015.946000", "153015.949000", "153015.951000", "153015.954000", "153015.957000", "153015.959000", "153015.962000", "153015.964000", "153015.967000", "153015.970000", "153015.972000", "153015.975000", "153015.977000", "153015.980000", "153015.982000", "153015.985000", "153015.987000", "153015.990000", "153035.843000", "153035.847000", "153035.851000", "153035.854000", "153035.856000", "153035.859000", "153035.861000", "153035.864000", "153035.866000", "153035.869000", "153035.871000", "153035.874000", "153035.877000", "153035.880000", "153035.882000", "153035.885000", "153035.887000", "153035.890000", "153035.892000", "153035.895000", "153055.842000", "153055.845000", "153055.847000", "153055.850000", "153055.853000", "153055.855000", "153055.858000", "153055.860000", "153055.863000", "153055.865000", "153055.868000", "153055.870000", "153055.873000", "153055.875000", "153055.878000", "153055.881000", "153055.883000", "153055.886000", "153055.888000", "153055.891000", "153055.893000", "153115.835000", "153115.838000", "153115.841000", "153115.843000", "153115.846000", "153115.848000", "153115.851000", "153115.853000", "153115.856000", "153115.859000", "153115.861000", "153115.864000", "153115.866000", "153115.869000", "153115.871000", "153115.874000", "153115.876000", "153115.879000", "153115.881000", "153115.884000", "153155.930000", "153155.932000", "153155.935000", "153155.938000", "153155.940000", "153155.943000", "153155.945000", "153155.948000", "153155.950000", "153155.953000", "153155.955000", "153155.958000", "153155.960000", "153155.963000", "153155.965000", "153155.968000", "153155.971000", "153155.973000", "153155.976000", "153155.978000", "153155.981000", "153155.983000", "153155.986000", "153155.989000", "153155.991000", "153155.994000", "153155.996000", "153156.000000", "153156.002000", "153156.005000", "153156.007000", "153156.010000", "153235.875000", "153235.878000", "153235.881000", "153235.883000", "153235.886000", "153235.888000", "153235.891000", "153235.893000", "153235.896000", "153235.898000", "153235.901000", "153235.903000", "153235.906000", "153235.909000", "153235.911000", "153235.914000", "153235.916000", "153235.919000", "153235.921000", "153235.924000", "153235.926000", "153235.929000", "153235.937000", "153235.940000", "153235.942000", "153235.945000", "153235.947000", "153315.882000", "153315.885000", "153315.888000", "153315.890000", "153315.893000", "153315.896000", "153315.898000", "153315.901000", "153315.903000", "153315.906000", "153315.908000", "153315.911000", "153315.913000", "153315.923000", "153315.925000", "153315.928000", "153315.930000", "153315.933000", "153315.935000", "153315.938000", "153315.940000", "153315.943000", "153315.946000", "153315.948000", "153315.951000", "153315.953000", "153315.956000", "153335.806000", "153335.809000", "153335.812000", "153335.814000", "153335.817000", "153335.819000", "153335.822000", "153335.824000", "153335.827000", "153335.830000", "153335.832000", "153335.835000", "153335.837000", "153335.840000", "153337.268000"],
      "InstanceCreationTime": ["153015.920000", "153015.923000", "153015.926000", "153015.928000", "153015.931000", "153015.933000", "153015.936000", "153015.938000", "153015.941000", "153015.944000", "153015.946000", "153015.949000", "153015.951000", "153015.954000", "153015.957000", "153015.959000", "153015.962000", "153015.964000", "153015.967000", "153015.970000", "153015.972000", "153015.975000", "153015.977000", "153015.980000", "153015.982000", "153015.985000", "153015.987000", "153015.990000", "153035.843000", "153035.847000", "153035.851000", "153035.854000", "153035.856000", "153035.859000", "153035.861000", "153035.864000", "153035.866000", "153035.869000", "153035.871000", "153035.874000", "153035.877000", "153035.880000", "153035.882000", "153035.885000", "153035.887000", "153035.890000", "153035.892000", "153035.895000", "153055.842000", "153055.845000", "153055.847000", "153055.850000", "153055.853000", "153055.855000", "153055.858000", "153055.860000", "153055.863000", "153055.865000", "153055.868000", "153055.870000", "153055.873000", "153055.875000", "153055.878000", "153055.881000", "153055.883000", "153055.886000", "153055.888000", "153055.891000", "153055.893000", "153115.835000", "153115.838000", "153115.841000", "153115.843000", "153115.846000", "153115.848000", "153115.851000", "153115.853000", "153115.856000", "153115.859000", "153115.861000", "153115.864000", "153115.866000", "153115.869000", "153115.871000", "153115.874000", "153115.876000", "153115.879000", "153115.881000", "153115.884000", "153155.930000", "153155.932000", "153155.935000", "153155.938000", "153155.940000", "153155.943000", "153155.945000", "153155.948000", "153155.950000", "153155.953000", "153155.955000", "153155.958000", "153155.960000", "153155.963000", "153155.965000", "153155.968000", "153155.971000", "153155.973000", "153155.976000", "153155.978000", "153155.981000", "153155.983000", "153155.986000", "153155.989000", "153155.991000", "153155.994000", "153155.996000", "153156.000000", "153156.002000", "153156.005000", "153156.007000", "153156.010000", "153235.875000", "153235.878000", "153235.881000", "153235.883000", "153235.886000", "153235.888000", "153235.891000", "153235.893000", "153235.896000", "153235.898000", "153235.901000", "153235.903000", "153235.906000", "153235.909000", "153235.911000", "153235.914000", "153235.916000", "153235.919000", "153235.921000", "153235.924000", "153235.926000", "153235.929000", "153235.937000", "153235.940000", "153235.942000", "153235.945000", "153235.947000", "153315.882000", "153315.885000", "153315.888000", "153315.890000", "153315.893000", "153315.896000", "153315.898000", "153315.901000", "153315.903000", "153315.906000", "153315.908000", "153315.911000", "153315.913000", "153315.923000", "153315.925000", "153315.928000", "153315.930000", "153315.933000", "153315.935000", "153315.938000", "153315.940000", "153315.943000", "153315.946000", "153315.948000", "153315.951000", "153315.953000", "153315.956000", "153335.806000", "153335.809000", "153335.812000", "153335.814000", "153335.817000", "153335.819000", "153335.822000", "153335.824000", "153335.827000", "153335.830000", "153335.832000", "153335.835000", "153335.837000", "153335.840000", "153337.268000"],
      "InstanceNumber": [1, 2, 3, 4, 5, 6, 7, 8, 9, 10, 11, 12, 13, 14, 15, 16, 17, 18, 19, 20, 21, 22, 23, 24, 25, 26, 27, 28, 29, 30, 31, 32, 33, 34, 35, 36, 37, 38, 39, 40, 41, 42, 43, 44, 45, 46, 47, 48, 49, 50, 51, 52, 53, 54, 55, 56, 57, 58, 59, 60, 61, 62, 63, 64, 65, 66, 67, 68, 69, 70, 71, 72, 73, 74, 75, 76, 77, 78, 79, 80, 81, 82, 83, 84, 85, 86, 87, 88, 89, 90, 91, 92, 93, 94, 95, 96, 97, 98, 99, 100, 101, 102, 103, 104, 105, 106, 107, 108, 109, 110, 111, 112, 113, 114, 115, 116, 117, 118, 119, 120, 121, 122, 123, 124, 125, 126, 127, 128, 129, 130, 131, 132, 133, 134, 135, 136, 137, 138, 139, 140, 141, 142, 143, 144, 145, 146, 147, 148, 149, 150, 151, 152, 153, 154, 155, 156, 157, 158, 159, 160, 161, 162, 163, 164, 165, 166, 167, 168, 169, 170, 171, 172, 173, 174, 175, 176, 177, 178, 179, 180, 181, 182, 183, 184, 185, 186, 187, 188, 189, 190],
      "WindowCenter": [4872.0, 4880.0, 4850.0, 4850.0, 4850.0, 4874.0, 4840.0, 4844.0, 4868.0, 4864.0, 4874.0, 4878.0, 4878.0, 4874.0, 4854.0, 4876.0, 4872.0, 4874.0, 4870.0, 4872.0, 4870.0, 4872.0, 4874.0, 4874.0, 4876.0, 4874.0, 4872.0, 4852.0, 4868.0, 4874.0, 4874.0, 4874.0, 4876.0, 4874.0, 4874.0, 4876.0, 4872.0, 4874.0, 4868.0, 4876.0, 4870.0, 4850.0, 4872.0, 4876.0, 4878.0, 4864.0, 4864.0, 4876.0, 4874.0, 4874.0, 4874.0, 4870.0, 4876.0, 4870.0, 4872.0, 4874.0, 4872.0, 4874.0, 4874.0, 4852.0, 4876.0, 4874.0, 4876.0, 4874.0, 4872.0, 4870.0, 4874.0, 4874.0, 4868.0, 4878.0, 4870.0, 4876.0, 4876.0, 4874.0, 4870.0, 4874.0, 4874.0, 4844.0, 4876.0, 4872.0, 4878.0, 4872.0, 4876.0, 4876.0, 4874.0, 4874.0, 4872.0, 4872.0, 4874.0, 4870.0, 4878.0, 4872.0, 4874.0, 4874.0, 4872.0, 4878.0, 4870.0, 4874.0, 4874.0, 4874.0, 4876.0, 4876.0, 4880.0, 4870.0, 4880.0, 4868.0, 4874.0, 4842.0, 4866.0, 4880.0, 4870.0, 4874.0, 4878.0, 4878.0, 4878.0, 4874.0, 4874.0, 4870.0, 4870.0, 4870.0, 4832.0, 4868.0, 4874.0, 4880.0, 4876.0, 4876.0, 4874.0, 4876.0, 4874.0, 4844.0, 4872.0, 4846.0, 4850.0, 4876.0, 4874.0, 4852.0, 4874.0, 4878.0, 4872.0, 4874.0, 4872.0, 4874.0, 4876.0, 4868.0, 4874.0, 4876.0, 4876.0, 4876.0, 4876.0, 4876.0, 4876.0, 4874.0, 4868.0, 4872.0, 4872.0, 4876.0, 4876.0, 4876.0, 4874.0, 4848.0, 4848.0, 4868.0, 4874.0, 4838.0, 4798.0, 4842.0, 4876.0, 4852.0, 4848.0, 4854.0, 4850.0, 4804.0, 4800.0, 4840.0, 4880.0, 4852.0, 4880.0, 4878.0, 4882.0, 4876.0, 4874.0, 4872.0, 4842.0, 4810.0, 4802.0, 4832.0, 4878.0, 4878.0, 4874.0, 4854.0],
      "WindowWidth": [18688.0, 18678.0, 18626.0, 18628.0, 18634.0, 18674.0, 18640.0, 18648.0, 18678.0, 18678.0, 18672.0, 18676.0, 18676.0, 18670.0, 18634.0, 18678.0, 18672.0, 18678.0, 18678.0, 18674.0, 18676.0, 18678.0, 18672.0, 18678.0, 18668.0, 18676.0, 18674.0, 18644.0, 18678.0, 18678.0, 18678.0, 18676.0, 18678.0, 18684.0, 18672.0, 18678.0, 18678.0, 18672.0, 18676.0, 18670.0, 18674.0, 18644.0, 18676.0, 18680.0, 18678.0, 18678.0, 18678.0, 18674.0, 18672.0, 18664.0, 18668.0, 18680.0, 18674.0, 18676.0, 18678.0, 18676.0, 18676.0, 18672.0, 18678.0, 18636.0, 18678.0, 18672.0, 18674.0, 18676.0, 18670.0, 18676.0, 18678.0, 18676.0, 18680.0, 18674.0, 18674.0, 18668.0, 18676.0, 18674.0, 18676.0, 18676.0, 18676.0, 18654.0, 18676.0, 18674.0, 18676.0, 18674.0, 18676.0, 18668.0, 18676.0, 18672.0, 18672.0, 18678.0, 18676.0, 18678.0, 18674.0, 18680.0, 18672.0, 18676.0, 18680.0, 18676.0, 18674.0, 18668.0, 18676.0, 18676.0, 18678.0, 18674.0, 18676.0, 18672.0, 18674.0, 18678.0, 18676.0, 18650.0, 18682.0, 18674.0, 18680.0, 18690.0, 18670.0, 18664.0, 18676.0, 18678.0, 18678.0, 18672.0, 18674.0, 18672.0, 18636.0, 18680.0, 18668.0, 18668.0, 18666.0, 18664.0, 18672.0, 18674.0, 18672.0, 18642.0, 18672.0, 18646.0, 18638.0, 18668.0, 18676.0, 18636.0, 18682.0, 18668.0, 18680.0, 18678.0, 18676.0, 18680.0, 18680.0, 18678.0, 18670.0, 18678.0, 18666.0, 18674.0, 18674.0, 18680.0, 18678.0, 18676.0, 18676.0, 18668.0, 18672.0, 18666.0, 18672.0, 18668.0, 18672.0, 18644.0, 18640.0, 18682.0, 18676.0, 18644.0, 18596.0, 18646.0, 18668.0, 18632.0, 18624.0, 18634.0, 18638.0, 18608.0, 18600.0, 18638.0, 18674.0, 18634.0, 18678.0, 18674.0, 18674.0, 18674.0, 18674.0, 18676.0, 18636.0, 18604.0, 18598.0, 18634.0, 18678.0, 18678.0, 18662.0, 18634.0]
    },
    "slices": {}
  }
}