{
  "AcquisitionMatrixPE": 104,
  "AcquisitionNumber": 1,
  "AcquisitionTime": "15:55:39.947500",
  "BandwidthPerPixelPhaseEncode": 17.17,
  "BaseResolution": 104,
  "BodyPartExamined": "BRAIN",
  "CoilString": "HC1-7;NC1_2",
  "ConsistencyInfo": "N4_VE11C_LATEST_20160120",
  "ConversionSoftware": "dcm2niix",
  "ConversionSoftwareVersion": "v1.0.20190902",
  "DerivedVendorReportedEchoSpacing": 0.000560011,
  "DeviceSerialNumber": "167006",
  "DwellTime": 2.1e-06,
  "EchoTime": 0.037,
  "EchoTrainLength": 104,
  "EffectiveEchoSpacing": 0.000560011,
  "FlipAngle": 52,
  "ImageComments": "Unaliased_MB4_PE3_LB",
  "ImageOrientationPatientDICOM": [0.999484, -0.0308142, 0.00904607, 0.0321085, 0.953335, -0.300202],
  "ImageType": [
    "ORIGINAL",
    "PRIMARY",
    "M",
    "MB",
    "ND",
    "MOSAIC"
],
  "ImagingFrequency": 123.259,
  "InPlanePhaseEncodingDirectionDICOM": "COL",
  "InstitutionAddress": "Chemin_Queen-Mary_4565_Montreal_District_CA_H3W_1W5",
  "InstitutionName": "IUGM",
  "InstitutionalDepartmentName": "Department",
  "MRAcquisitionType": "2D",
  "MagneticFieldStrength": 3,
  "Manufacturer": "Siemens",
  "ManufacturersModelName": "Prisma_fit",
  "Modality": "MR",
  "MultibandAccelerationFactor": 4,
  "PartialFourier": 1,
  "PatientPosition": "HFS",
  "PercentPhaseFOV": 100,
  "PhaseEncodingDirection": "j",
  "PhaseEncodingSteps": 104,
  "PhaseResolution": 1,
  "PixelBandwidth": 2290,
  "ProcedureStepDescription": "memory_things",
  "ProtocolName": "func_task-things_run-5",
  "PulseSequenceDetails": "%CustomerSeq%_cmrr_mbep2d_bold",
  "ReceiveCoilActiveElements": "HC1-7;NC1,2",
  "ReceiveCoilName": "HeadNeck_64",
  "ReconMatrixPE": 104,
  "RepetitionTime": 1.49,
  "SAR": 0.0549325,
  "ScanOptions": "FS",
  "ScanningSequence": "EP",
  "SequenceName": "epfid2d1_104",
  "SequenceVariant": "SK_SS",
  "SeriesDescription": "func_task-things_run-5",
  "SeriesNumber": 22,
  "ShimSetting": [623, -7264, -8813, 599, -20, -245, -37, -16],
  "SliceThickness": 2,
  "SliceTiming": [0, 0.785, 0.0975, 0.8825, 0.1975, 0.98, 0.295, 1.0775, 0.3925, 1.1775, 0.49, 1.275, 0.5875, 1.3725, 0.6875, 0, 0.785, 0.0975, 0.8825, 0.1975, 0.98, 0.295, 1.0775, 0.3925, 1.1775, 0.49, 1.275, 0.5875, 1.3725, 0.6875, 0, 0.785, 0.0975, 0.8825, 0.1975, 0.98, 0.295, 1.0775, 0.3925, 1.1775, 0.49, 1.275, 0.5875, 1.3725, 0.6875, 0, 0.785, 0.0975, 0.8825, 0.1975, 0.98, 0.295, 1.0775, 0.3925, 1.1775, 0.49, 1.275, 0.5875, 1.3725, 0.6875],
  "SoftwareVersions": "syngo_MR_E11",
  "SpacingBetweenSlices": 2,
  "StationName": "MRC35049",
  "TaskName": "things",
  "TotalReadoutTime": 0.0576811,
  "TxRefAmp": 272.281,
  "WipMemBlock": "0ca874fb-353b-4af5-8497-5c25d6e64cf1||Sequence: R016 ve11c/master r/e634e98; Dec 19 2017 11:00:25 by eja",
  "dcmmeta_affine": [
    [-1.9989683628082275, 0.06421700865030289, -0.0012531279353424907, 104.25762939453125],
    [0.06162847951054573, 1.9066702127456665, -0.6006753444671631, -67.75911712646484],
    [0.018092136830091476, 0.6004040837287903, 1.907665491104126, -60.60963439941406],
    [0.0, 0.0, 0.0, 1.0]
],
  "dcmmeta_reorient_transform": [
    [0.0, -1.0, 0.0, 103.0],
    [1.0, 0.0, 0.0, 0.0],
    [0.0, 0.0, 1.0, 0.0],
    [0.0, 0.0, 0.0, 1.0]
],
  "dcmmeta_shape": [104, 104, 60, 190],
  "dcmmeta_slice_dim": 2,
  "dcmmeta_version": 0.6,
  "global": {
    "const": {
      "AcquisitionMatrix": [104, 0, 0, 104],
      "AngioFlag": "N",
      "BitsAllocated": 16,
      "BitsStored": 16,
      "BodyPartExamined": "BRAIN",
      "Columns": 832,
      "EchoNumbers": 1,
      "EchoTime": 37.0,
      "EchoTrainLength": 104,
      "FlipAngle": 52.0,
      "HighBit": 15,
      "ImageOrientationPatient": [0.99948419260541, -0.0308142398933, 0.00904606830127, 0.0321085058747, 0.95333507698287, -0.3002020566961],
      "ImagePositionPatient": [-861.87146532443, -800.22308169775, 213.1935474049],
      "ImageType": [
        "ORIGINAL",
        "PRIMARY",
        "M",
        "MB",
        "ND",
        "MOSAIC"
],
      "ImagedNucleus": "1H",
      "ImagingFrequency": 123.258901,
      "InPlanePhaseEncodingDirection": "COL",
      "MRAcquisitionType": "2D",
      "MagneticFieldStrength": 3.0,
      "Manufacturer": "SIEMENS",
      "ManufacturerModelName": "Prisma_fit",
      "Modality": "MR",
      "NumberOfAverages": 1.0,
      "NumberOfPhaseEncodingSteps": 104,
      "PercentPhaseFieldOfView": 100.0,
      "PercentSampling": 100.0,
      "PerformedProcedureStepStartTime": "145447.123000",
      "PhotometricInterpretation": "MONOCHROME2",
      "PixelBandwidth": 2290.0,
      "PixelRepresentation": 0,
      "PixelSpacing": [2.0, 2.0],
      "ProtocolName": "func_task-things_run-5",
      "RepetitionTime": 1490.0,
      "Rows": 832,
      "SAR": 0.05493245776295,
      "SamplesPerPixel": 1,
      "ScanOptions": "FS",
      "ScanningSequence": "EP",
      "SequenceName": "epfid2d1_104",
      "SequenceVariant": [
        "SK",
        "SS"
],
      "SeriesDescription": "func_task-things_run-5",
      "SeriesNumber": 22,
      "SeriesTime": "155713.858000",
      "SliceLocation": -37.526165000658,
      "SliceThickness": 2.0,
      "SmallestImagePixelValue": 0,
      "SoftwareVersions": "syngo MR E11",
      "SpacingBetweenSlices": 1.999999987883,
      "SpecificCharacterSet": "ISO_IR 100",
      "StudyID": "1",
      "StudyTime": "145447.006000",
      "TransmitCoilName": "Body",
      "VariableFlipAngleFlag": "N",
      "WindowCenterWidthExplanation": "Algo1",
      "dBdt": 0.0},
    "slices": {}
  },
  "time": {
    "samples": {
      "AcquisitionNumber": [1, 2, 3, 4, 5, 6, 7, 8, 9, 10, 11, 12, 13, 14, 15, 16, 17, 18, 19, 20, 21, 22, 23, 24, 25, 26, 27, 28, 29, 30, 31, 32, 33, 34, 35, 36, 37, 38, 39, 40, 41, 42, 43, 44, 45, 46, 47, 48, 49, 50, 51, 52, 53, 54, 55, 56, 57, 58, 59, 60, 61, 62, 63, 64, 65, 66, 67, 68, 69, 70, 71, 72, 73, 74, 75, 76, 77, 78, 79, 80, 81, 82, 83, 84, 85, 86, 87, 88, 89, 90, 91, 92, 93, 94, 95, 96, 97, 98, 99, 100, 101, 102, 103, 104, 105, 106, 107, 108, 109, 110, 111, 112, 113, 114, 115, 116, 117, 118, 119, 120, 121, 122, 123, 124, 125, 126, 127, 128, 129, 130, 131, 132, 133, 134, 135, 136, 137, 138, 139, 140, 141, 142, 143, 144, 145, 146, 147, 148, 149, 150, 151, 152, 153, 154, 155, 156, 157, 158, 159, 160, 161, 162, 163, 164, 165, 166, 167, 168, 169, 170, 171, 172, 173, 174, 175, 176, 177, 178, 179, 180, 181, 182, 183, 184, 185, 186, 187, 188, 189, 190],
      "AcquisitionTime": ["155539.947500", "155541.437500", "155542.927500", "155544.417500", "155545.907500", "155547.397500", "155548.887500", "155550.377500", "155551.867500", "155553.357500", "155554.847500", "155556.337500", "155557.827500", "155559.317500", "155600.807500", "155602.297500", "155603.787500", "155605.277500", "155606.767500", "155608.257500", "155609.747500", "155611.237500", "155612.727500", "155614.217500", "155615.707500", "155617.197500", "155618.687500", "155620.177500", "155621.667500", "155623.157500", "155624.647500", "155626.137500", "155627.627500", "155629.117500", "155630.607500", "155632.097500", "155633.587500", "155635.077500", "155636.567500", "155638.057500", "155639.547500", "155641.037500", "155642.527500", "155644.017500", "155645.507500", "155646.997500", "155648.487500", "155649.977500", "155651.467500", "155652.957500", "155654.447500", "155655.937500", "155657.427500", "155658.917500", "155700.407500", "155701.897500", "155703.387500", "155704.877500", "155706.367500", "155707.857500", "155709.347500", "155710.837500", "155712.327500", "155713.817500", "155715.307500", "155716.797500", "155718.287500", "155719.777500", "155721.267500", "155722.757500", "155724.247500", "155725.737500", "155727.227500", "155728.717500", "155730.207500", "155731.697500", "155733.187500", "155734.677500", "155736.167500", "155737.657500", "155739.147500", "155740.637500", "155742.127500", "155743.617500", "155745.107500", "155746.597500", "155748.087500", "155749.577500", "155751.067500", "155752.557500", "155754.047500", "155755.537500", "155757.027500", "155758.517500", "155800.007500", "155801.497500", "155802.987500", "155804.477500", "155805.967500", "155807.457500", "155808.947500", "155810.437500", "155811.927500", "155813.417500", "155814.907500", "155816.397500", "155817.887500", "155819.377500", "155820.867500", "155822.357500", "155823.847500", "155825.337500", "155826.827500", "155828.317500", "155829.807500", "155831.297500", "155832.787500", "155834.277500", "155835.767500", "155837.257500", "155838.747500", "155840.237500", "155841.727500", "155843.217500", "155844.707500", "155846.197500", "155847.687500", "155849.177500", "155850.667500", "155852.157500", "155853.647500", "155855.137500", "155856.627500", "155858.117500", "155859.607500", "155901.097500", "155902.587500", "155904.077500", "155905.567500", "155907.057500", "155908.547500", "155910.037500", "155911.527500", "155913.017500", "155914.507500", "155915.997500", "155917.487500", "155918.977500", "155920.467500", "155921.957500", "155923.447500", "155924.937500", "155926.427500", "155927.917500", "155929.407500", "155930.897500", "155932.387500", "155933.877500", "155935.367500", "155936.857500", "155938.347500", "155939.837500", "155941.327500", "155942.817500", "155944.307500", "155945.797500", "155947.287500", "155948.777500", "155950.267500", "155951.757500", "155953.247500", "155954.737500", "155956.227500", "155957.717500", "155959.207500", "160000.697500", "160002.187500", "160003.677500", "160005.167500", "160006.657500", "160008.147500", "160009.637500", "160011.127500", "160012.617500", "160014.107500", "160015.597500", "160017.087500", "160018.577500", "160020.067500", "160021.557500"],
      "ContentTime": ["155713.862000", "155713.866000", "155713.869000", "155713.872000", "155713.876000", "155713.879000", "155713.883000", "155713.886000", "155713.890000", "155713.893000", "155713.896000", "155713.900000", "155713.903000", "155713.907000", "155713.910000", "155713.913000", "155713.917000", "155713.920000", "155713.924000", "155713.927000", "155713.931000", "155713.940000", "155713.943000", "155713.947000", "155713.951000", "155713.956000", "155713.960000", "155713.964000", "155713.968000", "155713.971000", "155713.974000", "155713.978000", "155713.981000", "155713.985000", "155713.988000", "155713.991000", "155714.004000", "155714.007000", "155714.010000", "155733.828000", "155733.832000", "155733.835000", "155733.839000", "155733.842000", "155733.851000", "155733.855000", "155733.858000", "155733.862000", "155733.865000", "155733.868000", "155733.872000", "155733.875000", "155733.878000", "155733.882000", "155733.885000", "155733.888000", "155733.892000", "155733.895000", "155733.899000", "155733.902000", "155753.828000", "155753.832000", "155753.835000", "155753.839000", "155753.842000", "155753.845000", "155753.849000", "155753.852000", "155753.856000", "155753.859000", "155753.862000", "155753.866000", "155753.869000", "155753.872000", "155753.876000", "155753.879000", "155753.882000", "155753.886000", "155753.889000", "155753.892000", "155813.829000", "155813.833000", "155813.836000", "155813.840000", "155813.843000", "155813.846000", "155813.850000", "155813.853000", "155813.857000", "155813.860000", "155813.863000", "155813.867000", "155813.870000", "155813.873000", "155813.877000", "155813.880000", "155813.884000", "155813.887000", "155813.890000", "155813.894000", "155853.829000", "155853.833000", "155853.837000", "155853.840000", "155853.843000", "155853.847000", "155853.850000", "155853.853000", "155853.857000", "155853.860000", "155853.864000", "155853.867000", "155853.870000", "155853.874000", "155853.877000", "155853.880000", "155853.884000", "155853.887000", "155853.890000", "155853.894000", "155853.897000", "155853.900000", "155853.904000", "155853.907000", "155853.911000", "155853.914000", "155853.917000", "155853.921000", "155853.924000", "155933.828000", "155933.835000", "155933.839000", "155933.852000", "155933.856000", "155933.859000", "155933.863000", "155933.866000", "155933.869000", "155933.873000", "155933.876000", "155933.880000", "155933.883000", "155933.886000", "155933.890000", "155933.893000", "155933.897000", "155933.900000", "155933.903000", "155933.907000", "155933.910000", "155933.913000", "155933.917000", "155933.920000", "155933.924000", "155933.927000", "155933.931000", "160013.828000", "160013.832000", "160013.835000", "160013.839000", "160013.842000", "160013.845000", "160013.849000", "160013.852000", "160013.856000", "160013.859000", "160013.862000", "160013.866000", "160013.869000", "160013.872000", "160013.876000", "160013.879000", "160013.883000", "160013.886000", "160013.890000", "160013.893000", "160013.896000", "160013.908000", "160013.911000", "160013.915000", "160013.918000", "160013.922000", "160013.925000", "160024.208000", "160024.211000", "160024.215000", "160024.218000", "160024.222000", "160024.225000", "160024.228000"],
      "InstanceCreationTime": ["155713.862000", "155713.866000", "155713.869000", "155713.872000", "155713.876000", "155713.879000", "155713.883000", "155713.886000", "155713.890000", "155713.893000", "155713.896000", "155713.900000", "155713.903000", "155713.907000", "155713.910000", "155713.913000", "155713.917000", "155713.920000", "155713.924000", "155713.927000", "155713.931000", "155713.940000", "155713.943000", "155713.947000", "155713.951000", "155713.956000", "155713.960000", "155713.964000", "155713.968000", "155713.971000", "155713.974000", "155713.978000", "155713.981000", "155713.985000", "155713.988000", "155713.991000", "155714.004000", "155714.007000", "155714.010000", "155733.828000", "155733.832000", "155733.835000", "155733.839000", "155733.842000", "155733.851000", "155733.855000", "155733.858000", "155733.862000", "155733.865000", "155733.868000", "155733.872000", "155733.875000", "155733.878000", "155733.882000", "155733.885000", "155733.888000", "155733.892000", "155733.895000", "155733.899000", "155733.902000", "155753.828000", "155753.832000", "155753.835000", "155753.839000", "155753.842000", "155753.845000", "155753.849000", "155753.852000", "155753.856000", "155753.859000", "155753.862000", "155753.866000", "155753.869000", "155753.872000", "155753.876000", "155753.879000", "155753.882000", "155753.886000", "155753.889000", "155753.892000", "155813.829000", "155813.833000", "155813.836000", "155813.840000", "155813.843000", "155813.846000", "155813.850000", "155813.853000", "155813.857000", "155813.860000", "155813.863000", "155813.867000", "155813.870000", "155813.873000", "155813.877000", "155813.880000", "155813.884000", "155813.887000", "155813.890000", "155813.894000", "155853.829000", "155853.833000", "155853.837000", "155853.840000", "155853.843000", "155853.847000", "155853.850000", "155853.853000", "155853.857000", "155853.860000", "155853.864000", "155853.867000", "155853.870000", "155853.874000", "155853.877000", "155853.880000", "155853.884000", "155853.887000", "155853.890000", "155853.894000", "155853.897000", "155853.900000", "155853.904000", "155853.907000", "155853.911000", "155853.914000", "155853.917000", "155853.921000", "155853.924000", "155933.828000", "155933.835000", "155933.839000", "155933.852000", "155933.856000", "155933.859000", "155933.863000", "155933.866000", "155933.869000", "155933.873000", "155933.876000", "155933.880000", "155933.883000", "155933.886000", "155933.890000", "155933.893000", "155933.897000", "155933.900000", "155933.903000", "155933.907000", "155933.910000", "155933.913000", "155933.917000", "155933.920000", "155933.924000", "155933.927000", "155933.931000", "160013.828000", "160013.832000", "160013.835000", "160013.839000", "160013.842000", "160013.845000", "160013.849000", "160013.852000", "160013.856000", "160013.859000", "160013.862000", "160013.866000", "160013.869000", "160013.872000", "160013.876000", "160013.879000", "160013.883000", "160013.886000", "160013.890000", "160013.893000", "160013.896000", "160013.908000", "160013.911000", "160013.915000", "160013.918000", "160013.922000", "160013.925000", "160024.208000", "160024.211000", "160024.215000", "160024.218000", "160024.222000", "160024.225000", "160024.228000"],
      "InstanceNumber": [1, 2, 3, 4, 5, 6, 7, 8, 9, 10, 11, 12, 13, 14, 15, 16, 17, 18, 19, 20, 21, 22, 23, 24, 25, 26, 27, 28, 29, 30, 31, 32, 33, 34, 35, 36, 37, 38, 39, 40, 41, 42, 43, 44, 45, 46, 47, 48, 49, 50, 51, 52, 53, 54, 55, 56, 57, 58, 59, 60, 61, 62, 63, 64, 65, 66, 67, 68, 69, 70, 71, 72, 73, 74, 75, 76, 77, 78, 79, 80, 81, 82, 83, 84, 85, 86, 87, 88, 89, 90, 91, 92, 93, 94, 95, 96, 97, 98, 99, 100, 101, 102, 103, 104, 105, 106, 107, 108, 109, 110, 111, 112, 113, 114, 115, 116, 117, 118, 119, 120, 121, 122, 123, 124, 125, 126, 127, 128, 129, 130, 131, 132, 133, 134, 135, 136, 137, 138, 139, 140, 141, 142, 143, 144, 145, 146, 147, 148, 149, 150, 151, 152, 153, 154, 155, 156, 157, 158, 159, 160, 161, 162, 163, 164, 165, 166, 167, 168, 169, 170, 171, 172, 173, 174, 175, 176, 177, 178, 179, 180, 181, 182, 183, 184, 185, 186, 187, 188, 189, 190],
      "LargestImagePixelValue": [39985, 40043, 38379, 38312, 38639, 38086, 37578, 37616, 37666, 37590, 37658, 38248, 39975, 38713, 37741, 37833, 39059, 39012, 38470, 37836, 37629, 37878, 37745, 38688, 38362, 38713, 38553, 38056, 37824, 37675, 37330, 38577, 38326, 38748, 39385, 40091, 38565, 39090, 37728, 39761, 39003, 38937, 38491, 38635, 39677, 41371, 41776, 40754, 40420, 41178, 38608, 38529, 38220, 37324, 37624, 38397, 37808, 37588, 37210, 37310, 37539, 38694, 39561, 38649, 38232, 37573, 38226, 39860, 39687, 38972, 38127, 38722, 38167, 39067, 38028, 37745, 38165, 37554, 40240, 38868, 37357, 40023, 38088, 37628, 37652, 37345, 37744, 37725, 38460, 39153, 39108, 39433, 38914, 39096, 38934, 39082, 37862, 37607, 38659, 39577, 40613, 38877, 39192, 39918, 41472, 41471, 41070, 39606, 40283, 39483, 38982, 39894, 39765, 37865, 38002, 38787, 39149, 39343, 38762, 37554, 37755, 37730, 37714, 38323, 40472, 39839, 38631, 40623, 40308, 39249, 38659, 38487, 39702, 40273, 38552, 39317, 39168, 38828, 40704, 38980, 38084, 38067, 40712, 38959, 38879, 38417, 37629, 37664, 37068, 37040, 38279, 41110, 38838, 39339, 39319, 38675, 39019, 40075, 40643, 40585, 39697, 40835, 39296, 39959, 38104, 40105, 42249, 41021, 38626, 38293, 38819, 38484, 37100, 38637, 39422, 41273, 38185, 39443, 38037, 37680, 37807, 38533, 39136, 39332, 39034, 39061, 39842, 39821, 41002, 40625],
      "WindowCenter": [10199.0, 10129.0, 10096.0, 10105.0, 10102.0, 10093.0, 10056.0, 10026.0, 10014.0, 10028.0, 10052.0, 10074.0, 10101.0, 10116.0, 10100.0, 10090.0, 10125.0, 10111.0, 10102.0, 10068.0, 10030.0, 10000.0, 10009.0, 10056.0, 10086.0, 10088.0, 10064.0, 10046.0, 10058.0, 10098.0, 10107.0, 10092.0, 10070.0, 10071.0, 10099.0, 10132.0, 10126.0, 10119.0, 10107.0, 10118.0, 10120.0, 10105.0, 10071.0, 10053.0, 10070.0, 10113.0, 10150.0, 10147.0, 10145.0, 10091.0, 10092.0, 10063.0, 10020.0, 9987.0, 9992.0, 10016.0, 10022.0, 10005.0, 10015.0, 10069.0, 10101.0, 10095.0, 10087.0, 10106.0, 10112.0, 10085.0, 10085.0, 10124.0, 10152.0, 10134.0, 10090.0, 10085.0, 10069.0, 10089.0, 10096.0, 10098.0, 10088.0, 10080.0, 10124.0, 10132.0, 10125.0, 10137.0, 10112.0, 10107.0, 10088.0, 10057.0, 10043.0, 10045.0, 10067.0, 10067.0, 10053.0, 10063.0, 10089.0, 10091.0, 10072.0, 10049.0, 10039.0, 10046.0, 10067.0, 10063.0, 10042.0, 10017.0, 10023.0, 10048.0, 10113.0, 10176.0, 10195.0, 10171.0, 10143.0, 10102.0, 10079.0, 10083.0, 10061.0, 10007.0, 10002.0, 10041.0, 10076.0, 10082.0, 10079.0, 10083.0, 10086.0, 10082.0, 10076.0, 10071.0, 10085.0, 10097.0, 10087.0, 10108.0, 10126.0, 10158.0, 10166.0, 10148.0, 10140.0, 10126.0, 10121.0, 10134.0, 10117.0, 10109.0, 10106.0, 10093.0, 10099.0, 10096.0, 10117.0, 10094.0, 10068.0, 10035.0, 10013.0, 10019.0, 10039.0, 10044.0, 10053.0, 10089.0, 10099.0, 10102.0, 10093.0, 10088.0, 10077.0, 10079.0, 10099.0, 10112.0, 10099.0, 10110.0, 10116.0, 10139.0, 10110.0, 10102.0, 10124.0, 10142.0, 10125.0, 10096.0, 10085.0, 10054.0, 9986.0, 9975.0, 10093.0, 10163.0, 10094.0, 10087.0, 10020.0, 9982.0, 9969.0, 9966.0, 9979.0, 9992.0, 9988.0, 10005.0, 10041.0, 10053.0, 10081.0, 10105.0],
      "WindowWidth": [22027.0, 21823.0, 21731.0, 21739.0, 21721.0, 21699.0, 21615.0, 21545.0, 21514.0, 21545.0, 21597.0, 21641.0, 21699.0, 21741.0, 21715.0, 21696.0, 21777.0, 21742.0, 21713.0, 21631.0, 21543.0, 21479.0, 21495.0, 21601.0, 21674.0, 21681.0, 21629.0, 21590.0, 21614.0, 21703.0, 21727.0, 21686.0, 21638.0, 21640.0, 21695.0, 21769.0, 21765.0, 21750.0, 21728.0, 21748.0, 21754.0, 21721.0, 21647.0, 21602.0, 21634.0, 21723.0, 21805.0, 21815.0, 21829.0, 21696.0, 21703.0, 21635.0, 21531.0, 21454.0, 21464.0, 21518.0, 21535.0, 21501.0, 21525.0, 21640.0, 21715.0, 21699.0, 21678.0, 21727.0, 21745.0, 21688.0, 21679.0, 21757.0, 21822.0, 21786.0, 21691.0, 21674.0, 21642.0, 21684.0, 21707.0, 21713.0, 21689.0, 21673.0, 21760.0, 21789.0, 21774.0, 21791.0, 21744.0, 21735.0, 21693.0, 21623.0, 21586.0, 21590.0, 21635.0, 21632.0, 21599.0, 21622.0, 21685.0, 21694.0, 21648.0, 21598.0, 21577.0, 21590.0, 21630.0, 21620.0, 21568.0, 21521.0, 21537.0, 21592.0, 21735.0, 21878.0, 21924.0, 21877.0, 21813.0, 21722.0, 21669.0, 21671.0, 21620.0, 21504.0, 21486.0, 21567.0, 21646.0, 21664.0, 21664.0, 21682.0, 21693.0, 21680.0, 21665.0, 21651.0, 21673.0, 21701.0, 21686.0, 21721.0, 21766.0, 21844.0, 21866.0, 21824.0, 21800.0, 21766.0, 21763.0, 21788.0, 21747.0, 21743.0, 21717.0, 21697.0, 21713.0, 21703.0, 21742.0, 21701.0, 21646.0, 21572.0, 21527.0, 21537.0, 21584.0, 21598.0, 21610.0, 21679.0, 21718.0, 21720.0, 21701.0, 21691.0, 21665.0, 21663.0, 21702.0, 21733.0, 21709.0, 21731.0, 21752.0, 21801.0, 21745.0, 21718.0, 21762.0, 21808.0, 21780.0, 21715.0, 21686.0, 21617.0, 21472.0, 21434.0, 21716.0, 21874.0, 21712.0, 21687.0, 21533.0, 21451.0, 21423.0, 21413.0, 21441.0, 21472.0, 21467.0, 21507.0, 21582.0, 21611.0, 21668.0, 21726.0]
    },
    "slices": {}
  }
}