{
  "AcquisitionMatrixPE": 104,
  "AcquisitionNumber": 1,
  "AcquisitionTime": "15:41:48.307500",
  "BandwidthPerPixelPhaseEncode": 17.17,
  "BaseResolution": 104,
  "BodyPartExamined": "BRAIN",
  "CoilString": "HC1-7;NC1_2",
  "ConsistencyInfo": "N4_VE11C_LATEST_20160120",
  "ConversionSoftware": "dcm2niix",
  "ConversionSoftwareVersion": "v1.0.20190902",
  "DerivedVendorReportedEchoSpacing": 0.000560011,
  "DeviceSerialNumber": "167006",
  "DwellTime": 2.1e-06,
  "EchoTime": 0.037,
  "EchoTrainLength": 104,
  "EffectiveEchoSpacing": 0.000560011,
  "FlipAngle": 52,
  "ImageComments": "Unaliased_MB4_PE3_LB",
  "ImageOrientationPatientDICOM": [0.999511, -0.0267865, 0.0161404, 0.0307124, 0.938068, -0.345088],
  "ImageType": [
    "ORIGINAL",
    "PRIMARY",
    "P",
    "MB",
    "ND",
    "MOSAIC"
],
  "ImagingFrequency": 123.259,
  "InPlanePhaseEncodingDirectionDICOM": "COL",
  "InstitutionAddress": "Chemin_Queen-Mary_4565_Montreal_District_CA_H3W_1W5",
  "InstitutionName": "IUGM",
  "InstitutionalDepartmentName": "Department",
  "MRAcquisitionType": "2D",
  "MagneticFieldStrength": 3,
  "Manufacturer": "Siemens",
  "ManufacturersModelName": "Prisma_fit",
  "Modality": "MR",
  "MultibandAccelerationFactor": 4,
  "PartialFourier": 1,
  "PatientPosition": "HFS",
  "PercentPhaseFOV": 100,
  "PhaseEncodingDirection": "j",
  "PhaseEncodingSteps": 104,
  "PhaseResolution": 1,
  "PixelBandwidth": 2290,
  "ProcedureStepDescription": "memory_things",
  "ProtocolName": "func_task-things_run-4",
  "PulseSequenceDetails": "%CustomerSeq%_cmrr_mbep2d_bold",
  "ReceiveCoilActiveElements": "HC1-7;NC1,2",
  "ReceiveCoilName": "HeadNeck_64",
  "ReconMatrixPE": 104,
  "RepetitionTime": 1.49,
  "SAR": 0.070071,
  "ScanOptions": "FS",
  "ScanningSequence": "EP",
  "SequenceName": "epfid2d1_104",
  "SequenceVariant": "SK_SS",
  "SeriesDescription": "func_task-things_run-4",
  "SeriesNumber": 20,
  "ShimSetting": [633, -7241, -8821, 566, 16, -161, -63, -25],
  "SliceThickness": 2,
  "SliceTiming": [0, 0.785, 0.0975, 0.8825, 0.1975, 0.98, 0.295, 1.0775, 0.3925, 1.1775, 0.49, 1.275, 0.5875, 1.3725, 0.6875, 0, 0.785, 0.0975, 0.8825, 0.1975, 0.98, 0.295, 1.0775, 0.3925, 1.1775, 0.49, 1.275, 0.5875, 1.3725, 0.6875, 0, 0.785, 0.0975, 0.8825, 0.1975, 0.98, 0.295, 1.0775, 0.3925, 1.1775, 0.49, 1.275, 0.5875, 1.3725, 0.6875, 0, 0.785, 0.0975, 0.8825, 0.1975, 0.98, 0.295, 1.0775, 0.3925, 1.1775, 0.49, 1.275, 0.5875, 1.3725, 0.6875],
  "SoftwareVersions": "syngo_MR_E11",
  "SpacingBetweenSlices": 2,
  "StationName": "MRC35049",
  "TaskName": "things",
  "TotalReadoutTime": 0.0576811,
  "TxRefAmp": 298.125,
  "WipMemBlock": "56b37f61-36ea-41bd-9864-68b600fc26f7||Sequence: R016 ve11c/master r/e634e98; Dec 19 2017 11:00:25 by eja",
  "dcmmeta_affine": [
    [-1.9990217685699463, 0.06142483279109001, 0.011794264428317547, 104.46095275878906],
    [0.053572945296764374, 1.8761355876922607, -0.6908293962478638, -66.56169891357422],
    [0.03228085860610008, 0.6901755928993225, 1.8768632411956787, -66.36097717285156],
    [0.0, 0.0, 0.0, 1.0]
],
  "dcmmeta_reorient_transform": [
    [0.0, -1.0, 0.0, 103.0],
    [1.0, 0.0, 0.0, 0.0],
    [0.0, 0.0, 1.0, 0.0],
    [0.0, 0.0, 0.0, 1.0]
],
  "dcmmeta_shape": [104, 104, 60, 190],
  "dcmmeta_slice_dim": 2,
  "dcmmeta_version": 0.6,
  "global": {
    "const": {
      "AcquisitionMatrix": [104, 0, 0, 104],
      "AngioFlag": "N",
      "BitsAllocated": 16,
      "BitsStored": 16,
      "BodyPartExamined": "BRAIN",
      "Columns": 832,
      "EchoNumbers": 1,
      "EchoTime": 37.0,
      "EchoTrainLength": 104,
      "FlipAngle": 52.0,
      "HighBit": 15,
      "ImageOrientationPatient": [0.9995108660566, -0.0267864734652, 0.01614042979884, 0.03071241548912, 0.93806778326228, -0.3450877881644],
      "ImagePositionPatient": [-860.79025738861, -790.09305887592, 244.20078464917],
      "ImageType": [
        "ORIGINAL",
        "PRIMARY",
        "P",
        "MB",
        "ND",
        "MOSAIC"
],
      "ImagedNucleus": "1H",
      "ImagingFrequency": 123.258946,
      "InPlanePhaseEncodingDirection": "COL",
      "LargestImagePixelValue": 4095,
      "MRAcquisitionType": "2D",
      "MagneticFieldStrength": 3.0,
      "Manufacturer": "SIEMENS",
      "ManufacturerModelName": "Prisma_fit",
      "Modality": "MR",
      "NumberOfAverages": 1.0,
      "NumberOfPhaseEncodingSteps": 104,
      "PercentPhaseFieldOfView": 100.0,
      "PercentSampling": 100.0,
      "PerformedProcedureStepStartTime": "150647.031000",
      "PhotometricInterpretation": "MONOCHROME2",
      "PixelBandwidth": 2290.0,
      "PixelRepresentation": 0,
      "PixelSpacing": [2.0, 2.0],
      "ProtocolName": "func_task-things_run-4",
      "RepetitionTime": 1490.0,
      "RescaleIntercept": -4096.0,
      "RescaleSlope": 2.0,
      "RescaleType": "US",
      "Rows": 832,
      "SAR": 0.07007098044568,
      "SamplesPerPixel": 1,
      "ScanOptions": "FS",
      "ScanningSequence": "EP",
      "SequenceName": "epfid2d1_104",
      "SequenceVariant": [
        "SK",
        "SS"
],
      "SeriesDescription": "func_task-things_run-4",
      "SeriesNumber": 20,
      "SeriesTime": "154317.657000",
      "SliceLocation": -38.667829391693,
      "SliceThickness": 2.0,
      "SmallestImagePixelValue": 0,
      "SoftwareVersions": "syngo MR E11",
      "SpacingBetweenSlices": 1.9999999504796,
      "SpecificCharacterSet": "ISO_IR 100",
      "StudyID": "1",
      "StudyTime": "150646.935000",
      "TransmitCoilName": "Body",
      "VariableFlipAngleFlag": "N",
      "WindowCenterWidthExplanation": "Algo1",
      "dBdt": 0.0},
    "slices": {}
  },
  "time": {
    "samples": {
      "AcquisitionNumber": [1, 2, 3, 4, 5, 6, 7, 8, 9, 10, 11, 12, 13, 14, 15, 16, 17, 18, 19, 20, 21, 22, 23, 24, 25, 26, 27, 28, 29, 30, 31, 32, 33, 34, 35, 36, 37, 38, 39, 40, 41, 42, 43, 44, 45, 46, 47, 48, 49, 50, 51, 52, 53, 54, 55, 56, 57, 58, 59, 60, 61, 62, 63, 64, 65, 66, 67, 68, 69, 70, 71, 72, 73, 74, 75, 76, 77, 78, 79, 80, 81, 82, 83, 84, 85, 86, 87, 88, 89, 90, 91, 92, 93, 94, 95, 96, 97, 98, 99, 100, 101, 102, 103, 104, 105, 106, 107, 108, 109, 110, 111, 112, 113, 114, 115, 116, 117, 118, 119, 120, 121, 122, 123, 124, 125, 126, 127, 128, 129, 130, 131, 132, 133, 134, 135, 136, 137, 138, 139, 140, 141, 142, 143, 144, 145, 146, 147, 148, 149, 150, 151, 152, 153, 154, 155, 156, 157, 158, 159, 160, 161, 162, 163, 164, 165, 166, 167, 168, 169, 170, 171, 172, 173, 174, 175, 176, 177, 178, 179, 180, 181, 182, 183, 184, 185, 186, 187, 188, 189, 190],
      "AcquisitionTime": ["154148.307500", "154149.797500", "154151.287500", "154152.777500", "154154.267500", "154155.757500", "154157.247500", "154158.737500", "154200.227500", "154201.717500", "154203.207500", "154204.697500", "154206.187500", "154207.677500", "154209.167500", "154210.657500", "154212.147500", "154213.637500", "154215.127500", "154216.617500", "154218.107500", "154219.597500", "154221.087500", "154222.577500", "154224.067500", "154225.557500", "154227.047500", "154228.537500", "154230.027500", "154231.517500", "154233.007500", "154234.497500", "154235.987500", "154237.477500", "154238.967500", "154240.457500", "154241.947500", "154243.437500", "154244.927500", "154246.417500", "154247.907500", "154249.397500", "154250.887500", "154252.377500", "154253.867500", "154255.357500", "154256.847500", "154258.337500", "154259.827500", "154301.317500", "154302.807500", "154304.297500", "154305.787500", "154307.277500", "154308.767500", "154310.257500", "154311.747500", "154313.237500", "154314.727500", "154316.217500", "154317.707500", "154319.197500", "154320.687500", "154322.177500", "154323.667500", "154325.157500", "154326.647500", "154328.137500", "154329.627500", "154331.117500", "154332.607500", "154334.097500", "154335.587500", "154337.077500", "154338.567500", "154340.057500", "154341.547500", "154343.037500", "154344.527500", "154346.017500", "154347.507500", "154348.997500", "154350.487500", "154351.977500", "154353.467500", "154354.957500", "154356.447500", "154357.937500", "154359.427500", "154400.917500", "154402.407500", "154403.897500", "154405.387500", "154406.877500", "154408.367500", "154409.857500", "154411.347500", "154412.837500", "154414.327500", "154415.817500", "154417.307500", "154418.797500", "154420.287500", "154421.777500", "154423.267500", "154424.757500", "154426.247500", "154427.737500", "154429.227500", "154430.717500", "154432.207500", "154433.697500", "154435.187500", "154436.677500", "154438.167500", "154439.657500", "154441.147500", "154442.637500", "154444.127500", "154445.617500", "154447.107500", "154448.597500", "154450.087500", "154451.577500", "154453.067500", "154454.557500", "154456.047500", "154457.537500", "154459.027500", "154500.517500", "154502.007500", "154503.497500", "154504.987500", "154506.477500", "154507.967500", "154509.457500", "154510.947500", "154512.437500", "154513.927500", "154515.417500", "154516.907500", "154518.397500", "154519.887500", "154521.377500", "154522.867500", "154524.357500", "154525.847500", "154527.337500", "154528.827500", "154530.317500", "154531.807500", "154533.297500", "154534.787500", "154536.277500", "154537.767500", "154539.257500", "154540.747500", "154542.237500", "154543.727500", "154545.217500", "154546.707500", "154548.197500", "154549.687500", "154551.177500", "154552.667500", "154554.157500", "154555.647500", "154557.137500", "154558.627500", "154600.117500", "154601.607500", "154603.097500", "154604.587500", "154606.077500", "154607.567500", "154609.057500", "154610.547500", "154612.037500", "154613.527500", "154615.017500", "154616.507500", "154617.997500", "154619.487500", "154620.977500", "154622.467500", "154623.957500", "154625.447500", "154626.937500", "154628.427500", "154629.917500"],
      "ContentTime": ["154317.660000", "154317.662000", "154317.665000", "154317.667000", "154317.670000", "154317.673000", "154317.675000", "154317.678000", "154317.686000", "154317.689000", "154317.691000", "154317.694000", "154317.697000", "154317.699000", "154317.707000", "154317.709000", "154317.712000", "154317.715000", "154317.717000", "154317.720000", "154317.722000", "154317.725000", "154317.727000", "154317.730000", "154317.732000", "154317.735000", "154317.737000", "154317.740000", "154317.742000", "154317.745000", "154317.747000", "154317.750000", "154317.752000", "154317.755000", "154317.757000", "154317.760000", "154338.035000", "154338.044000", "154338.046000", "154338.049000", "154338.051000", "154338.054000", "154338.056000", "154338.059000", "154338.061000", "154338.064000", "154338.067000", "154338.069000", "154338.072000", "154338.074000", "154338.077000", "154338.079000", "154338.082000", "154338.084000", "154338.087000", "154338.089000", "154357.542000", "154357.545000", "154357.547000", "154357.550000", "154357.552000", "154357.555000", "154357.557000", "154357.560000", "154357.562000", "154357.565000", "154357.567000", "154357.570000", "154357.572000", "154357.575000", "154357.578000", "154357.580000", "154357.583000", "154357.585000", "154357.588000", "154357.595000", "154417.570000", "154417.573000", "154417.575000", "154417.578000", "154417.580000", "154417.583000", "154417.585000", "154417.588000", "154417.590000", "154417.593000", "154417.595000", "154417.598000", "154417.601000", "154417.604000", "154417.607000", "154417.609000", "154417.612000", "154417.615000", "154417.617000", "154417.620000", "154417.622000", "154457.589000", "154457.592000", "154457.595000", "154457.597000", "154457.600000", "154457.602000", "154457.605000", "154457.607000", "154457.610000", "154457.612000", "154457.615000", "154457.617000", "154457.620000", "154457.622000", "154457.625000", "154457.627000", "154457.630000", "154457.633000", "154457.635000", "154457.638000", "154457.640000", "154457.643000", "154457.645000", "154457.648000", "154457.650000", "154457.653000", "154457.655000", "154457.658000", "154457.660000", "154537.568000", "154537.571000", "154537.573000", "154537.576000", "154537.578000", "154537.581000", "154537.584000", "154537.586000", "154537.589000", "154537.591000", "154537.594000", "154537.596000", "154537.599000", "154537.601000", "154537.604000", "154537.606000", "154537.609000", "154537.611000", "154537.614000", "154537.616000", "154537.619000", "154537.622000", "154537.624000", "154537.627000", "154537.630000", "154537.633000", "154537.636000", "154557.521000", "154557.524000", "154557.526000", "154557.529000", "154557.532000", "154557.534000", "154557.537000", "154557.539000", "154557.542000", "154557.544000", "154557.547000", "154557.549000", "154557.552000", "154632.077000", "154632.080000", "154632.083000", "154632.085000", "154632.088000", "154632.090000", "154632.093000", "154632.096000", "154632.099000", "154632.101000", "154632.104000", "154632.107000", "154632.109000", "154632.112000", "154632.114000", "154632.117000", "154632.120000", "154632.122000", "154632.125000", "154632.128000", "154632.131000", "154632.134000", "154632.136000", "154632.139000"],
      "InstanceCreationTime": ["154317.660000", "154317.662000", "154317.665000", "154317.667000", "154317.670000", "154317.673000", "154317.675000", "154317.678000", "154317.686000", "154317.689000", "154317.691000", "154317.694000", "154317.697000", "154317.699000", "154317.707000", "154317.709000", "154317.712000", "154317.715000", "154317.717000", "154317.720000", "154317.722000", "154317.725000", "154317.727000", "154317.730000", "154317.732000", "154317.735000", "154317.737000", "154317.740000", "154317.742000", "154317.745000", "154317.747000", "154317.750000", "154317.752000", "154317.755000", "154317.757000", "154317.760000", "154338.035000", "154338.044000", "154338.046000", "154338.049000", "154338.051000", "154338.054000", "154338.056000", "154338.059000", "154338.061000", "154338.064000", "154338.067000", "154338.069000", "154338.072000", "154338.074000", "154338.077000", "154338.079000", "154338.082000", "154338.084000", "154338.087000", "154338.089000", "154357.542000", "154357.545000", "154357.547000", "154357.550000", "154357.552000", "154357.555000", "154357.557000", "154357.560000", "154357.562000", "154357.565000", "154357.567000", "154357.570000", "154357.572000", "154357.575000", "154357.578000", "154357.580000", "154357.583000", "154357.585000", "154357.588000", "154357.595000", "154417.570000", "154417.573000", "154417.575000", "154417.578000", "154417.580000", "154417.583000", "154417.585000", "154417.588000", "154417.590000", "154417.593000", "154417.595000", "154417.598000", "154417.601000", "154417.604000", "154417.607000", "154417.609000", "154417.612000", "154417.615000", "154417.617000", "154417.620000", "154417.622000", "154457.589000", "154457.592000", "154457.595000", "154457.597000", "154457.600000", "154457.602000", "154457.605000", "154457.607000", "154457.610000", "154457.612000", "154457.615000", "154457.617000", "154457.620000", "154457.622000", "154457.625000", "154457.627000", "154457.630000", "154457.633000", "154457.635000", "154457.638000", "154457.640000", "154457.643000", "154457.645000", "154457.648000", "154457.650000", "154457.653000", "154457.655000", "154457.658000", "154457.660000", "154537.568000", "154537.571000", "154537.573000", "154537.576000", "154537.578000", "154537.581000", "154537.584000", "154537.586000", "154537.589000", "154537.591000", "154537.594000", "154537.596000", "154537.599000", "154537.601000", "154537.604000", "154537.606000", "154537.609000", "154537.611000", "154537.614000", "154537.616000", "154537.619000", "154537.622000", "154537.624000", "154537.627000", "154537.630000", "154537.633000", "154537.636000", "154557.521000", "154557.524000", "154557.526000", "154557.529000", "154557.532000", "154557.534000", "154557.537000", "154557.539000", "154557.542000", "154557.544000", "154557.547000", "154557.549000", "154557.552000", "154632.077000", "154632.080000", "154632.083000", "154632.085000", "154632.088000", "154632.090000", "154632.093000", "154632.096000", "154632.099000", "154632.101000", "154632.104000", "154632.107000", "154632.109000", "154632.112000", "154632.114000", "154632.117000", "154632.120000", "154632.122000", "154632.125000", "154632.128000", "154632.131000", "154632.134000", "154632.136000", "154632.139000"],
      "InstanceNumber": [1, 2, 3, 4, 5, 6, 7, 8, 9, 10, 11, 12, 13, 14, 15, 16, 17, 18, 19, 20, 21, 22, 23, 24, 25, 26, 27, 28, 29, 30, 31, 32, 33, 34, 35, 36, 37, 38, 39, 40, 41, 42, 43, 44, 45, 46, 47, 48, 49, 50, 51, 52, 53, 54, 55, 56, 57, 58, 59, 60, 61, 62, 63, 64, 65, 66, 67, 68, 69, 70, 71, 72, 73, 74, 75, 76, 77, 78, 79, 80, 81, 82, 83, 84, 85, 86, 87, 88, 89, 90, 91, 92, 93, 94, 95, 96, 97, 98, 99, 100, 101, 102, 103, 104, 105, 106, 107, 108, 109, 110, 111, 112, 113, 114, 115, 116, 117, 118, 119, 120, 121, 122, 123, 124, 125, 126, 127, 128, 129, 130, 131, 132, 133, 134, 135, 136, 137, 138, 139, 140, 141, 142, 143, 144, 145, 146, 147, 148, 149, 150, 151, 152, 153, 154, 155, 156, 157, 158, 159, 160, 161, 162, 163, 164, 165, 166, 167, 168, 169, 170, 171, 172, 173, 174, 175, 176, 177, 178, 179, 180, 181, 182, 183, 184, 185, 186, 187, 188, 189, 190],
      "WindowCenter": [4810.0, 4816.0, 4838.0, 4816.0, 4812.0, 4812.0, 4810.0, 4784.0, 4812.0, 4812.0, 4788.0, 4812.0, 4818.0, 4836.0, 4816.0, 4814.0, 4816.0, 4810.0, 4786.0, 4812.0, 4812.0, 4816.0, 4812.0, 4814.0, 4812.0, 4810.0, 4812.0, 4810.0, 4782.0, 4810.0, 4786.0, 4808.0, 4812.0, 4810.0, 4812.0, 4810.0, 4812.0, 4786.0, 4806.0, 4784.0, 4808.0, 4810.0, 4810.0, 4808.0, 4812.0, 4812.0, 4786.0, 4806.0, 4810.0, 4784.0, 4786.0, 4808.0, 4812.0, 4786.0, 4790.0, 4790.0, 4812.0, 4808.0, 4814.0, 4812.0, 4812.0, 4810.0, 4786.0, 4782.0, 4784.0, 4784.0, 4782.0, 4784.0, 4812.0, 4806.0, 4812.0, 4812.0, 4814.0, 4810.0, 4812.0, 4806.0, 4786.0, 4784.0, 4786.0, 4808.0, 4810.0, 4808.0, 4808.0, 4810.0, 4812.0, 4788.0, 4808.0, 4786.0, 4786.0, 4806.0, 4784.0, 4810.0, 4808.0, 4810.0, 4788.0, 4782.0, 4784.0, 4810.0, 4808.0, 4808.0, 4810.0, 4808.0, 4784.0, 4784.0, 4782.0, 4808.0, 4786.0, 4808.0, 4784.0, 4786.0, 4806.0, 4784.0, 4782.0, 4782.0, 4786.0, 4802.0, 4806.0, 4808.0, 4784.0, 4808.0, 4780.0, 4784.0, 4784.0, 4784.0, 4786.0, 4808.0, 4784.0, 4808.0, 4782.0, 4810.0, 4786.0, 4782.0, 4782.0, 4782.0, 4806.0, 4784.0, 4808.0, 4780.0, 4784.0, 4806.0, 4784.0, 4808.0, 4806.0, 4786.0, 4788.0, 4786.0, 4810.0, 4784.0, 4782.0, 4784.0, 4782.0, 4804.0, 4782.0, 4806.0, 4784.0, 4786.0, 4806.0, 4808.0, 4786.0, 4784.0, 4810.0, 4784.0, 4810.0, 4782.0, 4810.0, 4788.0, 4786.0, 4806.0, 4788.0, 4808.0, 4786.0, 4808.0, 4810.0, 4806.0, 4780.0, 4810.0, 4808.0, 4786.0, 4782.0, 4786.0, 4806.0, 4786.0, 4780.0, 4784.0, 4786.0, 4810.0, 4806.0, 4810.0, 4808.0, 4780.0],
      "WindowWidth": [18608.0, 18622.0, 18656.0, 18624.0, 18618.0, 18628.0, 18602.0, 18560.0, 18612.0, 18604.0, 18580.0, 18626.0, 18622.0, 18658.0, 18626.0, 18620.0, 18624.0, 18614.0, 18564.0, 18618.0, 18610.0, 18624.0, 18620.0, 18626.0, 18626.0, 18616.0, 18620.0, 18598.0, 18582.0, 18618.0, 18574.0, 18622.0, 18618.0, 18620.0, 18624.0, 18616.0, 18620.0, 18576.0, 18618.0, 18574.0, 18608.0, 18622.0, 18616.0, 18620.0, 18620.0, 18626.0, 18584.0, 18618.0, 18616.0, 18580.0, 18560.0, 18608.0, 18628.0, 18570.0, 18550.0, 18564.0, 18626.0, 18624.0, 18630.0, 18624.0, 18620.0, 18610.0, 18572.0, 18564.0, 18572.0, 18574.0, 18574.0, 18564.0, 18628.0, 18620.0, 18622.0, 18624.0, 18622.0, 18622.0, 18618.0, 18616.0, 18570.0, 18580.0, 18574.0, 18616.0, 18616.0, 18614.0, 18618.0, 18622.0, 18624.0, 18578.0, 18610.0, 18574.0, 18576.0, 18612.0, 18576.0, 18624.0, 18618.0, 18626.0, 18576.0, 18564.0, 18580.0, 18612.0, 18624.0, 18616.0, 18624.0, 18620.0, 18566.0, 18584.0, 18576.0, 18610.0, 18582.0, 18616.0, 18586.0, 18578.0, 18620.0, 18574.0, 18580.0, 18584.0, 18570.0, 18616.0, 18622.0, 18616.0, 18584.0, 18620.0, 18572.0, 18562.0, 18582.0, 18572.0, 18588.0, 18616.0, 18584.0, 18620.0, 18582.0, 18618.0, 18578.0, 18584.0, 18576.0, 18580.0, 18614.0, 18566.0, 18612.0, 18582.0, 18574.0, 18616.0, 18574.0, 18618.0, 18620.0, 18582.0, 18586.0, 18584.0, 18614.0, 18586.0, 18570.0, 18578.0, 18572.0, 18614.0, 18580.0, 18620.0, 18574.0, 18582.0, 18610.0, 18612.0, 18586.0, 18584.0, 18616.0, 18574.0, 18616.0, 18572.0, 18620.0, 18576.0, 18580.0, 18616.0, 18580.0, 18616.0, 18566.0, 18614.0, 18624.0, 18616.0, 18566.0, 18616.0, 18614.0, 18576.0, 18578.0, 18568.0, 18614.0, 18566.0, 18550.0, 18586.0, 18570.0, 18624.0, 18628.0, 18632.0, 18624.0, 18570.0]
    },
    "slices": {}
  }
}