{
  "AcquisitionMatrixPE": 104,
  "AcquisitionNumber": 1,
  "AcquisitionTime": "15:21:43.137500",
  "BandwidthPerPixelPhaseEncode": 17.17,
  "BaseResolution": 104,
  "BodyPartExamined": "BRAIN",
  "CoilString": "HC1-7;NC1_2",
  "ConsistencyInfo": "N4_VE11C_LATEST_20160120",
  "ConversionSoftware": "dcm2niix",
  "ConversionSoftwareVersion": "v1.0.20190902",
  "DerivedVendorReportedEchoSpacing": 0.000560011,
  "DeviceSerialNumber": "167006",
  "DwellTime": 2.1e-06,
  "EchoTime": 0.037,
  "EchoTrainLength": 104,
  "EffectiveEchoSpacing": 0.000560011,
  "FlipAngle": 52,
  "ImageComments": "Unaliased_MB4_PE3_LB",
  "ImageOrientationPatientDICOM": [0.999511, -0.0267865, 0.0161404, 0.0307124, 0.938068, -0.345088],
  "ImageType": [
    "ORIGINAL",
    "PRIMARY",
    "M",
    "MB",
    "ND",
    "MOSAIC"
],
  "ImagingFrequency": 123.259,
  "InPlanePhaseEncodingDirectionDICOM": "COL",
  "InstitutionAddress": "Chemin_Queen-Mary_4565_Montreal_District_CA_H3W_1W5",
  "InstitutionName": "IUGM",
  "InstitutionalDepartmentName": "Department",
  "MRAcquisitionType": "2D",
  "MagneticFieldStrength": 3,
  "Manufacturer": "Siemens",
  "ManufacturersModelName": "Prisma_fit",
  "Modality": "MR",
  "MultibandAccelerationFactor": 4,
  "PartialFourier": 1,
  "PatientPosition": "HFS",
  "PercentPhaseFOV": 100,
  "PhaseEncodingDirection": "j",
  "PhaseEncodingSteps": 104,
  "PhaseResolution": 1,
  "PixelBandwidth": 2290,
  "ProcedureStepDescription": "memory_things",
  "ProtocolName": "func_task-things_run-1",
  "PulseSequenceDetails": "%CustomerSeq%_cmrr_mbep2d_bold",
  "ReceiveCoilActiveElements": "HC1-7;NC1,2",
  "ReceiveCoilName": "HeadNeck_64",
  "ReconMatrixPE": 104,
  "RepetitionTime": 1.49,
  "SAR": 0.070071,
  "ScanOptions": "FS",
  "ScanningSequence": "EP",
  "SequenceName": "epfid2d1_104",
  "SequenceVariant": "SK_SS",
  "SeriesDescription": "func_task-things_run-1",
  "SeriesNumber": 10,
  "ShimSetting": [633, -7241, -8821, 566, 16, -161, -63, -25],
  "SliceThickness": 2,
  "SliceTiming": [0, 0.7825, 0.0975, 0.8825, 0.195, 0.98, 0.2925, 1.0775, 0.3925, 1.175, 0.49, 1.2725, 0.5875, 1.3725, 0.685, 0, 0.7825, 0.0975, 0.8825, 0.195, 0.98, 0.2925, 1.0775, 0.3925, 1.175, 0.49, 1.2725, 0.5875, 1.3725, 0.685, 0, 0.7825, 0.0975, 0.8825, 0.195, 0.98, 0.2925, 1.0775, 0.3925, 1.175, 0.49, 1.2725, 0.5875, 1.3725, 0.685, 0, 0.7825, 0.0975, 0.8825, 0.195, 0.98, 0.2925, 1.0775, 0.3925, 1.175, 0.49, 1.2725, 0.5875, 1.3725, 0.685],
  "SoftwareVersions": "syngo_MR_E11",
  "SpacingBetweenSlices": 2,
  "StationName": "MRC35049",
  "TaskName": "things",
  "TotalReadoutTime": 0.0576811,
  "TxRefAmp": 298.125,
  "WipMemBlock": "1a5ca91c-888d-4c58-9e83-a15a8277c8eb||Sequence: R016 ve11c/master r/e634e98; Dec 19 2017 11:00:25 by eja",
  "dcmmeta_affine": [
    [-1.9990217685699463, 0.06142483279109001, 0.011794264428317547, 104.46095275878906],
    [0.053572945296764374, 1.8761355876922607, -0.6908293962478638, -66.56169891357422],
    [0.03228085860610008, 0.6901755928993225, 1.8768632411956787, -66.36097717285156],
    [0.0, 0.0, 0.0, 1.0]
],
  "dcmmeta_reorient_transform": [
    [0.0, -1.0, 0.0, 103.0],
    [1.0, 0.0, 0.0, 0.0],
    [0.0, 0.0, 1.0, 0.0],
    [0.0, 0.0, 0.0, 1.0]
],
  "dcmmeta_shape": [104, 104, 60, 190],
  "dcmmeta_slice_dim": 2,
  "dcmmeta_version": 0.6,
  "global": {
    "const": {
      "AcquisitionMatrix": [104, 0, 0, 104],
      "AngioFlag": "N",
      "BitsAllocated": 16,
      "BitsStored": 16,
      "BodyPartExamined": "BRAIN",
      "Columns": 832,
      "EchoNumbers": 1,
      "EchoTime": 37.0,
      "EchoTrainLength": 104,
      "FlipAngle": 52.0,
      "HighBit": 15,
      "ImageOrientationPatient": [0.9995108660566, -0.0267864734652, 0.01614042979884, 0.03071241548912, 0.93806778326228, -0.3450877881644],
      "ImagePositionPatient": [-860.79025738861, -790.09305887592, 244.20078464917],
      "ImageType": [
        "ORIGINAL",
        "PRIMARY",
        "M",
        "MB",
        "ND",
        "MOSAIC"
],
      "ImagedNucleus": "1H",
      "ImagingFrequency": 123.258935,
      "InPlanePhaseEncodingDirection": "COL",
      "MRAcquisitionType": "2D",
      "MagneticFieldStrength": 3.0,
      "Manufacturer": "SIEMENS",
      "ManufacturerModelName": "Prisma_fit",
      "Modality": "MR",
      "NumberOfAverages": 1.0,
      "NumberOfPhaseEncodingSteps": 104,
      "PercentPhaseFieldOfView": 100.0,
      "PercentSampling": 100.0,
      "PerformedProcedureStepStartTime": "150647.031000",
      "PhotometricInterpretation": "MONOCHROME2",
      "PixelBandwidth": 2290.0,
      "PixelRepresentation": 0,
      "PixelSpacing": [2.0, 2.0],
      "ProtocolName": "func_task-things_run-1",
      "RepetitionTime": 1490.0,
      "Rows": 832,
      "SAR": 0.07007098044568,
      "SamplesPerPixel": 1,
      "ScanOptions": "FS",
      "ScanningSequence": "EP",
      "SequenceName": "epfid2d1_104",
      "SequenceVariant": [
        "SK",
        "SS"
],
      "SeriesDescription": "func_task-things_run-1",
      "SeriesNumber": 10,
      "SeriesTime": "152257.480000",
      "SliceLocation": -38.667829391693,
      "SliceThickness": 2.0,
      "SmallestImagePixelValue": 0,
      "SoftwareVersions": "syngo MR E11",
      "SpacingBetweenSlices": 1.9999999504796,
      "SpecificCharacterSet": "ISO_IR 100",
      "StudyID": "1",
      "StudyTime": "150646.935000",
      "TransmitCoilName": "Body",
      "VariableFlipAngleFlag": "N",
      "WindowCenterWidthExplanation": "Algo1",
      "dBdt": 0.0},
    "slices": {}
  },
  "time": {
    "samples": {
      "AcquisitionNumber": [1, 2, 3, 4, 5, 6, 7, 8, 9, 10, 11, 12, 13, 14, 15, 16, 17, 18, 19, 20, 21, 22, 23, 24, 25, 26, 27, 28, 29, 30, 31, 32, 33, 34, 35, 36, 37, 38, 39, 40, 41, 42, 43, 44, 45, 46, 47, 48, 49, 50, 51, 52, 53, 54, 55, 56, 57, 58, 59, 60, 61, 62, 63, 64, 65, 66, 67, 68, 69, 70, 71, 72, 73, 74, 75, 76, 77, 78, 79, 80, 81, 82, 83, 84, 85, 86, 87, 88, 89, 90, 91, 92, 93, 94, 95, 96, 97, 98, 99, 100, 101, 102, 103, 104, 105, 106, 107, 108, 109, 110, 111, 112, 113, 114, 115, 116, 117, 118, 119, 120, 121, 122, 123, 124, 125, 126, 127, 128, 129, 130, 131, 132, 133, 134, 135, 136, 137, 138, 139, 140, 141, 142, 143, 144, 145, 146, 147, 148, 149, 150, 151, 152, 153, 154, 155, 156, 157, 158, 159, 160, 161, 162, 163, 164, 165, 166, 167, 168, 169, 170, 171, 172, 173, 174, 175, 176, 177, 178, 179, 180, 181, 182, 183, 184, 185, 186, 187, 188, 189, 190],
      "AcquisitionTime": ["152143.137500", "152144.627500", "152146.117500", "152147.607500", "152149.097500", "152150.587500", "152152.077500", "152153.567500", "152155.057500", "152156.547500", "152158.037500", "152159.527500", "152201.017500", "152202.507500", "152203.997500", "152205.487500", "152206.977500", "152208.467500", "152209.957500", "152211.447500", "152212.937500", "152214.427500", "152215.917500", "152217.407500", "152218.897500", "152220.387500", "152221.877500", "152223.367500", "152224.857500", "152226.347500", "152227.837500", "152229.327500", "152230.817500", "152232.307500", "152233.797500", "152235.287500", "152236.777500", "152238.267500", "152239.757500", "152241.247500", "152242.737500", "152244.227500", "152245.717500", "152247.207500", "152248.697500", "152250.187500", "152251.677500", "152253.167500", "152254.657500", "152256.147500", "152257.637500", "152259.127500", "152300.617500", "152302.107500", "152303.597500", "152305.087500", "152306.577500", "152308.067500", "152309.557500", "152311.047500", "152312.537500", "152314.027500", "152315.517500", "152317.007500", "152318.497500", "152319.987500", "152321.477500", "152322.967500", "152324.457500", "152325.947500", "152327.437500", "152328.927500", "152330.417500", "152331.907500", "152333.397500", "152334.887500", "152336.377500", "152337.867500", "152339.357500", "152340.847500", "152342.337500", "152343.827500", "152345.317500", "152346.807500", "152348.297500", "152349.787500", "152351.277500", "152352.767500", "152354.257500", "152355.747500", "152357.237500", "152358.727500", "152400.217500", "152401.707500", "152403.197500", "152404.687500", "152406.177500", "152407.667500", "152409.157500", "152410.647500", "152412.137500", "152413.627500", "152415.117500", "152416.607500", "152418.097500", "152419.587500", "152421.077500", "152422.567500", "152424.057500", "152425.547500", "152427.037500", "152428.527500", "152430.017500", "152431.507500", "152432.997500", "152434.487500", "152435.977500", "152437.467500", "152438.957500", "152440.447500", "152441.937500", "152443.427500", "152444.917500", "152446.407500", "152447.897500", "152449.387500", "152450.877500", "152452.367500", "152453.857500", "152455.347500", "152456.837500", "152458.327500", "152459.817500", "152501.307500", "152502.797500", "152504.287500", "152505.777500", "152507.267500", "152508.757500", "152510.247500", "152511.737500", "152513.227500", "152514.717500", "152516.207500", "152517.697500", "152519.187500", "152520.677500", "152522.167500", "152523.657500", "152525.147500", "152526.637500", "152528.127500", "152529.617500", "152531.107500", "152532.597500", "152534.087500", "152535.577500", "152537.067500", "152538.557500", "152540.047500", "152541.537500", "152543.027500", "152544.517500", "152546.007500", "152547.497500", "152548.987500", "152550.477500", "152551.967500", "152553.457500", "152554.947500", "152556.437500", "152557.927500", "152559.417500", "152600.907500", "152602.397500", "152603.887500", "152605.377500", "152606.867500", "152608.357500", "152609.847500", "152611.337500", "152612.827500", "152614.317500", "152615.807500", "152617.297500", "152618.787500", "152620.277500", "152621.767500", "152623.257500", "152624.747500"],
      "ContentTime": ["152257.483000", "152257.487000", "152257.490000", "152257.494000", "152257.497000", "152257.501000", "152257.504000", "152257.508000", "152257.511000", "152257.514000", "152257.518000", "152257.521000", "152257.525000", "152257.528000", "152257.531000", "152257.535000", "152257.538000", "152257.542000", "152257.545000", "152257.548000", "152317.435000", "152317.439000", "152317.442000", "152317.446000", "152317.449000", "152317.453000", "152317.456000", "152317.459000", "152317.463000", "152317.466000", "152317.470000", "152317.473000", "152317.476000", "152317.480000", "152317.483000", "152317.487000", "152317.490000", "152317.494000", "152317.497000", "152317.500000", "152337.435000", "152337.439000", "152337.442000", "152337.446000", "152337.449000", "152337.453000", "152337.456000", "152337.459000", "152337.463000", "152337.466000", "152337.470000", "152337.473000", "152337.476000", "152337.480000", "152337.483000", "152337.487000", "152337.490000", "152337.494000", "152337.497000", "152337.500000", "152357.435000", "152357.439000", "152357.443000", "152357.446000", "152357.450000", "152357.453000", "152357.456000", "152357.460000", "152357.463000", "152357.467000", "152357.470000", "152357.473000", "152357.477000", "152357.481000", "152357.484000", "152357.488000", "152357.492000", "152357.495000", "152357.499000", "152357.503000", "152417.435000", "152417.439000", "152417.442000", "152417.446000", "152417.449000", "152417.453000", "152417.456000", "152417.460000", "152417.463000", "152417.467000", "152417.470000", "152417.473000", "152417.477000", "152417.480000", "152417.484000", "152417.487000", "152417.490000", "152417.494000", "152417.497000", "152417.501000", "152417.504000", "152457.435000", "152457.439000", "152457.442000", "152457.446000", "152457.449000", "152457.452000", "152457.456000", "152457.459000", "152457.463000", "152457.466000", "152457.470000", "152457.473000", "152457.476000", "152457.480000", "152457.483000", "152457.486000", "152457.490000", "152457.493000", "152457.496000", "152457.500000", "152457.503000", "152457.507000", "152457.510000", "152457.514000", "152457.517000", "152457.520000", "152457.524000", "152457.527000", "152457.531000", "152537.435000", "152537.448000", "152537.451000", "152537.454000", "152537.458000", "152537.461000", "152537.465000", "152537.468000", "152537.471000", "152537.475000", "152537.478000", "152537.482000", "152537.485000", "152537.489000", "152537.492000", "152537.495000", "152537.499000", "152537.502000", "152537.506000", "152537.509000", "152537.513000", "152537.516000", "152537.520000", "152537.523000", "152537.526000", "152537.530000", "152537.533000", "152557.435000", "152557.439000", "152557.442000", "152557.446000", "152557.449000", "152557.453000", "152557.456000", "152557.460000", "152557.469000", "152557.473000", "152557.476000", "152557.480000", "152557.483000", "152626.574000", "152626.578000", "152626.582000", "152626.585000", "152626.589000", "152626.592000", "152626.596000", "152626.600000", "152626.603000", "152626.607000", "152626.610000", "152626.614000", "152626.618000", "152626.621000", "152626.625000", "152626.628000", "152626.632000", "152626.635000", "152626.639000", "152626.642000"],
      "InstanceCreationTime": ["152257.483000", "152257.487000", "152257.490000", "152257.494000", "152257.497000", "152257.501000", "152257.504000", "152257.508000", "152257.511000", "152257.514000", "152257.518000", "152257.521000", "152257.525000", "152257.528000", "152257.531000", "152257.535000", "152257.538000", "152257.542000", "152257.545000", "152257.548000", "152317.435000", "152317.439000", "152317.442000", "152317.446000", "152317.449000", "152317.453000", "152317.456000", "152317.459000", "152317.463000", "152317.466000", "152317.470000", "152317.473000", "152317.476000", "152317.480000", "152317.483000", "152317.487000", "152317.490000", "152317.494000", "152317.497000", "152317.500000", "152337.435000", "152337.439000", "152337.442000", "152337.446000", "152337.449000", "152337.453000", "152337.456000", "152337.459000", "152337.463000", "152337.466000", "152337.470000", "152337.473000", "152337.476000", "152337.480000", "152337.483000", "152337.487000", "152337.490000", "152337.494000", "152337.497000", "152337.500000", "152357.435000", "152357.439000", "152357.443000", "152357.446000", "152357.450000", "152357.453000", "152357.456000", "152357.460000", "152357.463000", "152357.467000", "152357.470000", "152357.473000", "152357.477000", "152357.481000", "152357.484000", "152357.488000", "152357.492000", "152357.495000", "152357.499000", "152357.503000", "152417.435000", "152417.439000", "152417.442000", "152417.446000", "152417.449000", "152417.453000", "152417.456000", "152417.460000", "152417.463000", "152417.467000", "152417.470000", "152417.473000", "152417.477000", "152417.480000", "152417.484000", "152417.487000", "152417.490000", "152417.494000", "152417.497000", "152417.501000", "152417.504000", "152457.435000", "152457.439000", "152457.442000", "152457.446000", "152457.449000", "152457.452000", "152457.456000", "152457.459000", "152457.463000", "152457.466000", "152457.470000", "152457.473000", "152457.476000", "152457.480000", "152457.483000", "152457.486000", "152457.490000", "152457.493000", "152457.496000", "152457.500000", "152457.503000", "152457.507000", "152457.510000", "152457.514000", "152457.517000", "152457.520000", "152457.524000", "152457.527000", "152457.531000", "152537.435000", "152537.448000", "152537.451000", "152537.454000", "152537.458000", "152537.461000", "152537.465000", "152537.468000", "152537.471000", "152537.475000", "152537.478000", "152537.482000", "152537.485000", "152537.489000", "152537.492000", "152537.495000", "152537.499000", "152537.502000", "152537.506000", "152537.509000", "152537.513000", "152537.516000", "152537.520000", "152537.523000", "152537.526000", "152537.530000", "152537.533000", "152557.435000", "152557.439000", "152557.442000", "152557.446000", "152557.449000", "152557.453000", "152557.456000", "152557.460000", "152557.469000", "152557.473000", "152557.476000", "152557.480000", "152557.483000", "152626.574000", "152626.578000", "152626.582000", "152626.585000", "152626.589000", "152626.592000", "152626.596000", "152626.600000", "152626.603000", "152626.607000", "152626.610000", "152626.614000", "152626.618000", "152626.621000", "152626.625000", "152626.628000", "152626.632000", "152626.635000", "152626.639000", "152626.642000"],
      "InstanceNumber": [1, 2, 3, 4, 5, 6, 7, 8, 9, 10, 11, 12, 13, 14, 15, 16, 17, 18, 19, 20, 21, 22, 23, 24, 25, 26, 27, 28, 29, 30, 31, 32, 33, 34, 35, 36, 37, 38, 39, 40, 41, 42, 43, 44, 45, 46, 47, 48, 49, 50, 51, 52, 53, 54, 55, 56, 57, 58, 59, 60, 61, 62, 63, 64, 65, 66, 67, 68, 69, 70, 71, 72, 73, 74, 75, 76, 77, 78, 79, 80, 81, 82, 83, 84, 85, 86, 87, 88, 89, 90, 91, 92, 93, 94, 95, 96, 97, 98, 99, 100, 101, 102, 103, 104, 105, 106, 107, 108, 109, 110, 111, 112, 113, 114, 115, 116, 117, 118, 119, 120, 121, 122, 123, 124, 125, 126, 127, 128, 129, 130, 131, 132, 133, 134, 135, 136, 137, 138, 139, 140, 141, 142, 143, 144, 145, 146, 147, 148, 149, 150, 151, 152, 153, 154, 155, 156, 157, 158, 159, 160, 161, 162, 163, 164, 165, 166, 167, 168, 169, 170, 171, 172, 173, 174, 175, 176, 177, 178, 179, 180, 181, 182, 183, 184, 185, 186, 187, 188, 189, 190],
      "LargestImagePixelValue": [46161, 44903, 43554, 43887, 42686, 42544, 42979, 42701, 42842, 43142, 42544, 43063, 42497, 42637, 42658, 42358, 43586, 42211, 43242, 42949, 42453, 42513, 43003, 43243, 43957, 42202, 43022, 43423, 42053, 42186, 42696, 42591, 42281, 43015, 42627, 42552, 42822, 42249, 43239, 42195, 43119, 42955, 42534, 42820, 42059, 42786, 42541, 42919, 43321, 42167, 42811, 43341, 42422, 42421, 43044, 42060, 41895, 43520, 42566, 42290, 42213, 42321, 42842, 42113, 42697, 42239, 42592, 42723, 42230, 43034, 42511, 42173, 42940, 41974, 42633, 43477, 42087, 43085, 42145, 42807, 43141, 42453, 43113, 42051, 42417, 43348, 42598, 43184, 43030, 41936, 43328, 42834, 42269, 42336, 41919, 42321, 43617, 41995, 42264, 42853, 42163, 42699, 42359, 43213, 43034, 42663, 43381, 42144, 42952, 41836, 42842, 43660, 42370, 42172, 43226, 42538, 43339, 42621, 42487, 42408, 43275, 43064, 42083, 42952, 41908, 42418, 42881, 42569, 43158, 42362, 43221, 42020, 42933, 42357, 41619, 43050, 41736, 42756, 41689, 42370, 41862, 42414, 42792, 42189, 43069, 42073, 42199, 42596, 42038, 42786, 42608, 42274, 42589, 41734, 42492, 41793, 42284, 42476, 42097, 42912, 42545, 42917, 43000, 41931, 42398, 42228, 42069, 42376, 42367, 42346, 41614, 42337, 42516, 42374, 42957, 41548, 42799, 42312, 42033, 42896, 42171, 42373, 41879, 42178, 42653, 41826, 42585, 42563, 41835, 42218],
      "WindowCenter": [10520.0, 10469.0, 10426.0, 10422.0, 10406.0, 10418.0, 10424.0, 10425.0, 10446.0, 10446.0, 10427.0, 10430.0, 10408.0, 10423.0, 10423.0, 10415.0, 10427.0, 10402.0, 10428.0, 10422.0, 10422.0, 10424.0, 10407.0, 10418.0, 10431.0, 10409.0, 10421.0, 10402.0, 10378.0, 10398.0, 10415.0, 10423.0, 10416.0, 10413.0, 10400.0, 10413.0, 10413.0, 10409.0, 10427.0, 10401.0, 10397.0, 10388.0, 10397.0, 10403.0, 10394.0, 10412.0, 10399.0, 10398.0, 10403.0, 10398.0, 10419.0, 10435.0, 10414.0, 10399.0, 10392.0, 10366.0, 10382.0, 10408.0, 10381.0, 10374.0, 10365.0, 10381.0, 10395.0, 10383.0, 10386.0, 10374.0, 10385.0, 10387.0, 10390.0, 10402.0, 10389.0, 10397.0, 10411.0, 10406.0, 10428.0, 10426.0, 10392.0, 10392.0, 10380.0, 10409.0, 10408.0, 10389.0, 10387.0, 10384.0, 10418.0, 10413.0, 10397.0, 10396.0, 10399.0, 10406.0, 10417.0, 10395.0, 10381.0, 10386.0, 10372.0, 10380.0, 10407.0, 10383.0, 10375.0, 10370.0, 10355.0, 10385.0, 10380.0, 10395.0, 10379.0, 10365.0, 10384.0, 10387.0, 10410.0, 10388.0, 10401.0, 10407.0, 10397.0, 10406.0, 10409.0, 10394.0, 10403.0, 10381.0, 10381.0, 10381.0, 10391.0, 10385.0, 10374.0, 10394.0, 10383.0, 10397.0, 10395.0, 10389.0, 10400.0, 10383.0, 10393.0, 10375.0, 10395.0, 10351.0, 10381.0, 10430.0, 10403.0, 10388.0, 10352.0, 10349.0, 10349.0, 10369.0, 10386.0, 10368.0, 10374.0, 10356.0, 10372.0, 10380.0, 10359.0, 10363.0, 10352.0, 10363.0, 10386.0, 10362.0, 10365.0, 10341.0, 10354.0, 10376.0, 10380.0, 10388.0, 10380.0, 10389.0, 10389.0, 10373.0, 10381.0, 10379.0, 10391.0, 10399.0, 10376.0, 10365.0, 10352.0, 10379.0, 10388.0, 10381.0, 10371.0, 10351.0, 10379.0, 10383.0, 10383.0, 10396.0, 10377.0, 10388.0, 10369.0, 10362.0, 10359.0, 10359.0, 10405.0, 10395.0, 10344.0, 10321.0],
      "WindowWidth": [22812.0, 22653.0, 22531.0, 22509.0, 22463.0, 22485.0, 22495.0, 22498.0, 22545.0, 22541.0, 22501.0, 22504.0, 22456.0, 22490.0, 22489.0, 22471.0, 22496.0, 22445.0, 22502.0, 22488.0, 22487.0, 22495.0, 22454.0, 22477.0, 22504.0, 22458.0, 22482.0, 22438.0, 22391.0, 22435.0, 22477.0, 22490.0, 22476.0, 22465.0, 22439.0, 22470.0, 22468.0, 22463.0, 22500.0, 22442.0, 22431.0, 22411.0, 22430.0, 22443.0, 22426.0, 22466.0, 22437.0, 22436.0, 22443.0, 22437.0, 22483.0, 22524.0, 22477.0, 22437.0, 22416.0, 22363.0, 22397.0, 22453.0, 22393.0, 22379.0, 22357.0, 22397.0, 22427.0, 22402.0, 22406.0, 22378.0, 22403.0, 22405.0, 22414.0, 22442.0, 22412.0, 22430.0, 22463.0, 22454.0, 22504.0, 22496.0, 22423.0, 22417.0, 22392.0, 22458.0, 22453.0, 22411.0, 22406.0, 22403.0, 22479.0, 22469.0, 22433.0, 22431.0, 22436.0, 22453.0, 22474.0, 22424.0, 22393.0, 22405.0, 22373.0, 22391.0, 22453.0, 22401.0, 22383.0, 22367.0, 22332.0, 22401.0, 22394.0, 22426.0, 22390.0, 22357.0, 22397.0, 22407.0, 22458.0, 22413.0, 22438.0, 22452.0, 22433.0, 22451.0, 22452.0, 22419.0, 22438.0, 22392.0, 22392.0, 22392.0, 22413.0, 22400.0, 22378.0, 22421.0, 22401.0, 22429.0, 22423.0, 22412.0, 22433.0, 22401.0, 22417.0, 22380.0, 22426.0, 22329.0, 22393.0, 22498.0, 22443.0, 22404.0, 22327.0, 22318.0, 22319.0, 22364.0, 22403.0, 22366.0, 22374.0, 22336.0, 22373.0, 22389.0, 22345.0, 22351.0, 22323.0, 22346.0, 22399.0, 22353.0, 22355.0, 22301.0, 22328.0, 22377.0, 22389.0, 22407.0, 22389.0, 22408.0, 22408.0, 22375.0, 22393.0, 22385.0, 22413.0, 22433.0, 22382.0, 22352.0, 22327.0, 22387.0, 22405.0, 22391.0, 22367.0, 22326.0, 22386.0, 22398.0, 22400.0, 22425.0, 22383.0, 22405.0, 22369.0, 22352.0, 22339.0, 22341.0, 22445.0, 22426.0, 22315.0, 22259.0]
    },
    "slices": {}
  }
}