{
  "AcquisitionMatrixPE": 104,
  "AcquisitionNumber": 1,
  "AcquisitionTime": "15:27:59.237500",
  "BandwidthPerPixelPhaseEncode": 17.17,
  "BaseResolution": 104,
  "BodyPartExamined": "BRAIN",
  "CoilString": "HC1-7;NC1_2",
  "ConsistencyInfo": "N4_VE11C_LATEST_20160120",
  "ConversionSoftware": "dcm2niix",
  "ConversionSoftwareVersion": "v1.0.20190902",
  "DerivedVendorReportedEchoSpacing": 0.000560011,
  "DeviceSerialNumber": "167006",
  "DwellTime": 2.1e-06,
  "EchoTime": 0.037,
  "EchoTrainLength": 104,
  "EffectiveEchoSpacing": 0.000560011,
  "FlipAngle": 52,
  "ImageComments": "Unaliased_MB4_PE3_LB",
  "ImageOrientationPatientDICOM": [0.999511, -0.0267865, 0.0161404, 0.0307124, 0.938068, -0.345088],
  "ImageType": [
    "ORIGINAL",
    "PRIMARY",
    "P",
    "MB",
    "ND",
    "MOSAIC"
],
  "ImagingFrequency": 123.259,
  "InPlanePhaseEncodingDirectionDICOM": "COL",
  "InstitutionAddress": "Chemin_Queen-Mary_4565_Montreal_District_CA_H3W_1W5",
  "InstitutionName": "IUGM",
  "InstitutionalDepartmentName": "Department",
  "MRAcquisitionType": "2D",
  "MagneticFieldStrength": 3,
  "Manufacturer": "Siemens",
  "ManufacturersModelName": "Prisma_fit",
  "Modality": "MR",
  "MultibandAccelerationFactor": 4,
  "PartialFourier": 1,
  "PatientPosition": "HFS",
  "PercentPhaseFOV": 100,
  "PhaseEncodingDirection": "j",
  "PhaseEncodingSteps": 104,
  "PhaseResolution": 1,
  "PixelBandwidth": 2290,
  "ProcedureStepDescription": "memory_things",
  "ProtocolName": "func_task-things_run-2",
  "PulseSequenceDetails": "%CustomerSeq%_cmrr_mbep2d_bold",
  "ReceiveCoilActiveElements": "HC1-7;NC1,2",
  "ReceiveCoilName": "HeadNeck_64",
  "ReconMatrixPE": 104,
  "RepetitionTime": 1.49,
  "SAR": 0.070071,
  "ScanOptions": "FS",
  "ScanningSequence": "EP",
  "SequenceName": "epfid2d1_104",
  "SequenceVariant": "SK_SS",
  "SeriesDescription": "func_task-things_run-2",
  "SeriesNumber": 14,
  "ShimSetting": [633, -7241, -8821, 566, 16, -161, -63, -25],
  "SliceThickness": 2,
  "SliceTiming": [0, 0.7825, 0.0975, 0.8825, 0.195, 0.98, 0.2925, 1.0775, 0.3925, 1.175, 0.49, 1.2725, 0.5875, 1.3725, 0.685, 0, 0.7825, 0.0975, 0.8825, 0.195, 0.98, 0.2925, 1.0775, 0.3925, 1.175, 0.49, 1.2725, 0.5875, 1.3725, 0.685, 0, 0.7825, 0.0975, 0.8825, 0.195, 0.98, 0.2925, 1.0775, 0.3925, 1.175, 0.49, 1.2725, 0.5875, 1.3725, 0.685, 0, 0.7825, 0.0975, 0.8825, 0.195, 0.98, 0.2925, 1.0775, 0.3925, 1.175, 0.49, 1.2725, 0.5875, 1.3725, 0.685],
  "SoftwareVersions": "syngo_MR_E11",
  "SpacingBetweenSlices": 2,
  "StationName": "MRC35049",
  "TaskName": "things",
  "TotalReadoutTime": 0.0576811,
  "TxRefAmp": 298.125,
  "WipMemBlock": "81e92dba-4aec-4fd8-999b-0558d7a7237b||Sequence: R016 ve11c/master r/e634e98; Dec 19 2017 11:00:25 by eja",
  "dcmmeta_affine": [
    [-1.9990217685699463, 0.06142483279109001, 0.011794264428317547, 104.46095275878906],
    [0.053572945296764374, 1.8761355876922607, -0.6908293962478638, -66.56169891357422],
    [0.03228085860610008, 0.6901755928993225, 1.8768632411956787, -66.36097717285156],
    [0.0, 0.0, 0.0, 1.0]
],
  "dcmmeta_reorient_transform": [
    [0.0, -1.0, 0.0, 103.0],
    [1.0, 0.0, 0.0, 0.0],
    [0.0, 0.0, 1.0, 0.0],
    [0.0, 0.0, 0.0, 1.0]
],
  "dcmmeta_shape": [104, 104, 60, 190],
  "dcmmeta_slice_dim": 2,
  "dcmmeta_version": 0.6,
  "global": {
    "const": {
      "AcquisitionMatrix": [104, 0, 0, 104],
      "AngioFlag": "N",
      "BitsAllocated": 16,
      "BitsStored": 16,
      "BodyPartExamined": "BRAIN",
      "Columns": 832,
      "EchoNumbers": 1,
      "EchoTime": 37.0,
      "EchoTrainLength": 104,
      "FlipAngle": 52.0,
      "HighBit": 15,
      "ImageOrientationPatient": [0.9995108660566, -0.0267864734652, 0.01614042979884, 0.03071241548912, 0.93806778326228, -0.3450877881644],
      "ImagePositionPatient": [-860.79025738861, -790.09305887592, 244.20078464917],
      "ImageType": [
        "ORIGINAL",
        "PRIMARY",
        "P",
        "MB",
        "ND",
        "MOSAIC"
],
      "ImagedNucleus": "1H",
      "ImagingFrequency": 123.258939,
      "InPlanePhaseEncodingDirection": "COL",
      "LargestImagePixelValue": 4095,
      "MRAcquisitionType": "2D",
      "MagneticFieldStrength": 3.0,
      "Manufacturer": "SIEMENS",
      "ManufacturerModelName": "Prisma_fit",
      "Modality": "MR",
      "NumberOfAverages": 1.0,
      "NumberOfPhaseEncodingSteps": 104,
      "PercentPhaseFieldOfView": 100.0,
      "PercentSampling": 100.0,
      "PerformedProcedureStepStartTime": "150647.031000",
      "PhotometricInterpretation": "MONOCHROME2",
      "PixelBandwidth": 2290.0,
      "PixelRepresentation": 0,
      "PixelSpacing": [2.0, 2.0],
      "ProtocolName": "func_task-things_run-2",
      "RepetitionTime": 1490.0,
      "RescaleIntercept": -4096.0,
      "RescaleSlope": 2.0,
      "RescaleType": "US",
      "Rows": 832,
      "SAR": 0.07007098044568,
      "SamplesPerPixel": 1,
      "ScanOptions": "FS",
      "ScanningSequence": "EP",
      "SequenceName": "epfid2d1_104",
      "SequenceVariant": [
        "SK",
        "SS"
],
      "SeriesDescription": "func_task-things_run-2",
      "SeriesNumber": 14,
      "SeriesTime": "152922.382000",
      "SliceLocation": -38.667829391693,
      "SliceThickness": 2.0,
      "SmallestImagePixelValue": 0,
      "SoftwareVersions": "syngo MR E11",
      "SpacingBetweenSlices": 1.9999999504796,
      "SpecificCharacterSet": "ISO_IR 100",
      "StudyID": "1",
      "StudyTime": "150646.935000",
      "TransmitCoilName": "Body",
      "VariableFlipAngleFlag": "N",
      "WindowCenterWidthExplanation": "Algo1",
      "dBdt": 0.0},
    "slices": {}
  },
  "time": {
    "samples": {
      "AcquisitionNumber": [1, 2, 3, 4, 5, 6, 7, 8, 9, 10, 11, 12, 13, 14, 15, 16, 17, 18, 19, 20, 21, 22, 23, 24, 25, 26, 27, 28, 29, 30, 31, 32, 33, 34, 35, 36, 37, 38, 39, 40, 41, 42, 43, 44, 45, 46, 47, 48, 49, 50, 51, 52, 53, 54, 55, 56, 57, 58, 59, 60, 61, 62, 63, 64, 65, 66, 67, 68, 69, 70, 71, 72, 73, 74, 75, 76, 77, 78, 79, 80, 81, 82, 83, 84, 85, 86, 87, 88, 89, 90, 91, 92, 93, 94, 95, 96, 97, 98, 99, 100, 101, 102, 103, 104, 105, 106, 107, 108, 109, 110, 111, 112, 113, 114, 115, 116, 117, 118, 119, 120, 121, 122, 123, 124, 125, 126, 127, 128, 129, 130, 131, 132, 133, 134, 135, 136, 137, 138, 139, 140, 141, 142, 143, 144, 145, 146, 147, 148, 149, 150, 151, 152, 153, 154, 155, 156, 157, 158, 159, 160, 161, 162, 163, 164, 165, 166, 167, 168, 169, 170, 171, 172, 173, 174, 175, 176, 177, 178, 179, 180, 181, 182, 183, 184, 185, 186, 187, 188, 189, 190],
      "AcquisitionTime": ["152759.237500", "152800.727500", "152802.217500", "152803.707500", "152805.197500", "152806.687500", "152808.177500", "152809.667500", "152811.157500", "152812.647500", "152814.137500", "152815.627500", "152817.117500", "152818.607500", "152820.097500", "152821.587500", "152823.077500", "152824.567500", "152826.057500", "152827.547500", "152829.037500", "152830.527500", "152832.017500", "152833.507500", "152834.997500", "152836.487500", "152837.977500", "152839.467500", "152840.957500", "152842.447500", "152843.937500", "152845.427500", "152846.917500", "152848.407500", "152849.897500", "152851.387500", "152852.877500", "152854.367500", "152855.857500", "152857.347500", "152858.837500", "152900.327500", "152901.817500", "152903.307500", "152904.797500", "152906.287500", "152907.777500", "152909.267500", "152910.757500", "152912.247500", "152913.737500", "152915.227500", "152916.717500", "152918.207500", "152919.697500", "152921.187500", "152922.677500", "152924.167500", "152925.657500", "152927.147500", "152928.637500", "152930.127500", "152931.617500", "152933.107500", "152934.597500", "152936.087500", "152937.577500", "152939.067500", "152940.557500", "152942.047500", "152943.537500", "152945.027500", "152946.517500", "152948.007500", "152949.497500", "152950.987500", "152952.477500", "152953.967500", "152955.457500", "152956.947500", "152958.437500", "152959.927500", "153001.417500", "153002.907500", "153004.397500", "153005.887500", "153007.377500", "153008.867500", "153010.357500", "153011.847500", "153013.337500", "153014.827500", "153016.317500", "153017.807500", "153019.297500", "153020.787500", "153022.277500", "153023.767500", "153025.257500", "153026.747500", "153028.237500", "153029.727500", "153031.217500", "153032.707500", "153034.197500", "153035.687500", "153037.177500", "153038.667500", "153040.157500", "153041.647500", "153043.137500", "153044.627500", "153046.117500", "153047.607500", "153049.097500", "153050.587500", "153052.077500", "153053.567500", "153055.057500", "153056.547500", "153058.037500", "153059.527500", "153101.017500", "153102.507500", "153103.997500", "153105.487500", "153106.977500", "153108.467500", "153109.957500", "153111.447500", "153112.937500", "153114.427500", "153115.917500", "153117.407500", "153118.897500", "153120.387500", "153121.877500", "153123.367500", "153124.857500", "153126.347500", "153127.837500", "153129.327500", "153130.817500", "153132.307500", "153133.797500", "153135.287500", "153136.777500", "153138.267500", "153139.757500", "153141.247500", "153142.737500", "153144.227500", "153145.717500", "153147.207500", "153148.697500", "153150.187500", "153151.677500", "153153.167500", "153154.657500", "153156.147500", "153157.637500", "153159.127500", "153200.617500", "153202.107500", "153203.597500", "153205.087500", "153206.577500", "153208.067500", "153209.557500", "153211.047500", "153212.537500", "153214.027500", "153215.517500", "153217.007500", "153218.497500", "153219.987500", "153221.477500", "153222.967500", "153224.457500", "153225.947500", "153227.437500", "153228.927500", "153230.417500", "153231.907500", "153233.397500", "153234.887500", "153236.377500", "153237.867500", "153239.357500", "153240.847500"],
      "ContentTime": ["152922.385000", "152922.387000", "152922.390000", "152922.393000", "152922.395000", "152922.398000", "152922.400000", "152922.403000", "152922.405000", "152922.408000", "152922.410000", "152922.413000", "152922.416000", "152922.418000", "152922.421000", "152922.423000", "152922.426000", "152922.428000", "152922.431000", "152922.434000", "152922.436000", "152922.439000", "152922.441000", "152922.444000", "152922.446000", "152922.449000", "152922.451000", "152922.454000", "152922.456000", "152942.259000", "152942.262000", "152942.265000", "152942.267000", "152942.270000", "152942.272000", "152942.275000", "152942.278000", "152942.280000", "152942.283000", "152942.285000", "152942.288000", "152942.290000", "152942.293000", "152942.295000", "152942.298000", "152942.301000", "152942.303000", "152942.306000", "152942.308000", "153002.814000", "153002.817000", "153002.819000", "153002.822000", "153002.824000", "153002.827000", "153002.830000", "153002.833000", "153002.835000", "153002.838000", "153002.841000", "153002.843000", "153002.846000", "153002.849000", "153002.851000", "153002.854000", "153002.856000", "153002.859000", "153002.862000", "153002.864000", "153022.272000", "153022.274000", "153022.277000", "153022.279000", "153022.291000", "153022.293000", "153022.296000", "153022.298000", "153022.301000", "153022.303000", "153022.306000", "153022.308000", "153022.311000", "153022.314000", "153022.316000", "153022.319000", "153022.321000", "153022.324000", "153022.326000", "153022.329000", "153022.332000", "153102.325000", "153102.328000", "153102.331000", "153102.333000", "153102.336000", "153102.339000", "153102.341000", "153102.344000", "153102.346000", "153102.349000", "153102.351000", "153102.354000", "153102.357000", "153102.359000", "153102.362000", "153102.364000", "153102.367000", "153102.369000", "153102.372000", "153102.375000", "153102.377000", "153102.380000", "153102.382000", "153102.385000", "153102.388000", "153102.390000", "153102.393000", "153102.395000", "153102.398000", "153102.400000", "153102.403000", "153102.406000", "153142.288000", "153142.291000", "153142.294000", "153142.296000", "153142.299000", "153142.302000", "153142.304000", "153142.307000", "153142.309000", "153142.312000", "153142.314000", "153142.317000", "153142.320000", "153142.322000", "153142.325000", "153142.327000", "153142.330000", "153142.332000", "153142.335000", "153142.338000", "153142.340000", "153142.343000", "153142.345000", "153142.348000", "153142.351000", "153142.353000", "153142.356000", "153222.290000", "153222.293000", "153222.296000", "153222.298000", "153222.301000", "153222.303000", "153222.306000", "153222.309000", "153222.311000", "153222.314000", "153222.316000", "153222.319000", "153222.321000", "153222.324000", "153222.327000", "153222.329000", "153222.332000", "153222.334000", "153222.337000", "153222.340000", "153222.342000", "153222.345000", "153222.347000", "153222.350000", "153222.352000", "153222.355000", "153222.358000", "153243.024000", "153243.027000", "153243.030000", "153243.032000", "153243.035000", "153243.038000", "153243.041000", "153243.043000", "153243.046000", "153243.049000", "153243.051000", "153243.054000", "153243.057000", "153243.060000"],
      "InstanceCreationTime": ["152922.385000", "152922.387000", "152922.390000", "152922.393000", "152922.395000", "152922.398000", "152922.400000", "152922.403000", "152922.405000", "152922.408000", "152922.410000", "152922.413000", "152922.416000", "152922.418000", "152922.421000", "152922.423000", "152922.426000", "152922.428000", "152922.431000", "152922.434000", "152922.436000", "152922.439000", "152922.441000", "152922.444000", "152922.446000", "152922.449000", "152922.451000", "152922.454000", "152922.456000", "152942.259000", "152942.262000", "152942.265000", "152942.267000", "152942.270000", "152942.272000", "152942.275000", "152942.278000", "152942.280000", "152942.283000", "152942.285000", "152942.288000", "152942.290000", "152942.293000", "152942.295000", "152942.298000", "152942.301000", "152942.303000", "152942.306000", "152942.308000", "153002.814000", "153002.817000", "153002.819000", "153002.822000", "153002.824000", "153002.827000", "153002.830000", "153002.833000", "153002.835000", "153002.838000", "153002.841000", "153002.843000", "153002.846000", "153002.849000", "153002.851000", "153002.854000", "153002.856000", "153002.859000", "153002.862000", "153002.864000", "153022.272000", "153022.274000", "153022.277000", "153022.279000", "153022.291000", "153022.293000", "153022.296000", "153022.298000", "153022.301000", "153022.303000", "153022.306000", "153022.308000", "153022.311000", "153022.314000", "153022.316000", "153022.319000", "153022.321000", "153022.324000", "153022.326000", "153022.329000", "153022.332000", "153102.325000", "153102.328000", "153102.331000", "153102.333000", "153102.336000", "153102.339000", "153102.341000", "153102.344000", "153102.346000", "153102.349000", "153102.351000", "153102.354000", "153102.357000", "153102.359000", "153102.362000", "153102.364000", "153102.367000", "153102.369000", "153102.372000", "153102.375000", "153102.377000", "153102.380000", "153102.382000", "153102.385000", "153102.388000", "153102.390000", "153102.393000", "153102.395000", "153102.398000", "153102.400000", "153102.403000", "153102.406000", "153142.288000", "153142.291000", "153142.294000", "153142.296000", "153142.299000", "153142.302000", "153142.304000", "153142.307000", "153142.309000", "153142.312000", "153142.314000", "153142.317000", "153142.320000", "153142.322000", "153142.325000", "153142.327000", "153142.330000", "153142.332000", "153142.335000", "153142.338000", "153142.340000", "153142.343000", "153142.345000", "153142.348000", "153142.351000", "153142.353000", "153142.356000", "153222.290000", "153222.293000", "153222.296000", "153222.298000", "153222.301000", "153222.303000", "153222.306000", "153222.309000", "153222.311000", "153222.314000", "153222.316000", "153222.319000", "153222.321000", "153222.324000", "153222.327000", "153222.329000", "153222.332000", "153222.334000", "153222.337000", "153222.340000", "153222.342000", "153222.345000", "153222.347000", "153222.350000", "153222.352000", "153222.355000", "153222.358000", "153243.024000", "153243.027000", "153243.030000", "153243.032000", "153243.035000", "153243.038000", "153243.041000", "153243.043000", "153243.046000", "153243.049000", "153243.051000", "153243.054000", "153243.057000", "153243.060000"],
      "InstanceNumber": [1, 2, 3, 4, 5, 6, 7, 8, 9, 10, 11, 12, 13, 14, 15, 16, 17, 18, 19, 20, 21, 22, 23, 24, 25, 26, 27, 28, 29, 30, 31, 32, 33, 34, 35, 36, 37, 38, 39, 40, 41, 42, 43, 44, 45, 46, 47, 48, 49, 50, 51, 52, 53, 54, 55, 56, 57, 58, 59, 60, 61, 62, 63, 64, 65, 66, 67, 68, 69, 70, 71, 72, 73, 74, 75, 76, 77, 78, 79, 80, 81, 82, 83, 84, 85, 86, 87, 88, 89, 90, 91, 92, 93, 94, 95, 96, 97, 98, 99, 100, 101, 102, 103, 104, 105, 106, 107, 108, 109, 110, 111, 112, 113, 114, 115, 116, 117, 118, 119, 120, 121, 122, 123, 124, 125, 126, 127, 128, 129, 130, 131, 132, 133, 134, 135, 136, 137, 138, 139, 140, 141, 142, 143, 144, 145, 146, 147, 148, 149, 150, 151, 152, 153, 154, 155, 156, 157, 158, 159, 160, 161, 162, 163, 164, 165, 166, 167, 168, 169, 170, 171, 172, 173, 174, 175, 176, 177, 178, 179, 180, 181, 182, 183, 184, 185, 186, 187, 188, 189, 190],
      "WindowCenter": [4812.0, 4812.0, 4810.0, 4808.0, 4812.0, 4814.0, 4810.0, 4812.0, 4812.0, 4810.0, 4810.0, 4806.0, 4808.0, 4806.0, 4786.0, 4808.0, 4812.0, 4814.0, 4808.0, 4810.0, 4814.0, 4812.0, 4810.0, 4810.0, 4810.0, 4812.0, 4810.0, 4786.0, 4786.0, 4810.0, 4810.0, 4832.0, 4810.0, 4834.0, 4812.0, 4786.0, 4788.0, 4786.0, 4810.0, 4808.0, 4810.0, 4810.0, 4810.0, 4812.0, 4814.0, 4812.0, 4786.0, 4808.0, 4810.0, 4806.0, 4812.0, 4810.0, 4810.0, 4810.0, 4812.0, 4810.0, 4812.0, 4812.0, 4810.0, 4812.0, 4786.0, 4808.0, 4808.0, 4810.0, 4808.0, 4788.0, 4810.0, 4812.0, 4810.0, 4808.0, 4810.0, 4810.0, 4810.0, 4810.0, 4812.0, 4810.0, 4810.0, 4810.0, 4810.0, 4808.0, 4808.0, 4812.0, 4812.0, 4808.0, 4810.0, 4812.0, 4810.0, 4810.0, 4812.0, 4806.0, 4812.0, 4812.0, 4812.0, 4810.0, 4786.0, 4808.0, 4782.0, 4808.0, 4812.0, 4812.0, 4810.0, 4810.0, 4812.0, 4808.0, 4788.0, 4806.0, 4808.0, 4810.0, 4810.0, 4786.0, 4812.0, 4810.0, 4808.0, 4812.0, 4810.0, 4812.0, 4810.0, 4810.0, 4808.0, 4812.0, 4786.0, 4788.0, 4808.0, 4808.0, 4814.0, 4810.0, 4812.0, 4810.0, 4810.0, 4786.0, 4786.0, 4810.0, 4810.0, 4810.0, 4810.0, 4810.0, 4808.0, 4810.0, 4812.0, 4812.0, 4810.0, 4790.0, 4806.0, 4808.0, 4786.0, 4810.0, 4810.0, 4812.0, 4812.0, 4810.0, 4812.0, 4810.0, 4810.0, 4806.0, 4806.0, 4804.0, 4808.0, 4810.0, 4808.0, 4810.0, 4812.0, 4810.0, 4812.0, 4812.0, 4808.0, 4810.0, 4810.0, 4808.0, 4784.0, 4808.0, 4810.0, 4786.0, 4788.0, 4810.0, 4812.0, 4812.0, 4810.0, 4814.0, 4804.0, 4782.0, 4784.0, 4784.0, 4782.0, 4810.0, 4784.0, 4808.0, 4810.0, 4812.0, 4808.0, 4812.0],
      "WindowWidth": [18622.0, 18626.0, 18616.0, 18614.0, 18614.0, 18622.0, 18614.0, 18614.0, 18624.0, 18616.0, 18624.0, 18616.0, 18614.0, 18618.0, 18576.0, 18614.0, 18626.0, 18620.0, 18616.0, 18610.0, 18628.0, 18618.0, 18618.0, 18618.0, 18614.0, 18630.0, 18614.0, 18558.0, 18550.0, 18618.0, 18626.0, 18642.0, 18618.0, 18654.0, 18622.0, 18566.0, 18570.0, 18576.0, 18598.0, 18612.0, 18622.0, 18618.0, 18620.0, 18622.0, 18624.0, 18620.0, 18570.0, 18612.0, 18606.0, 18610.0, 18618.0, 18612.0, 18624.0, 18620.0, 18614.0, 18622.0, 18624.0, 18610.0, 18618.0, 18612.0, 18572.0, 18610.0, 18624.0, 18620.0, 18620.0, 18582.0, 18620.0, 18618.0, 18616.0, 18618.0, 18614.0, 18624.0, 18622.0, 18622.0, 18622.0, 18608.0, 18616.0, 18618.0, 18610.0, 18622.0, 18614.0, 18618.0, 18620.0, 18616.0, 18620.0, 18614.0, 18618.0, 18610.0, 18620.0, 18612.0, 18614.0, 18622.0, 18616.0, 18618.0, 18576.0, 18614.0, 18574.0, 18618.0, 18622.0, 18612.0, 18620.0, 18616.0, 18620.0, 18616.0, 18576.0, 18616.0, 18616.0, 18616.0, 18620.0, 18584.0, 18626.0, 18604.0, 18616.0, 18622.0, 18612.0, 18620.0, 18616.0, 18620.0, 18616.0, 18616.0, 18578.0, 18572.0, 18616.0, 18622.0, 18626.0, 18620.0, 18618.0, 18616.0, 18614.0, 18572.0, 18584.0, 18610.0, 18618.0, 18616.0, 18622.0, 18622.0, 18612.0, 18620.0, 18616.0, 18618.0, 18620.0, 18580.0, 18618.0, 18616.0, 18570.0, 18614.0, 18618.0, 18612.0, 18626.0, 18618.0, 18624.0, 18622.0, 18610.0, 18616.0, 18608.0, 18612.0, 18614.0, 18612.0, 18618.0, 18616.0, 18624.0, 18620.0, 18624.0, 18618.0, 18618.0, 18614.0, 18608.0, 18614.0, 18570.0, 18616.0, 18620.0, 18558.0, 18576.0, 18626.0, 18624.0, 18624.0, 18620.0, 18618.0, 18610.0, 18562.0, 18578.0, 18572.0, 18580.0, 18612.0, 18566.0, 18616.0, 18624.0, 18624.0, 18622.0, 18616.0]
    },
    "slices": {}
  }
}