{
  "AcquisitionMatrixPE": 104,
  "AcquisitionNumber": 1,
  "AcquisitionTime": "15:47:56.825000",
  "BandwidthPerPixelPhaseEncode": 17.17,
  "BaseResolution": 104,
  "BodyPartExamined": "BRAIN",
  "CoilString": "HC1-7;NC1_2",
  "ConsistencyInfo": "N4_VE11C_LATEST_20160120",
  "ConversionSoftware": "dcm2niix",
  "ConversionSoftwareVersion": "v1.0.20190902",
  "DerivedVendorReportedEchoSpacing": 0.000560011,
  "DeviceSerialNumber": "167006",
  "DwellTime": 2.1e-06,
  "EchoTime": 0.037,
  "EchoTrainLength": 104,
  "EffectiveEchoSpacing": 0.000560011,
  "FlipAngle": 52,
  "ImageComments": "Unaliased_MB4_PE3_LB",
  "ImageOrientationPatientDICOM": [0.999511, -0.0267865, 0.0161404, 0.0307124, 0.938068, -0.345088],
  "ImageType": [
    "ORIGINAL",
    "PRIMARY",
    "M",
    "MB",
    "ND",
    "MOSAIC"
],
  "ImagingFrequency": 123.259,
  "InPlanePhaseEncodingDirectionDICOM": "COL",
  "InstitutionAddress": "Chemin_Queen-Mary_4565_Montreal_District_CA_H3W_1W5",
  "InstitutionName": "IUGM",
  "InstitutionalDepartmentName": "Department",
  "MRAcquisitionType": "2D",
  "MagneticFieldStrength": 3,
  "Manufacturer": "Siemens",
  "ManufacturersModelName": "Prisma_fit",
  "Modality": "MR",
  "MultibandAccelerationFactor": 4,
  "PartialFourier": 1,
  "PatientPosition": "HFS",
  "PercentPhaseFOV": 100,
  "PhaseEncodingDirection": "j",
  "PhaseEncodingSteps": 104,
  "PhaseResolution": 1,
  "PixelBandwidth": 2290,
  "ProcedureStepDescription": "memory_things",
  "ProtocolName": "func_task-things_run-5",
  "PulseSequenceDetails": "%CustomerSeq%_cmrr_mbep2d_bold",
  "ReceiveCoilActiveElements": "HC1-7;NC1,2",
  "ReceiveCoilName": "HeadNeck_64",
  "ReconMatrixPE": 104,
  "RepetitionTime": 1.49,
  "SAR": 0.070071,
  "ScanOptions": "FS",
  "ScanningSequence": "EP",
  "SequenceName": "epfid2d1_104",
  "SequenceVariant": "SK_SS",
  "SeriesDescription": "func_task-things_run-5",
  "SeriesNumber": 22,
  "ShimSetting": [633, -7241, -8821, 566, 16, -161, -63, -25],
  "SliceThickness": 2,
  "SliceTiming": [0, 0.785, 0.1, 0.8825, 0.1975, 0.98, 0.295, 1.08, 0.3925, 1.1775, 0.49, 1.275, 0.59, 1.3725, 0.6875, 0, 0.785, 0.1, 0.8825, 0.1975, 0.98, 0.295, 1.08, 0.3925, 1.1775, 0.49, 1.275, 0.59, 1.3725, 0.6875, 0, 0.785, 0.1, 0.8825, 0.1975, 0.98, 0.295, 1.08, 0.3925, 1.1775, 0.49, 1.275, 0.59, 1.3725, 0.6875, 0, 0.785, 0.1, 0.8825, 0.1975, 0.98, 0.295, 1.08, 0.3925, 1.1775, 0.49, 1.275, 0.59, 1.3725, 0.6875],
  "SoftwareVersions": "syngo_MR_E11",
  "SpacingBetweenSlices": 2,
  "StationName": "MRC35049",
  "TaskName": "things",
  "TotalReadoutTime": 0.0576811,
  "TxRefAmp": 298.125,
  "WipMemBlock": "3322dbc0-fce9-4813-b636-2d11e5ed62ad||Sequence: R016 ve11c/master r/e634e98; Dec 19 2017 11:00:25 by eja",
  "dcmmeta_affine": [
    [-1.9990217685699463, 0.06142483279109001, 0.011794264428317547, 104.46095275878906],
    [0.053572945296764374, 1.8761355876922607, -0.6908293962478638, -66.56169891357422],
    [0.03228085860610008, 0.6901755928993225, 1.8768632411956787, -66.36097717285156],
    [0.0, 0.0, 0.0, 1.0]
],
  "dcmmeta_reorient_transform": [
    [0.0, -1.0, 0.0, 103.0],
    [1.0, 0.0, 0.0, 0.0],
    [0.0, 0.0, 1.0, 0.0],
    [0.0, 0.0, 0.0, 1.0]
],
  "dcmmeta_shape": [104, 104, 60, 190],
  "dcmmeta_slice_dim": 2,
  "dcmmeta_version": 0.6,
  "global": {
    "const": {
      "AcquisitionMatrix": [104, 0, 0, 104],
      "AngioFlag": "N",
      "BitsAllocated": 16,
      "BitsStored": 16,
      "BodyPartExamined": "BRAIN",
      "Columns": 832,
      "EchoNumbers": 1,
      "EchoTime": 37.0,
      "EchoTrainLength": 104,
      "FlipAngle": 52.0,
      "HighBit": 15,
      "ImageOrientationPatient": [0.9995108660566, -0.0267864734652, 0.01614042979884, 0.03071241548912, 0.93806778326228, -0.3450877881644],
      "ImagePositionPatient": [-860.79025738861, -790.09305887592, 244.20078464917],
      "ImageType": [
        "ORIGINAL",
        "PRIMARY",
        "M",
        "MB",
        "ND",
        "MOSAIC"
],
      "ImagedNucleus": "1H",
      "ImagingFrequency": 123.258948,
      "InPlanePhaseEncodingDirection": "COL",
      "MRAcquisitionType": "2D",
      "MagneticFieldStrength": 3.0,
      "Manufacturer": "SIEMENS",
      "ManufacturerModelName": "Prisma_fit",
      "Modality": "MR",
      "NumberOfAverages": 1.0,
      "NumberOfPhaseEncodingSteps": 104,
      "PercentPhaseFieldOfView": 100.0,
      "PercentSampling": 100.0,
      "PerformedProcedureStepStartTime": "150647.031000",
      "PhotometricInterpretation": "MONOCHROME2",
      "PixelBandwidth": 2290.0,
      "PixelRepresentation": 0,
      "PixelSpacing": [2.0, 2.0],
      "ProtocolName": "func_task-things_run-5",
      "RepetitionTime": 1490.0,
      "Rows": 832,
      "SAR": 0.07007098044568,
      "SamplesPerPixel": 1,
      "ScanOptions": "FS",
      "ScanningSequence": "EP",
      "SequenceName": "epfid2d1_104",
      "SequenceVariant": [
        "SK",
        "SS"
],
      "SeriesDescription": "func_task-things_run-5",
      "SeriesNumber": 22,
      "SeriesTime": "154922.178000",
      "SliceLocation": -38.667829391693,
      "SliceThickness": 2.0,
      "SmallestImagePixelValue": 0,
      "SoftwareVersions": "syngo MR E11",
      "SpacingBetweenSlices": 1.9999999504796,
      "SpecificCharacterSet": "ISO_IR 100",
      "StudyID": "1",
      "StudyTime": "150646.935000",
      "TransmitCoilName": "Body",
      "VariableFlipAngleFlag": "N",
      "WindowCenterWidthExplanation": "Algo1",
      "dBdt": 0.0},
    "slices": {}
  },
  "time": {
    "samples": {
      "AcquisitionNumber": [1, 2, 3, 4, 5, 6, 7, 8, 9, 10, 11, 12, 13, 14, 15, 16, 17, 18, 19, 20, 21, 22, 23, 24, 25, 26, 27, 28, 29, 30, 31, 32, 33, 34, 35, 36, 37, 38, 39, 40, 41, 42, 43, 44, 45, 46, 47, 48, 49, 50, 51, 52, 53, 54, 55, 56, 57, 58, 59, 60, 61, 62, 63, 64, 65, 66, 67, 68, 69, 70, 71, 72, 73, 74, 75, 76, 77, 78, 79, 80, 81, 82, 83, 84, 85, 86, 87, 88, 89, 90, 91, 92, 93, 94, 95, 96, 97, 98, 99, 100, 101, 102, 103, 104, 105, 106, 107, 108, 109, 110, 111, 112, 113, 114, 115, 116, 117, 118, 119, 120, 121, 122, 123, 124, 125, 126, 127, 128, 129, 130, 131, 132, 133, 134, 135, 136, 137, 138, 139, 140, 141, 142, 143, 144, 145, 146, 147, 148, 149, 150, 151, 152, 153, 154, 155, 156, 157, 158, 159, 160, 161, 162, 163, 164, 165, 166, 167, 168, 169, 170, 171, 172, 173, 174, 175, 176, 177, 178, 179, 180, 181, 182, 183, 184, 185, 186, 187, 188, 189, 190],
      "AcquisitionTime": ["154756.825000", "154758.315000", "154759.805000", "154801.295000", "154802.785000", "154804.275000", "154805.765000", "154807.255000", "154808.745000", "154810.235000", "154811.725000", "154813.215000", "154814.705000", "154816.195000", "154817.685000", "154819.175000", "154820.665000", "154822.155000", "154823.645000", "154825.135000", "154826.625000", "154828.115000", "154829.605000", "154831.095000", "154832.585000", "154834.075000", "154835.565000", "154837.055000", "154838.545000", "154840.035000", "154841.525000", "154843.015000", "154844.505000", "154845.995000", "154847.485000", "154848.975000", "154850.465000", "154851.955000", "154853.445000", "154854.935000", "154856.425000", "154857.915000", "154859.405000", "154900.895000", "154902.385000", "154903.875000", "154905.365000", "154906.855000", "154908.345000", "154909.835000", "154911.325000", "154912.815000", "154914.305000", "154915.795000", "154917.285000", "154918.775000", "154920.265000", "154921.755000", "154923.245000", "154924.735000", "154926.225000", "154927.715000", "154929.205000", "154930.695000", "154932.185000", "154933.675000", "154935.165000", "154936.655000", "154938.145000", "154939.635000", "154941.125000", "154942.615000", "154944.105000", "154945.595000", "154947.085000", "154948.575000", "154950.065000", "154951.555000", "154953.045000", "154954.535000", "154956.025000", "154957.515000", "154959.005000", "155000.495000", "155001.985000", "155003.475000", "155004.965000", "155006.455000", "155007.945000", "155009.435000", "155010.925000", "155012.415000", "155013.905000", "155015.395000", "155016.885000", "155018.375000", "155019.865000", "155021.355000", "155022.845000", "155024.335000", "155025.825000", "155027.315000", "155028.805000", "155030.295000", "155031.785000", "155033.275000", "155034.765000", "155036.255000", "155037.745000", "155039.235000", "155040.725000", "155042.215000", "155043.705000", "155045.195000", "155046.685000", "155048.175000", "155049.665000", "155051.155000", "155052.645000", "155054.135000", "155055.625000", "155057.115000", "155058.605000", "155100.095000", "155101.585000", "155103.075000", "155104.565000", "155106.055000", "155107.545000", "155109.035000", "155110.525000", "155112.015000", "155113.505000", "155114.995000", "155116.485000", "155117.975000", "155119.465000", "155120.955000", "155122.445000", "155123.935000", "155125.425000", "155126.915000", "155128.405000", "155129.895000", "155131.385000", "155132.875000", "155134.365000", "155135.855000", "155137.345000", "155138.835000", "155140.325000", "155141.815000", "155143.305000", "155144.795000", "155146.285000", "155147.775000", "155149.265000", "155150.755000", "155152.245000", "155153.735000", "155155.225000", "155156.715000", "155158.205000", "155159.695000", "155201.185000", "155202.675000", "155204.165000", "155205.655000", "155207.145000", "155208.635000", "155210.125000", "155211.615000", "155213.105000", "155214.595000", "155216.085000", "155217.575000", "155219.065000", "155220.555000", "155222.045000", "155223.535000", "155225.025000", "155226.515000", "155228.005000", "155229.495000", "155230.985000", "155232.475000", "155233.965000", "155235.455000", "155236.945000", "155238.435000"],
      "ContentTime": ["154922.181000", "154922.185000", "154922.189000", "154922.192000", "154922.195000", "154922.199000", "154922.202000", "154922.206000", "154922.209000", "154922.212000", "154922.216000", "154922.219000", "154922.223000", "154922.226000", "154922.229000", "154922.233000", "154922.236000", "154922.246000", "154922.249000", "154922.253000", "154922.256000", "154922.259000", "154922.263000", "154922.266000", "154922.270000", "154922.273000", "154922.276000", "154922.280000", "154922.283000", "154922.286000", "154942.147000", "154942.151000", "154942.154000", "154942.158000", "154942.161000", "154942.164000", "154942.168000", "154942.171000", "154942.256000", "154942.259000", "154942.262000", "154942.266000", "154942.269000", "154942.272000", "154942.276000", "154942.279000", "154942.283000", "154942.286000", "154942.289000", "154942.293000", "155002.148000", "155002.161000", "155002.164000", "155002.168000", "155002.171000", "155002.174000", "155002.178000", "155002.181000", "155002.185000", "155002.188000", "155002.191000", "155002.195000", "155002.198000", "155002.202000", "155002.205000", "155002.208000", "155002.212000", "155002.215000", "155002.218000", "155002.222000", "155022.147000", "155022.151000", "155022.154000", "155022.158000", "155022.161000", "155022.165000", "155022.168000", "155022.171000", "155022.175000", "155022.178000", "155022.181000", "155022.185000", "155022.188000", "155022.191000", "155022.195000", "155022.198000", "155022.202000", "155022.205000", "155022.208000", "155022.212000", "155042.147000", "155042.151000", "155042.154000", "155042.158000", "155042.161000", "155042.165000", "155042.168000", "155042.171000", "155042.175000", "155042.178000", "155042.182000", "155042.185000", "155042.194000", "155042.198000", "155042.201000", "155042.204000", "155042.208000", "155042.211000", "155042.215000", "155042.218000", "155122.148000", "155122.152000", "155122.155000", "155122.158000", "155122.162000", "155122.165000", "155122.169000", "155122.172000", "155122.206000", "155122.210000", "155122.213000", "155122.216000", "155122.220000", "155122.223000", "155122.226000", "155122.230000", "155122.233000", "155122.236000", "155122.240000", "155122.243000", "155122.247000", "155122.250000", "155122.253000", "155122.257000", "155122.260000", "155122.263000", "155122.267000", "155202.147000", "155202.151000", "155202.154000", "155202.158000", "155202.161000", "155202.165000", "155202.168000", "155202.172000", "155202.175000", "155202.179000", "155202.182000", "155202.186000", "155202.189000", "155202.210000", "155202.214000", "155202.217000", "155202.220000", "155202.224000", "155202.228000", "155202.231000", "155202.235000", "155202.238000", "155202.241000", "155202.245000", "155202.248000", "155202.252000", "155202.255000", "155240.807000", "155240.811000", "155240.815000", "155240.818000", "155240.822000", "155240.825000", "155240.829000", "155240.832000", "155240.836000", "155240.839000", "155240.843000", "155240.847000", "155240.850000", "155240.854000", "155240.857000", "155240.861000", "155240.864000", "155240.867000", "155240.871000", "155240.874000", "155240.878000", "155240.881000", "155240.885000", "155240.888000", "155240.891000", "155240.895000"],
      "InstanceCreationTime": ["154922.181000", "154922.185000", "154922.189000", "154922.192000", "154922.195000", "154922.199000", "154922.202000", "154922.206000", "154922.209000", "154922.212000", "154922.216000", "154922.219000", "154922.223000", "154922.226000", "154922.229000", "154922.233000", "154922.236000", "154922.246000", "154922.249000", "154922.253000", "154922.256000", "154922.259000", "154922.263000", "154922.266000", "154922.270000", "154922.273000", "154922.276000", "154922.280000", "154922.283000", "154922.286000", "154942.147000", "154942.151000", "154942.154000", "154942.158000", "154942.161000", "154942.164000", "154942.168000", "154942.171000", "154942.256000", "154942.259000", "154942.262000", "154942.266000", "154942.269000", "154942.272000", "154942.276000", "154942.279000", "154942.283000", "154942.286000", "154942.289000", "154942.293000", "155002.148000", "155002.161000", "155002.164000", "155002.168000", "155002.171000", "155002.174000", "155002.178000", "155002.181000", "155002.185000", "155002.188000", "155002.191000", "155002.195000", "155002.198000", "155002.202000", "155002.205000", "155002.208000", "155002.212000", "155002.215000", "155002.218000", "155002.222000", "155022.147000", "155022.151000", "155022.154000", "155022.158000", "155022.161000", "155022.165000", "155022.168000", "155022.171000", "155022.175000", "155022.178000", "155022.181000", "155022.185000", "155022.188000", "155022.191000", "155022.195000", "155022.198000", "155022.202000", "155022.205000", "155022.208000", "155022.212000", "155042.147000", "155042.151000", "155042.154000", "155042.158000", "155042.161000", "155042.165000", "155042.168000", "155042.171000", "155042.175000", "155042.178000", "155042.182000", "155042.185000", "155042.194000", "155042.198000", "155042.201000", "155042.204000", "155042.208000", "155042.211000", "155042.215000", "155042.218000", "155122.148000", "155122.152000", "155122.155000", "155122.158000", "155122.162000", "155122.165000", "155122.169000", "155122.172000", "155122.206000", "155122.210000", "155122.213000", "155122.216000", "155122.220000", "155122.223000", "155122.226000", "155122.230000", "155122.233000", "155122.236000", "155122.240000", "155122.243000", "155122.247000", "155122.250000", "155122.253000", "155122.257000", "155122.260000", "155122.263000", "155122.267000", "155202.147000", "155202.151000", "155202.154000", "155202.158000", "155202.161000", "155202.165000", "155202.168000", "155202.172000", "155202.175000", "155202.179000", "155202.182000", "155202.186000", "155202.189000", "155202.210000", "155202.214000", "155202.217000", "155202.220000", "155202.224000", "155202.228000", "155202.231000", "155202.235000", "155202.238000", "155202.241000", "155202.245000", "155202.248000", "155202.252000", "155202.255000", "155240.807000", "155240.811000", "155240.815000", "155240.818000", "155240.822000", "155240.825000", "155240.829000", "155240.832000", "155240.836000", "155240.839000", "155240.843000", "155240.847000", "155240.850000", "155240.854000", "155240.857000", "155240.861000", "155240.864000", "155240.867000", "155240.871000", "155240.874000", "155240.878000", "155240.881000", "155240.885000", "155240.888000", "155240.891000", "155240.895000"],
      "InstanceNumber": [1, 2, 3, 4, 5, 6, 7, 8, 9, 10, 11, 12, 13, 14, 15, 16, 17, 18, 19, 20, 21, 22, 23, 24, 25, 26, 27, 28, 29, 30, 31, 32, 33, 34, 35, 36, 37, 38, 39, 40, 41, 42, 43, 44, 45, 46, 47, 48, 49, 50, 51, 52, 53, 54, 55, 56, 57, 58, 59, 60, 61, 62, 63, 64, 65, 66, 67, 68, 69, 70, 71, 72, 73, 74, 75, 76, 77, 78, 79, 80, 81, 82, 83, 84, 85, 86, 87, 88, 89, 90, 91, 92, 93, 94, 95, 96, 97, 98, 99, 100, 101, 102, 103, 104, 105, 106, 107, 108, 109, 110, 111, 112, 113, 114, 115, 116, 117, 118, 119, 120, 121, 122, 123, 124, 125, 126, 127, 128, 129, 130, 131, 132, 133, 134, 135, 136, 137, 138, 139, 140, 141, 142, 143, 144, 145, 146, 147, 148, 149, 150, 151, 152, 153, 154, 155, 156, 157, 158, 159, 160, 161, 162, 163, 164, 165, 166, 167, 168, 169, 170, 171, 172, 173, 174, 175, 176, 177, 178, 179, 180, 181, 182, 183, 184, 185, 186, 187, 188, 189, 190],
      "LargestImagePixelValue": [44637, 43459, 42793, 42430, 43153, 42033, 41079, 41385, 42011, 41622, 42050, 41991, 42697, 42812, 42849, 42419, 42988, 42286, 41696, 41764, 42112, 41851, 41660, 42335, 41851, 41876, 43088, 41553, 42125, 42441, 41735, 42284, 41777, 41857, 42288, 42123, 41561, 42173, 41730, 41598, 42522, 41530, 42689, 41658, 41503, 41247, 42775, 43587, 42836, 42343, 43380, 42679, 42576, 41583, 43205, 43662, 44033, 43595, 43365, 41989, 42278, 43683, 43030, 42338, 41631, 41470, 41394, 41530, 41488, 41909, 41857, 42533, 41620, 41407, 41595, 41061, 40899, 41541, 41103, 41556, 42103, 40921, 41844, 41496, 42518, 42261, 42589, 42124, 41865, 42101, 41670, 42647, 42382, 43618, 43425, 43171, 42295, 42606, 42302, 42997, 43238, 42569, 43089, 43343, 43518, 44371, 43833, 43038, 42656, 43464, 43674, 42987, 44202, 43499, 43829, 44379, 43916, 43804, 43136, 42971, 42630, 43613, 42910, 42918, 43911, 43587, 43655, 43453, 43717, 43634, 43391, 43222, 43408, 43610, 43471, 43581, 43116, 43269, 43401, 43743, 43268, 43020, 43808, 43561, 43209, 43442, 43742, 43648, 43515, 43440, 43698, 43452, 43280, 43702, 43662, 43645, 43286, 43288, 42828, 42850, 42788, 43645, 43532, 44059, 43284, 43272, 43173, 42478, 43319, 42698, 43035, 42884, 43341, 42873, 43513, 43757, 43099, 42344, 43938, 43529, 43150, 43037, 42289, 42801, 42717, 43089, 42830, 42705, 43190, 43557],
      "WindowCenter": [10415.0, 10381.0, 10348.0, 10379.0, 10360.0, 10314.0, 10283.0, 10288.0, 10292.0, 10281.0, 10253.0, 10235.0, 10223.0, 10232.0, 10242.0, 10241.0, 10249.0, 10255.0, 10245.0, 10257.0, 10267.0, 10275.0, 10286.0, 10301.0, 10301.0, 10313.0, 10334.0, 10310.0, 10317.0, 10308.0, 10287.0, 10282.0, 10283.0, 10260.0, 10269.0, 10267.0, 10253.0, 10257.0, 10252.0, 10253.0, 10272.0, 10277.0, 10265.0, 10282.0, 10278.0, 10273.0, 10305.0, 10295.0, 10289.0, 10293.0, 10294.0, 10285.0, 10256.0, 10228.0, 10231.0, 10254.0, 10271.0, 10260.0, 10254.0, 10235.0, 10257.0, 10280.0, 10262.0, 10243.0, 10236.0, 10265.0, 10285.0, 10303.0, 10287.0, 10277.0, 10269.0, 10285.0, 10306.0, 10294.0, 10303.0, 10290.0, 10277.0, 10272.0, 10262.0, 10285.0, 10293.0, 10298.0, 10300.0, 10273.0, 10253.0, 10233.0, 10242.0, 10246.0, 10251.0, 10248.0, 10248.0, 10255.0, 10255.0, 10246.0, 10256.0, 10280.0, 10273.0, 10254.0, 10237.0, 10257.0, 10296.0, 10304.0, 10291.0, 10284.0, 10294.0, 10281.0, 10253.0, 10234.0, 10231.0, 10241.0, 10244.0, 10228.0, 10222.0, 10214.0, 10246.0, 10270.0, 10286.0, 10298.0, 10280.0, 10263.0, 10247.0, 10247.0, 10246.0, 10252.0, 10270.0, 10295.0, 10314.0, 10317.0, 10315.0, 10283.0, 10268.0, 10274.0, 10284.0, 10298.0, 10293.0, 10278.0, 10267.0, 10268.0, 10270.0, 10293.0, 10297.0, 10286.0, 10295.0, 10275.0, 10293.0, 10284.0, 10277.0, 10272.0, 10270.0, 10249.0, 10225.0, 10272.0, 10298.0, 10282.0, 10244.0, 10224.0, 10228.0, 10253.0, 10282.0, 10310.0, 10295.0, 10274.0, 10264.0, 10222.0, 10231.0, 10274.0, 10297.0, 10278.0, 10244.0, 10219.0, 10221.0, 10238.0, 10234.0, 10237.0, 10253.0, 10252.0, 10238.0, 10211.0, 10241.0, 10257.0, 10272.0, 10259.0, 10236.0, 10230.0, 10226.0, 10246.0, 10249.0, 10252.0, 10258.0, 10246.0],
      "WindowWidth": [22546.0, 22428.0, 22327.0, 22389.0, 22337.0, 22225.0, 22152.0, 22160.0, 22166.0, 22150.0, 22082.0, 22038.0, 22010.0, 22028.0, 22051.0, 22059.0, 22069.0, 22086.0, 22065.0, 22090.0, 22115.0, 22133.0, 22160.0, 22194.0, 22194.0, 22225.0, 22267.0, 22217.0, 22232.0, 22208.0, 22165.0, 22149.0, 22152.0, 22100.0, 22120.0, 22116.0, 22090.0, 22096.0, 22086.0, 22092.0, 22130.0, 22143.0, 22116.0, 22155.0, 22149.0, 22142.0, 22206.0, 22184.0, 22167.0, 22179.0, 22175.0, 22156.0, 22092.0, 22030.0, 22028.0, 22083.0, 22122.0, 22099.0, 22080.0, 22041.0, 22096.0, 22141.0, 22101.0, 22059.0, 22044.0, 22107.0, 22153.0, 22196.0, 22161.0, 22133.0, 22117.0, 22151.0, 22203.0, 22177.0, 22199.0, 22171.0, 22143.0, 22129.0, 22106.0, 22157.0, 22170.0, 22188.0, 22190.0, 22131.0, 22081.0, 22041.0, 22057.0, 22066.0, 22082.0, 22074.0, 22074.0, 22091.0, 22090.0, 22072.0, 22094.0, 22144.0, 22134.0, 22084.0, 22048.0, 22092.0, 22182.0, 22203.0, 22172.0, 22163.0, 22182.0, 22146.0, 22083.0, 22042.0, 22032.0, 22049.0, 22057.0, 22029.0, 22008.0, 21990.0, 22068.0, 22121.0, 22158.0, 22184.0, 22144.0, 22104.0, 22069.0, 22065.0, 22070.0, 22081.0, 22119.0, 22176.0, 22222.0, 22232.0, 22222.0, 22149.0, 22115.0, 22127.0, 22153.0, 22185.0, 22174.0, 22140.0, 22114.0, 22116.0, 22118.0, 22168.0, 22180.0, 22159.0, 22174.0, 22132.0, 22174.0, 22152.0, 22134.0, 22125.0, 22118.0, 22070.0, 22013.0, 22120.0, 22183.0, 22143.0, 22062.0, 22017.0, 22025.0, 22083.0, 22147.0, 22215.0, 22181.0, 22128.0, 22104.0, 22011.0, 22023.0, 22121.0, 22178.0, 22141.0, 22059.0, 22004.0, 22008.0, 22048.0, 22035.0, 22040.0, 22076.0, 22072.0, 22042.0, 21988.0, 22049.0, 22085.0, 22121.0, 22092.0, 22040.0, 22024.0, 22018.0, 22058.0, 22067.0, 22079.0, 22089.0, 22062.0]
    },
    "slices": {}
  }
}