{
  "AcquisitionMatrixPE": 104,
  "AcquisitionNumber": 1,
  "AcquisitionTime": "15:27:59.237500",
  "BandwidthPerPixelPhaseEncode": 17.17,
  "BaseResolution": 104,
  "BodyPartExamined": "BRAIN",
  "CoilString": "HC1-7;NC1_2",
  "ConsistencyInfo": "N4_VE11C_LATEST_20160120",
  "ConversionSoftware": "dcm2niix",
  "ConversionSoftwareVersion": "v1.0.20190902",
  "DerivedVendorReportedEchoSpacing": 0.000560011,
  "DeviceSerialNumber": "167006",
  "DwellTime": 2.1e-06,
  "EchoTime": 0.037,
  "EchoTrainLength": 104,
  "EffectiveEchoSpacing": 0.000560011,
  "FlipAngle": 52,
  "ImageComments": "Unaliased_MB4_PE3_LB",
  "ImageOrientationPatientDICOM": [0.999511, -0.0267865, 0.0161404, 0.0307124, 0.938068, -0.345088],
  "ImageType": [
    "ORIGINAL",
    "PRIMARY",
    "M",
    "MB",
    "ND",
    "MOSAIC"
],
  "ImagingFrequency": 123.259,
  "InPlanePhaseEncodingDirectionDICOM": "COL",
  "InstitutionAddress": "Chemin_Queen-Mary_4565_Montreal_District_CA_H3W_1W5",
  "InstitutionName": "IUGM",
  "InstitutionalDepartmentName": "Department",
  "MRAcquisitionType": "2D",
  "MagneticFieldStrength": 3,
  "Manufacturer": "Siemens",
  "ManufacturersModelName": "Prisma_fit",
  "Modality": "MR",
  "MultibandAccelerationFactor": 4,
  "PartialFourier": 1,
  "PatientPosition": "HFS",
  "PercentPhaseFOV": 100,
  "PhaseEncodingDirection": "j",
  "PhaseEncodingSteps": 104,
  "PhaseResolution": 1,
  "PixelBandwidth": 2290,
  "ProcedureStepDescription": "memory_things",
  "ProtocolName": "func_task-things_run-2",
  "PulseSequenceDetails": "%CustomerSeq%_cmrr_mbep2d_bold",
  "ReceiveCoilActiveElements": "HC1-7;NC1,2",
  "ReceiveCoilName": "HeadNeck_64",
  "ReconMatrixPE": 104,
  "RepetitionTime": 1.49,
  "SAR": 0.070071,
  "ScanOptions": "FS",
  "ScanningSequence": "EP",
  "SequenceName": "epfid2d1_104",
  "SequenceVariant": "SK_SS",
  "SeriesDescription": "func_task-things_run-2",
  "SeriesNumber": 13,
  "ShimSetting": [633, -7241, -8821, 566, 16, -161, -63, -25],
  "SliceThickness": 2,
  "SliceTiming": [0, 0.7825, 0.0975, 0.8825, 0.195, 0.98, 0.2925, 1.0775, 0.3925, 1.175, 0.49, 1.2725, 0.5875, 1.3725, 0.685, 0, 0.7825, 0.0975, 0.8825, 0.195, 0.98, 0.2925, 1.0775, 0.3925, 1.175, 0.49, 1.2725, 0.5875, 1.3725, 0.685, 0, 0.7825, 0.0975, 0.8825, 0.195, 0.98, 0.2925, 1.0775, 0.3925, 1.175, 0.49, 1.2725, 0.5875, 1.3725, 0.685, 0, 0.7825, 0.0975, 0.8825, 0.195, 0.98, 0.2925, 1.0775, 0.3925, 1.175, 0.49, 1.2725, 0.5875, 1.3725, 0.685],
  "SoftwareVersions": "syngo_MR_E11",
  "SpacingBetweenSlices": 2,
  "StationName": "MRC35049",
  "TaskName": "things",
  "TotalReadoutTime": 0.0576811,
  "TxRefAmp": 298.125,
  "WipMemBlock": "81e92dba-4aec-4fd8-999b-0558d7a7237b||Sequence: R016 ve11c/master r/e634e98; Dec 19 2017 11:00:25 by eja",
  "dcmmeta_affine": [
    [-1.9990217685699463, 0.06142483279109001, 0.011794264428317547, 104.46095275878906],
    [0.053572945296764374, 1.8761355876922607, -0.6908293962478638, -66.56169891357422],
    [0.03228085860610008, 0.6901755928993225, 1.8768632411956787, -66.36097717285156],
    [0.0, 0.0, 0.0, 1.0]
],
  "dcmmeta_reorient_transform": [
    [0.0, -1.0, 0.0, 103.0],
    [1.0, 0.0, 0.0, 0.0],
    [0.0, 0.0, 1.0, 0.0],
    [0.0, 0.0, 0.0, 1.0]
],
  "dcmmeta_shape": [104, 104, 60, 190],
  "dcmmeta_slice_dim": 2,
  "dcmmeta_version": 0.6,
  "global": {
    "const": {
      "AcquisitionMatrix": [104, 0, 0, 104],
      "AngioFlag": "N",
      "BitsAllocated": 16,
      "BitsStored": 16,
      "BodyPartExamined": "BRAIN",
      "Columns": 832,
      "EchoNumbers": 1,
      "EchoTime": 37.0,
      "EchoTrainLength": 104,
      "FlipAngle": 52.0,
      "HighBit": 15,
      "ImageOrientationPatient": [0.9995108660566, -0.0267864734652, 0.01614042979884, 0.03071241548912, 0.93806778326228, -0.3450877881644],
      "ImagePositionPatient": [-860.79025738861, -790.09305887592, 244.20078464917],
      "ImageType": [
        "ORIGINAL",
        "PRIMARY",
        "M",
        "MB",
        "ND",
        "MOSAIC"
],
      "ImagedNucleus": "1H",
      "ImagingFrequency": 123.258939,
      "InPlanePhaseEncodingDirection": "COL",
      "MRAcquisitionType": "2D",
      "MagneticFieldStrength": 3.0,
      "Manufacturer": "SIEMENS",
      "ManufacturerModelName": "Prisma_fit",
      "Modality": "MR",
      "NumberOfAverages": 1.0,
      "NumberOfPhaseEncodingSteps": 104,
      "PercentPhaseFieldOfView": 100.0,
      "PercentSampling": 100.0,
      "PerformedProcedureStepStartTime": "150647.031000",
      "PhotometricInterpretation": "MONOCHROME2",
      "PixelBandwidth": 2290.0,
      "PixelRepresentation": 0,
      "PixelSpacing": [2.0, 2.0],
      "ProtocolName": "func_task-things_run-2",
      "RepetitionTime": 1490.0,
      "Rows": 832,
      "SAR": 0.07007098044568,
      "SamplesPerPixel": 1,
      "ScanOptions": "FS",
      "ScanningSequence": "EP",
      "SequenceName": "epfid2d1_104",
      "SequenceVariant": [
        "SK",
        "SS"
],
      "SeriesDescription": "func_task-things_run-2",
      "SeriesNumber": 13,
      "SeriesTime": "152922.208000",
      "SliceLocation": -38.667829391693,
      "SliceThickness": 2.0,
      "SmallestImagePixelValue": 0,
      "SoftwareVersions": "syngo MR E11",
      "SpacingBetweenSlices": 1.9999999504796,
      "SpecificCharacterSet": "ISO_IR 100",
      "StudyID": "1",
      "StudyTime": "150646.935000",
      "TransmitCoilName": "Body",
      "VariableFlipAngleFlag": "N",
      "WindowCenterWidthExplanation": "Algo1",
      "dBdt": 0.0},
    "slices": {}
  },
  "time": {
    "samples": {
      "AcquisitionNumber": [1, 2, 3, 4, 5, 6, 7, 8, 9, 10, 11, 12, 13, 14, 15, 16, 17, 18, 19, 20, 21, 22, 23, 24, 25, 26, 27, 28, 29, 30, 31, 32, 33, 34, 35, 36, 37, 38, 39, 40, 41, 42, 43, 44, 45, 46, 47, 48, 49, 50, 51, 52, 53, 54, 55, 56, 57, 58, 59, 60, 61, 62, 63, 64, 65, 66, 67, 68, 69, 70, 71, 72, 73, 74, 75, 76, 77, 78, 79, 80, 81, 82, 83, 84, 85, 86, 87, 88, 89, 90, 91, 92, 93, 94, 95, 96, 97, 98, 99, 100, 101, 102, 103, 104, 105, 106, 107, 108, 109, 110, 111, 112, 113, 114, 115, 116, 117, 118, 119, 120, 121, 122, 123, 124, 125, 126, 127, 128, 129, 130, 131, 132, 133, 134, 135, 136, 137, 138, 139, 140, 141, 142, 143, 144, 145, 146, 147, 148, 149, 150, 151, 152, 153, 154, 155, 156, 157, 158, 159, 160, 161, 162, 163, 164, 165, 166, 167, 168, 169, 170, 171, 172, 173, 174, 175, 176, 177, 178, 179, 180, 181, 182, 183, 184, 185, 186, 187, 188, 189, 190],
      "AcquisitionTime": ["152759.237500", "152800.727500", "152802.217500", "152803.707500", "152805.197500", "152806.687500", "152808.177500", "152809.667500", "152811.157500", "152812.647500", "152814.137500", "152815.627500", "152817.117500", "152818.607500", "152820.097500", "152821.587500", "152823.077500", "152824.567500", "152826.057500", "152827.547500", "152829.037500", "152830.527500", "152832.017500", "152833.507500", "152834.997500", "152836.487500", "152837.977500", "152839.467500", "152840.957500", "152842.447500", "152843.937500", "152845.427500", "152846.917500", "152848.407500", "152849.897500", "152851.387500", "152852.877500", "152854.367500", "152855.857500", "152857.347500", "152858.837500", "152900.327500", "152901.817500", "152903.307500", "152904.797500", "152906.287500", "152907.777500", "152909.267500", "152910.757500", "152912.247500", "152913.737500", "152915.227500", "152916.717500", "152918.207500", "152919.697500", "152921.187500", "152922.677500", "152924.167500", "152925.657500", "152927.147500", "152928.637500", "152930.127500", "152931.617500", "152933.107500", "152934.597500", "152936.087500", "152937.577500", "152939.067500", "152940.557500", "152942.047500", "152943.537500", "152945.027500", "152946.517500", "152948.007500", "152949.497500", "152950.987500", "152952.477500", "152953.967500", "152955.457500", "152956.947500", "152958.437500", "152959.927500", "153001.417500", "153002.907500", "153004.397500", "153005.887500", "153007.377500", "153008.867500", "153010.357500", "153011.847500", "153013.337500", "153014.827500", "153016.317500", "153017.807500", "153019.297500", "153020.787500", "153022.277500", "153023.767500", "153025.257500", "153026.747500", "153028.237500", "153029.727500", "153031.217500", "153032.707500", "153034.197500", "153035.687500", "153037.177500", "153038.667500", "153040.157500", "153041.647500", "153043.137500", "153044.627500", "153046.117500", "153047.607500", "153049.097500", "153050.587500", "153052.077500", "153053.567500", "153055.057500", "153056.547500", "153058.037500", "153059.527500", "153101.017500", "153102.507500", "153103.997500", "153105.487500", "153106.977500", "153108.467500", "153109.957500", "153111.447500", "153112.937500", "153114.427500", "153115.917500", "153117.407500", "153118.897500", "153120.387500", "153121.877500", "153123.367500", "153124.857500", "153126.347500", "153127.837500", "153129.327500", "153130.817500", "153132.307500", "153133.797500", "153135.287500", "153136.777500", "153138.267500", "153139.757500", "153141.247500", "153142.737500", "153144.227500", "153145.717500", "153147.207500", "153148.697500", "153150.187500", "153151.677500", "153153.167500", "153154.657500", "153156.147500", "153157.637500", "153159.127500", "153200.617500", "153202.107500", "153203.597500", "153205.087500", "153206.577500", "153208.067500", "153209.557500", "153211.047500", "153212.537500", "153214.027500", "153215.517500", "153217.007500", "153218.497500", "153219.987500", "153221.477500", "153222.967500", "153224.457500", "153225.947500", "153227.437500", "153228.927500", "153230.417500", "153231.907500", "153233.397500", "153234.887500", "153236.377500", "153237.867500", "153239.357500", "153240.847500"],
      "ContentTime": ["152922.211000", "152922.216000", "152922.220000", "152922.224000", "152922.228000", "152922.232000", "152922.236000", "152922.240000", "152922.244000", "152922.248000", "152922.252000", "152922.256000", "152922.260000", "152922.264000", "152922.268000", "152922.272000", "152922.275000", "152922.279000", "152922.284000", "152922.287000", "152922.291000", "152922.295000", "152922.299000", "152922.303000", "152922.307000", "152922.311000", "152922.318000", "152922.322000", "152922.326000", "152942.147000", "152942.160000", "152942.164000", "152942.167000", "152942.170000", "152942.174000", "152942.177000", "152942.181000", "152942.184000", "152942.187000", "152942.191000", "152942.194000", "152942.198000", "152942.201000", "152942.204000", "152942.208000", "152942.211000", "152942.215000", "152942.218000", "152942.221000", "153002.147000", "153002.151000", "153002.155000", "153002.158000", "153002.161000", "153002.165000", "153002.168000", "153002.172000", "153002.175000", "153002.179000", "153002.182000", "153002.185000", "153002.189000", "153002.192000", "153002.196000", "153002.199000", "153002.202000", "153002.206000", "153002.209000", "153002.213000", "153022.147000", "153022.151000", "153022.155000", "153022.158000", "153022.161000", "153022.165000", "153022.168000", "153022.181000", "153022.185000", "153022.188000", "153022.192000", "153022.195000", "153022.198000", "153022.202000", "153022.206000", "153022.209000", "153022.213000", "153022.216000", "153022.220000", "153022.223000", "153022.227000", "153102.147000", "153102.151000", "153102.154000", "153102.158000", "153102.161000", "153102.165000", "153102.168000", "153102.180000", "153102.184000", "153102.187000", "153102.191000", "153102.194000", "153102.198000", "153102.201000", "153102.204000", "153102.208000", "153102.212000", "153102.215000", "153102.218000", "153102.222000", "153102.226000", "153102.229000", "153102.232000", "153102.236000", "153102.239000", "153102.243000", "153102.246000", "153102.250000", "153102.253000", "153102.257000", "153102.260000", "153102.264000", "153142.147000", "153142.151000", "153142.154000", "153142.158000", "153142.161000", "153142.165000", "153142.168000", "153142.172000", "153142.175000", "153142.179000", "153142.182000", "153142.185000", "153142.189000", "153142.192000", "153142.196000", "153142.199000", "153142.203000", "153142.206000", "153142.210000", "153142.213000", "153142.217000", "153142.220000", "153142.223000", "153142.227000", "153142.230000", "153142.234000", "153142.237000", "153222.147000", "153222.151000", "153222.155000", "153222.158000", "153222.161000", "153222.165000", "153222.168000", "153222.172000", "153222.175000", "153222.179000", "153222.182000", "153222.185000", "153222.189000", "153222.192000", "153222.196000", "153222.199000", "153222.203000", "153222.206000", "153222.210000", "153222.213000", "153222.216000", "153222.220000", "153222.223000", "153222.227000", "153222.230000", "153222.234000", "153222.237000", "153242.908000", "153242.912000", "153242.915000", "153242.929000", "153242.933000", "153242.936000", "153242.940000", "153242.943000", "153242.947000", "153242.950000", "153242.954000", "153242.957000", "153242.961000", "153242.979000"],
      "InstanceCreationTime": ["152922.211000", "152922.216000", "152922.220000", "152922.224000", "152922.228000", "152922.232000", "152922.236000", "152922.240000", "152922.244000", "152922.248000", "152922.252000", "152922.256000", "152922.260000", "152922.264000", "152922.268000", "152922.272000", "152922.275000", "152922.279000", "152922.284000", "152922.287000", "152922.291000", "152922.295000", "152922.299000", "152922.303000", "152922.307000", "152922.311000", "152922.318000", "152922.322000", "152922.326000", "152942.147000", "152942.160000", "152942.164000", "152942.167000", "152942.170000", "152942.174000", "152942.177000", "152942.181000", "152942.184000", "152942.187000", "152942.191000", "152942.194000", "152942.198000", "152942.201000", "152942.204000", "152942.208000", "152942.211000", "152942.215000", "152942.218000", "152942.221000", "153002.147000", "153002.151000", "153002.155000", "153002.158000", "153002.161000", "153002.165000", "153002.168000", "153002.172000", "153002.175000", "153002.179000", "153002.182000", "153002.185000", "153002.189000", "153002.192000", "153002.196000", "153002.199000", "153002.202000", "153002.206000", "153002.209000", "153002.213000", "153022.147000", "153022.151000", "153022.155000", "153022.158000", "153022.161000", "153022.165000", "153022.168000", "153022.181000", "153022.185000", "153022.188000", "153022.192000", "153022.195000", "153022.198000", "153022.202000", "153022.206000", "153022.209000", "153022.213000", "153022.216000", "153022.220000", "153022.223000", "153022.227000", "153102.147000", "153102.151000", "153102.154000", "153102.158000", "153102.161000", "153102.165000", "153102.168000", "153102.180000", "153102.184000", "153102.187000", "153102.191000", "153102.194000", "153102.198000", "153102.201000", "153102.204000", "153102.208000", "153102.212000", "153102.215000", "153102.218000", "153102.222000", "153102.226000", "153102.229000", "153102.232000", "153102.236000", "153102.239000", "153102.243000", "153102.246000", "153102.250000", "153102.253000", "153102.257000", "153102.260000", "153102.264000", "153142.147000", "153142.151000", "153142.154000", "153142.158000", "153142.161000", "153142.165000", "153142.168000", "153142.172000", "153142.175000", "153142.179000", "153142.182000", "153142.185000", "153142.189000", "153142.192000", "153142.196000", "153142.199000", "153142.203000", "153142.206000", "153142.210000", "153142.213000", "153142.217000", "153142.220000", "153142.223000", "153142.227000", "153142.230000", "153142.234000", "153142.237000", "153222.147000", "153222.151000", "153222.155000", "153222.158000", "153222.161000", "153222.165000", "153222.168000", "153222.172000", "153222.175000", "153222.179000", "153222.182000", "153222.185000", "153222.189000", "153222.192000", "153222.196000", "153222.199000", "153222.203000", "153222.206000", "153222.210000", "153222.213000", "153222.216000", "153222.220000", "153222.223000", "153222.227000", "153222.230000", "153222.234000", "153222.237000", "153242.908000", "153242.912000", "153242.915000", "153242.929000", "153242.933000", "153242.936000", "153242.940000", "153242.943000", "153242.947000", "153242.950000", "153242.954000", "153242.957000", "153242.961000", "153242.979000"],
      "InstanceNumber": [1, 2, 3, 4, 5, 6, 7, 8, 9, 10, 11, 12, 13, 14, 15, 16, 17, 18, 19, 20, 21, 22, 23, 24, 25, 26, 27, 28, 29, 30, 31, 32, 33, 34, 35, 36, 37, 38, 39, 40, 41, 42, 43, 44, 45, 46, 47, 48, 49, 50, 51, 52, 53, 54, 55, 56, 57, 58, 59, 60, 61, 62, 63, 64, 65, 66, 67, 68, 69, 70, 71, 72, 73, 74, 75, 76, 77, 78, 79, 80, 81, 82, 83, 84, 85, 86, 87, 88, 89, 90, 91, 92, 93, 94, 95, 96, 97, 98, 99, 100, 101, 102, 103, 104, 105, 106, 107, 108, 109, 110, 111, 112, 113, 114, 115, 116, 117, 118, 119, 120, 121, 122, 123, 124, 125, 126, 127, 128, 129, 130, 131, 132, 133, 134, 135, 136, 137, 138, 139, 140, 141, 142, 143, 144, 145, 146, 147, 148, 149, 150, 151, 152, 153, 154, 155, 156, 157, 158, 159, 160, 161, 162, 163, 164, 165, 166, 167, 168, 169, 170, 171, 172, 173, 174, 175, 176, 177, 178, 179, 180, 181, 182, 183, 184, 185, 186, 187, 188, 189, 190],
      "LargestImagePixelValue": [46704, 44911, 44943, 44421, 43466, 43341, 43298, 43817, 42516, 44248, 42814, 42992, 43941, 41858, 43581, 42670, 42435, 43436, 42442, 43554, 42248, 43765, 42480, 42838, 43588, 42384, 42770, 44209, 44170, 42131, 41674, 42082, 42335, 43328, 43651, 43785, 42736, 42090, 42961, 42127, 42333, 42614, 42508, 43686, 43243, 43232, 44004, 42318, 43751, 42674, 42433, 43569, 42903, 42698, 43903, 42804, 42172, 44105, 42703, 43000, 43089, 42116, 42244, 42911, 43517, 43510, 42205, 42489, 43195, 42161, 42979, 43360, 42786, 42930, 42911, 43450, 42328, 42702, 43261, 42370, 43531, 43508, 42553, 43698, 42579, 43726, 42631, 43082, 43129, 42994, 42583, 42519, 43393, 42316, 43353, 42322, 43037, 43036, 41809, 43147, 42562, 42986, 43003, 42415, 43718, 42422, 42494, 42523, 42212, 43255, 42582, 43658, 42403, 42114, 43377, 42521, 42555, 42217, 42374, 43160, 42555, 43160, 42191, 42883, 42794, 42390, 42933, 42536, 42925, 42687, 41944, 42911, 43059, 42216, 42662, 42643, 43456, 42499, 42552, 42895, 42493, 42807, 42236, 42924, 43086, 41958, 42523, 42809, 41833, 42785, 42640, 42138, 42975, 41867, 42626, 42215, 42805, 43169, 41543, 43366, 42749, 43170, 42857, 42326, 42299, 43027, 43173, 41603, 43054, 42193, 41888, 42826, 42779, 42713, 41794, 41896, 42104, 42314, 42168, 42984, 42420, 41918, 42371, 42385, 42897, 42481, 41764, 42950, 41819, 42933],
      "WindowCenter": [10508.0, 10420.0, 10399.0, 10400.0, 10428.0, 10432.0, 10421.0, 10418.0, 10391.0, 10390.0, 10363.0, 10370.0, 10387.0, 10357.0, 10368.0, 10346.0, 10346.0, 10365.0, 10346.0, 10353.0, 10333.0, 10356.0, 10347.0, 10351.0, 10365.0, 10347.0, 10361.0, 10393.0, 10415.0, 10384.0, 10332.0, 10327.0, 10319.0, 10322.0, 10329.0, 10345.0, 10335.0, 10317.0, 10327.0, 10335.0, 10367.0, 10376.0, 10371.0, 10377.0, 10360.0, 10374.0, 10407.0, 10395.0, 10406.0, 10393.0, 10387.0, 10404.0, 10385.0, 10364.0, 10363.0, 10351.0, 10369.0, 10379.0, 10350.0, 10351.0, 10358.0, 10354.0, 10370.0, 10371.0, 10360.0, 10380.0, 10357.0, 10349.0, 10343.0, 10337.0, 10373.0, 10380.0, 10369.0, 10362.0, 10375.0, 10397.0, 10381.0, 10387.0, 10391.0, 10379.0, 10390.0, 10396.0, 10375.0, 10380.0, 10347.0, 10362.0, 10359.0, 10358.0, 10351.0, 10350.0, 10344.0, 10350.0, 10356.0, 10337.0, 10365.0, 10355.0, 10360.0, 10351.0, 10344.0, 10364.0, 10356.0, 10360.0, 10352.0, 10352.0, 10369.0, 10343.0, 10338.0, 10333.0, 10343.0, 10366.0, 10347.0, 10347.0, 10335.0, 10354.0, 10373.0, 10358.0, 10353.0, 10346.0, 10346.0, 10358.0, 10360.0, 10379.0, 10370.0, 10353.0, 10341.0, 10341.0, 10365.0, 10367.0, 10356.0, 10342.0, 10346.0, 10372.0, 10365.0, 10353.0, 10350.0, 10336.0, 10363.0, 10359.0, 10347.0, 10349.0, 10342.0, 10350.0, 10346.0, 10353.0, 10358.0, 10351.0, 10372.0, 10368.0, 10353.0, 10365.0, 10345.0, 10332.0, 10334.0, 10320.0, 10342.0, 10345.0, 10341.0, 10347.0, 10340.0, 10372.0, 10368.0, 10360.0, 10343.0, 10346.0, 10360.0, 10368.0, 10372.0, 10365.0, 10400.0, 10395.0, 10375.0, 10376.0, 10367.0, 10351.0, 10332.0, 10320.0, 10318.0, 10320.0, 10319.0, 10310.0, 10296.0, 10322.0, 10336.0, 10339.0, 10358.0, 10355.0, 10349.0, 10345.0, 10325.0, 10350.0],
      "WindowWidth": [22776.0, 22536.0, 22459.0, 22443.0, 22502.0, 22510.0, 22482.0, 22472.0, 22410.0, 22403.0, 22345.0, 22362.0, 22397.0, 22334.0, 22356.0, 22305.0, 22305.0, 22346.0, 22308.0, 22322.0, 22281.0, 22330.0, 22313.0, 22316.0, 22346.0, 22309.0, 22342.0, 22412.0, 22467.0, 22399.0, 22278.0, 22259.0, 22242.0, 22246.0, 22258.0, 22293.0, 22276.0, 22242.0, 22263.0, 22283.0, 22355.0, 22376.0, 22364.0, 22371.0, 22336.0, 22367.0, 22439.0, 22420.0, 22440.0, 22413.0, 22400.0, 22434.0, 22396.0, 22347.0, 22341.0, 22315.0, 22358.0, 22376.0, 22313.0, 22315.0, 22335.0, 22328.0, 22361.0, 22361.0, 22333.0, 22381.0, 22335.0, 22316.0, 22300.0, 22287.0, 22368.0, 22381.0, 22361.0, 22342.0, 22371.0, 22419.0, 22387.0, 22400.0, 22408.0, 22380.0, 22402.0, 22416.0, 22375.0, 22379.0, 22311.0, 22338.0, 22336.0, 22333.0, 22315.0, 22314.0, 22300.0, 22314.0, 22325.0, 22288.0, 22346.0, 22328.0, 22339.0, 22317.0, 22304.0, 22346.0, 22327.0, 22337.0, 22318.0, 22318.0, 22354.0, 22298.0, 22288.0, 22274.0, 22298.0, 22350.0, 22311.0, 22311.0, 22285.0, 22326.0, 22365.0, 22330.0, 22322.0, 22307.0, 22305.0, 22329.0, 22340.0, 22382.0, 22362.0, 22320.0, 22289.0, 22290.0, 22344.0, 22350.0, 22323.0, 22294.0, 22305.0, 22363.0, 22348.0, 22322.0, 22313.0, 22282.0, 22341.0, 22335.0, 22310.0, 22309.0, 22295.0, 22313.0, 22306.0, 22321.0, 22329.0, 22315.0, 22361.0, 22357.0, 22323.0, 22348.0, 22303.0, 22276.0, 22277.0, 22247.0, 22297.0, 22304.0, 22296.0, 22305.0, 22295.0, 22362.0, 22354.0, 22337.0, 22297.0, 22308.0, 22340.0, 22358.0, 22366.0, 22357.0, 22432.0, 22423.0, 22380.0, 22381.0, 22359.0, 22320.0, 22277.0, 22248.0, 22242.0, 22249.0, 22242.0, 22221.0, 22193.0, 22258.0, 22286.0, 22296.0, 22335.0, 22331.0, 22316.0, 22305.0, 22262.0, 22311.0]
    },
    "slices": {}
  }
}