{
  "AcquisitionMatrixPE": 104,
  "AcquisitionNumber": 1,
  "AcquisitionTime": "15:41:48.307500",
  "BandwidthPerPixelPhaseEncode": 17.17,
  "BaseResolution": 104,
  "BodyPartExamined": "BRAIN",
  "CoilString": "HC1-7;NC1_2",
  "ConsistencyInfo": "N4_VE11C_LATEST_20160120",
  "ConversionSoftware": "dcm2niix",
  "ConversionSoftwareVersion": "v1.0.20190902",
  "DerivedVendorReportedEchoSpacing": 0.000560011,
  "DeviceSerialNumber": "167006",
  "DwellTime": 2.1e-06,
  "EchoTime": 0.037,
  "EchoTrainLength": 104,
  "EffectiveEchoSpacing": 0.000560011,
  "FlipAngle": 52,
  "ImageComments": "Unaliased_MB4_PE3_LB",
  "ImageOrientationPatientDICOM": [0.999511, -0.0267865, 0.0161404, 0.0307124, 0.938068, -0.345088],
  "ImageType": [
    "ORIGINAL",
    "PRIMARY",
    "M",
    "MB",
    "ND",
    "MOSAIC"
],
  "ImagingFrequency": 123.259,
  "InPlanePhaseEncodingDirectionDICOM": "COL",
  "InstitutionAddress": "Chemin_Queen-Mary_4565_Montreal_District_CA_H3W_1W5",
  "InstitutionName": "IUGM",
  "InstitutionalDepartmentName": "Department",
  "MRAcquisitionType": "2D",
  "MagneticFieldStrength": 3,
  "Manufacturer": "Siemens",
  "ManufacturersModelName": "Prisma_fit",
  "Modality": "MR",
  "MultibandAccelerationFactor": 4,
  "PartialFourier": 1,
  "PatientPosition": "HFS",
  "PercentPhaseFOV": 100,
  "PhaseEncodingDirection": "j",
  "PhaseEncodingSteps": 104,
  "PhaseResolution": 1,
  "PixelBandwidth": 2290,
  "ProcedureStepDescription": "memory_things",
  "ProtocolName": "func_task-things_run-4",
  "PulseSequenceDetails": "%CustomerSeq%_cmrr_mbep2d_bold",
  "ReceiveCoilActiveElements": "HC1-7;NC1,2",
  "ReceiveCoilName": "HeadNeck_64",
  "ReconMatrixPE": 104,
  "RepetitionTime": 1.49,
  "SAR": 0.070071,
  "ScanOptions": "FS",
  "ScanningSequence": "EP",
  "SequenceName": "epfid2d1_104",
  "SequenceVariant": "SK_SS",
  "SeriesDescription": "func_task-things_run-4",
  "SeriesNumber": 19,
  "ShimSetting": [633, -7241, -8821, 566, 16, -161, -63, -25],
  "SliceThickness": 2,
  "SliceTiming": [0, 0.785, 0.0975, 0.8825, 0.1975, 0.98, 0.295, 1.0775, 0.3925, 1.1775, 0.49, 1.275, 0.5875, 1.3725, 0.6875, 0, 0.785, 0.0975, 0.8825, 0.1975, 0.98, 0.295, 1.0775, 0.3925, 1.1775, 0.49, 1.275, 0.5875, 1.3725, 0.6875, 0, 0.785, 0.0975, 0.8825, 0.1975, 0.98, 0.295, 1.0775, 0.3925, 1.1775, 0.49, 1.275, 0.5875, 1.3725, 0.6875, 0, 0.785, 0.0975, 0.8825, 0.1975, 0.98, 0.295, 1.0775, 0.3925, 1.1775, 0.49, 1.275, 0.5875, 1.3725, 0.6875],
  "SoftwareVersions": "syngo_MR_E11",
  "SpacingBetweenSlices": 2,
  "StationName": "MRC35049",
  "TaskName": "things",
  "TotalReadoutTime": 0.0576811,
  "TxRefAmp": 298.125,
  "WipMemBlock": "56b37f61-36ea-41bd-9864-68b600fc26f7||Sequence: R016 ve11c/master r/e634e98; Dec 19 2017 11:00:25 by eja",
  "dcmmeta_affine": [
    [-1.9990217685699463, 0.06142483279109001, 0.011794264428317547, 104.46095275878906],
    [0.053572945296764374, 1.8761355876922607, -0.6908293962478638, -66.56169891357422],
    [0.03228085860610008, 0.6901755928993225, 1.8768632411956787, -66.36097717285156],
    [0.0, 0.0, 0.0, 1.0]
],
  "dcmmeta_reorient_transform": [
    [0.0, -1.0, 0.0, 103.0],
    [1.0, 0.0, 0.0, 0.0],
    [0.0, 0.0, 1.0, 0.0],
    [0.0, 0.0, 0.0, 1.0]
],
  "dcmmeta_shape": [104, 104, 60, 190],
  "dcmmeta_slice_dim": 2,
  "dcmmeta_version": 0.6,
  "global": {
    "const": {
      "AcquisitionMatrix": [104, 0, 0, 104],
      "AngioFlag": "N",
      "BitsAllocated": 16,
      "BitsStored": 16,
      "BodyPartExamined": "BRAIN",
      "Columns": 832,
      "EchoNumbers": 1,
      "EchoTime": 37.0,
      "EchoTrainLength": 104,
      "FlipAngle": 52.0,
      "HighBit": 15,
      "ImageOrientationPatient": [0.9995108660566, -0.0267864734652, 0.01614042979884, 0.03071241548912, 0.93806778326228, -0.3450877881644],
      "ImagePositionPatient": [-860.79025738861, -790.09305887592, 244.20078464917],
      "ImageType": [
        "ORIGINAL",
        "PRIMARY",
        "M",
        "MB",
        "ND",
        "MOSAIC"
],
      "ImagedNucleus": "1H",
      "ImagingFrequency": 123.258946,
      "InPlanePhaseEncodingDirection": "COL",
      "MRAcquisitionType": "2D",
      "MagneticFieldStrength": 3.0,
      "Manufacturer": "SIEMENS",
      "ManufacturerModelName": "Prisma_fit",
      "Modality": "MR",
      "NumberOfAverages": 1.0,
      "NumberOfPhaseEncodingSteps": 104,
      "PercentPhaseFieldOfView": 100.0,
      "PercentSampling": 100.0,
      "PerformedProcedureStepStartTime": "150647.031000",
      "PhotometricInterpretation": "MONOCHROME2",
      "PixelBandwidth": 2290.0,
      "PixelRepresentation": 0,
      "PixelSpacing": [2.0, 2.0],
      "ProtocolName": "func_task-things_run-4",
      "RepetitionTime": 1490.0,
      "Rows": 832,
      "SAR": 0.07007098044568,
      "SamplesPerPixel": 1,
      "ScanOptions": "FS",
      "ScanningSequence": "EP",
      "SequenceName": "epfid2d1_104",
      "SequenceVariant": [
        "SK",
        "SS"
],
      "SeriesDescription": "func_task-things_run-4",
      "SeriesNumber": 19,
      "SeriesTime": "154317.469000",
      "SliceLocation": -38.667829391693,
      "SliceThickness": 2.0,
      "SmallestImagePixelValue": 0,
      "SoftwareVersions": "syngo MR E11",
      "SpacingBetweenSlices": 1.9999999504796,
      "SpecificCharacterSet": "ISO_IR 100",
      "StudyID": "1",
      "StudyTime": "150646.935000",
      "TransmitCoilName": "Body",
      "VariableFlipAngleFlag": "N",
      "WindowCenterWidthExplanation": "Algo1",
      "dBdt": 0.0},
    "slices": {}
  },
  "time": {
    "samples": {
      "AcquisitionNumber": [1, 2, 3, 4, 5, 6, 7, 8, 9, 10, 11, 12, 13, 14, 15, 16, 17, 18, 19, 20, 21, 22, 23, 24, 25, 26, 27, 28, 29, 30, 31, 32, 33, 34, 35, 36, 37, 38, 39, 40, 41, 42, 43, 44, 45, 46, 47, 48, 49, 50, 51, 52, 53, 54, 55, 56, 57, 58, 59, 60, 61, 62, 63, 64, 65, 66, 67, 68, 69, 70, 71, 72, 73, 74, 75, 76, 77, 78, 79, 80, 81, 82, 83, 84, 85, 86, 87, 88, 89, 90, 91, 92, 93, 94, 95, 96, 97, 98, 99, 100, 101, 102, 103, 104, 105, 106, 107, 108, 109, 110, 111, 112, 113, 114, 115, 116, 117, 118, 119, 120, 121, 122, 123, 124, 125, 126, 127, 128, 129, 130, 131, 132, 133, 134, 135, 136, 137, 138, 139, 140, 141, 142, 143, 144, 145, 146, 147, 148, 149, 150, 151, 152, 153, 154, 155, 156, 157, 158, 159, 160, 161, 162, 163, 164, 165, 166, 167, 168, 169, 170, 171, 172, 173, 174, 175, 176, 177, 178, 179, 180, 181, 182, 183, 184, 185, 186, 187, 188, 189, 190],
      "AcquisitionTime": ["154148.307500", "154149.797500", "154151.287500", "154152.777500", "154154.267500", "154155.757500", "154157.247500", "154158.737500", "154200.227500", "154201.717500", "154203.207500", "154204.697500", "154206.187500", "154207.677500", "154209.167500", "154210.657500", "154212.147500", "154213.637500", "154215.127500", "154216.617500", "154218.107500", "154219.597500", "154221.087500", "154222.577500", "154224.067500", "154225.557500", "154227.047500", "154228.537500", "154230.027500", "154231.517500", "154233.007500", "154234.497500", "154235.987500", "154237.477500", "154238.967500", "154240.457500", "154241.947500", "154243.437500", "154244.927500", "154246.417500", "154247.907500", "154249.397500", "154250.887500", "154252.377500", "154253.867500", "154255.357500", "154256.847500", "154258.337500", "154259.827500", "154301.317500", "154302.807500", "154304.297500", "154305.787500", "154307.277500", "154308.767500", "154310.257500", "154311.747500", "154313.237500", "154314.727500", "154316.217500", "154317.707500", "154319.197500", "154320.687500", "154322.177500", "154323.667500", "154325.157500", "154326.647500", "154328.137500", "154329.627500", "154331.117500", "154332.607500", "154334.097500", "154335.587500", "154337.077500", "154338.567500", "154340.057500", "154341.547500", "154343.037500", "154344.527500", "154346.017500", "154347.507500", "154348.997500", "154350.487500", "154351.977500", "154353.467500", "154354.957500", "154356.447500", "154357.937500", "154359.427500", "154400.917500", "154402.407500", "154403.897500", "154405.387500", "154406.877500", "154408.367500", "154409.857500", "154411.347500", "154412.837500", "154414.327500", "154415.817500", "154417.307500", "154418.797500", "154420.287500", "154421.777500", "154423.267500", "154424.757500", "154426.247500", "154427.737500", "154429.227500", "154430.717500", "154432.207500", "154433.697500", "154435.187500", "154436.677500", "154438.167500", "154439.657500", "154441.147500", "154442.637500", "154444.127500", "154445.617500", "154447.107500", "154448.597500", "154450.087500", "154451.577500", "154453.067500", "154454.557500", "154456.047500", "154457.537500", "154459.027500", "154500.517500", "154502.007500", "154503.497500", "154504.987500", "154506.477500", "154507.967500", "154509.457500", "154510.947500", "154512.437500", "154513.927500", "154515.417500", "154516.907500", "154518.397500", "154519.887500", "154521.377500", "154522.867500", "154524.357500", "154525.847500", "154527.337500", "154528.827500", "154530.317500", "154531.807500", "154533.297500", "154534.787500", "154536.277500", "154537.767500", "154539.257500", "154540.747500", "154542.237500", "154543.727500", "154545.217500", "154546.707500", "154548.197500", "154549.687500", "154551.177500", "154552.667500", "154554.157500", "154555.647500", "154557.137500", "154558.627500", "154600.117500", "154601.607500", "154603.097500", "154604.587500", "154606.077500", "154607.567500", "154609.057500", "154610.547500", "154612.037500", "154613.527500", "154615.017500", "154616.507500", "154617.997500", "154619.487500", "154620.977500", "154622.467500", "154623.957500", "154625.447500", "154626.937500", "154628.427500", "154629.917500"],
      "ContentTime": ["154317.473000", "154317.476000", "154317.480000", "154317.483000", "154317.486000", "154317.497000", "154317.500000", "154317.504000", "154317.507000", "154317.510000", "154317.513000", "154317.517000", "154317.520000", "154317.524000", "154317.527000", "154317.538000", "154317.542000", "154317.545000", "154317.548000", "154317.552000", "154317.555000", "154317.558000", "154317.562000", "154317.565000", "154317.568000", "154317.572000", "154317.575000", "154317.579000", "154317.582000", "154317.586000", "154317.589000", "154317.592000", "154317.596000", "154317.599000", "154317.603000", "154317.606000", "154337.435000", "154337.439000", "154337.443000", "154337.446000", "154337.449000", "154337.453000", "154337.456000", "154337.459000", "154337.463000", "154337.466000", "154337.469000", "154337.473000", "154337.476000", "154337.479000", "154337.483000", "154337.486000", "154337.489000", "154337.493000", "154337.496000", "154337.500000", "154357.435000", "154357.439000", "154357.442000", "154357.446000", "154357.449000", "154357.453000", "154357.457000", "154357.461000", "154357.465000", "154357.469000", "154357.472000", "154357.476000", "154357.480000", "154357.484000", "154357.487000", "154357.490000", "154357.494000", "154357.497000", "154357.501000", "154357.504000", "154417.435000", "154417.439000", "154417.442000", "154417.446000", "154417.449000", "154417.461000", "154417.465000", "154417.468000", "154417.484000", "154417.487000", "154417.490000", "154417.494000", "154417.497000", "154417.501000", "154417.504000", "154417.507000", "154417.511000", "154417.514000", "154417.518000", "154417.521000", "154417.524000", "154457.435000", "154457.439000", "154457.442000", "154457.446000", "154457.449000", "154457.452000", "154457.456000", "154457.459000", "154457.462000", "154457.466000", "154457.469000", "154457.472000", "154457.476000", "154457.479000", "154457.483000", "154457.486000", "154457.489000", "154457.493000", "154457.496000", "154457.500000", "154457.503000", "154457.506000", "154457.510000", "154457.513000", "154457.516000", "154457.520000", "154457.523000", "154457.527000", "154457.530000", "154537.435000", "154537.439000", "154537.442000", "154537.446000", "154537.449000", "154537.452000", "154537.456000", "154537.459000", "154537.462000", "154537.466000", "154537.469000", "154537.473000", "154537.476000", "154537.479000", "154537.483000", "154537.486000", "154537.489000", "154537.493000", "154537.496000", "154537.499000", "154537.503000", "154537.506000", "154537.509000", "154537.513000", "154537.516000", "154537.519000", "154537.523000", "154557.436000", "154557.440000", "154557.443000", "154557.446000", "154557.450000", "154557.453000", "154557.456000", "154557.460000", "154557.463000", "154557.467000", "154557.470000", "154557.473000", "154557.477000", "154631.914000", "154631.917000", "154631.921000", "154631.925000", "154631.928000", "154631.932000", "154631.935000", "154631.939000", "154631.942000", "154631.946000", "154631.949000", "154631.953000", "154631.956000", "154631.959000", "154631.963000", "154631.966000", "154631.970000", "154631.991000", "154631.994000", "154631.998000", "154632.002000", "154632.006000", "154632.009000", "154632.013000"],
      "InstanceCreationTime": ["154317.473000", "154317.476000", "154317.480000", "154317.483000", "154317.486000", "154317.497000", "154317.500000", "154317.504000", "154317.507000", "154317.510000", "154317.513000", "154317.517000", "154317.520000", "154317.524000", "154317.527000", "154317.538000", "154317.542000", "154317.545000", "154317.548000", "154317.552000", "154317.555000", "154317.558000", "154317.562000", "154317.565000", "154317.568000", "154317.572000", "154317.575000", "154317.579000", "154317.582000", "154317.586000", "154317.589000", "154317.592000", "154317.596000", "154317.599000", "154317.603000", "154317.606000", "154337.435000", "154337.439000", "154337.443000", "154337.446000", "154337.449000", "154337.453000", "154337.456000", "154337.459000", "154337.463000", "154337.466000", "154337.469000", "154337.473000", "154337.476000", "154337.479000", "154337.483000", "154337.486000", "154337.489000", "154337.493000", "154337.496000", "154337.500000", "154357.435000", "154357.439000", "154357.442000", "154357.446000", "154357.449000", "154357.453000", "154357.457000", "154357.461000", "154357.465000", "154357.469000", "154357.472000", "154357.476000", "154357.480000", "154357.484000", "154357.487000", "154357.490000", "154357.494000", "154357.497000", "154357.501000", "154357.504000", "154417.435000", "154417.439000", "154417.442000", "154417.446000", "154417.449000", "154417.461000", "154417.465000", "154417.468000", "154417.484000", "154417.487000", "154417.490000", "154417.494000", "154417.497000", "154417.501000", "154417.504000", "154417.507000", "154417.511000", "154417.514000", "154417.518000", "154417.521000", "154417.524000", "154457.435000", "154457.439000", "154457.442000", "154457.446000", "154457.449000", "154457.452000", "154457.456000", "154457.459000", "154457.462000", "154457.466000", "154457.469000", "154457.472000", "154457.476000", "154457.479000", "154457.483000", "154457.486000", "154457.489000", "154457.493000", "154457.496000", "154457.500000", "154457.503000", "154457.506000", "154457.510000", "154457.513000", "154457.516000", "154457.520000", "154457.523000", "154457.527000", "154457.530000", "154537.435000", "154537.439000", "154537.442000", "154537.446000", "154537.449000", "154537.452000", "154537.456000", "154537.459000", "154537.462000", "154537.466000", "154537.469000", "154537.473000", "154537.476000", "154537.479000", "154537.483000", "154537.486000", "154537.489000", "154537.493000", "154537.496000", "154537.499000", "154537.503000", "154537.506000", "154537.509000", "154537.513000", "154537.516000", "154537.519000", "154537.523000", "154557.436000", "154557.440000", "154557.443000", "154557.446000", "154557.450000", "154557.453000", "154557.456000", "154557.460000", "154557.463000", "154557.467000", "154557.470000", "154557.473000", "154557.477000", "154631.914000", "154631.917000", "154631.921000", "154631.925000", "154631.928000", "154631.932000", "154631.935000", "154631.939000", "154631.942000", "154631.946000", "154631.949000", "154631.953000", "154631.956000", "154631.959000", "154631.963000", "154631.966000", "154631.970000", "154631.991000", "154631.994000", "154631.998000", "154632.002000", "154632.006000", "154632.009000", "154632.013000"],
      "InstanceNumber": [1, 2, 3, 4, 5, 6, 7, 8, 9, 10, 11, 12, 13, 14, 15, 16, 17, 18, 19, 20, 21, 22, 23, 24, 25, 26, 27, 28, 29, 30, 31, 32, 33, 34, 35, 36, 37, 38, 39, 40, 41, 42, 43, 44, 45, 46, 47, 48, 49, 50, 51, 52, 53, 54, 55, 56, 57, 58, 59, 60, 61, 62, 63, 64, 65, 66, 67, 68, 69, 70, 71, 72, 73, 74, 75, 76, 77, 78, 79, 80, 81, 82, 83, 84, 85, 86, 87, 88, 89, 90, 91, 92, 93, 94, 95, 96, 97, 98, 99, 100, 101, 102, 103, 104, 105, 106, 107, 108, 109, 110, 111, 112, 113, 114, 115, 116, 117, 118, 119, 120, 121, 122, 123, 124, 125, 126, 127, 128, 129, 130, 131, 132, 133, 134, 135, 136, 137, 138, 139, 140, 141, 142, 143, 144, 145, 146, 147, 148, 149, 150, 151, 152, 153, 154, 155, 156, 157, 158, 159, 160, 161, 162, 163, 164, 165, 166, 167, 168, 169, 170, 171, 172, 173, 174, 175, 176, 177, 178, 179, 180, 181, 182, 183, 184, 185, 186, 187, 188, 189, 190],
      "LargestImagePixelValue": [45717, 43725, 43109, 42762, 42407, 42841, 43229, 42347, 41585, 41665, 41919, 41944, 42388, 42204, 42119, 43061, 42223, 43449, 43414, 41987, 42663, 41892, 43217, 42196, 42580, 43338, 42338, 43361, 42088, 42068, 42519, 41567, 41802, 42136, 41519, 42441, 42295, 43194, 41786, 42536, 42827, 41773, 42489, 41965, 42802, 41685, 42783, 41996, 43032, 41750, 42861, 41790, 41604, 42340, 43167, 42794, 42403, 41728, 41503, 41169, 42228, 42344, 41534, 41353, 41284, 41731, 41763, 42166, 42270, 42354, 42080, 41960, 42966, 42027, 42528, 42384, 42432, 41753, 41863, 41861, 41995, 42242, 41945, 42090, 41607, 42017, 42168, 42181, 42401, 41993, 41823, 41948, 42181, 41987, 41750, 42526, 42051, 42219, 41878, 41994, 42140, 41911, 41671, 43059, 41880, 41755, 42071, 42268, 41993, 42099, 42753, 41807, 42519, 42549, 42312, 42556, 42031, 42199, 41997, 42657, 42530, 41988, 42755, 42068, 42793, 42804, 42187, 42808, 42076, 42446, 41933, 43011, 41969, 42235, 42768, 41957, 43113, 41835, 42187, 42780, 41985, 43043, 42713, 41651, 42416, 41650, 42231, 42894, 41709, 43405, 42224, 42334, 42073, 42601, 42234, 43114, 42302, 42215, 41928, 42306, 42976, 42159, 42284, 42108, 42860, 42058, 43584, 43402, 42432, 42694, 41950, 43357, 43784, 42658, 42203, 43466, 42666, 42910, 42855, 42287, 44059, 42700, 42384, 43952, 42073, 43225, 43201, 42245, 41762, 42174],
      "WindowCenter": [10431.0, 10384.0, 10349.0, 10312.0, 10308.0, 10334.0, 10365.0, 10362.0, 10344.0, 10344.0, 10341.0, 10336.0, 10340.0, 10322.0, 10287.0, 10325.0, 10366.0, 10388.0, 10367.0, 10319.0, 10328.0, 10313.0, 10332.0, 10328.0, 10334.0, 10341.0, 10350.0, 10383.0, 10366.0, 10359.0, 10342.0, 10298.0, 10299.0, 10296.0, 10304.0, 10340.0, 10336.0, 10344.0, 10327.0, 10331.0, 10336.0, 10347.0, 10355.0, 10329.0, 10336.0, 10315.0, 10349.0, 10341.0, 10345.0, 10302.0, 10359.0, 10381.0, 10370.0, 10357.0, 10356.0, 10334.0, 10303.0, 10279.0, 10302.0, 10291.0, 10271.0, 10249.0, 10231.0, 10232.0, 10251.0, 10252.0, 10267.0, 10312.0, 10329.0, 10345.0, 10338.0, 10340.0, 10361.0, 10343.0, 10352.0, 10326.0, 10338.0, 10326.0, 10339.0, 10344.0, 10328.0, 10318.0, 10311.0, 10330.0, 10326.0, 10343.0, 10350.0, 10351.0, 10332.0, 10332.0, 10324.0, 10328.0, 10333.0, 10302.0, 10310.0, 10341.0, 10355.0, 10374.0, 10319.0, 10279.0, 10287.0, 10290.0, 10306.0, 10315.0, 10338.0, 10328.0, 10311.0, 10291.0, 10275.0, 10294.0, 10314.0, 10306.0, 10325.0, 10337.0, 10342.0, 10317.0, 10288.0, 10274.0, 10289.0, 10328.0, 10337.0, 10340.0, 10329.0, 10325.0, 10321.0, 10303.0, 10311.0, 10318.0, 10326.0, 10324.0, 10317.0, 10313.0, 10317.0, 10318.0, 10320.0, 10321.0, 10354.0, 10359.0, 10352.0, 10330.0, 10319.0, 10320.0, 10322.0, 10319.0, 10308.0, 10304.0, 10292.0, 10277.0, 10299.0, 10339.0, 10349.0, 10342.0, 10330.0, 10324.0, 10333.0, 10364.0, 10374.0, 10369.0, 10330.0, 10303.0, 10297.0, 10313.0, 10345.0, 10366.0, 10340.0, 10291.0, 10286.0, 10335.0, 10342.0, 10329.0, 10338.0, 10306.0, 10287.0, 10253.0, 10263.0, 10294.0, 10319.0, 10320.0, 10272.0, 10299.0, 10323.0, 10345.0, 10357.0, 10336.0, 10304.0, 10293.0, 10287.0, 10289.0, 10275.0, 10282.0],
      "WindowWidth": [22599.0, 22453.0, 22349.0, 22250.0, 22230.0, 22277.0, 22347.0, 22341.0, 22302.0, 22304.0, 22292.0, 22284.0, 22291.0, 22248.0, 22169.0, 22246.0, 22347.0, 22397.0, 22349.0, 22246.0, 22261.0, 22228.0, 22267.0, 22263.0, 22277.0, 22295.0, 22313.0, 22387.0, 22353.0, 22336.0, 22300.0, 22203.0, 22200.0, 22195.0, 22213.0, 22290.0, 22280.0, 22298.0, 22265.0, 22273.0, 22284.0, 22312.0, 22330.0, 22274.0, 22284.0, 22238.0, 22312.0, 22299.0, 22306.0, 22212.0, 22341.0, 22396.0, 22370.0, 22339.0, 22337.0, 22290.0, 22213.0, 22154.0, 22203.0, 22183.0, 22131.0, 22084.0, 22041.0, 22047.0, 22095.0, 22097.0, 22128.0, 22230.0, 22270.0, 22307.0, 22289.0, 22295.0, 22340.0, 22299.0, 22314.0, 22259.0, 22287.0, 22264.0, 22293.0, 22303.0, 22269.0, 22247.0, 22232.0, 22272.0, 22263.0, 22306.0, 22318.0, 22321.0, 22275.0, 22277.0, 22258.0, 22269.0, 22280.0, 22211.0, 22232.0, 22298.0, 22331.0, 22374.0, 22249.0, 22155.0, 22169.0, 22184.0, 22223.0, 22234.0, 22294.0, 22273.0, 22233.0, 22185.0, 22149.0, 22190.0, 22231.0, 22220.0, 22260.0, 22291.0, 22306.0, 22245.0, 22179.0, 22145.0, 22179.0, 22266.0, 22291.0, 22300.0, 22272.0, 22261.0, 22250.0, 22208.0, 22229.0, 22243.0, 22267.0, 22259.0, 22245.0, 22234.0, 22247.0, 22247.0, 22249.0, 22253.0, 22324.0, 22344.0, 22326.0, 22272.0, 22250.0, 22245.0, 22252.0, 22250.0, 22221.0, 22217.0, 22186.0, 22147.0, 22206.0, 22288.0, 22317.0, 22300.0, 22276.0, 22257.0, 22282.0, 22346.0, 22375.0, 22364.0, 22275.0, 22214.0, 22197.0, 22235.0, 22306.0, 22357.0, 22294.0, 22189.0, 22168.0, 22277.0, 22294.0, 22263.0, 22294.0, 22216.0, 22170.0, 22095.0, 22121.0, 22184.0, 22245.0, 22247.0, 22136.0, 22203.0, 22252.0, 22307.0, 22338.0, 22283.0, 22218.0, 22184.0, 22172.0, 22176.0, 22145.0, 22159.0]
    },
    "slices": {}
  }
}