{
  "AcquisitionMatrixPE": 104,
  "AcquisitionNumber": 1,
  "AcquisitionTime": "15:54:9.892500",
  "BandwidthPerPixelPhaseEncode": 17.17,
  "BaseResolution": 104,
  "BodyPartExamined": "BRAIN",
  "CoilString": "HC1-7;NC1_2",
  "ConsistencyInfo": "N4_VE11C_LATEST_20160120",
  "ConversionSoftware": "dcm2niix",
  "ConversionSoftwareVersion": "v1.0.20190902",
  "DerivedVendorReportedEchoSpacing": 0.000560011,
  "DeviceSerialNumber": "167006",
  "DwellTime": 2.1e-06,
  "EchoTime": 0.037,
  "EchoTrainLength": 104,
  "EffectiveEchoSpacing": 0.000560011,
  "FlipAngle": 52,
  "ImageComments": "Unaliased_MB4_PE3_LB",
  "ImageOrientationPatientDICOM": [0.999511, -0.0267865, 0.0161404, 0.0307124, 0.938068, -0.345088],
  "ImageType": [
    "ORIGINAL",
    "PRIMARY",
    "M",
    "MB",
    "ND",
    "MOSAIC"
],
  "ImagingFrequency": 123.259,
  "InPlanePhaseEncodingDirectionDICOM": "COL",
  "InstitutionAddress": "Chemin_Queen-Mary_4565_Montreal_District_CA_H3W_1W5",
  "InstitutionName": "IUGM",
  "InstitutionalDepartmentName": "Department",
  "MRAcquisitionType": "2D",
  "MagneticFieldStrength": 3,
  "Manufacturer": "Siemens",
  "ManufacturersModelName": "Prisma_fit",
  "Modality": "MR",
  "MultibandAccelerationFactor": 4,
  "PartialFourier": 1,
  "PatientPosition": "HFS",
  "PercentPhaseFOV": 100,
  "PhaseEncodingDirection": "j",
  "PhaseEncodingSteps": 104,
  "PhaseResolution": 1,
  "PixelBandwidth": 2290,
  "ProcedureStepDescription": "memory_things",
  "ProtocolName": "func_task-things_run-6",
  "PulseSequenceDetails": "%CustomerSeq%_cmrr_mbep2d_bold",
  "ReceiveCoilActiveElements": "HC1-7;NC1,2",
  "ReceiveCoilName": "HeadNeck_64",
  "ReconMatrixPE": 104,
  "RepetitionTime": 1.49,
  "SAR": 0.070071,
  "ScanOptions": "FS",
  "ScanningSequence": "EP",
  "SequenceName": "epfid2d1_104",
  "SequenceVariant": "SK_SS",
  "SeriesDescription": "func_task-things_run-6",
  "SeriesNumber": 25,
  "ShimSetting": [633, -7241, -8821, 566, 16, -161, -63, -25],
  "SliceThickness": 2,
  "SliceTiming": [0, 0.785, 0.0975, 0.8825, 0.195, 0.98, 0.295, 1.0775, 0.3925, 1.175, 0.49, 1.2725, 0.5875, 1.3725, 0.685, 0, 0.785, 0.0975, 0.8825, 0.195, 0.98, 0.295, 1.0775, 0.3925, 1.175, 0.49, 1.2725, 0.5875, 1.3725, 0.685, 0, 0.785, 0.0975, 0.8825, 0.195, 0.98, 0.295, 1.0775, 0.3925, 1.175, 0.49, 1.2725, 0.5875, 1.3725, 0.685, 0, 0.785, 0.0975, 0.8825, 0.195, 0.98, 0.295, 1.0775, 0.3925, 1.175, 0.49, 1.2725, 0.5875, 1.3725, 0.685],
  "SoftwareVersions": "syngo_MR_E11",
  "SpacingBetweenSlices": 2,
  "StationName": "MRC35049",
  "TaskName": "things",
  "TotalReadoutTime": 0.0576811,
  "TxRefAmp": 298.125,
  "WipMemBlock": "027357c6-5771-4857-9f71-25ac2c140470||Sequence: R016 ve11c/master r/e634e98; Dec 19 2017 11:00:25 by eja",
  "dcmmeta_affine": [
    [-1.9990217685699463, 0.06142483279109001, 0.011794264428317547, 104.46095275878906],
    [0.053572945296764374, 1.8761355876922607, -0.6908293962478638, -66.56169891357422],
    [0.03228085860610008, 0.6901755928993225, 1.8768632411956787, -66.36097717285156],
    [0.0, 0.0, 0.0, 1.0]
],
  "dcmmeta_reorient_transform": [
    [0.0, -1.0, 0.0, 103.0],
    [1.0, 0.0, 0.0, 0.0],
    [0.0, 0.0, 1.0, 0.0],
    [0.0, 0.0, 0.0, 1.0]
],
  "dcmmeta_shape": [104, 104, 60, 190],
  "dcmmeta_slice_dim": 2,
  "dcmmeta_version": 0.6,
  "global": {
    "const": {
      "AcquisitionMatrix": [104, 0, 0, 104],
      "AngioFlag": "N",
      "BitsAllocated": 16,
      "BitsStored": 16,
      "BodyPartExamined": "BRAIN",
      "Columns": 832,
      "EchoNumbers": 1,
      "EchoTime": 37.0,
      "EchoTrainLength": 104,
      "FlipAngle": 52.0,
      "HighBit": 15,
      "ImageOrientationPatient": [0.9995108660566, -0.0267864734652, 0.01614042979884, 0.03071241548912, 0.93806778326228, -0.3450877881644],
      "ImagePositionPatient": [-860.79025738861, -790.09305887592, 244.20078464917],
      "ImageType": [
        "ORIGINAL",
        "PRIMARY",
        "M",
        "MB",
        "ND",
        "MOSAIC"
],
      "ImagedNucleus": "1H",
      "ImagingFrequency": 123.258955,
      "InPlanePhaseEncodingDirection": "COL",
      "MRAcquisitionType": "2D",
      "MagneticFieldStrength": 3.0,
      "Manufacturer": "SIEMENS",
      "ManufacturerModelName": "Prisma_fit",
      "Modality": "MR",
      "NumberOfAverages": 1.0,
      "NumberOfPhaseEncodingSteps": 104,
      "PercentPhaseFieldOfView": 100.0,
      "PercentSampling": 100.0,
      "PerformedProcedureStepStartTime": "150647.031000",
      "PhotometricInterpretation": "MONOCHROME2",
      "PixelBandwidth": 2290.0,
      "PixelRepresentation": 0,
      "PixelSpacing": [2.0, 2.0],
      "ProtocolName": "func_task-things_run-6",
      "RepetitionTime": 1490.0,
      "Rows": 832,
      "SAR": 0.07007098044568,
      "SamplesPerPixel": 1,
      "ScanOptions": "FS",
      "ScanningSequence": "EP",
      "SequenceName": "epfid2d1_104",
      "SequenceVariant": [
        "SK",
        "SS"
],
      "SeriesDescription": "func_task-things_run-6",
      "SeriesNumber": 25,
      "SeriesTime": "155535.085000",
      "SliceLocation": -38.667829391693,
      "SliceThickness": 2.0,
      "SmallestImagePixelValue": 0,
      "SoftwareVersions": "syngo MR E11",
      "SpacingBetweenSlices": 1.9999999504796,
      "SpecificCharacterSet": "ISO_IR 100",
      "StudyID": "1",
      "StudyTime": "150646.935000",
      "TransmitCoilName": "Body",
      "VariableFlipAngleFlag": "N",
      "WindowCenterWidthExplanation": "Algo1",
      "dBdt": 0.0},
    "slices": {}
  },
  "time": {
    "samples": {
      "AcquisitionNumber": [1, 2, 3, 4, 5, 6, 7, 8, 9, 10, 11, 12, 13, 14, 15, 16, 17, 18, 19, 20, 21, 22, 23, 24, 25, 26, 27, 28, 29, 30, 31, 32, 33, 34, 35, 36, 37, 38, 39, 40, 41, 42, 43, 44, 45, 46, 47, 48, 49, 50, 51, 52, 53, 54, 55, 56, 57, 58, 59, 60, 61, 62, 63, 64, 65, 66, 67, 68, 69, 70, 71, 72, 73, 74, 75, 76, 77, 78, 79, 80, 81, 82, 83, 84, 85, 86, 87, 88, 89, 90, 91, 92, 93, 94, 95, 96, 97, 98, 99, 100, 101, 102, 103, 104, 105, 106, 107, 108, 109, 110, 111, 112, 113, 114, 115, 116, 117, 118, 119, 120, 121, 122, 123, 124, 125, 126, 127, 128, 129, 130, 131, 132, 133, 134, 135, 136, 137, 138, 139, 140, 141, 142, 143, 144, 145, 146, 147, 148, 149, 150, 151, 152, 153, 154, 155, 156, 157, 158, 159, 160, 161, 162, 163, 164, 165, 166, 167, 168, 169, 170, 171, 172, 173, 174, 175, 176, 177, 178, 179, 180, 181, 182, 183, 184, 185, 186, 187, 188, 189, 190],
      "AcquisitionTime": ["155409.892500", "155411.382500", "155412.872500", "155414.362500", "155415.852500", "155417.342500", "155418.832500", "155420.322500", "155421.812500", "155423.302500", "155424.792500", "155426.282500", "155427.772500", "155429.262500", "155430.752500", "155432.242500", "155433.732500", "155435.222500", "155436.712500", "155438.202500", "155439.692500", "155441.182500", "155442.672500", "155444.162500", "155445.652500", "155447.142500", "155448.632500", "155450.122500", "155451.612500", "155453.102500", "155454.592500", "155456.082500", "155457.572500", "155459.062500", "155500.552500", "155502.042500", "155503.532500", "155505.022500", "155506.512500", "155508.002500", "155509.492500", "155510.982500", "155512.472500", "155513.962500", "155515.452500", "155516.942500", "155518.432500", "155519.922500", "155521.412500", "155522.902500", "155524.392500", "155525.882500", "155527.372500", "155528.862500", "155530.352500", "155531.842500", "155533.332500", "155534.822500", "155536.312500", "155537.802500", "155539.292500", "155540.782500", "155542.272500", "155543.762500", "155545.252500", "155546.742500", "155548.232500", "155549.722500", "155551.212500", "155552.702500", "155554.192500", "155555.682500", "155557.172500", "155558.662500", "155600.152500", "155601.642500", "155603.132500", "155604.622500", "155606.112500", "155607.602500", "155609.092500", "155610.582500", "155612.072500", "155613.562500", "155615.052500", "155616.542500", "155618.032500", "155619.522500", "155621.012500", "155622.502500", "155623.992500", "155625.482500", "155626.972500", "155628.462500", "155629.952500", "155631.442500", "155632.932500", "155634.422500", "155635.912500", "155637.402500", "155638.892500", "155640.382500", "155641.872500", "155643.362500", "155644.852500", "155646.342500", "155647.832500", "155649.322500", "155650.812500", "155652.302500", "155653.792500", "155655.282500", "155656.772500", "155658.262500", "155659.752500", "155701.242500", "155702.732500", "155704.222500", "155705.712500", "155707.202500", "155708.692500", "155710.182500", "155711.672500", "155713.162500", "155714.652500", "155716.142500", "155717.632500", "155719.122500", "155720.612500", "155722.102500", "155723.592500", "155725.082500", "155726.572500", "155728.062500", "155729.552500", "155731.042500", "155732.532500", "155734.022500", "155735.512500", "155737.002500", "155738.492500", "155739.982500", "155741.472500", "155742.962500", "155744.452500", "155745.942500", "155747.432500", "155748.922500", "155750.412500", "155751.902500", "155753.392500", "155754.882500", "155756.372500", "155757.862500", "155759.352500", "155800.842500", "155802.332500", "155803.822500", "155805.312500", "155806.802500", "155808.292500", "155809.782500", "155811.272500", "155812.762500", "155814.252500", "155815.742500", "155817.232500", "155818.722500", "155820.212500", "155821.702500", "155823.192500", "155824.682500", "155826.172500", "155827.662500", "155829.152500", "155830.642500", "155832.132500", "155833.622500", "155835.112500", "155836.602500", "155838.092500", "155839.582500", "155841.072500", "155842.562500", "155844.052500", "155845.542500", "155847.032500", "155848.522500", "155850.012500", "155851.502500"],
      "ContentTime": ["155535.088000", "155535.092000", "155535.095000", "155535.099000", "155535.102000", "155535.106000", "155535.109000", "155535.112000", "155535.116000", "155535.119000", "155535.123000", "155535.126000", "155535.129000", "155535.133000", "155535.136000", "155535.140000", "155535.147000", "155535.151000", "155535.154000", "155535.158000", "155535.161000", "155535.164000", "155535.168000", "155535.171000", "155535.175000", "155535.280000", "155535.283000", "155535.287000", "155535.290000", "155535.294000", "155535.297000", "155555.051000", "155555.055000", "155555.059000", "155555.062000", "155555.066000", "155555.069000", "155555.072000", "155555.076000", "155555.079000", "155555.083000", "155555.086000", "155555.090000", "155555.093000", "155555.096000", "155555.100000", "155555.109000", "155555.113000", "155555.116000", "155555.120000", "155555.123000", "155615.051000", "155615.055000", "155615.058000", "155615.062000", "155615.065000", "155615.069000", "155615.072000", "155615.076000", "155615.079000", "155615.082000", "155615.086000", "155615.089000", "155615.092000", "155615.096000", "155615.099000", "155615.103000", "155615.106000", "155615.110000", "155615.113000", "155615.116000", "155635.051000", "155635.055000", "155635.058000", "155635.062000", "155635.065000", "155635.069000", "155635.072000", "155635.076000", "155635.079000", "155635.083000", "155635.086000", "155635.089000", "155635.093000", "155635.097000", "155635.100000", "155635.104000", "155635.108000", "155635.112000", "155635.115000", "155635.119000", "155715.050000", "155715.054000", "155715.058000", "155715.061000", "155715.064000", "155715.068000", "155715.071000", "155715.075000", "155715.078000", "155715.082000", "155715.085000", "155715.088000", "155715.092000", "155715.095000", "155715.099000", "155715.102000", "155715.106000", "155715.109000", "155715.112000", "155715.116000", "155715.119000", "155715.123000", "155715.126000", "155715.130000", "155715.133000", "155715.136000", "155715.140000", "155715.143000", "155715.147000", "155715.150000", "155715.153000", "155715.157000", "155755.051000", "155755.055000", "155755.058000", "155755.062000", "155755.065000", "155755.069000", "155755.073000", "155755.076000", "155755.079000", "155755.083000", "155755.086000", "155755.090000", "155755.093000", "155755.096000", "155755.100000", "155755.103000", "155755.107000", "155755.110000", "155755.113000", "155755.117000", "155755.120000", "155755.123000", "155755.127000", "155755.130000", "155755.134000", "155755.137000", "155755.140000", "155835.051000", "155835.055000", "155835.058000", "155835.062000", "155835.065000", "155835.069000", "155835.072000", "155835.075000", "155835.079000", "155835.082000", "155835.085000", "155835.089000", "155835.092000", "155835.096000", "155835.099000", "155835.102000", "155835.106000", "155835.109000", "155835.113000", "155835.116000", "155835.119000", "155835.123000", "155835.126000", "155835.130000", "155835.133000", "155835.136000", "155835.140000", "155853.816000", "155853.820000", "155853.823000", "155853.826000", "155853.830000", "155853.833000", "155853.837000", "155853.840000", "155853.843000", "155853.847000", "155853.850000", "155853.854000", "155853.857000"],
      "InstanceCreationTime": ["155535.088000", "155535.092000", "155535.095000", "155535.099000", "155535.102000", "155535.106000", "155535.109000", "155535.112000", "155535.116000", "155535.119000", "155535.123000", "155535.126000", "155535.129000", "155535.133000", "155535.136000", "155535.140000", "155535.147000", "155535.151000", "155535.154000", "155535.158000", "155535.161000", "155535.164000", "155535.168000", "155535.171000", "155535.175000", "155535.280000", "155535.283000", "155535.287000", "155535.290000", "155535.294000", "155535.297000", "155555.051000", "155555.055000", "155555.059000", "155555.062000", "155555.066000", "155555.069000", "155555.072000", "155555.076000", "155555.079000", "155555.083000", "155555.086000", "155555.090000", "155555.093000", "155555.096000", "155555.100000", "155555.109000", "155555.113000", "155555.116000", "155555.120000", "155555.123000", "155615.051000", "155615.055000", "155615.058000", "155615.062000", "155615.065000", "155615.069000", "155615.072000", "155615.076000", "155615.079000", "155615.082000", "155615.086000", "155615.089000", "155615.092000", "155615.096000", "155615.099000", "155615.103000", "155615.106000", "155615.110000", "155615.113000", "155615.116000", "155635.051000", "155635.055000", "155635.058000", "155635.062000", "155635.065000", "155635.069000", "155635.072000", "155635.076000", "155635.079000", "155635.083000", "155635.086000", "155635.089000", "155635.093000", "155635.097000", "155635.100000", "155635.104000", "155635.108000", "155635.112000", "155635.115000", "155635.119000", "155715.050000", "155715.054000", "155715.058000", "155715.061000", "155715.064000", "155715.068000", "155715.071000", "155715.075000", "155715.078000", "155715.082000", "155715.085000", "155715.088000", "155715.092000", "155715.095000", "155715.099000", "155715.102000", "155715.106000", "155715.109000", "155715.112000", "155715.116000", "155715.119000", "155715.123000", "155715.126000", "155715.130000", "155715.133000", "155715.136000", "155715.140000", "155715.143000", "155715.147000", "155715.150000", "155715.153000", "155715.157000", "155755.051000", "155755.055000", "155755.058000", "155755.062000", "155755.065000", "155755.069000", "155755.073000", "155755.076000", "155755.079000", "155755.083000", "155755.086000", "155755.090000", "155755.093000", "155755.096000", "155755.100000", "155755.103000", "155755.107000", "155755.110000", "155755.113000", "155755.117000", "155755.120000", "155755.123000", "155755.127000", "155755.130000", "155755.134000", "155755.137000", "155755.140000", "155835.051000", "155835.055000", "155835.058000", "155835.062000", "155835.065000", "155835.069000", "155835.072000", "155835.075000", "155835.079000", "155835.082000", "155835.085000", "155835.089000", "155835.092000", "155835.096000", "155835.099000", "155835.102000", "155835.106000", "155835.109000", "155835.113000", "155835.116000", "155835.119000", "155835.123000", "155835.126000", "155835.130000", "155835.133000", "155835.136000", "155835.140000", "155853.816000", "155853.820000", "155853.823000", "155853.826000", "155853.830000", "155853.833000", "155853.837000", "155853.840000", "155853.843000", "155853.847000", "155853.850000", "155853.854000", "155853.857000"],
      "InstanceNumber": [1, 2, 3, 4, 5, 6, 7, 8, 9, 10, 11, 12, 13, 14, 15, 16, 17, 18, 19, 20, 21, 22, 23, 24, 25, 26, 27, 28, 29, 30, 31, 32, 33, 34, 35, 36, 37, 38, 39, 40, 41, 42, 43, 44, 45, 46, 47, 48, 49, 50, 51, 52, 53, 54, 55, 56, 57, 58, 59, 60, 61, 62, 63, 64, 65, 66, 67, 68, 69, 70, 71, 72, 73, 74, 75, 76, 77, 78, 79, 80, 81, 82, 83, 84, 85, 86, 87, 88, 89, 90, 91, 92, 93, 94, 95, 96, 97, 98, 99, 100, 101, 102, 103, 104, 105, 106, 107, 108, 109, 110, 111, 112, 113, 114, 115, 116, 117, 118, 119, 120, 121, 122, 123, 124, 125, 126, 127, 128, 129, 130, 131, 132, 133, 134, 135, 136, 137, 138, 139, 140, 141, 142, 143, 144, 145, 146, 147, 148, 149, 150, 151, 152, 153, 154, 155, 156, 157, 158, 159, 160, 161, 162, 163, 164, 165, 166, 167, 168, 169, 170, 171, 172, 173, 174, 175, 176, 177, 178, 179, 180, 181, 182, 183, 184, 185, 186, 187, 188, 189, 190],
      "LargestImagePixelValue": [45592, 44668, 44093, 42841, 43801, 43156, 43224, 43049, 42827, 43118, 43194, 42557, 42220, 42555, 42282, 42673, 42545, 42188, 42268, 42761, 42769, 42492, 42147, 42159, 43117, 42538, 42783, 42151, 42450, 42675, 42634, 43048, 42951, 42004, 42809, 42242, 42118, 42178, 42159, 42130, 41822, 42251, 42217, 43415, 43044, 42855, 42958, 42546, 42436, 42868, 42492, 43134, 42337, 42477, 42300, 42330, 42619, 42152, 42269, 42130, 42473, 42124, 41462, 42823, 42559, 42268, 42569, 43014, 41854, 42079, 42473, 42736, 43332, 43173, 43003, 43073, 43238, 42456, 42730, 42403, 42762, 42615, 42430, 42293, 43351, 43084, 43599, 43456, 42986, 42681, 43055, 42661, 42928, 42837, 42455, 43025, 42417, 42551, 42935, 43015, 42912, 42801, 42855, 43140, 43159, 42321, 42344, 42706, 42987, 42806, 42443, 42662, 43093, 42603, 42532, 42759, 42819, 42938, 42922, 42685, 42563, 42543, 43293, 42760, 42389, 42411, 43034, 42975, 42490, 42812, 43025, 43335, 42875, 43342, 42508, 42084, 42041, 42141, 42093, 41940, 42500, 43119, 42611, 42429, 42918, 42417, 42189, 42280, 42087, 42572, 42826, 42301, 42000, 42574, 43169, 42544, 42250, 43162, 43194, 42896, 43374, 43600, 43299, 43564, 43035, 43360, 43671, 42731, 43512, 43206, 43227, 42752, 43859, 43426, 43033, 42609, 43434, 43133, 43384, 43064, 43970, 43363, 43535, 43412, 43650, 43842, 43147, 43907, 43927, 43376],
      "WindowCenter": [10344.0, 10281.0, 10240.0, 10212.0, 10244.0, 10282.0, 10283.0, 10289.0, 10272.0, 10261.0, 10257.0, 10285.0, 10305.0, 10304.0, 10282.0, 10264.0, 10261.0, 10283.0, 10290.0, 10293.0, 10280.0, 10264.0, 10263.0, 10303.0, 10324.0, 10281.0, 10256.0, 10238.0, 10300.0, 10319.0, 10307.0, 10276.0, 10250.0, 10233.0, 10267.0, 10279.0, 10275.0, 10248.0, 10240.0, 10220.0, 10256.0, 10263.0, 10260.0, 10272.0, 10260.0, 10253.0, 10243.0, 10260.0, 10292.0, 10307.0, 10274.0, 10255.0, 10231.0, 10228.0, 10233.0, 10252.0, 10272.0, 10274.0, 10253.0, 10242.0, 10244.0, 10232.0, 10227.0, 10266.0, 10250.0, 10216.0, 10285.0, 10305.0, 10295.0, 10274.0, 10262.0, 10248.0, 10239.0, 10225.0, 10216.0, 10212.0, 10222.0, 10222.0, 10227.0, 10222.0, 10228.0, 10245.0, 10286.0, 10301.0, 10297.0, 10288.0, 10293.0, 10319.0, 10334.0, 10312.0, 10299.0, 10267.0, 10276.0, 10311.0, 10337.0, 10348.0, 10312.0, 10279.0, 10280.0, 10267.0, 10255.0, 10237.0, 10227.0, 10247.0, 10285.0, 10296.0, 10284.0, 10267.0, 10255.0, 10252.0, 10259.0, 10254.0, 10273.0, 10275.0, 10285.0, 10262.0, 10251.0, 10244.0, 10250.0, 10258.0, 10267.0, 10268.0, 10289.0, 10285.0, 10283.0, 10265.0, 10254.0, 10256.0, 10276.0, 10283.0, 10268.0, 10266.0, 10260.0, 10267.0, 10282.0, 10301.0, 10299.0, 10288.0, 10263.0, 10246.0, 10242.0, 10244.0, 10240.0, 10275.0, 10270.0, 10231.0, 10221.0, 10227.0, 10250.0, 10253.0, 10250.0, 10263.0, 10285.0, 10302.0, 10303.0, 10281.0, 10258.0, 10259.0, 10272.0, 10292.0, 10290.0, 10278.0, 10252.0, 10250.0, 10259.0, 10265.0, 10265.0, 10269.0, 10274.0, 10261.0, 10266.0, 10291.0, 10321.0, 10292.0, 10272.0, 10254.0, 10257.0, 10236.0, 10246.0, 10249.0, 10258.0, 10235.0, 10239.0, 10247.0, 10274.0, 10283.0, 10264.0, 10253.0, 10249.0, 10258.0],
      "WindowWidth": [22388.0, 22205.0, 22083.0, 22006.0, 22067.0, 22151.0, 22150.0, 22166.0, 22125.0, 22098.0, 22089.0, 22152.0, 22199.0, 22198.0, 22146.0, 22106.0, 22100.0, 22146.0, 22169.0, 22172.0, 22144.0, 22109.0, 22103.0, 22196.0, 22244.0, 22152.0, 22090.0, 22048.0, 22190.0, 22238.0, 22214.0, 22140.0, 22080.0, 22044.0, 22118.0, 22147.0, 22139.0, 22073.0, 22057.0, 22013.0, 22096.0, 22112.0, 22112.0, 22132.0, 22103.0, 22085.0, 22065.0, 22104.0, 22179.0, 22214.0, 22140.0, 22092.0, 22040.0, 22032.0, 22041.0, 22087.0, 22129.0, 22136.0, 22090.0, 22062.0, 22067.0, 22044.0, 22035.0, 22122.0, 22088.0, 22005.0, 22166.0, 22213.0, 22191.0, 22138.0, 22103.0, 22075.0, 22061.0, 22023.0, 21995.0, 21990.0, 22018.0, 22019.0, 22028.0, 22016.0, 22027.0, 22064.0, 22156.0, 22193.0, 22186.0, 22163.0, 22173.0, 22232.0, 22270.0, 22224.0, 22189.0, 22120.0, 22134.0, 22215.0, 22279.0, 22306.0, 22225.0, 22150.0, 22146.0, 22121.0, 22090.0, 22047.0, 22025.0, 22071.0, 22160.0, 22191.0, 22164.0, 22122.0, 22090.0, 22081.0, 22101.0, 22092.0, 22130.0, 22139.0, 22160.0, 22111.0, 22084.0, 22067.0, 22080.0, 22098.0, 22121.0, 22125.0, 22167.0, 22163.0, 22161.0, 22121.0, 22094.0, 22095.0, 22141.0, 22155.0, 22121.0, 22114.0, 22101.0, 22120.0, 22159.0, 22202.0, 22201.0, 22175.0, 22117.0, 22077.0, 22061.0, 22065.0, 22061.0, 22138.0, 22128.0, 22040.0, 22017.0, 22033.0, 22086.0, 22093.0, 22088.0, 22120.0, 22168.0, 22204.0, 22206.0, 22157.0, 22107.0, 22105.0, 22131.0, 22179.0, 22173.0, 22148.0, 22088.0, 22082.0, 22104.0, 22117.0, 22118.0, 22126.0, 22136.0, 22110.0, 22122.0, 22180.0, 22243.0, 22179.0, 22135.0, 22095.0, 22097.0, 22051.0, 22070.0, 22079.0, 22097.0, 22046.0, 22055.0, 22077.0, 22138.0, 22160.0, 22118.0, 22091.0, 22077.0, 22101.0]
    },
    "slices": {}
  }
}