{
  "AcquisitionMatrixPE": 104,
  "AcquisitionNumber": 1,
  "AcquisitionTime": "15:34:18.425000",
  "BandwidthPerPixelPhaseEncode": 17.17,
  "BaseResolution": 104,
  "BodyPartExamined": "BRAIN",
  "CoilString": "HC1-7;NC1_2",
  "ConsistencyInfo": "N4_VE11C_LATEST_20160120",
  "ConversionSoftware": "dcm2niix",
  "ConversionSoftwareVersion": "v1.0.20190902",
  "DerivedVendorReportedEchoSpacing": 0.000560011,
  "DeviceSerialNumber": "167006",
  "DwellTime": 2.1e-06,
  "EchoTime": 0.037,
  "EchoTrainLength": 104,
  "EffectiveEchoSpacing": 0.000560011,
  "FlipAngle": 52,
  "ImageComments": "Unaliased_MB4_PE3_LB",
  "ImageOrientationPatientDICOM": [0.999511, -0.0267865, 0.0161404, 0.0307124, 0.938068, -0.345088],
  "ImageType": [
    "ORIGINAL",
    "PRIMARY",
    "M",
    "MB",
    "ND",
    "MOSAIC"
],
  "ImagingFrequency": 123.259,
  "InPlanePhaseEncodingDirectionDICOM": "COL",
  "InstitutionAddress": "Chemin_Queen-Mary_4565_Montreal_District_CA_H3W_1W5",
  "InstitutionName": "IUGM",
  "InstitutionalDepartmentName": "Department",
  "MRAcquisitionType": "2D",
  "MagneticFieldStrength": 3,
  "Manufacturer": "Siemens",
  "ManufacturersModelName": "Prisma_fit",
  "Modality": "MR",
  "MultibandAccelerationFactor": 4,
  "PartialFourier": 1,
  "PatientPosition": "HFS",
  "PercentPhaseFOV": 100,
  "PhaseEncodingDirection": "j",
  "PhaseEncodingSteps": 104,
  "PhaseResolution": 1,
  "PixelBandwidth": 2290,
  "ProcedureStepDescription": "memory_things",
  "ProtocolName": "func_task-things_run-3",
  "PulseSequenceDetails": "%CustomerSeq%_cmrr_mbep2d_bold",
  "ReceiveCoilActiveElements": "HC1-7;NC1,2",
  "ReceiveCoilName": "HeadNeck_64",
  "ReconMatrixPE": 104,
  "RepetitionTime": 1.49,
  "SAR": 0.070071,
  "ScanOptions": "FS",
  "ScanningSequence": "EP",
  "SequenceName": "epfid2d1_104",
  "SequenceVariant": "SK_SS",
  "SeriesDescription": "func_task-things_run-3",
  "SeriesNumber": 16,
  "ShimSetting": [633, -7241, -8821, 566, 16, -161, -63, -25],
  "SliceThickness": 2,
  "SliceTiming": [0, 0.785, 0.0975, 0.8825, 0.1975, 0.98, 0.295, 1.0775, 0.3925, 1.1775, 0.49, 1.275, 0.5875, 1.3725, 0.6875, 0, 0.785, 0.0975, 0.8825, 0.1975, 0.98, 0.295, 1.0775, 0.3925, 1.1775, 0.49, 1.275, 0.5875, 1.3725, 0.6875, 0, 0.785, 0.0975, 0.8825, 0.1975, 0.98, 0.295, 1.0775, 0.3925, 1.1775, 0.49, 1.275, 0.5875, 1.3725, 0.6875, 0, 0.785, 0.0975, 0.8825, 0.1975, 0.98, 0.295, 1.0775, 0.3925, 1.1775, 0.49, 1.275, 0.5875, 1.3725, 0.6875],
  "SoftwareVersions": "syngo_MR_E11",
  "SpacingBetweenSlices": 2,
  "StationName": "MRC35049",
  "TaskName": "things",
  "TotalReadoutTime": 0.0576811,
  "TxRefAmp": 298.125,
  "WipMemBlock": "12305132-0661-4f1f-8bbc-d82c3d86301f||Sequence: R016 ve11c/master r/e634e98; Dec 19 2017 11:00:25 by eja",
  "dcmmeta_affine": [
    [-1.9990217685699463, 0.06142483279109001, 0.011794264428317547, 104.46095275878906],
    [0.053572945296764374, 1.8761355876922607, -0.6908293962478638, -66.56169891357422],
    [0.03228085860610008, 0.6901755928993225, 1.8768632411956787, -66.36097717285156],
    [0.0, 0.0, 0.0, 1.0]
],
  "dcmmeta_reorient_transform": [
    [0.0, -1.0, 0.0, 103.0],
    [1.0, 0.0, 0.0, 0.0],
    [0.0, 0.0, 1.0, 0.0],
    [0.0, 0.0, 0.0, 1.0]
],
  "dcmmeta_shape": [104, 104, 60, 190],
  "dcmmeta_slice_dim": 2,
  "dcmmeta_version": 0.6,
  "global": {
    "const": {
      "AcquisitionMatrix": [104, 0, 0, 104],
      "AngioFlag": "N",
      "BitsAllocated": 16,
      "BitsStored": 16,
      "BodyPartExamined": "BRAIN",
      "Columns": 832,
      "EchoNumbers": 1,
      "EchoTime": 37.0,
      "EchoTrainLength": 104,
      "FlipAngle": 52.0,
      "HighBit": 15,
      "ImageOrientationPatient": [0.9995108660566, -0.0267864734652, 0.01614042979884, 0.03071241548912, 0.93806778326228, -0.3450877881644],
      "ImagePositionPatient": [-860.79025738861, -790.09305887592, 244.20078464917],
      "ImageType": [
        "ORIGINAL",
        "PRIMARY",
        "M",
        "MB",
        "ND",
        "MOSAIC"
],
      "ImagedNucleus": "1H",
      "ImagingFrequency": 123.258943,
      "InPlanePhaseEncodingDirection": "COL",
      "MRAcquisitionType": "2D",
      "MagneticFieldStrength": 3.0,
      "Manufacturer": "SIEMENS",
      "ManufacturerModelName": "Prisma_fit",
      "Modality": "MR",
      "NumberOfAverages": 1.0,
      "NumberOfPhaseEncodingSteps": 104,
      "PercentPhaseFieldOfView": 100.0,
      "PercentSampling": 100.0,
      "PerformedProcedureStepStartTime": "150647.031000",
      "PhotometricInterpretation": "MONOCHROME2",
      "PixelBandwidth": 2290.0,
      "PixelRepresentation": 0,
      "PixelSpacing": [2.0, 2.0],
      "ProtocolName": "func_task-things_run-3",
      "RepetitionTime": 1490.0,
      "Rows": 832,
      "SAR": 0.07007098044568,
      "SamplesPerPixel": 1,
      "ScanOptions": "FS",
      "ScanningSequence": "EP",
      "SequenceName": "epfid2d1_104",
      "SequenceVariant": [
        "SK",
        "SS"
],
      "SeriesDescription": "func_task-things_run-3",
      "SeriesNumber": 16,
      "SeriesTime": "153535.087000",
      "SliceLocation": -38.667829391693,
      "SliceThickness": 2.0,
      "SmallestImagePixelValue": 0,
      "SoftwareVersions": "syngo MR E11",
      "SpacingBetweenSlices": 1.9999999504796,
      "SpecificCharacterSet": "ISO_IR 100",
      "StudyID": "1",
      "StudyTime": "150646.935000",
      "TransmitCoilName": "Body",
      "VariableFlipAngleFlag": "N",
      "WindowCenterWidthExplanation": "Algo1",
      "dBdt": 0.0},
    "slices": {}
  },
  "time": {
    "samples": {
      "AcquisitionNumber": [1, 2, 3, 4, 5, 6, 7, 8, 9, 10, 11, 12, 13, 14, 15, 16, 17, 18, 19, 20, 21, 22, 23, 24, 25, 26, 27, 28, 29, 30, 31, 32, 33, 34, 35, 36, 37, 38, 39, 40, 41, 42, 43, 44, 45, 46, 47, 48, 49, 50, 51, 52, 53, 54, 55, 56, 57, 58, 59, 60, 61, 62, 63, 64, 65, 66, 67, 68, 69, 70, 71, 72, 73, 74, 75, 76, 77, 78, 79, 80, 81, 82, 83, 84, 85, 86, 87, 88, 89, 90, 91, 92, 93, 94, 95, 96, 97, 98, 99, 100, 101, 102, 103, 104, 105, 106, 107, 108, 109, 110, 111, 112, 113, 114, 115, 116, 117, 118, 119, 120, 121, 122, 123, 124, 125, 126, 127, 128, 129, 130, 131, 132, 133, 134, 135, 136, 137, 138, 139, 140, 141, 142, 143, 144, 145, 146, 147, 148, 149, 150, 151, 152, 153, 154, 155, 156, 157, 158, 159, 160, 161, 162, 163, 164, 165, 166, 167, 168, 169, 170, 171, 172, 173, 174, 175, 176, 177, 178, 179, 180, 181, 182, 183, 184, 185, 186, 187, 188, 189, 190],
      "AcquisitionTime": ["153418.425000", "153419.915000", "153421.405000", "153422.895000", "153424.385000", "153425.875000", "153427.365000", "153428.855000", "153430.345000", "153431.835000", "153433.325000", "153434.815000", "153436.305000", "153437.795000", "153439.285000", "153440.775000", "153442.265000", "153443.755000", "153445.245000", "153446.735000", "153448.225000", "153449.715000", "153451.205000", "153452.695000", "153454.185000", "153455.675000", "153457.165000", "153458.655000", "153500.145000", "153501.635000", "153503.125000", "153504.615000", "153506.105000", "153507.595000", "153509.085000", "153510.575000", "153512.065000", "153513.555000", "153515.045000", "153516.535000", "153518.025000", "153519.515000", "153521.005000", "153522.495000", "153523.985000", "153525.475000", "153526.965000", "153528.455000", "153529.945000", "153531.435000", "153532.925000", "153534.415000", "153535.905000", "153537.395000", "153538.885000", "153540.375000", "153541.865000", "153543.355000", "153544.845000", "153546.335000", "153547.825000", "153549.315000", "153550.805000", "153552.295000", "153553.785000", "153555.275000", "153556.765000", "153558.255000", "153559.745000", "153601.235000", "153602.725000", "153604.215000", "153605.705000", "153607.195000", "153608.685000", "153610.175000", "153611.665000", "153613.155000", "153614.645000", "153616.135000", "153617.625000", "153619.115000", "153620.605000", "153622.095000", "153623.585000", "153625.075000", "153626.565000", "153628.055000", "153629.545000", "153631.035000", "153632.525000", "153634.015000", "153635.505000", "153636.995000", "153638.485000", "153639.975000", "153641.465000", "153642.955000", "153644.445000", "153645.935000", "153647.425000", "153648.915000", "153650.405000", "153651.895000", "153653.385000", "153654.875000", "153656.365000", "153657.855000", "153659.345000", "153700.835000", "153702.325000", "153703.815000", "153705.305000", "153706.795000", "153708.285000", "153709.775000", "153711.265000", "153712.755000", "153714.245000", "153715.735000", "153717.225000", "153718.715000", "153720.205000", "153721.695000", "153723.185000", "153724.675000", "153726.165000", "153727.655000", "153729.145000", "153730.635000", "153732.125000", "153733.615000", "153735.105000", "153736.595000", "153738.085000", "153739.575000", "153741.065000", "153742.555000", "153744.045000", "153745.535000", "153747.025000", "153748.515000", "153750.005000", "153751.495000", "153752.985000", "153754.475000", "153755.965000", "153757.455000", "153758.945000", "153800.435000", "153801.925000", "153803.415000", "153804.905000", "153806.395000", "153807.885000", "153809.375000", "153810.865000", "153812.355000", "153813.845000", "153815.335000", "153816.825000", "153818.315000", "153819.805000", "153821.295000", "153822.785000", "153824.275000", "153825.765000", "153827.255000", "153828.745000", "153830.235000", "153831.725000", "153833.215000", "153834.705000", "153836.195000", "153837.685000", "153839.175000", "153840.665000", "153842.155000", "153843.645000", "153845.135000", "153846.625000", "153848.115000", "153849.605000", "153851.095000", "153852.585000", "153854.075000", "153855.565000", "153857.055000", "153858.545000", "153900.035000"],
      "ContentTime": ["153535.090000", "153535.094000", "153535.097000", "153535.101000", "153535.104000", "153535.108000", "153535.111000", "153535.115000", "153535.118000", "153535.121000", "153535.125000", "153535.128000", "153535.132000", "153535.135000", "153535.138000", "153535.142000", "153535.145000", "153535.149000", "153535.152000", "153535.156000", "153535.159000", "153535.162000", "153535.166000", "153535.169000", "153555.050000", "153555.054000", "153555.058000", "153555.061000", "153555.064000", "153555.068000", "153555.071000", "153555.075000", "153555.078000", "153555.082000", "153555.085000", "153555.089000", "153555.092000", "153555.095000", "153555.099000", "153555.102000", "153555.106000", "153555.109000", "153555.112000", "153555.116000", "153615.050000", "153615.054000", "153615.058000", "153615.061000", "153615.064000", "153615.068000", "153615.071000", "153615.075000", "153615.078000", "153615.082000", "153615.085000", "153615.088000", "153615.092000", "153615.095000", "153615.099000", "153615.102000", "153615.105000", "153615.109000", "153615.112000", "153615.116000", "153635.050000", "153635.054000", "153635.058000", "153635.061000", "153635.064000", "153635.068000", "153635.071000", "153635.075000", "153635.078000", "153635.082000", "153635.085000", "153635.090000", "153635.093000", "153635.097000", "153635.101000", "153635.104000", "153635.108000", "153635.112000", "153635.116000", "153635.119000", "153655.051000", "153655.055000", "153655.059000", "153655.062000", "153655.065000", "153655.069000", "153655.072000", "153655.076000", "153655.079000", "153655.083000", "153655.086000", "153655.089000", "153655.093000", "153655.096000", "153655.114000", "153655.117000", "153655.121000", "153655.124000", "153655.128000", "153655.131000", "153735.051000", "153735.055000", "153735.058000", "153735.062000", "153735.065000", "153735.068000", "153735.072000", "153735.075000", "153735.079000", "153735.082000", "153735.085000", "153735.089000", "153735.092000", "153735.095000", "153735.099000", "153735.102000", "153735.106000", "153735.109000", "153735.112000", "153735.116000", "153735.121000", "153735.124000", "153735.128000", "153735.131000", "153735.135000", "153735.138000", "153735.141000", "153815.050000", "153815.054000", "153815.058000", "153815.061000", "153815.064000", "153815.068000", "153815.071000", "153815.075000", "153815.078000", "153815.081000", "153815.085000", "153815.088000", "153815.092000", "153815.095000", "153815.098000", "153815.102000", "153815.105000", "153815.109000", "153815.112000", "153815.115000", "153815.119000", "153815.122000", "153815.126000", "153815.129000", "153815.132000", "153815.136000", "153815.139000", "153855.050000", "153855.054000", "153855.057000", "153855.061000", "153855.064000", "153855.068000", "153855.071000", "153855.074000", "153855.078000", "153855.081000", "153855.084000", "153855.088000", "153855.091000", "153855.095000", "153855.098000", "153855.102000", "153855.105000", "153855.108000", "153855.112000", "153855.115000", "153855.118000", "153855.122000", "153855.125000", "153855.128000", "153855.132000", "153855.135000", "153855.138000", "153902.494000", "153902.498000", "153902.502000", "153902.505000", "153902.509000"],
      "InstanceCreationTime": ["153535.090000", "153535.094000", "153535.097000", "153535.101000", "153535.104000", "153535.108000", "153535.111000", "153535.115000", "153535.118000", "153535.121000", "153535.125000", "153535.128000", "153535.132000", "153535.135000", "153535.138000", "153535.142000", "153535.145000", "153535.149000", "153535.152000", "153535.156000", "153535.159000", "153535.162000", "153535.166000", "153535.169000", "153555.050000", "153555.054000", "153555.058000", "153555.061000", "153555.064000", "153555.068000", "153555.071000", "153555.075000", "153555.078000", "153555.082000", "153555.085000", "153555.089000", "153555.092000", "153555.095000", "153555.099000", "153555.102000", "153555.106000", "153555.109000", "153555.112000", "153555.116000", "153615.050000", "153615.054000", "153615.058000", "153615.061000", "153615.064000", "153615.068000", "153615.071000", "153615.075000", "153615.078000", "153615.082000", "153615.085000", "153615.088000", "153615.092000", "153615.095000", "153615.099000", "153615.102000", "153615.105000", "153615.109000", "153615.112000", "153615.116000", "153635.050000", "153635.054000", "153635.058000", "153635.061000", "153635.064000", "153635.068000", "153635.071000", "153635.075000", "153635.078000", "153635.082000", "153635.085000", "153635.090000", "153635.093000", "153635.097000", "153635.101000", "153635.104000", "153635.108000", "153635.112000", "153635.116000", "153635.119000", "153655.051000", "153655.055000", "153655.059000", "153655.062000", "153655.065000", "153655.069000", "153655.072000", "153655.076000", "153655.079000", "153655.083000", "153655.086000", "153655.089000", "153655.093000", "153655.096000", "153655.114000", "153655.117000", "153655.121000", "153655.124000", "153655.128000", "153655.131000", "153735.051000", "153735.055000", "153735.058000", "153735.062000", "153735.065000", "153735.068000", "153735.072000", "153735.075000", "153735.079000", "153735.082000", "153735.085000", "153735.089000", "153735.092000", "153735.095000", "153735.099000", "153735.102000", "153735.106000", "153735.109000", "153735.112000", "153735.116000", "153735.121000", "153735.124000", "153735.128000", "153735.131000", "153735.135000", "153735.138000", "153735.141000", "153815.050000", "153815.054000", "153815.058000", "153815.061000", "153815.064000", "153815.068000", "153815.071000", "153815.075000", "153815.078000", "153815.081000", "153815.085000", "153815.088000", "153815.092000", "153815.095000", "153815.098000", "153815.102000", "153815.105000", "153815.109000", "153815.112000", "153815.115000", "153815.119000", "153815.122000", "153815.126000", "153815.129000", "153815.132000", "153815.136000", "153815.139000", "153855.050000", "153855.054000", "153855.057000", "153855.061000", "153855.064000", "153855.068000", "153855.071000", "153855.074000", "153855.078000", "153855.081000", "153855.084000", "153855.088000", "153855.091000", "153855.095000", "153855.098000", "153855.102000", "153855.105000", "153855.108000", "153855.112000", "153855.115000", "153855.118000", "153855.122000", "153855.125000", "153855.128000", "153855.132000", "153855.135000", "153855.138000", "153902.494000", "153902.498000", "153902.502000", "153902.505000", "153902.509000"],
      "InstanceNumber": [1, 2, 3, 4, 5, 6, 7, 8, 9, 10, 11, 12, 13, 14, 15, 16, 17, 18, 19, 20, 21, 22, 23, 24, 25, 26, 27, 28, 29, 30, 31, 32, 33, 34, 35, 36, 37, 38, 39, 40, 41, 42, 43, 44, 45, 46, 47, 48, 49, 50, 51, 52, 53, 54, 55, 56, 57, 58, 59, 60, 61, 62, 63, 64, 65, 66, 67, 68, 69, 70, 71, 72, 73, 74, 75, 76, 77, 78, 79, 80, 81, 82, 83, 84, 85, 86, 87, 88, 89, 90, 91, 92, 93, 94, 95, 96, 97, 98, 99, 100, 101, 102, 103, 104, 105, 106, 107, 108, 109, 110, 111, 112, 113, 114, 115, 116, 117, 118, 119, 120, 121, 122, 123, 124, 125, 126, 127, 128, 129, 130, 131, 132, 133, 134, 135, 136, 137, 138, 139, 140, 141, 142, 143, 144, 145, 146, 147, 148, 149, 150, 151, 152, 153, 154, 155, 156, 157, 158, 159, 160, 161, 162, 163, 164, 165, 166, 167, 168, 169, 170, 171, 172, 173, 174, 175, 176, 177, 178, 179, 180, 181, 182, 183, 184, 185, 186, 187, 188, 189, 190],
      "LargestImagePixelValue": [46595, 45340, 42900, 42714, 42715, 42560, 42169, 42313, 42418, 42111, 42019, 42525, 42175, 42765, 42083, 42517, 42988, 42258, 42942, 41743, 43090, 42374, 42503, 42575, 41654, 42585, 42266, 42868, 42310, 42348, 42356, 41717, 42718, 42406, 42564, 42217, 42393, 42385, 42265, 42642, 41706, 42483, 42008, 41654, 42137, 42163, 42641, 41971, 42857, 41690, 42415, 42196, 42114, 42091, 41781, 42178, 42408, 42221, 42319, 42258, 42402, 41909, 42361, 42154, 42417, 42339, 42223, 41970, 41661, 42507, 41841, 42846, 41608, 42063, 42191, 42349, 42115, 41657, 42242, 41540, 42485, 41711, 41893, 42025, 42164, 42096, 41900, 42240, 41667, 41662, 42424, 41502, 42557, 41902, 43284, 44437, 42781, 41910, 41965, 42076, 41780, 42717, 43197, 42772, 44201, 43957, 43047, 42596, 41681, 42718, 43277, 43508, 43796, 42365, 43047, 43138, 42341, 41691, 42719, 42514, 43209, 44039, 42872, 44107, 43453, 43170, 44215, 42984, 43725, 43588, 42048, 43528, 42540, 43449, 43131, 43871, 43164, 42980, 43342, 43444, 43418, 43357, 44529, 42889, 43709, 43138, 44214, 43165, 44126, 43099, 44150, 43707, 43743, 44052, 42587, 43566, 43047, 43626, 42909, 43678, 43235, 43873, 43427, 43802, 42172, 43304, 42183, 43244, 43455, 43477, 44173, 43578, 44924, 42437, 41739, 42674, 42463, 44458, 42709, 41313, 43489, 42797, 42982, 42699, 43190, 44136, 43614, 43506, 43833, 42985],
      "WindowCenter": [10483.0, 10412.0, 10346.0, 10319.0, 10321.0, 10321.0, 10313.0, 10315.0, 10333.0, 10344.0, 10349.0, 10352.0, 10359.0, 10389.0, 10379.0, 10387.0, 10385.0, 10369.0, 10377.0, 10372.0, 10390.0, 10364.0, 10345.0, 10335.0, 10323.0, 10358.0, 10353.0, 10358.0, 10329.0, 10322.0, 10319.0, 10328.0, 10359.0, 10351.0, 10328.0, 10309.0, 10309.0, 10323.0, 10347.0, 10360.0, 10340.0, 10334.0, 10320.0, 10326.0, 10334.0, 10340.0, 10342.0, 10330.0, 10332.0, 10306.0, 10317.0, 10316.0, 10331.0, 10340.0, 10336.0, 10336.0, 10338.0, 10336.0, 10349.0, 10351.0, 10343.0, 10315.0, 10312.0, 10317.0, 10349.0, 10353.0, 10339.0, 10336.0, 10344.0, 10366.0, 10352.0, 10342.0, 10313.0, 10319.0, 10322.0, 10317.0, 10318.0, 10327.0, 10336.0, 10314.0, 10318.0, 10298.0, 10320.0, 10342.0, 10335.0, 10319.0, 10310.0, 10332.0, 10329.0, 10323.0, 10326.0, 10312.0, 10331.0, 10321.0, 10344.0, 10388.0, 10375.0, 10324.0, 10286.0, 10281.0, 10289.0, 10312.0, 10329.0, 10309.0, 10327.0, 10359.0, 10351.0, 10322.0, 10302.0, 10306.0, 10312.0, 10305.0, 10297.0, 10281.0, 10298.0, 10304.0, 10301.0, 10314.0, 10350.0, 10360.0, 10358.0, 10361.0, 10364.0, 10386.0, 10397.0, 10399.0, 10390.0, 10370.0, 10370.0, 10365.0, 10342.0, 10341.0, 10343.0, 10371.0, 10353.0, 10347.0, 10335.0, 10341.0, 10351.0, 10349.0, 10334.0, 10316.0, 10333.0, 10342.0, 10365.0, 10353.0, 10355.0, 10333.0, 10345.0, 10347.0, 10360.0, 10353.0, 10358.0, 10384.0, 10361.0, 10344.0, 10310.0, 10306.0, 10306.0, 10336.0, 10333.0, 10330.0, 10323.0, 10328.0, 10311.0, 10315.0, 10310.0, 10352.0, 10373.0, 10361.0, 10347.0, 10323.0, 10349.0, 10348.0, 10341.0, 10337.0, 10312.0, 10328.0, 10318.0, 10302.0, 10303.0, 10285.0, 10299.0, 10311.0, 10332.0, 10352.0, 10356.0, 10352.0, 10341.0, 10313.0],
      "WindowWidth": [22720.0, 22507.0, 22332.0, 22254.0, 22249.0, 22244.0, 22223.0, 22229.0, 22265.0, 22291.0, 22304.0, 22309.0, 22325.0, 22391.0, 22373.0, 22390.0, 22382.0, 22345.0, 22366.0, 22356.0, 22394.0, 22338.0, 22295.0, 22269.0, 22247.0, 22324.0, 22313.0, 22321.0, 22258.0, 22243.0, 22238.0, 22260.0, 22328.0, 22309.0, 22257.0, 22214.0, 22217.0, 22246.0, 22300.0, 22333.0, 22288.0, 22272.0, 22242.0, 22259.0, 22276.0, 22288.0, 22292.0, 22266.0, 22268.0, 22214.0, 22234.0, 22232.0, 22267.0, 22287.0, 22283.0, 22280.0, 22283.0, 22283.0, 22308.0, 22313.0, 22295.0, 22232.0, 22226.0, 22238.0, 22309.0, 22321.0, 22295.0, 22287.0, 22304.0, 22350.0, 22319.0, 22294.0, 22230.0, 22240.0, 22247.0, 22240.0, 22242.0, 22262.0, 22284.0, 22233.0, 22239.0, 22200.0, 22249.0, 22297.0, 22280.0, 22241.0, 22220.0, 22269.0, 22269.0, 22255.0, 22258.0, 22230.0, 22269.0, 22250.0, 22296.0, 22397.0, 22376.0, 22265.0, 22172.0, 22157.0, 22171.0, 22223.0, 22258.0, 22214.0, 22254.0, 22334.0, 22320.0, 22250.0, 22205.0, 22210.0, 22219.0, 22201.0, 22182.0, 22152.0, 22185.0, 22201.0, 22199.0, 22233.0, 22312.0, 22337.0, 22330.0, 22334.0, 22343.0, 22391.0, 22416.0, 22421.0, 22402.0, 22359.0, 22354.0, 22344.0, 22301.0, 22290.0, 22294.0, 22355.0, 22318.0, 22299.0, 22277.0, 22291.0, 22315.0, 22308.0, 22275.0, 22235.0, 22272.0, 22297.0, 22348.0, 22322.0, 22323.0, 22274.0, 22299.0, 22306.0, 22332.0, 22321.0, 22329.0, 22389.0, 22342.0, 22300.0, 22220.0, 22211.0, 22212.0, 22276.0, 22273.0, 22266.0, 22248.0, 22259.0, 22226.0, 22237.0, 22229.0, 22317.0, 22365.0, 22338.0, 22304.0, 22248.0, 22306.0, 22311.0, 22300.0, 22285.0, 22226.0, 22256.0, 22238.0, 22210.0, 22204.0, 22163.0, 22192.0, 22224.0, 22269.0, 22314.0, 22324.0, 22315.0, 22287.0, 22227.0]
    },
    "slices": {}
  }
}