{
  "AcquisitionMatrixPE": 104,
  "AcquisitionNumber": 1,
  "AcquisitionTime": "15:21:43.137500",
  "BandwidthPerPixelPhaseEncode": 17.17,
  "BaseResolution": 104,
  "BodyPartExamined": "BRAIN",
  "CoilString": "HC1-7;NC1_2",
  "ConsistencyInfo": "N4_VE11C_LATEST_20160120",
  "ConversionSoftware": "dcm2niix",
  "ConversionSoftwareVersion": "v1.0.20190902",
  "DerivedVendorReportedEchoSpacing": 0.000560011,
  "DeviceSerialNumber": "167006",
  "DwellTime": 2.1e-06,
  "EchoTime": 0.037,
  "EchoTrainLength": 104,
  "EffectiveEchoSpacing": 0.000560011,
  "FlipAngle": 52,
  "ImageComments": "Unaliased_MB4_PE3_LB",
  "ImageOrientationPatientDICOM": [0.999511, -0.0267865, 0.0161404, 0.0307124, 0.938068, -0.345088],
  "ImageType": [
    "ORIGINAL",
    "PRIMARY",
    "P",
    "MB",
    "ND",
    "MOSAIC"
],
  "ImagingFrequency": 123.259,
  "InPlanePhaseEncodingDirectionDICOM": "COL",
  "InstitutionAddress": "Chemin_Queen-Mary_4565_Montreal_District_CA_H3W_1W5",
  "InstitutionName": "IUGM",
  "InstitutionalDepartmentName": "Department",
  "MRAcquisitionType": "2D",
  "MagneticFieldStrength": 3,
  "Manufacturer": "Siemens",
  "ManufacturersModelName": "Prisma_fit",
  "Modality": "MR",
  "MultibandAccelerationFactor": 4,
  "PartialFourier": 1,
  "PatientPosition": "HFS",
  "PercentPhaseFOV": 100,
  "PhaseEncodingDirection": "j",
  "PhaseEncodingSteps": 104,
  "PhaseResolution": 1,
  "PixelBandwidth": 2290,
  "ProcedureStepDescription": "memory_things",
  "ProtocolName": "func_task-things_run-1",
  "PulseSequenceDetails": "%CustomerSeq%_cmrr_mbep2d_bold",
  "ReceiveCoilActiveElements": "HC1-7;NC1,2",
  "ReceiveCoilName": "HeadNeck_64",
  "ReconMatrixPE": 104,
  "RepetitionTime": 1.49,
  "SAR": 0.070071,
  "ScanOptions": "FS",
  "ScanningSequence": "EP",
  "SequenceName": "epfid2d1_104",
  "SequenceVariant": "SK_SS",
  "SeriesDescription": "func_task-things_run-1",
  "SeriesNumber": 11,
  "ShimSetting": [633, -7241, -8821, 566, 16, -161, -63, -25],
  "SliceThickness": 2,
  "SliceTiming": [0, 0.7825, 0.0975, 0.8825, 0.195, 0.98, 0.2925, 1.0775, 0.3925, 1.175, 0.49, 1.2725, 0.5875, 1.3725, 0.685, 0, 0.7825, 0.0975, 0.8825, 0.195, 0.98, 0.2925, 1.0775, 0.3925, 1.175, 0.49, 1.2725, 0.5875, 1.3725, 0.685, 0, 0.7825, 0.0975, 0.8825, 0.195, 0.98, 0.2925, 1.0775, 0.3925, 1.175, 0.49, 1.2725, 0.5875, 1.3725, 0.685, 0, 0.7825, 0.0975, 0.8825, 0.195, 0.98, 0.2925, 1.0775, 0.3925, 1.175, 0.49, 1.2725, 0.5875, 1.3725, 0.685],
  "SoftwareVersions": "syngo_MR_E11",
  "SpacingBetweenSlices": 2,
  "StationName": "MRC35049",
  "TaskName": "things",
  "TotalReadoutTime": 0.0576811,
  "TxRefAmp": 298.125,
  "WipMemBlock": "1a5ca91c-888d-4c58-9e83-a15a8277c8eb||Sequence: R016 ve11c/master r/e634e98; Dec 19 2017 11:00:25 by eja",
  "dcmmeta_affine": [
    [-1.9990217685699463, 0.06142483279109001, 0.011794264428317547, 104.46095275878906],
    [0.053572945296764374, 1.8761355876922607, -0.6908293962478638, -66.56169891357422],
    [0.03228085860610008, 0.6901755928993225, 1.8768632411956787, -66.36097717285156],
    [0.0, 0.0, 0.0, 1.0]
],
  "dcmmeta_reorient_transform": [
    [0.0, -1.0, 0.0, 103.0],
    [1.0, 0.0, 0.0, 0.0],
    [0.0, 0.0, 1.0, 0.0],
    [0.0, 0.0, 0.0, 1.0]
],
  "dcmmeta_shape": [104, 104, 60, 190],
  "dcmmeta_slice_dim": 2,
  "dcmmeta_version": 0.6,
  "global": {
    "const": {
      "AcquisitionMatrix": [104, 0, 0, 104],
      "AngioFlag": "N",
      "BitsAllocated": 16,
      "BitsStored": 16,
      "BodyPartExamined": "BRAIN",
      "Columns": 832,
      "EchoNumbers": 1,
      "EchoTime": 37.0,
      "EchoTrainLength": 104,
      "FlipAngle": 52.0,
      "HighBit": 15,
      "ImageOrientationPatient": [0.9995108660566, -0.0267864734652, 0.01614042979884, 0.03071241548912, 0.93806778326228, -0.3450877881644],
      "ImagePositionPatient": [-860.79025738861, -790.09305887592, 244.20078464917],
      "ImageType": [
        "ORIGINAL",
        "PRIMARY",
        "P",
        "MB",
        "ND",
        "MOSAIC"
],
      "ImagedNucleus": "1H",
      "ImagingFrequency": 123.258935,
      "InPlanePhaseEncodingDirection": "COL",
      "LargestImagePixelValue": 4095,
      "MRAcquisitionType": "2D",
      "MagneticFieldStrength": 3.0,
      "Manufacturer": "SIEMENS",
      "ManufacturerModelName": "Prisma_fit",
      "Modality": "MR",
      "NumberOfAverages": 1.0,
      "NumberOfPhaseEncodingSteps": 104,
      "PercentPhaseFieldOfView": 100.0,
      "PercentSampling": 100.0,
      "PerformedProcedureStepStartTime": "150647.031000",
      "PhotometricInterpretation": "MONOCHROME2",
      "PixelBandwidth": 2290.0,
      "PixelRepresentation": 0,
      "PixelSpacing": [2.0, 2.0],
      "ProtocolName": "func_task-things_run-1",
      "RepetitionTime": 1490.0,
      "RescaleIntercept": -4096.0,
      "RescaleSlope": 2.0,
      "RescaleType": "US",
      "Rows": 832,
      "SAR": 0.07007098044568,
      "SamplesPerPixel": 1,
      "ScanOptions": "FS",
      "ScanningSequence": "EP",
      "SequenceName": "epfid2d1_104",
      "SequenceVariant": [
        "SK",
        "SS"
],
      "SeriesDescription": "func_task-things_run-1",
      "SeriesNumber": 11,
      "SeriesTime": "152257.619000",
      "SliceLocation": -38.667829391693,
      "SliceThickness": 2.0,
      "SmallestImagePixelValue": 0,
      "SoftwareVersions": "syngo MR E11",
      "SpacingBetweenSlices": 1.9999999504796,
      "SpecificCharacterSet": "ISO_IR 100",
      "StudyID": "1",
      "StudyTime": "150646.935000",
      "TransmitCoilName": "Body",
      "VariableFlipAngleFlag": "N",
      "WindowCenterWidthExplanation": "Algo1",
      "dBdt": 0.0},
    "slices": {}
  },
  "time": {
    "samples": {
      "AcquisitionNumber": [1, 2, 3, 4, 5, 6, 7, 8, 9, 10, 11, 12, 13, 14, 15, 16, 17, 18, 19, 20, 21, 22, 23, 24, 25, 26, 27, 28, 29, 30, 31, 32, 33, 34, 35, 36, 37, 38, 39, 40, 41, 42, 43, 44, 45, 46, 47, 48, 49, 50, 51, 52, 53, 54, 55, 56, 57, 58, 59, 60, 61, 62, 63, 64, 65, 66, 67, 68, 69, 70, 71, 72, 73, 74, 75, 76, 77, 78, 79, 80, 81, 82, 83, 84, 85, 86, 87, 88, 89, 90, 91, 92, 93, 94, 95, 96, 97, 98, 99, 100, 101, 102, 103, 104, 105, 106, 107, 108, 109, 110, 111, 112, 113, 114, 115, 116, 117, 118, 119, 120, 121, 122, 123, 124, 125, 126, 127, 128, 129, 130, 131, 132, 133, 134, 135, 136, 137, 138, 139, 140, 141, 142, 143, 144, 145, 146, 147, 148, 149, 150, 151, 152, 153, 154, 155, 156, 157, 158, 159, 160, 161, 162, 163, 164, 165, 166, 167, 168, 169, 170, 171, 172, 173, 174, 175, 176, 177, 178, 179, 180, 181, 182, 183, 184, 185, 186, 187, 188, 189, 190],
      "AcquisitionTime": ["152143.137500", "152144.627500", "152146.117500", "152147.607500", "152149.097500", "152150.587500", "152152.077500", "152153.567500", "152155.057500", "152156.547500", "152158.037500", "152159.527500", "152201.017500", "152202.507500", "152203.997500", "152205.487500", "152206.977500", "152208.467500", "152209.957500", "152211.447500", "152212.937500", "152214.427500", "152215.917500", "152217.407500", "152218.897500", "152220.387500", "152221.877500", "152223.367500", "152224.857500", "152226.347500", "152227.837500", "152229.327500", "152230.817500", "152232.307500", "152233.797500", "152235.287500", "152236.777500", "152238.267500", "152239.757500", "152241.247500", "152242.737500", "152244.227500", "152245.717500", "152247.207500", "152248.697500", "152250.187500", "152251.677500", "152253.167500", "152254.657500", "152256.147500", "152257.637500", "152259.127500", "152300.617500", "152302.107500", "152303.597500", "152305.087500", "152306.577500", "152308.067500", "152309.557500", "152311.047500", "152312.537500", "152314.027500", "152315.517500", "152317.007500", "152318.497500", "152319.987500", "152321.477500", "152322.967500", "152324.457500", "152325.947500", "152327.437500", "152328.927500", "152330.417500", "152331.907500", "152333.397500", "152334.887500", "152336.377500", "152337.867500", "152339.357500", "152340.847500", "152342.337500", "152343.827500", "152345.317500", "152346.807500", "152348.297500", "152349.787500", "152351.277500", "152352.767500", "152354.257500", "152355.747500", "152357.237500", "152358.727500", "152400.217500", "152401.707500", "152403.197500", "152404.687500", "152406.177500", "152407.667500", "152409.157500", "152410.647500", "152412.137500", "152413.627500", "152415.117500", "152416.607500", "152418.097500", "152419.587500", "152421.077500", "152422.567500", "152424.057500", "152425.547500", "152427.037500", "152428.527500", "152430.017500", "152431.507500", "152432.997500", "152434.487500", "152435.977500", "152437.467500", "152438.957500", "152440.447500", "152441.937500", "152443.427500", "152444.917500", "152446.407500", "152447.897500", "152449.387500", "152450.877500", "152452.367500", "152453.857500", "152455.347500", "152456.837500", "152458.327500", "152459.817500", "152501.307500", "152502.797500", "152504.287500", "152505.777500", "152507.267500", "152508.757500", "152510.247500", "152511.737500", "152513.227500", "152514.717500", "152516.207500", "152517.697500", "152519.187500", "152520.677500", "152522.167500", "152523.657500", "152525.147500", "152526.637500", "152528.127500", "152529.617500", "152531.107500", "152532.597500", "152534.087500", "152535.577500", "152537.067500", "152538.557500", "152540.047500", "152541.537500", "152543.027500", "152544.517500", "152546.007500", "152547.497500", "152548.987500", "152550.477500", "152551.967500", "152553.457500", "152554.947500", "152556.437500", "152557.927500", "152559.417500", "152600.907500", "152602.397500", "152603.887500", "152605.377500", "152606.867500", "152608.357500", "152609.847500", "152611.337500", "152612.827500", "152614.317500", "152615.807500", "152617.297500", "152618.787500", "152620.277500", "152621.767500", "152623.257500", "152624.747500"],
      "ContentTime": ["152257.621000", "152257.624000", "152257.627000", "152257.629000", "152257.632000", "152257.634000", "152257.637000", "152257.640000", "152257.642000", "152257.645000", "152257.647000", "152257.650000", "152257.652000", "152257.655000", "152257.657000", "152257.660000", "152257.663000", "152257.665000", "152257.668000", "152257.670000", "152317.549000", "152317.551000", "152317.554000", "152317.557000", "152317.559000", "152317.562000", "152317.564000", "152317.567000", "152317.569000", "152317.572000", "152317.575000", "152317.577000", "152317.580000", "152317.583000", "152317.585000", "152317.588000", "152317.590000", "152317.593000", "152317.595000", "152317.598000", "152337.548000", "152337.550000", "152337.553000", "152337.555000", "152337.558000", "152337.561000", "152337.563000", "152337.566000", "152337.569000", "152337.571000", "152337.574000", "152337.577000", "152337.580000", "152337.587000", "152337.590000", "152337.592000", "152337.595000", "152337.598000", "152337.600000", "152337.603000", "152357.575000", "152357.578000", "152357.580000", "152357.583000", "152357.585000", "152357.597000", "152357.599000", "152357.602000", "152357.605000", "152357.607000", "152357.610000", "152357.612000", "152357.615000", "152357.617000", "152357.620000", "152357.622000", "152357.625000", "152357.628000", "152357.630000", "152357.633000", "152417.546000", "152417.549000", "152417.551000", "152417.554000", "152417.556000", "152417.559000", "152417.561000", "152417.564000", "152417.567000", "152417.569000", "152417.572000", "152417.575000", "152417.577000", "152417.580000", "152417.583000", "152417.585000", "152417.588000", "152417.590000", "152417.593000", "152417.595000", "152417.598000", "152457.578000", "152457.580000", "152457.583000", "152457.586000", "152457.588000", "152457.591000", "152457.593000", "152457.596000", "152457.598000", "152457.601000", "152457.604000", "152457.606000", "152457.609000", "152457.611000", "152457.614000", "152457.616000", "152457.619000", "152457.629000", "152457.631000", "152457.634000", "152457.637000", "152457.639000", "152457.642000", "152457.644000", "152457.647000", "152457.650000", "152457.652000", "152457.655000", "152457.657000", "152537.596000", "152537.599000", "152537.607000", "152537.609000", "152537.612000", "152537.615000", "152537.618000", "152537.620000", "152537.623000", "152537.625000", "152537.628000", "152537.631000", "152537.633000", "152537.636000", "152537.638000", "152537.641000", "152537.643000", "152537.646000", "152537.649000", "152537.651000", "152537.654000", "152537.656000", "152537.659000", "152537.661000", "152537.664000", "152537.666000", "152537.669000", "152557.514000", "152557.517000", "152557.526000", "152557.529000", "152557.531000", "152557.534000", "152557.537000", "152557.539000", "152557.542000", "152557.544000", "152557.547000", "152557.549000", "152557.552000", "152626.692000", "152626.695000", "152626.697000", "152626.700000", "152626.703000", "152626.705000", "152626.708000", "152626.711000", "152626.713000", "152626.716000", "152626.719000", "152626.721000", "152626.724000", "152626.727000", "152626.729000", "152626.732000", "152626.735000", "152626.738000", "152626.741000", "152626.744000"],
      "InstanceCreationTime": ["152257.621000", "152257.624000", "152257.627000", "152257.629000", "152257.632000", "152257.634000", "152257.637000", "152257.640000", "152257.642000", "152257.645000", "152257.647000", "152257.650000", "152257.652000", "152257.655000", "152257.657000", "152257.660000", "152257.663000", "152257.665000", "152257.668000", "152257.670000", "152317.549000", "152317.551000", "152317.554000", "152317.557000", "152317.559000", "152317.562000", "152317.564000", "152317.567000", "152317.569000", "152317.572000", "152317.575000", "152317.577000", "152317.580000", "152317.583000", "152317.585000", "152317.588000", "152317.590000", "152317.593000", "152317.595000", "152317.598000", "152337.548000", "152337.550000", "152337.553000", "152337.555000", "152337.558000", "152337.561000", "152337.563000", "152337.566000", "152337.569000", "152337.571000", "152337.574000", "152337.577000", "152337.580000", "152337.587000", "152337.590000", "152337.592000", "152337.595000", "152337.598000", "152337.600000", "152337.603000", "152357.575000", "152357.578000", "152357.580000", "152357.583000", "152357.585000", "152357.597000", "152357.599000", "152357.602000", "152357.605000", "152357.607000", "152357.610000", "152357.612000", "152357.615000", "152357.617000", "152357.620000", "152357.622000", "152357.625000", "152357.628000", "152357.630000", "152357.633000", "152417.546000", "152417.549000", "152417.551000", "152417.554000", "152417.556000", "152417.559000", "152417.561000", "152417.564000", "152417.567000", "152417.569000", "152417.572000", "152417.575000", "152417.577000", "152417.580000", "152417.583000", "152417.585000", "152417.588000", "152417.590000", "152417.593000", "152417.595000", "152417.598000", "152457.578000", "152457.580000", "152457.583000", "152457.586000", "152457.588000", "152457.591000", "152457.593000", "152457.596000", "152457.598000", "152457.601000", "152457.604000", "152457.606000", "152457.609000", "152457.611000", "152457.614000", "152457.616000", "152457.619000", "152457.629000", "152457.631000", "152457.634000", "152457.637000", "152457.639000", "152457.642000", "152457.644000", "152457.647000", "152457.650000", "152457.652000", "152457.655000", "152457.657000", "152537.596000", "152537.599000", "152537.607000", "152537.609000", "152537.612000", "152537.615000", "152537.618000", "152537.620000", "152537.623000", "152537.625000", "152537.628000", "152537.631000", "152537.633000", "152537.636000", "152537.638000", "152537.641000", "152537.643000", "152537.646000", "152537.649000", "152537.651000", "152537.654000", "152537.656000", "152537.659000", "152537.661000", "152537.664000", "152537.666000", "152537.669000", "152557.514000", "152557.517000", "152557.526000", "152557.529000", "152557.531000", "152557.534000", "152557.537000", "152557.539000", "152557.542000", "152557.544000", "152557.547000", "152557.549000", "152557.552000", "152626.692000", "152626.695000", "152626.697000", "152626.700000", "152626.703000", "152626.705000", "152626.708000", "152626.711000", "152626.713000", "152626.716000", "152626.719000", "152626.721000", "152626.724000", "152626.727000", "152626.729000", "152626.732000", "152626.735000", "152626.738000", "152626.741000", "152626.744000"],
      "InstanceNumber": [1, 2, 3, 4, 5, 6, 7, 8, 9, 10, 11, 12, 13, 14, 15, 16, 17, 18, 19, 20, 21, 22, 23, 24, 25, 26, 27, 28, 29, 30, 31, 32, 33, 34, 35, 36, 37, 38, 39, 40, 41, 42, 43, 44, 45, 46, 47, 48, 49, 50, 51, 52, 53, 54, 55, 56, 57, 58, 59, 60, 61, 62, 63, 64, 65, 66, 67, 68, 69, 70, 71, 72, 73, 74, 75, 76, 77, 78, 79, 80, 81, 82, 83, 84, 85, 86, 87, 88, 89, 90, 91, 92, 93, 94, 95, 96, 97, 98, 99, 100, 101, 102, 103, 104, 105, 106, 107, 108, 109, 110, 111, 112, 113, 114, 115, 116, 117, 118, 119, 120, 121, 122, 123, 124, 125, 126, 127, 128, 129, 130, 131, 132, 133, 134, 135, 136, 137, 138, 139, 140, 141, 142, 143, 144, 145, 146, 147, 148, 149, 150, 151, 152, 153, 154, 155, 156, 157, 158, 159, 160, 161, 162, 163, 164, 165, 166, 167, 168, 169, 170, 171, 172, 173, 174, 175, 176, 177, 178, 179, 180, 181, 182, 183, 184, 185, 186, 187, 188, 189, 190],
      "WindowCenter": [4814.0, 4812.0, 4812.0, 4814.0, 4814.0, 4816.0, 4816.0, 4814.0, 4816.0, 4814.0, 4814.0, 4812.0, 4810.0, 4816.0, 4810.0, 4816.0, 4816.0, 4814.0, 4814.0, 4814.0, 4810.0, 4814.0, 4812.0, 4814.0, 4814.0, 4814.0, 4814.0, 4810.0, 4810.0, 4812.0, 4812.0, 4814.0, 4812.0, 4812.0, 4810.0, 4814.0, 4812.0, 4812.0, 4812.0, 4810.0, 4814.0, 4814.0, 4816.0, 4812.0, 4812.0, 4814.0, 4812.0, 4810.0, 4816.0, 4810.0, 4808.0, 4788.0, 4810.0, 4812.0, 4814.0, 4814.0, 4812.0, 4814.0, 4812.0, 4808.0, 4812.0, 4814.0, 4812.0, 4814.0, 4814.0, 4814.0, 4812.0, 4814.0, 4812.0, 4812.0, 4812.0, 4814.0, 4808.0, 4810.0, 4812.0, 4808.0, 4812.0, 4814.0, 4810.0, 4816.0, 4810.0, 4810.0, 4812.0, 4810.0, 4814.0, 4810.0, 4812.0, 4810.0, 4812.0, 4812.0, 4812.0, 4810.0, 4812.0, 4816.0, 4814.0, 4808.0, 4790.0, 4814.0, 4812.0, 4814.0, 4810.0, 4814.0, 4812.0, 4814.0, 4814.0, 4810.0, 4810.0, 4810.0, 4814.0, 4810.0, 4810.0, 4788.0, 4812.0, 4814.0, 4816.0, 4814.0, 4812.0, 4810.0, 4808.0, 4814.0, 4810.0, 4810.0, 4814.0, 4786.0, 4810.0, 4814.0, 4812.0, 4818.0, 4812.0, 4810.0, 4808.0, 4810.0, 4788.0, 4810.0, 4812.0, 4812.0, 4812.0, 4814.0, 4814.0, 4812.0, 4814.0, 4808.0, 4810.0, 4810.0, 4808.0, 4812.0, 4814.0, 4812.0, 4814.0, 4810.0, 4810.0, 4808.0, 4808.0, 4810.0, 4786.0, 4814.0, 4810.0, 4814.0, 4812.0, 4814.0, 4812.0, 4814.0, 4812.0, 4810.0, 4812.0, 4820.0, 4810.0, 4810.0, 4812.0, 4812.0, 4812.0, 4786.0, 4810.0, 4814.0, 4810.0, 4814.0, 4808.0, 4812.0, 4810.0, 4812.0, 4812.0, 4812.0, 4808.0, 4812.0, 4808.0, 4808.0, 4786.0, 4812.0, 4814.0, 4810.0],
      "WindowWidth": [18620.0, 18618.0, 18622.0, 18620.0, 18620.0, 18620.0, 18620.0, 18622.0, 18618.0, 18620.0, 18616.0, 18614.0, 18620.0, 18618.0, 18614.0, 18618.0, 18614.0, 18622.0, 18610.0, 18610.0, 18616.0, 18620.0, 18618.0, 18622.0, 18614.0, 18618.0, 18614.0, 18612.0, 18616.0, 18620.0, 18614.0, 18616.0, 18618.0, 18614.0, 18618.0, 18618.0, 18616.0, 18618.0, 18610.0, 18618.0, 18618.0, 18618.0, 18618.0, 18618.0, 18618.0, 18614.0, 18622.0, 18618.0, 18618.0, 18618.0, 18614.0, 18564.0, 18616.0, 18626.0, 18622.0, 18622.0, 18620.0, 18610.0, 18616.0, 18608.0, 18618.0, 18612.0, 18616.0, 18616.0, 18618.0, 18622.0, 18614.0, 18616.0, 18616.0, 18610.0, 18618.0, 18622.0, 18606.0, 18616.0, 18616.0, 18616.0, 18618.0, 18620.0, 18618.0, 18618.0, 18620.0, 18614.0, 18608.0, 18616.0, 18614.0, 18616.0, 18618.0, 18606.0, 18618.0, 18620.0, 18612.0, 18616.0, 18622.0, 18614.0, 18618.0, 18612.0, 18570.0, 18618.0, 18620.0, 18616.0, 18618.0, 18620.0, 18618.0, 18614.0, 18620.0, 18614.0, 18614.0, 18614.0, 18608.0, 18620.0, 18616.0, 18576.0, 18618.0, 18620.0, 18620.0, 18620.0, 18612.0, 18618.0, 18608.0, 18624.0, 18612.0, 18610.0, 18618.0, 18574.0, 18622.0, 18620.0, 18614.0, 18620.0, 18614.0, 18620.0, 18608.0, 18618.0, 18570.0, 18616.0, 18622.0, 18612.0, 18622.0, 18618.0, 18620.0, 18618.0, 18622.0, 18606.0, 18608.0, 18612.0, 18602.0, 18620.0, 18620.0, 18616.0, 18624.0, 18610.0, 18618.0, 18608.0, 18606.0, 18614.0, 18580.0, 18618.0, 18610.0, 18618.0, 18618.0, 18616.0, 18622.0, 18620.0, 18610.0, 18618.0, 18612.0, 18622.0, 18616.0, 18612.0, 18618.0, 18614.0, 18618.0, 18578.0, 18616.0, 18622.0, 18612.0, 18620.0, 18608.0, 18614.0, 18618.0, 18608.0, 18618.0, 18612.0, 18616.0, 18620.0, 18610.0, 18614.0, 18570.0, 18614.0, 18622.0, 18612.0]
    },
    "slices": {}
  }
}