{
  "AcquisitionMatrixPE": 104,
  "AcquisitionNumber": 1,
  "AcquisitionTime": "15:36:58.765000",
  "BandwidthPerPixelPhaseEncode": 17.17,
  "BaseResolution": 104,
  "BodyPartExamined": "BRAIN",
  "CoilString": "HC1-7;NC1_2",
  "ConsistencyInfo": "N4_VE11C_LATEST_20160120",
  "ConversionSoftware": "dcm2niix",
  "ConversionSoftwareVersion": "v1.0.20190902",
  "DerivedVendorReportedEchoSpacing": 0.000560011,
  "DeviceSerialNumber": "167006",
  "DwellTime": 2.1e-06,
  "EchoTime": 0.037,
  "EchoTrainLength": 104,
  "EffectiveEchoSpacing": 0.000560011,
  "FlipAngle": 52,
  "HeudiconvVersion": "0.10.0",
  "ImageComments": "Unaliased_MB4_PE3_LB",
  "ImageOrientationPatientDICOM": [0.998662, -0.049981, 0.0132435, 0.0516386, 0.95104, -0.304722],
  "ImageType": [
    "ORIGINAL",
    "PRIMARY",
    "M",
    "MB",
    "ND",
    "MOSAIC"
],
  "ImagingFrequency": 123.259,
  "InPlanePhaseEncodingDirectionDICOM": "COL",
  "InstitutionAddress": "Chemin_Queen-Mary_4565_Montreal_District_CA_H3W_1W5",
  "InstitutionName": "IUGM",
  "InstitutionalDepartmentName": "Department",
  "MRAcquisitionType": "2D",
  "MagneticFieldStrength": 3,
  "Manufacturer": "Siemens",
  "ManufacturersModelName": "Prisma_fit",
  "Modality": "MR",
  "MultibandAccelerationFactor": 4,
  "PartialFourier": 1,
  "PatientPosition": "HFS",
  "PercentPhaseFOV": 100,
  "PhaseEncodingDirection": "j",
  "PhaseEncodingSteps": 104,
  "PhaseResolution": 1,
  "PixelBandwidth": 2290,
  "ProcedureStepDescription": "memory_things",
  "ProtocolName": "func_task-things_run-3",
  "PulseSequenceDetails": "%CustomerSeq%_cmrr_mbep2d_bold",
  "ReceiveCoilActiveElements": "HC1-7;NC1,2",
  "ReceiveCoilName": "HeadNeck_64",
  "ReconMatrixPE": 104,
  "RepetitionTime": 1.49,
  "SAR": 0.0289749,
  "ScanOptions": "FS",
  "ScanningSequence": "EP",
  "SequenceName": "epfid2d1_104",
  "SequenceVariant": "SK_SS",
  "SeriesDescription": "func_task-things_run-3",
  "SeriesNumber": 16,
  "ShimSetting": [626, -7245, -8818, 614, 8, -189, -79, -36],
  "SliceThickness": 2,
  "SliceTiming": [0, 0.785, 0.0975, 0.8825, 0.195, 0.98, 0.295, 1.0775, 0.3925, 1.175, 0.49, 1.275, 0.5875, 1.3725, 0.685, 0, 0.785, 0.0975, 0.8825, 0.195, 0.98, 0.295, 1.0775, 0.3925, 1.175, 0.49, 1.275, 0.5875, 1.3725, 0.685, 0, 0.785, 0.0975, 0.8825, 0.195, 0.98, 0.295, 1.0775, 0.3925, 1.175, 0.49, 1.275, 0.5875, 1.3725, 0.685, 0, 0.785, 0.0975, 0.8825, 0.195, 0.98, 0.295, 1.0775, 0.3925, 1.175, 0.49, 1.275, 0.5875, 1.3725, 0.685],
  "SoftwareVersions": "syngo_MR_E11",
  "SpacingBetweenSlices": 2,
  "StationName": "MRC35049",
  "TaskName": "things",
  "TotalReadoutTime": 0.0576811,
  "TxRefAmp": 221.437,
  "WipMemBlock": "6329248f-6c65-4ef2-946a-9394346ddb9b||Sequence: R016 ve11c/master r/e634e98; Dec 19 2017 11:00:25 by eja",
  "dcmmeta_affine": [
    [-1.9973247051239014, 0.10327713936567307, -0.005270414520055056, 101.79496765136719],
    [0.09996190667152405, 1.9020806550979614, -0.6099973917007446, -72.29450225830078],
    [0.026487015187740326, 0.6094448566436768, 1.9046982526779175, -65.91278076171875],
    [0.0, 0.0, 0.0, 1.0]
],
  "dcmmeta_reorient_transform": [
    [0.0, -1.0, 0.0, 103.0],
    [1.0, 0.0, 0.0, 0.0],
    [0.0, 0.0, 1.0, 0.0],
    [0.0, 0.0, 0.0, 1.0]
],
  "dcmmeta_shape": [104, 104, 60, 190],
  "dcmmeta_slice_dim": 2,
  "dcmmeta_version": 0.6,
  "global": {
    "const": {
      "AcquisitionMatrix": [104, 0, 0, 104],
      "AngioFlag": "N",
      "BitsAllocated": 16,
      "BitsStored": 16,
      "BodyPartExamined": "BRAIN",
      "Columns": 832,
      "EchoNumbers": 1,
      "EchoTime": 37.0,
      "EchoTrainLength": 104,
      "FlipAngle": 52.0,
      "HighBit": 15,
      "ImageOrientationPatient": [0.99866236219653, -0.0499809546643, 0.01324350795235, 0.05163857099394, 0.9510403274505, -0.3047224204888],
      "ImagePositionPatient": [-877.05159144323, -779.59102797986, 209.05668936119],
      "ImageType": [
        "ORIGINAL",
        "PRIMARY",
        "M",
        "MB",
        "ND",
        "MOSAIC"
],
      "ImagedNucleus": "1H",
      "ImagingFrequency": 123.258874,
      "InPlanePhaseEncodingDirection": "COL",
      "MRAcquisitionType": "2D",
      "MagneticFieldStrength": 3.0,
      "Manufacturer": "SIEMENS",
      "ManufacturerModelName": "Prisma_fit",
      "Modality": "MR",
      "NumberOfAverages": 1.0,
      "NumberOfPhaseEncodingSteps": 104,
      "PercentPhaseFieldOfView": 100.0,
      "PercentSampling": 100.0,
      "PerformedProcedureStepStartTime": "151411.151000",
      "PhotometricInterpretation": "MONOCHROME2",
      "PixelBandwidth": 2290.0,
      "PixelRepresentation": 0,
      "PixelSpacing": [2.0, 2.0],
      "ProtocolName": "func_task-things_run-3",
      "RepetitionTime": 1490.0,
      "Rows": 832,
      "SAR": 0.02897489081305,
      "SamplesPerPixel": 1,
      "ScanOptions": "FS",
      "ScanningSequence": "EP",
      "SequenceName": "epfid2d1_104",
      "SequenceVariant": [
        "SK",
        "SS"
],
      "SeriesDescription": "func_task-things_run-3",
      "SeriesNumber": 16,
      "SeriesTime": "153806.467000",
      "SliceLocation": -40.9904983766,
      "SliceThickness": 2.0,
      "SmallestImagePixelValue": 0,
      "SoftwareVersions": "syngo MR E11",
      "SpacingBetweenSlices": 2.000000011166,
      "SpecificCharacterSet": "ISO_IR 100",
      "StudyID": "1",
      "StudyTime": "151411.081000",
      "TransmitCoilName": "Body",
      "VariableFlipAngleFlag": "N",
      "WindowCenterWidthExplanation": "Algo1",
      "dBdt": 0.0},
    "slices": {}
  },
  "time": {
    "samples": {
      "AcquisitionNumber": [1, 2, 3, 4, 5, 6, 7, 8, 9, 10, 11, 12, 13, 14, 15, 16, 17, 18, 19, 20, 21, 22, 23, 24, 25, 26, 27, 28, 29, 30, 31, 32, 33, 34, 35, 36, 37, 38, 39, 40, 41, 42, 43, 44, 45, 46, 47, 48, 49, 50, 51, 52, 53, 54, 55, 56, 57, 58, 59, 60, 61, 62, 63, 64, 65, 66, 67, 68, 69, 70, 71, 72, 73, 74, 75, 76, 77, 78, 79, 80, 81, 82, 83, 84, 85, 86, 87, 88, 89, 90, 91, 92, 93, 94, 95, 96, 97, 98, 99, 100, 101, 102, 103, 104, 105, 106, 107, 108, 109, 110, 111, 112, 113, 114, 115, 116, 117, 118, 119, 120, 121, 122, 123, 124, 125, 126, 127, 128, 129, 130, 131, 132, 133, 134, 135, 136, 137, 138, 139, 140, 141, 142, 143, 144, 145, 146, 147, 148, 149, 150, 151, 152, 153, 154, 155, 156, 157, 158, 159, 160, 161, 162, 163, 164, 165, 166, 167, 168, 169, 170, 171, 172, 173, 174, 175, 176, 177, 178, 179, 180, 181, 182, 183, 184, 185, 186, 187, 188, 189, 190],
      "AcquisitionTime": ["153658.765000", "153700.255000", "153701.745000", "153703.235000", "153704.725000", "153706.215000", "153707.705000", "153709.195000", "153710.685000", "153712.175000", "153713.665000", "153715.155000", "153716.645000", "153718.135000", "153719.625000", "153721.115000", "153722.605000", "153724.095000", "153725.585000", "153727.075000", "153728.565000", "153730.055000", "153731.545000", "153733.035000", "153734.525000", "153736.015000", "153737.505000", "153738.995000", "153740.485000", "153741.975000", "153743.465000", "153744.955000", "153746.445000", "153747.935000", "153749.425000", "153750.915000", "153752.405000", "153753.895000", "153755.385000", "153756.875000", "153758.365000", "153759.855000", "153801.345000", "153802.835000", "153804.325000", "153805.815000", "153807.305000", "153808.795000", "153810.285000", "153811.775000", "153813.265000", "153814.755000", "153816.245000", "153817.735000", "153819.225000", "153820.715000", "153822.205000", "153823.695000", "153825.185000", "153826.675000", "153828.165000", "153829.655000", "153831.145000", "153832.635000", "153834.125000", "153835.615000", "153837.105000", "153838.595000", "153840.085000", "153841.575000", "153843.065000", "153844.555000", "153846.045000", "153847.535000", "153849.025000", "153850.515000", "153852.005000", "153853.495000", "153854.985000", "153856.475000", "153857.965000", "153859.455000", "153900.945000", "153902.435000", "153903.925000", "153905.415000", "153906.905000", "153908.395000", "153909.885000", "153911.375000", "153912.865000", "153914.355000", "153915.845000", "153917.335000", "153918.825000", "153920.315000", "153921.805000", "153923.295000", "153924.785000", "153926.275000", "153927.765000", "153929.255000", "153930.745000", "153932.235000", "153933.725000", "153935.215000", "153936.705000", "153938.195000", "153939.685000", "153941.175000", "153942.665000", "153944.155000", "153945.645000", "153947.135000", "153948.625000", "153950.115000", "153951.605000", "153953.095000", "153954.585000", "153956.075000", "153957.565000", "153959.055000", "154000.545000", "154002.035000", "154003.525000", "154005.015000", "154006.505000", "154007.995000", "154009.485000", "154010.975000", "154012.465000", "154013.955000", "154015.445000", "154016.935000", "154018.425000", "154019.915000", "154021.405000", "154022.895000", "154024.385000", "154025.875000", "154027.365000", "154028.855000", "154030.345000", "154031.835000", "154033.325000", "154034.815000", "154036.305000", "154037.795000", "154039.285000", "154040.775000", "154042.265000", "154043.755000", "154045.245000", "154046.735000", "154048.225000", "154049.715000", "154051.205000", "154052.695000", "154054.185000", "154055.675000", "154057.165000", "154058.655000", "154100.145000", "154101.635000", "154103.125000", "154104.615000", "154106.105000", "154107.595000", "154109.085000", "154110.575000", "154112.065000", "154113.555000", "154115.045000", "154116.535000", "154118.025000", "154119.515000", "154121.005000", "154122.495000", "154123.985000", "154125.475000", "154126.965000", "154128.455000", "154129.945000", "154131.435000", "154132.925000", "154134.415000", "154135.905000", "154137.395000", "154138.885000", "154140.375000"],
      "ContentTime": ["153806.471000", "153806.475000", "153806.478000", "153806.489000", "153806.493000", "153806.496000", "153806.499000", "153806.503000", "153806.506000", "153806.509000", "153806.513000", "153806.516000", "153806.519000", "153826.431000", "153826.435000", "153826.438000", "153826.441000", "153826.445000", "153826.448000", "153826.452000", "153826.455000", "153826.458000", "153826.462000", "153826.465000", "153826.468000", "153826.471000", "153826.475000", "153826.478000", "153826.481000", "153826.485000", "153826.488000", "153826.499000", "153826.502000", "153846.432000", "153846.436000", "153846.439000", "153846.442000", "153846.446000", "153846.450000", "153846.454000", "153846.457000", "153846.460000", "153846.464000", "153846.467000", "153846.470000", "153846.475000", "153846.478000", "153846.482000", "153846.485000", "153846.489000", "153846.493000", "153846.497000", "153846.500000", "153906.432000", "153906.436000", "153906.440000", "153906.444000", "153906.447000", "153906.465000", "153906.468000", "153906.471000", "153906.475000", "153906.478000", "153906.482000", "153906.485000", "153906.488000", "153906.492000", "153906.495000", "153906.498000", "153906.502000", "153906.505000", "153906.508000", "153906.512000", "153926.432000", "153926.436000", "153926.439000", "153926.443000", "153926.446000", "153926.449000", "153926.453000", "153926.456000", "153926.459000", "153926.463000", "153926.466000", "153926.469000", "153926.473000", "153926.476000", "153926.479000", "153926.483000", "153926.486000", "153926.489000", "153926.493000", "153926.496000", "153926.499000", "154006.431000", "154006.435000", "154006.438000", "154006.442000", "154006.445000", "154006.449000", "154006.452000", "154006.455000", "154006.459000", "154006.462000", "154006.465000", "154006.469000", "154006.472000", "154006.476000", "154006.479000", "154006.483000", "154006.486000", "154006.490000", "154006.493000", "154006.497000", "154006.500000", "154006.504000", "154006.507000", "154006.510000", "154006.514000", "154006.517000", "154006.521000", "154006.524000", "154006.527000", "154006.531000", "154006.534000", "154046.431000", "154046.435000", "154046.438000", "154046.442000", "154046.445000", "154046.449000", "154046.452000", "154046.456000", "154046.459000", "154046.462000", "154046.466000", "154046.469000", "154046.472000", "154046.476000", "154046.479000", "154046.483000", "154046.486000", "154046.490000", "154046.493000", "154046.496000", "154046.500000", "154046.503000", "154046.506000", "154046.510000", "154046.513000", "154046.516000", "154046.520000", "154126.432000", "154126.436000", "154126.439000", "154126.454000", "154126.457000", "154126.460000", "154126.464000", "154126.467000", "154126.470000", "154126.474000", "154126.477000", "154126.481000", "154126.484000", "154126.487000", "154126.491000", "154126.494000", "154126.497000", "154126.501000", "154126.504000", "154126.508000", "154126.511000", "154126.514000", "154126.518000", "154126.521000", "154126.524000", "154126.528000", "154126.531000", "154142.476000", "154142.480000", "154142.484000", "154142.487000", "154142.491000", "154142.494000", "154142.498000", "154142.502000", "154142.505000", "154142.509000", "154142.512000"],
      "InstanceCreationTime": ["153806.471000", "153806.475000", "153806.478000", "153806.489000", "153806.493000", "153806.496000", "153806.499000", "153806.503000", "153806.506000", "153806.509000", "153806.513000", "153806.516000", "153806.519000", "153826.431000", "153826.435000", "153826.438000", "153826.441000", "153826.445000", "153826.448000", "153826.452000", "153826.455000", "153826.458000", "153826.462000", "153826.465000", "153826.468000", "153826.471000", "153826.475000", "153826.478000", "153826.481000", "153826.485000", "153826.488000", "153826.499000", "153826.502000", "153846.432000", "153846.436000", "153846.439000", "153846.442000", "153846.446000", "153846.450000", "153846.454000", "153846.457000", "153846.460000", "153846.464000", "153846.467000", "153846.470000", "153846.475000", "153846.478000", "153846.482000", "153846.485000", "153846.489000", "153846.493000", "153846.497000", "153846.500000", "153906.432000", "153906.436000", "153906.440000", "153906.444000", "153906.447000", "153906.465000", "153906.468000", "153906.471000", "153906.475000", "153906.478000", "153906.482000", "153906.485000", "153906.488000", "153906.492000", "153906.495000", "153906.498000", "153906.502000", "153906.505000", "153906.508000", "153906.512000", "153926.432000", "153926.436000", "153926.439000", "153926.443000", "153926.446000", "153926.449000", "153926.453000", "153926.456000", "153926.459000", "153926.463000", "153926.466000", "153926.469000", "153926.473000", "153926.476000", "153926.479000", "153926.483000", "153926.486000", "153926.489000", "153926.493000", "153926.496000", "153926.499000", "154006.431000", "154006.435000", "154006.438000", "154006.442000", "154006.445000", "154006.449000", "154006.452000", "154006.455000", "154006.459000", "154006.462000", "154006.465000", "154006.469000", "154006.472000", "154006.476000", "154006.479000", "154006.483000", "154006.486000", "154006.490000", "154006.493000", "154006.497000", "154006.500000", "154006.504000", "154006.507000", "154006.510000", "154006.514000", "154006.517000", "154006.521000", "154006.524000", "154006.527000", "154006.531000", "154006.534000", "154046.431000", "154046.435000", "154046.438000", "154046.442000", "154046.445000", "154046.449000", "154046.452000", "154046.456000", "154046.459000", "154046.462000", "154046.466000", "154046.469000", "154046.472000", "154046.476000", "154046.479000", "154046.483000", "154046.486000", "154046.490000", "154046.493000", "154046.496000", "154046.500000", "154046.503000", "154046.506000", "154046.510000", "154046.513000", "154046.516000", "154046.520000", "154126.432000", "154126.436000", "154126.439000", "154126.454000", "154126.457000", "154126.460000", "154126.464000", "154126.467000", "154126.470000", "154126.474000", "154126.477000", "154126.481000", "154126.484000", "154126.487000", "154126.491000", "154126.494000", "154126.497000", "154126.501000", "154126.504000", "154126.508000", "154126.511000", "154126.514000", "154126.518000", "154126.521000", "154126.524000", "154126.528000", "154126.531000", "154142.476000", "154142.480000", "154142.484000", "154142.487000", "154142.491000", "154142.494000", "154142.498000", "154142.502000", "154142.505000", "154142.509000", "154142.512000"],
      "InstanceNumber": [1, 2, 3, 4, 5, 6, 7, 8, 9, 10, 11, 12, 13, 14, 15, 16, 17, 18, 19, 20, 21, 22, 23, 24, 25, 26, 27, 28, 29, 30, 31, 32, 33, 34, 35, 36, 37, 38, 39, 40, 41, 42, 43, 44, 45, 46, 47, 48, 49, 50, 51, 52, 53, 54, 55, 56, 57, 58, 59, 60, 61, 62, 63, 64, 65, 66, 67, 68, 69, 70, 71, 72, 73, 74, 75, 76, 77, 78, 79, 80, 81, 82, 83, 84, 85, 86, 87, 88, 89, 90, 91, 92, 93, 94, 95, 96, 97, 98, 99, 100, 101, 102, 103, 104, 105, 106, 107, 108, 109, 110, 111, 112, 113, 114, 115, 116, 117, 118, 119, 120, 121, 122, 123, 124, 125, 126, 127, 128, 129, 130, 131, 132, 133, 134, 135, 136, 137, 138, 139, 140, 141, 142, 143, 144, 145, 146, 147, 148, 149, 150, 151, 152, 153, 154, 155, 156, 157, 158, 159, 160, 161, 162, 163, 164, 165, 166, 167, 168, 169, 170, 171, 172, 173, 174, 175, 176, 177, 178, 179, 180, 181, 182, 183, 184, 185, 186, 187, 188, 189, 190],
      "LargestImagePixelValue": [41936, 40682, 40074, 39675, 39228, 39761, 39601, 39381, 39269, 39964, 39738, 39089, 39592, 39662, 39967, 40150, 39904, 40084, 39215, 39684, 39747, 39157, 39667, 39640, 39960, 40112, 39823, 39691, 40055, 39712, 39679, 39935, 40289, 39636, 38958, 39587, 39802, 39334, 39597, 39599, 39792, 39654, 39507, 39715, 40099, 39822, 39864, 39707, 40065, 39732, 39401, 39824, 39793, 40181, 40279, 39785, 39991, 40314, 40047, 40509, 40011, 40022, 40162, 39668, 40020, 40209, 39948, 39702, 39898, 40029, 39899, 40063, 40007, 40298, 39809, 40351, 40142, 39967, 40013, 40145, 39922, 39980, 39972, 39848, 39979, 39982, 39978, 39797, 39912, 40148, 39792, 40081, 39652, 40039, 39611, 40084, 39936, 39327, 39383, 39226, 39732, 39118, 39477, 39970, 39444, 39835, 40099, 39697, 40298, 39636, 39928, 39749, 40193, 39561, 39911, 40273, 39508, 39532, 39511, 39499, 39957, 39769, 39898, 39900, 39721, 40103, 39601, 40243, 40066, 39970, 40080, 39963, 39797, 39934, 40175, 39434, 39718, 39747, 39970, 39899, 40083, 40351, 40205, 40417, 39820, 40124, 40119, 39607, 39601, 39944, 39833, 40298, 39271, 39681, 39689, 40109, 39899, 39943, 40235, 39487, 39659, 40291, 39664, 40272, 40030, 39953, 40464, 40046, 39862, 39783, 40173, 39626, 40147, 39859, 39898, 40009, 39989, 39998, 40141, 39883, 40127, 39635, 39063, 38867, 38765, 39227, 39592, 39175, 39790, 39529],
      "WindowCenter": [10287.0, 10218.0, 10194.0, 10193.0, 10219.0, 10236.0, 10204.0, 10179.0, 10159.0, 10157.0, 10141.0, 10129.0, 10125.0, 10117.0, 10122.0, 10130.0, 10131.0, 10132.0, 10133.0, 10138.0, 10141.0, 10135.0, 10140.0, 10156.0, 10179.0, 10195.0, 10206.0, 10208.0, 10170.0, 10148.0, 10130.0, 10136.0, 10136.0, 10115.0, 10099.0, 10112.0, 10129.0, 10140.0, 10140.0, 10139.0, 10139.0, 10139.0, 10148.0, 10146.0, 10154.0, 10141.0, 10160.0, 10168.0, 10170.0, 10156.0, 10156.0, 10142.0, 10116.0, 10111.0, 10117.0, 10131.0, 10131.0, 10136.0, 10131.0, 10137.0, 10134.0, 10139.0, 10167.0, 10159.0, 10142.0, 10131.0, 10115.0, 10114.0, 10122.0, 10116.0, 10115.0, 10114.0, 10113.0, 10120.0, 10124.0, 10152.0, 10149.0, 10148.0, 10141.0, 10139.0, 10139.0, 10140.0, 10147.0, 10143.0, 10140.0, 10148.0, 10148.0, 10143.0, 10148.0, 10149.0, 10142.0, 10141.0, 10150.0, 10149.0, 10143.0, 10142.0, 10134.0, 10135.0, 10143.0, 10130.0, 10126.0, 10114.0, 10126.0, 10133.0, 10128.0, 10126.0, 10129.0, 10126.0, 10131.0, 10133.0, 10124.0, 10126.0, 10129.0, 10119.0, 10122.0, 10131.0, 10135.0, 10142.0, 10129.0, 10128.0, 10127.0, 10130.0, 10137.0, 10135.0, 10120.0, 10125.0, 10129.0, 10140.0, 10142.0, 10167.0, 10165.0, 10130.0, 10127.0, 10143.0, 10143.0, 10104.0, 10075.0, 10065.0, 10064.0, 10079.0, 10087.0, 10102.0, 10102.0, 10115.0, 10123.0, 10129.0, 10129.0, 10136.0, 10149.0, 10173.0, 10163.0, 10149.0, 10131.0, 10127.0, 10125.0, 10123.0, 10115.0, 10114.0, 10132.0, 10121.0, 10119.0, 10123.0, 10124.0, 10122.0, 10117.0, 10116.0, 10126.0, 10137.0, 10134.0, 10124.0, 10122.0, 10107.0, 10107.0, 10114.0, 10116.0, 10125.0, 10125.0, 10116.0, 10115.0, 10136.0, 10140.0, 10143.0, 10136.0, 10123.0, 10116.0, 10128.0, 10140.0, 10138.0, 10135.0, 10134.0],
      "WindowWidth": [22244.0, 22048.0, 21970.0, 21956.0, 22006.0, 22043.0, 21967.0, 21906.0, 21857.0, 21850.0, 21815.0, 21793.0, 21780.0, 21765.0, 21772.0, 21794.0, 21798.0, 21798.0, 21803.0, 21812.0, 21818.0, 21808.0, 21819.0, 21850.0, 21901.0, 21935.0, 21964.0, 21971.0, 21891.0, 21833.0, 21792.0, 21802.0, 21802.0, 21759.0, 21723.0, 21750.0, 21790.0, 21816.0, 21818.0, 21817.0, 21814.0, 21811.0, 21834.0, 21828.0, 21846.0, 21821.0, 21859.0, 21880.0, 21883.0, 21850.0, 21851.0, 21822.0, 21764.0, 21752.0, 21765.0, 21796.0, 21797.0, 21804.0, 21795.0, 21806.0, 21803.0, 21817.0, 21873.0, 21862.0, 21822.0, 21794.0, 21759.0, 21754.0, 21774.0, 21762.0, 21758.0, 21756.0, 21755.0, 21773.0, 21783.0, 21842.0, 21837.0, 21833.0, 21817.0, 21814.0, 21813.0, 21815.0, 21830.0, 21824.0, 21817.0, 21834.0, 21835.0, 21827.0, 21834.0, 21837.0, 21821.0, 21818.0, 21838.0, 21834.0, 21824.0, 21819.0, 21804.0, 21808.0, 21827.0, 21799.0, 21786.0, 21762.0, 21788.0, 21802.0, 21791.0, 21783.0, 21789.0, 21786.0, 21794.0, 21802.0, 21781.0, 21787.0, 21789.0, 21771.0, 21774.0, 21793.0, 21808.0, 21820.0, 21795.0, 21793.0, 21788.0, 21799.0, 21811.0, 21807.0, 21772.0, 21782.0, 21792.0, 21816.0, 21823.0, 21877.0, 21880.0, 21800.0, 21790.0, 21821.0, 21821.0, 21742.0, 21671.0, 21647.0, 21646.0, 21681.0, 21700.0, 21732.0, 21733.0, 21758.0, 21782.0, 21791.0, 21789.0, 21804.0, 21834.0, 21887.0, 21875.0, 21841.0, 21800.0, 21790.0, 21785.0, 21778.0, 21763.0, 21760.0, 21798.0, 21779.0, 21771.0, 21777.0, 21780.0, 21774.0, 21767.0, 21763.0, 21782.0, 21808.0, 21803.0, 21778.0, 21773.0, 21742.0, 21743.0, 21758.0, 21765.0, 21783.0, 21783.0, 21764.0, 21760.0, 21806.0, 21817.0, 21825.0, 21808.0, 21784.0, 21771.0, 21793.0, 21818.0, 21816.0, 21810.0, 21807.0]
    },
    "slices": {}
  }
}