{
  "AcquisitionMatrixPE": 104,
  "AcquisitionNumber": 1,
  "AcquisitionTime": "15:43:31.975000",
  "BandwidthPerPixelPhaseEncode": 17.17,
  "BaseResolution": 104,
  "BodyPartExamined": "BRAIN",
  "CoilString": "HC1-7;NC1_2",
  "ConsistencyInfo": "N4_VE11C_LATEST_20160120",
  "ConversionSoftware": "dcm2niix",
  "ConversionSoftwareVersion": "v1.0.20190902",
  "DerivedVendorReportedEchoSpacing": 0.000560011,
  "DeviceSerialNumber": "167006",
  "DwellTime": 2.1e-06,
  "EchoTime": 0.037,
  "EchoTrainLength": 104,
  "EffectiveEchoSpacing": 0.000560011,
  "FlipAngle": 52,
  "HeudiconvVersion": "0.10.0",
  "ImageComments": "Unaliased_MB4_PE3_LB",
  "ImageOrientationPatientDICOM": [0.998662, -0.049981, 0.0132435, 0.0516386, 0.95104, -0.304722],
  "ImageType": [
    "ORIGINAL",
    "PRIMARY",
    "M",
    "MB",
    "ND",
    "MOSAIC"
],
  "ImagingFrequency": 123.259,
  "InPlanePhaseEncodingDirectionDICOM": "COL",
  "InstitutionAddress": "Chemin_Queen-Mary_4565_Montreal_District_CA_H3W_1W5",
  "InstitutionName": "IUGM",
  "InstitutionalDepartmentName": "Department",
  "MRAcquisitionType": "2D",
  "MagneticFieldStrength": 3,
  "Manufacturer": "Siemens",
  "ManufacturersModelName": "Prisma_fit",
  "Modality": "MR",
  "MultibandAccelerationFactor": 4,
  "PartialFourier": 1,
  "PatientPosition": "HFS",
  "PercentPhaseFOV": 100,
  "PhaseEncodingDirection": "j",
  "PhaseEncodingSteps": 104,
  "PhaseResolution": 1,
  "PixelBandwidth": 2290,
  "ProcedureStepDescription": "memory_things",
  "ProtocolName": "func_task-things_run-4",
  "PulseSequenceDetails": "%CustomerSeq%_cmrr_mbep2d_bold",
  "ReceiveCoilActiveElements": "HC1-7;NC1,2",
  "ReceiveCoilName": "HeadNeck_64",
  "ReconMatrixPE": 104,
  "RepetitionTime": 1.49,
  "SAR": 0.0289749,
  "ScanOptions": "FS",
  "ScanningSequence": "EP",
  "SequenceName": "epfid2d1_104",
  "SequenceVariant": "SK_SS",
  "SeriesDescription": "func_task-things_run-4",
  "SeriesNumber": 19,
  "ShimSetting": [626, -7245, -8818, 614, 8, -189, -79, -36],
  "SliceThickness": 2,
  "SliceTiming": [0, 0.7825, 0.0975, 0.88, 0.195, 0.98, 0.2925, 1.0775, 0.39, 1.175, 0.49, 1.2725, 0.5875, 1.37, 0.685, 0, 0.7825, 0.0975, 0.88, 0.195, 0.98, 0.2925, 1.0775, 0.39, 1.175, 0.49, 1.2725, 0.5875, 1.37, 0.685, 0, 0.7825, 0.0975, 0.88, 0.195, 0.98, 0.2925, 1.0775, 0.39, 1.175, 0.49, 1.2725, 0.5875, 1.37, 0.685, 0, 0.7825, 0.0975, 0.88, 0.195, 0.98, 0.2925, 1.0775, 0.39, 1.175, 0.49, 1.2725, 0.5875, 1.37, 0.685],
  "SoftwareVersions": "syngo_MR_E11",
  "SpacingBetweenSlices": 2,
  "StationName": "MRC35049",
  "TaskName": "things",
  "TotalReadoutTime": 0.0576811,
  "TxRefAmp": 221.437,
  "WipMemBlock": "5d21856e-c28f-49bc-a5dc-a0282ca9fd4a||Sequence: R016 ve11c/master r/e634e98; Dec 19 2017 11:00:25 by eja",
  "dcmmeta_affine": [
    [-1.9973247051239014, 0.10327713936567307, -0.005270414520055056, 101.79496765136719],
    [0.09996190667152405, 1.9020806550979614, -0.6099973917007446, -72.29450225830078],
    [0.026487015187740326, 0.6094448566436768, 1.9046982526779175, -65.91278076171875],
    [0.0, 0.0, 0.0, 1.0]
],
  "dcmmeta_reorient_transform": [
    [0.0, -1.0, 0.0, 103.0],
    [1.0, 0.0, 0.0, 0.0],
    [0.0, 0.0, 1.0, 0.0],
    [0.0, 0.0, 0.0, 1.0]
],
  "dcmmeta_shape": [104, 104, 60, 190],
  "dcmmeta_slice_dim": 2,
  "dcmmeta_version": 0.6,
  "global": {
    "const": {
      "AcquisitionMatrix": [104, 0, 0, 104],
      "AngioFlag": "N",
      "BitsAllocated": 16,
      "BitsStored": 16,
      "BodyPartExamined": "BRAIN",
      "Columns": 832,
      "EchoNumbers": 1,
      "EchoTime": 37.0,
      "EchoTrainLength": 104,
      "FlipAngle": 52.0,
      "HighBit": 15,
      "ImageOrientationPatient": [0.99866236219653, -0.0499809546643, 0.01324350795235, 0.05163857099394, 0.9510403274505, -0.3047224204888],
      "ImagePositionPatient": [-877.05159144323, -779.59102797986, 209.05668936119],
      "ImageType": [
        "ORIGINAL",
        "PRIMARY",
        "M",
        "MB",
        "ND",
        "MOSAIC"
],
      "ImagedNucleus": "1H",
      "ImagingFrequency": 123.258877,
      "InPlanePhaseEncodingDirection": "COL",
      "MRAcquisitionType": "2D",
      "MagneticFieldStrength": 3.0,
      "Manufacturer": "SIEMENS",
      "ManufacturerModelName": "Prisma_fit",
      "Modality": "MR",
      "NumberOfAverages": 1.0,
      "NumberOfPhaseEncodingSteps": 104,
      "PercentPhaseFieldOfView": 100.0,
      "PercentSampling": 100.0,
      "PerformedProcedureStepStartTime": "151411.151000",
      "PhotometricInterpretation": "MONOCHROME2",
      "PixelBandwidth": 2290.0,
      "PixelRepresentation": 0,
      "PixelSpacing": [2.0, 2.0],
      "ProtocolName": "func_task-things_run-4",
      "RepetitionTime": 1490.0,
      "Rows": 832,
      "SAR": 0.02897489081305,
      "SamplesPerPixel": 1,
      "ScanOptions": "FS",
      "ScanningSequence": "EP",
      "SequenceName": "epfid2d1_104",
      "SequenceVariant": [
        "SK",
        "SS"
],
      "SeriesDescription": "func_task-things_run-4",
      "SeriesNumber": 19,
      "SeriesTime": "154455.702000",
      "SliceLocation": -40.9904983766,
      "SliceThickness": 2.0,
      "SmallestImagePixelValue": 0,
      "SoftwareVersions": "syngo MR E11",
      "SpacingBetweenSlices": 2.000000011166,
      "SpecificCharacterSet": "ISO_IR 100",
      "StudyID": "1",
      "StudyTime": "151411.081000",
      "TransmitCoilName": "Body",
      "VariableFlipAngleFlag": "N",
      "WindowCenterWidthExplanation": "Algo1",
      "dBdt": 0.0},
    "slices": {}
  },
  "time": {
    "samples": {
      "AcquisitionNumber": [1, 2, 3, 4, 5, 6, 7, 8, 9, 10, 11, 12, 13, 14, 15, 16, 17, 18, 19, 20, 21, 22, 23, 24, 25, 26, 27, 28, 29, 30, 31, 32, 33, 34, 35, 36, 37, 38, 39, 40, 41, 42, 43, 44, 45, 46, 47, 48, 49, 50, 51, 52, 53, 54, 55, 56, 57, 58, 59, 60, 61, 62, 63, 64, 65, 66, 67, 68, 69, 70, 71, 72, 73, 74, 75, 76, 77, 78, 79, 80, 81, 82, 83, 84, 85, 86, 87, 88, 89, 90, 91, 92, 93, 94, 95, 96, 97, 98, 99, 100, 101, 102, 103, 104, 105, 106, 107, 108, 109, 110, 111, 112, 113, 114, 115, 116, 117, 118, 119, 120, 121, 122, 123, 124, 125, 126, 127, 128, 129, 130, 131, 132, 133, 134, 135, 136, 137, 138, 139, 140, 141, 142, 143, 144, 145, 146, 147, 148, 149, 150, 151, 152, 153, 154, 155, 156, 157, 158, 159, 160, 161, 162, 163, 164, 165, 166, 167, 168, 169, 170, 171, 172, 173, 174, 175, 176, 177, 178, 179, 180, 181, 182, 183, 184, 185, 186, 187, 188, 189, 190],
      "AcquisitionTime": ["154331.975000", "154333.465000", "154334.955000", "154336.445000", "154337.935000", "154339.425000", "154340.915000", "154342.405000", "154343.895000", "154345.385000", "154346.875000", "154348.365000", "154349.855000", "154351.345000", "154352.835000", "154354.325000", "154355.815000", "154357.305000", "154358.795000", "154400.285000", "154401.775000", "154403.265000", "154404.755000", "154406.245000", "154407.735000", "154409.225000", "154410.715000", "154412.205000", "154413.695000", "154415.185000", "154416.675000", "154418.165000", "154419.655000", "154421.145000", "154422.635000", "154424.125000", "154425.615000", "154427.105000", "154428.595000", "154430.085000", "154431.575000", "154433.065000", "154434.555000", "154436.045000", "154437.535000", "154439.025000", "154440.515000", "154442.005000", "154443.495000", "154444.985000", "154446.475000", "154447.965000", "154449.455000", "154450.945000", "154452.435000", "154453.925000", "154455.415000", "154456.905000", "154458.395000", "154459.885000", "154501.375000", "154502.865000", "154504.355000", "154505.845000", "154507.335000", "154508.825000", "154510.315000", "154511.805000", "154513.295000", "154514.785000", "154516.275000", "154517.765000", "154519.255000", "154520.745000", "154522.235000", "154523.725000", "154525.215000", "154526.705000", "154528.195000", "154529.685000", "154531.175000", "154532.665000", "154534.155000", "154535.645000", "154537.135000", "154538.625000", "154540.115000", "154541.605000", "154543.095000", "154544.585000", "154546.075000", "154547.565000", "154549.055000", "154550.545000", "154552.035000", "154553.525000", "154555.015000", "154556.505000", "154557.995000", "154559.485000", "154600.975000", "154602.465000", "154603.955000", "154605.445000", "154606.935000", "154608.425000", "154609.915000", "154611.405000", "154612.895000", "154614.385000", "154615.875000", "154617.365000", "154618.855000", "154620.345000", "154621.835000", "154623.325000", "154624.815000", "154626.305000", "154627.795000", "154629.285000", "154630.775000", "154632.265000", "154633.755000", "154635.245000", "154636.735000", "154638.225000", "154639.715000", "154641.205000", "154642.695000", "154644.185000", "154645.675000", "154647.165000", "154648.655000", "154650.145000", "154651.635000", "154653.125000", "154654.615000", "154656.105000", "154657.595000", "154659.085000", "154700.575000", "154702.065000", "154703.555000", "154705.045000", "154706.535000", "154708.025000", "154709.515000", "154711.005000", "154712.495000", "154713.985000", "154715.475000", "154716.965000", "154718.455000", "154719.945000", "154721.435000", "154722.925000", "154724.415000", "154725.905000", "154727.395000", "154728.885000", "154730.375000", "154731.865000", "154733.355000", "154734.845000", "154736.335000", "154737.825000", "154739.315000", "154740.805000", "154742.295000", "154743.785000", "154745.275000", "154746.765000", "154748.255000", "154749.745000", "154751.235000", "154752.725000", "154754.215000", "154755.705000", "154757.195000", "154758.685000", "154800.175000", "154801.665000", "154803.155000", "154804.645000", "154806.135000", "154807.625000", "154809.115000", "154810.605000", "154812.095000", "154813.585000"],
      "ContentTime": ["154455.705000", "154455.709000", "154455.713000", "154455.716000", "154455.720000", "154455.723000", "154455.726000", "154455.730000", "154455.733000", "154455.736000", "154455.740000", "154455.743000", "154455.747000", "154455.750000", "154455.753000", "154455.757000", "154455.760000", "154455.767000", "154455.770000", "154455.773000", "154455.777000", "154455.780000", "154455.783000", "154455.787000", "154455.790000", "154455.794000", "154455.797000", "154455.800000", "154455.804000", "154455.807000", "154455.811000", "154515.671000", "154515.675000", "154515.678000", "154515.682000", "154515.685000", "154515.688000", "154515.692000", "154515.695000", "154515.699000", "154515.702000", "154515.705000", "154515.709000", "154515.712000", "154515.716000", "154515.719000", "154515.722000", "154515.726000", "154515.729000", "154515.732000", "154515.736000", "154535.671000", "154535.675000", "154535.678000", "154535.682000", "154535.685000", "154535.688000", "154535.696000", "154535.710000", "154535.714000", "154535.717000", "154535.720000", "154535.731000", "154535.734000", "154535.737000", "154535.741000", "154535.744000", "154535.748000", "154535.751000", "154535.754000", "154535.758000", "154555.671000", "154555.675000", "154555.678000", "154555.682000", "154555.685000", "154555.688000", "154555.692000", "154555.695000", "154555.699000", "154555.702000", "154555.705000", "154555.709000", "154555.712000", "154555.715000", "154555.719000", "154555.722000", "154555.726000", "154555.729000", "154555.732000", "154555.736000", "154635.671000", "154635.675000", "154635.679000", "154635.682000", "154635.686000", "154635.689000", "154635.693000", "154635.696000", "154635.700000", "154635.703000", "154635.706000", "154635.710000", "154635.713000", "154635.717000", "154635.720000", "154635.723000", "154635.727000", "154635.730000", "154635.733000", "154635.737000", "154635.740000", "154635.744000", "154635.747000", "154635.751000", "154635.754000", "154635.757000", "154635.761000", "154635.764000", "154635.767000", "154635.771000", "154635.774000", "154635.778000", "154655.671000", "154655.675000", "154655.678000", "154655.682000", "154655.685000", "154655.689000", "154655.692000", "154655.695000", "154655.699000", "154655.702000", "154655.706000", "154655.709000", "154655.712000", "154735.671000", "154735.675000", "154735.678000", "154735.682000", "154735.685000", "154735.688000", "154735.692000", "154735.695000", "154735.699000", "154735.702000", "154735.705000", "154735.708000", "154735.712000", "154735.715000", "154735.719000", "154735.722000", "154735.725000", "154735.728000", "154735.732000", "154735.735000", "154735.739000", "154735.751000", "154735.755000", "154735.758000", "154735.761000", "154735.765000", "154735.768000", "154815.540000", "154815.544000", "154815.547000", "154815.550000", "154815.554000", "154815.557000", "154815.561000", "154815.564000", "154815.568000", "154815.571000", "154815.575000", "154815.578000", "154815.582000", "154815.585000", "154815.589000", "154815.592000", "154815.595000", "154815.599000", "154815.602000", "154815.605000", "154815.609000", "154815.612000", "154815.616000", "154815.619000", "154815.622000", "154815.626000", "154815.629000"],
      "InstanceCreationTime": ["154455.705000", "154455.709000", "154455.713000", "154455.716000", "154455.720000", "154455.723000", "154455.726000", "154455.730000", "154455.733000", "154455.736000", "154455.740000", "154455.743000", "154455.747000", "154455.750000", "154455.753000", "154455.757000", "154455.760000", "154455.767000", "154455.770000", "154455.773000", "154455.777000", "154455.780000", "154455.783000", "154455.787000", "154455.790000", "154455.794000", "154455.797000", "154455.800000", "154455.804000", "154455.807000", "154455.811000", "154515.671000", "154515.675000", "154515.678000", "154515.682000", "154515.685000", "154515.688000", "154515.692000", "154515.695000", "154515.699000", "154515.702000", "154515.705000", "154515.709000", "154515.712000", "154515.716000", "154515.719000", "154515.722000", "154515.726000", "154515.729000", "154515.732000", "154515.736000", "154535.671000", "154535.675000", "154535.678000", "154535.682000", "154535.685000", "154535.688000", "154535.696000", "154535.710000", "154535.714000", "154535.717000", "154535.720000", "154535.731000", "154535.734000", "154535.737000", "154535.741000", "154535.744000", "154535.748000", "154535.751000", "154535.754000", "154535.758000", "154555.671000", "154555.675000", "154555.678000", "154555.682000", "154555.685000", "154555.688000", "154555.692000", "154555.695000", "154555.699000", "154555.702000", "154555.705000", "154555.709000", "154555.712000", "154555.715000", "154555.719000", "154555.722000", "154555.726000", "154555.729000", "154555.732000", "154555.736000", "154635.671000", "154635.675000", "154635.679000", "154635.682000", "154635.686000", "154635.689000", "154635.693000", "154635.696000", "154635.700000", "154635.703000", "154635.706000", "154635.710000", "154635.713000", "154635.717000", "154635.720000", "154635.723000", "154635.727000", "154635.730000", "154635.733000", "154635.737000", "154635.740000", "154635.744000", "154635.747000", "154635.751000", "154635.754000", "154635.757000", "154635.761000", "154635.764000", "154635.767000", "154635.771000", "154635.774000", "154635.778000", "154655.671000", "154655.675000", "154655.678000", "154655.682000", "154655.685000", "154655.689000", "154655.692000", "154655.695000", "154655.699000", "154655.702000", "154655.706000", "154655.709000", "154655.712000", "154735.671000", "154735.675000", "154735.678000", "154735.682000", "154735.685000", "154735.688000", "154735.692000", "154735.695000", "154735.699000", "154735.702000", "154735.705000", "154735.708000", "154735.712000", "154735.715000", "154735.719000", "154735.722000", "154735.725000", "154735.728000", "154735.732000", "154735.735000", "154735.739000", "154735.751000", "154735.755000", "154735.758000", "154735.761000", "154735.765000", "154735.768000", "154815.540000", "154815.544000", "154815.547000", "154815.550000", "154815.554000", "154815.557000", "154815.561000", "154815.564000", "154815.568000", "154815.571000", "154815.575000", "154815.578000", "154815.582000", "154815.585000", "154815.589000", "154815.592000", "154815.595000", "154815.599000", "154815.602000", "154815.605000", "154815.609000", "154815.612000", "154815.616000", "154815.619000", "154815.622000", "154815.626000", "154815.629000"],
      "InstanceNumber": [1, 2, 3, 4, 5, 6, 7, 8, 9, 10, 11, 12, 13, 14, 15, 16, 17, 18, 19, 20, 21, 22, 23, 24, 25, 26, 27, 28, 29, 30, 31, 32, 33, 34, 35, 36, 37, 38, 39, 40, 41, 42, 43, 44, 45, 46, 47, 48, 49, 50, 51, 52, 53, 54, 55, 56, 57, 58, 59, 60, 61, 62, 63, 64, 65, 66, 67, 68, 69, 70, 71, 72, 73, 74, 75, 76, 77, 78, 79, 80, 81, 82, 83, 84, 85, 86, 87, 88, 89, 90, 91, 92, 93, 94, 95, 96, 97, 98, 99, 100, 101, 102, 103, 104, 105, 106, 107, 108, 109, 110, 111, 112, 113, 114, 115, 116, 117, 118, 119, 120, 121, 122, 123, 124, 125, 126, 127, 128, 129, 130, 131, 132, 133, 134, 135, 136, 137, 138, 139, 140, 141, 142, 143, 144, 145, 146, 147, 148, 149, 150, 151, 152, 153, 154, 155, 156, 157, 158, 159, 160, 161, 162, 163, 164, 165, 166, 167, 168, 169, 170, 171, 172, 173, 174, 175, 176, 177, 178, 179, 180, 181, 182, 183, 184, 185, 186, 187, 188, 189, 190],
      "LargestImagePixelValue": [43356, 42182, 41391, 40605, 40838, 40988, 41132, 41110, 41115, 41016, 40337, 40813, 40410, 40479, 40281, 40283, 40102, 40373, 40846, 40620, 40590, 40634, 40716, 40491, 40361, 40550, 40767, 40565, 40608, 40555, 40736, 40545, 40178, 40449, 40455, 40439, 40463, 40272, 40609, 40243, 40246, 40313, 40410, 40563, 39969, 40236, 40198, 40410, 40192, 40231, 40294, 40295, 40470, 40057, 39939, 40515, 40343, 40019, 40055, 40039, 40371, 39873, 39919, 39732, 39943, 39768, 40038, 39913, 39932, 40217, 40227, 39562, 40529, 39797, 40155, 40208, 40530, 40555, 40376, 40626, 40483, 40360, 40170, 40303, 40231, 40507, 40848, 40847, 40467, 40719, 40469, 40699, 40171, 39999, 40580, 40103, 40478, 40562, 40713, 40100, 40765, 40288, 40416, 40374, 40469, 40757, 40416, 40241, 40082, 40037, 40560, 40312, 40457, 40599, 38073, 40057, 40526, 39946, 40119, 40342, 40569, 40568, 40017, 40399, 39891, 40068, 40207, 40580, 40965, 39729, 39705, 40503, 40615, 40623, 40044, 40551, 40310, 39917, 39721, 40579, 40289, 40141, 40530, 40343, 40036, 40304, 40139, 40015, 39356, 39867, 39988, 40589, 40297, 40472, 39238, 39580, 39701, 39946, 40128, 39809, 39970, 40425, 40514, 40251, 40092, 39982, 39882, 39639, 39939, 40173, 40063, 40149, 40442, 39615, 39915, 39962, 39852, 40194, 39501, 40053, 39961, 38492, 40516, 40191, 39947, 39783, 39301, 39445, 39497, 39619],
      "WindowCenter": [10268.0, 10209.0, 10180.0, 10155.0, 10141.0, 10137.0, 10146.0, 10160.0, 10184.0, 10173.0, 10158.0, 10158.0, 10154.0, 10137.0, 10129.0, 10129.0, 10125.0, 10129.0, 10113.0, 10102.0, 10110.0, 10118.0, 10120.0, 10121.0, 10114.0, 10125.0, 10140.0, 10151.0, 10130.0, 10121.0, 10110.0, 10118.0, 10121.0, 10123.0, 10114.0, 10113.0, 10112.0, 10119.0, 10126.0, 10129.0, 10138.0, 10150.0, 10144.0, 10147.0, 10143.0, 10141.0, 10125.0, 10122.0, 10121.0, 10130.0, 10131.0, 10121.0, 10107.0, 10097.0, 10099.0, 10110.0, 10105.0, 10098.0, 10105.0, 10106.0, 10111.0, 10104.0, 10103.0, 10098.0, 10113.0, 10098.0, 10097.0, 10081.0, 10081.0, 10090.0, 10093.0, 10080.0, 10099.0, 10098.0, 10112.0, 10111.0, 10102.0, 10094.0, 10093.0, 10100.0, 10118.0, 10111.0, 10104.0, 10094.0, 10095.0, 10107.0, 10114.0, 10123.0, 10124.0, 10127.0, 10111.0, 10110.0, 10103.0, 10102.0, 10115.0, 10113.0, 10113.0, 10101.0, 10090.0, 10077.0, 10089.0, 10092.0, 10094.0, 10086.0, 10077.0, 10083.0, 10101.0, 10117.0, 10129.0, 10132.0, 10121.0, 10103.0, 10117.0, 10132.0, 10111.0, 10135.0, 10149.0, 10139.0, 10129.0, 10121.0, 10118.0, 10123.0, 10113.0, 10118.0, 10112.0, 10110.0, 10102.0, 10105.0, 10131.0, 10123.0, 10101.0, 10104.0, 10096.0, 10091.0, 10078.0, 10084.0, 10081.0, 10066.0, 10050.0, 10058.0, 10081.0, 10105.0, 10128.0, 10114.0, 10100.0, 10099.0, 10100.0, 10108.0, 10118.0, 10133.0, 10140.0, 10138.0, 10124.0, 10115.0, 10102.0, 10103.0, 10109.0, 10128.0, 10124.0, 10125.0, 10124.0, 10129.0, 10144.0, 10138.0, 10133.0, 10130.0, 10116.0, 10122.0, 10123.0, 10127.0, 10124.0, 10122.0, 10118.0, 10108.0, 10113.0, 10113.0, 10115.0, 10119.0, 10115.0, 10119.0, 10119.0, 10104.0, 10126.0, 10140.0, 10136.0, 10130.0, 10130.0, 10145.0, 10138.0, 10123.0],
      "WindowWidth": [22206.0, 22031.0, 21945.0, 21876.0, 21832.0, 21821.0, 21838.0, 21864.0, 21918.0, 21899.0, 21865.0, 21860.0, 21854.0, 21816.0, 21795.0, 21796.0, 21790.0, 21793.0, 21757.0, 21731.0, 21752.0, 21771.0, 21778.0, 21777.0, 21765.0, 21786.0, 21818.0, 21846.0, 21799.0, 21776.0, 21750.0, 21767.0, 21778.0, 21784.0, 21764.0, 21761.0, 21758.0, 21773.0, 21787.0, 21798.0, 21817.0, 21844.0, 21832.0, 21834.0, 21831.0, 21824.0, 21790.0, 21781.0, 21780.0, 21800.0, 21802.0, 21779.0, 21748.0, 21727.0, 21732.0, 21752.0, 21747.0, 21731.0, 21745.0, 21749.0, 21757.0, 21743.0, 21741.0, 21730.0, 21762.0, 21731.0, 21727.0, 21693.0, 21695.0, 21708.0, 21717.0, 21692.0, 21730.0, 21733.0, 21760.0, 21755.0, 21736.0, 21718.0, 21718.0, 21731.0, 21772.0, 21757.0, 21746.0, 21721.0, 21723.0, 21746.0, 21761.0, 21780.0, 21783.0, 21789.0, 21758.0, 21757.0, 21742.0, 21738.0, 21767.0, 21764.0, 21764.0, 21734.0, 21707.0, 21683.0, 21706.0, 21716.0, 21721.0, 21702.0, 21683.0, 21694.0, 21735.0, 21772.0, 21803.0, 21810.0, 21781.0, 21742.0, 21770.0, 21801.0, 21757.0, 21802.0, 21836.0, 21818.0, 21795.0, 21778.0, 21768.0, 21778.0, 21762.0, 21771.0, 21758.0, 21752.0, 21737.0, 21742.0, 21799.0, 21787.0, 21738.0, 21736.0, 21718.0, 21708.0, 21684.0, 21691.0, 21687.0, 21658.0, 21628.0, 21641.0, 21690.0, 21747.0, 21794.0, 21765.0, 21734.0, 21730.0, 21731.0, 21749.0, 21771.0, 21803.0, 21822.0, 21815.0, 21782.0, 21762.0, 21737.0, 21737.0, 21752.0, 21791.0, 21783.0, 21786.0, 21784.0, 21792.0, 21826.0, 21815.0, 21805.0, 21798.0, 21765.0, 21776.0, 21781.0, 21786.0, 21784.0, 21777.0, 21766.0, 21751.0, 21760.0, 21762.0, 21767.0, 21769.0, 21766.0, 21772.0, 21771.0, 21746.0, 21789.0, 21818.0, 21810.0, 21801.0, 21801.0, 21837.0, 21827.0, 21786.0]
    },
    "slices": {}
  }
}