{
  "AcquisitionMatrixPE": 104,
  "AcquisitionNumber": 1,
  "AcquisitionTime": "15:30:41.685000",
  "BandwidthPerPixelPhaseEncode": 17.17,
  "BaseResolution": 104,
  "BodyPartExamined": "BRAIN",
  "CoilString": "HC1-7;NC1_2",
  "ConsistencyInfo": "N4_VE11C_LATEST_20160120",
  "ConversionSoftware": "dcm2niix",
  "ConversionSoftwareVersion": "v1.0.20190902",
  "DerivedVendorReportedEchoSpacing": 0.000560011,
  "DeviceSerialNumber": "167006",
  "DwellTime": 2.1e-06,
  "EchoTime": 0.037,
  "EchoTrainLength": 104,
  "EffectiveEchoSpacing": 0.000560011,
  "FlipAngle": 52,
  "HeudiconvVersion": "0.10.0",
  "ImageComments": "Unaliased_MB4_PE3_LB",
  "ImageOrientationPatientDICOM": [0.998662, -0.049981, 0.0132435, 0.0516386, 0.95104, -0.304722],
  "ImageType": [
    "ORIGINAL",
    "PRIMARY",
    "P",
    "MB",
    "ND",
    "MOSAIC"
],
  "ImagingFrequency": 123.259,
  "InPlanePhaseEncodingDirectionDICOM": "COL",
  "InstitutionAddress": "Chemin_Queen-Mary_4565_Montreal_District_CA_H3W_1W5",
  "InstitutionName": "IUGM",
  "InstitutionalDepartmentName": "Department",
  "MRAcquisitionType": "2D",
  "MagneticFieldStrength": 3,
  "Manufacturer": "Siemens",
  "ManufacturersModelName": "Prisma_fit",
  "Modality": "MR",
  "MultibandAccelerationFactor": 4,
  "PartialFourier": 1,
  "PatientPosition": "HFS",
  "PercentPhaseFOV": 100,
  "PhaseEncodingDirection": "j",
  "PhaseEncodingSteps": 104,
  "PhaseResolution": 1,
  "PixelBandwidth": 2290,
  "ProcedureStepDescription": "memory_things",
  "ProtocolName": "func_task-things_run-2",
  "PulseSequenceDetails": "%CustomerSeq%_cmrr_mbep2d_bold",
  "ReceiveCoilActiveElements": "HC1-7;NC1,2",
  "ReceiveCoilName": "HeadNeck_64",
  "ReconMatrixPE": 104,
  "RepetitionTime": 1.49,
  "SAR": 0.0289749,
  "ScanOptions": "FS",
  "ScanningSequence": "EP",
  "SequenceName": "epfid2d1_104",
  "SequenceVariant": "SK_SS",
  "SeriesDescription": "func_task-things_run-2",
  "SeriesNumber": 14,
  "ShimSetting": [626, -7245, -8818, 614, 8, -189, -79, -36],
  "SliceThickness": 2,
  "SliceTiming": [0, 0.785, 0.1, 0.8825, 0.1975, 0.98, 0.295, 1.08, 0.3925, 1.1775, 0.49, 1.275, 0.59, 1.3725, 0.6875, 0, 0.785, 0.1, 0.8825, 0.1975, 0.98, 0.295, 1.08, 0.3925, 1.1775, 0.49, 1.275, 0.59, 1.3725, 0.6875, 0, 0.785, 0.1, 0.8825, 0.1975, 0.98, 0.295, 1.08, 0.3925, 1.1775, 0.49, 1.275, 0.59, 1.3725, 0.6875, 0, 0.785, 0.1, 0.8825, 0.1975, 0.98, 0.295, 1.08, 0.3925, 1.1775, 0.49, 1.275, 0.59, 1.3725, 0.6875],
  "SoftwareVersions": "syngo_MR_E11",
  "SpacingBetweenSlices": 2,
  "StationName": "MRC35049",
  "TaskName": "things",
  "TotalReadoutTime": 0.0576811,
  "TxRefAmp": 221.437,
  "WipMemBlock": "03daee1a-c4bc-4952-87ab-d341b9d45fb1||Sequence: R016 ve11c/master r/e634e98; Dec 19 2017 11:00:25 by eja",
  "dcmmeta_affine": [
    [-1.9973247051239014, 0.10327713936567307, -0.005270414520055056, 101.79496765136719],
    [0.09996190667152405, 1.9020806550979614, -0.6099973917007446, -72.29450225830078],
    [0.026487015187740326, 0.6094448566436768, 1.9046982526779175, -65.91278076171875],
    [0.0, 0.0, 0.0, 1.0]
],
  "dcmmeta_reorient_transform": [
    [0.0, -1.0, 0.0, 103.0],
    [1.0, 0.0, 0.0, 0.0],
    [0.0, 0.0, 1.0, 0.0],
    [0.0, 0.0, 0.0, 1.0]
],
  "dcmmeta_shape": [104, 104, 60, 190],
  "dcmmeta_slice_dim": 2,
  "dcmmeta_version": 0.6,
  "global": {
    "const": {
      "AcquisitionMatrix": [104, 0, 0, 104],
      "AngioFlag": "N",
      "BitsAllocated": 16,
      "BitsStored": 16,
      "BodyPartExamined": "BRAIN",
      "Columns": 832,
      "EchoNumbers": 1,
      "EchoTime": 37.0,
      "EchoTrainLength": 104,
      "FlipAngle": 52.0,
      "HighBit": 15,
      "ImageOrientationPatient": [0.99866236219653, -0.0499809546643, 0.01324350795235, 0.05163857099394, 0.9510403274505, -0.3047224204888],
      "ImagePositionPatient": [-877.05159144323, -779.59102797986, 209.05668936119],
      "ImageType": [
        "ORIGINAL",
        "PRIMARY",
        "P",
        "MB",
        "ND",
        "MOSAIC"
],
      "ImagedNucleus": "1H",
      "ImagingFrequency": 123.258871,
      "InPlanePhaseEncodingDirection": "COL",
      "LargestImagePixelValue": 4095,
      "MRAcquisitionType": "2D",
      "MagneticFieldStrength": 3.0,
      "Manufacturer": "SIEMENS",
      "ManufacturerModelName": "Prisma_fit",
      "Modality": "MR",
      "NumberOfAverages": 1.0,
      "NumberOfPhaseEncodingSteps": 104,
      "PercentPhaseFieldOfView": 100.0,
      "PercentSampling": 100.0,
      "PerformedProcedureStepStartTime": "151411.151000",
      "PhotometricInterpretation": "MONOCHROME2",
      "PixelBandwidth": 2290.0,
      "PixelRepresentation": 0,
      "PixelSpacing": [2.0, 2.0],
      "ProtocolName": "func_task-things_run-2",
      "RepetitionTime": 1490.0,
      "RescaleIntercept": -4096.0,
      "RescaleSlope": 2.0,
      "RescaleType": "US",
      "Rows": 832,
      "SAR": 0.02897489081305,
      "SamplesPerPixel": 1,
      "ScanOptions": "FS",
      "ScanningSequence": "EP",
      "SequenceName": "epfid2d1_104",
      "SequenceVariant": [
        "SK",
        "SS"
],
      "SeriesDescription": "func_task-things_run-2",
      "SeriesNumber": 14,
      "SeriesTime": "153157.946000",
      "SliceLocation": -40.9904983766,
      "SliceThickness": 2.0,
      "SmallestImagePixelValue": 0,
      "SoftwareVersions": "syngo MR E11",
      "SpacingBetweenSlices": 2.000000011166,
      "SpecificCharacterSet": "ISO_IR 100",
      "StudyID": "1",
      "StudyTime": "151411.081000",
      "TransmitCoilName": "Body",
      "VariableFlipAngleFlag": "N",
      "WindowCenterWidthExplanation": "Algo1",
      "dBdt": 0.0},
    "slices": {}
  },
  "time": {
    "samples": {
      "AcquisitionNumber": [1, 2, 3, 4, 5, 6, 7, 8, 9, 10, 11, 12, 13, 14, 15, 16, 17, 18, 19, 20, 21, 22, 23, 24, 25, 26, 27, 28, 29, 30, 31, 32, 33, 34, 35, 36, 37, 38, 39, 40, 41, 42, 43, 44, 45, 46, 47, 48, 49, 50, 51, 52, 53, 54, 55, 56, 57, 58, 59, 60, 61, 62, 63, 64, 65, 66, 67, 68, 69, 70, 71, 72, 73, 74, 75, 76, 77, 78, 79, 80, 81, 82, 83, 84, 85, 86, 87, 88, 89, 90, 91, 92, 93, 94, 95, 96, 97, 98, 99, 100, 101, 102, 103, 104, 105, 106, 107, 108, 109, 110, 111, 112, 113, 114, 115, 116, 117, 118, 119, 120, 121, 122, 123, 124, 125, 126, 127, 128, 129, 130, 131, 132, 133, 134, 135, 136, 137, 138, 139, 140, 141, 142, 143, 144, 145, 146, 147, 148, 149, 150, 151, 152, 153, 154, 155, 156, 157, 158, 159, 160, 161, 162, 163, 164, 165, 166, 167, 168, 169, 170, 171, 172, 173, 174, 175, 176, 177, 178, 179, 180, 181, 182, 183, 184, 185, 186, 187, 188, 189, 190],
      "AcquisitionTime": ["153041.685000", "153043.175000", "153044.665000", "153046.155000", "153047.645000", "153049.135000", "153050.625000", "153052.115000", "153053.605000", "153055.095000", "153056.585000", "153058.075000", "153059.565000", "153101.055000", "153102.545000", "153104.035000", "153105.525000", "153107.015000", "153108.505000", "153109.995000", "153111.485000", "153112.975000", "153114.465000", "153115.955000", "153117.445000", "153118.935000", "153120.425000", "153121.915000", "153123.405000", "153124.895000", "153126.385000", "153127.875000", "153129.365000", "153130.855000", "153132.345000", "153133.835000", "153135.325000", "153136.815000", "153138.305000", "153139.795000", "153141.285000", "153142.775000", "153144.265000", "153145.755000", "153147.245000", "153148.735000", "153150.225000", "153151.715000", "153153.205000", "153154.695000", "153156.185000", "153157.675000", "153159.165000", "153200.655000", "153202.145000", "153203.635000", "153205.125000", "153206.615000", "153208.105000", "153209.595000", "153211.085000", "153212.575000", "153214.065000", "153215.555000", "153217.045000", "153218.535000", "153220.025000", "153221.515000", "153223.005000", "153224.495000", "153225.985000", "153227.475000", "153228.965000", "153230.455000", "153231.945000", "153233.435000", "153234.925000", "153236.415000", "153237.905000", "153239.395000", "153240.885000", "153242.375000", "153243.865000", "153245.355000", "153246.845000", "153248.335000", "153249.825000", "153251.315000", "153252.805000", "153254.295000", "153255.785000", "153257.275000", "153258.765000", "153300.255000", "153301.745000", "153303.235000", "153304.725000", "153306.215000", "153307.705000", "153309.195000", "153310.685000", "153312.175000", "153313.665000", "153315.155000", "153316.645000", "153318.135000", "153319.625000", "153321.115000", "153322.605000", "153324.095000", "153325.585000", "153327.075000", "153328.565000", "153330.055000", "153331.545000", "153333.035000", "153334.525000", "153336.015000", "153337.505000", "153338.995000", "153340.485000", "153341.975000", "153343.465000", "153344.955000", "153346.445000", "153347.935000", "153349.425000", "153350.915000", "153352.405000", "153353.895000", "153355.385000", "153356.875000", "153358.365000", "153359.855000", "153401.345000", "153402.835000", "153404.325000", "153405.815000", "153407.305000", "153408.795000", "153410.285000", "153411.775000", "153413.265000", "153414.755000", "153416.245000", "153417.735000", "153419.225000", "153420.715000", "153422.205000", "153423.695000", "153425.185000", "153426.675000", "153428.165000", "153429.655000", "153431.145000", "153432.635000", "153434.125000", "153435.615000", "153437.105000", "153438.595000", "153440.085000", "153441.575000", "153443.065000", "153444.555000", "153446.045000", "153447.535000", "153449.025000", "153450.515000", "153452.005000", "153453.495000", "153454.985000", "153456.475000", "153457.965000", "153459.455000", "153500.945000", "153502.435000", "153503.925000", "153505.415000", "153506.905000", "153508.395000", "153509.885000", "153511.375000", "153512.865000", "153514.355000", "153515.845000", "153517.335000", "153518.825000", "153520.315000", "153521.805000", "153523.295000"],
      "ContentTime": ["153157.948000", "153157.951000", "153157.954000", "153157.956000", "153157.962000", "153157.965000", "153157.967000", "153157.970000", "153157.973000", "153157.975000", "153157.978000", "153157.980000", "153157.983000", "153157.985000", "153157.988000", "153157.990000", "153157.993000", "153157.995000", "153157.998000", "153158.001000", "153158.004000", "153158.006000", "153158.009000", "153217.894000", "153217.897000", "153217.899000", "153217.902000", "153217.904000", "153217.907000", "153217.909000", "153217.912000", "153217.914000", "153217.917000", "153217.919000", "153217.922000", "153217.924000", "153217.927000", "153217.929000", "153217.932000", "153217.934000", "153217.937000", "153217.939000", "153217.942000", "153237.905000", "153237.908000", "153237.911000", "153237.913000", "153237.916000", "153237.918000", "153237.921000", "153237.923000", "153237.926000", "153237.928000", "153237.931000", "153237.933000", "153237.936000", "153237.938000", "153237.941000", "153237.944000", "153237.946000", "153237.949000", "153237.951000", "153237.954000", "153257.893000", "153257.896000", "153257.898000", "153257.901000", "153257.903000", "153257.906000", "153257.908000", "153257.911000", "153257.913000", "153257.916000", "153257.919000", "153257.921000", "153257.924000", "153257.927000", "153257.930000", "153257.933000", "153257.935000", "153257.938000", "153257.941000", "153257.944000", "153317.892000", "153317.895000", "153317.898000", "153317.900000", "153317.903000", "153317.905000", "153317.908000", "153317.910000", "153317.913000", "153317.915000", "153317.918000", "153317.920000", "153317.923000", "153317.925000", "153317.928000", "153317.930000", "153317.933000", "153317.935000", "153317.938000", "153317.941000", "153317.943000", "153357.923000", "153357.925000", "153357.928000", "153357.930000", "153357.933000", "153357.936000", "153357.938000", "153357.941000", "153357.943000", "153357.946000", "153357.948000", "153357.951000", "153357.953000", "153357.956000", "153357.958000", "153357.961000", "153357.964000", "153357.966000", "153357.969000", "153357.971000", "153357.974000", "153357.976000", "153357.979000", "153357.981000", "153357.984000", "153357.986000", "153357.989000", "153437.930000", "153437.932000", "153437.935000", "153437.938000", "153437.940000", "153437.943000", "153437.945000", "153437.948000", "153437.950000", "153437.953000", "153437.965000", "153437.968000", "153437.970000", "153437.973000", "153437.975000", "153437.978000", "153437.980000", "153437.983000", "153437.985000", "153437.988000", "153437.990000", "153437.993000", "153437.996000", "153437.998000", "153438.002000", "153438.004000", "153517.915000", "153517.918000", "153517.922000", "153517.925000", "153517.927000", "153517.930000", "153517.932000", "153517.935000", "153517.937000", "153517.940000", "153517.942000", "153517.945000", "153517.948000", "153517.950000", "153517.953000", "153517.955000", "153517.958000", "153517.960000", "153517.963000", "153517.965000", "153517.968000", "153517.970000", "153517.973000", "153517.976000", "153517.978000", "153517.981000", "153517.984000", "153525.636000", "153525.639000", "153525.642000", "153525.644000", "153525.647000", "153525.650000"],
      "InstanceCreationTime": ["153157.948000", "153157.951000", "153157.954000", "153157.956000", "153157.962000", "153157.965000", "153157.967000", "153157.970000", "153157.973000", "153157.975000", "153157.978000", "153157.980000", "153157.983000", "153157.985000", "153157.988000", "153157.990000", "153157.993000", "153157.995000", "153157.998000", "153158.001000", "153158.004000", "153158.006000", "153158.009000", "153217.894000", "153217.897000", "153217.899000", "153217.902000", "153217.904000", "153217.907000", "153217.909000", "153217.912000", "153217.914000", "153217.917000", "153217.919000", "153217.922000", "153217.924000", "153217.927000", "153217.929000", "153217.932000", "153217.934000", "153217.937000", "153217.939000", "153217.942000", "153237.905000", "153237.908000", "153237.911000", "153237.913000", "153237.916000", "153237.918000", "153237.921000", "153237.923000", "153237.926000", "153237.928000", "153237.931000", "153237.933000", "153237.936000", "153237.938000", "153237.941000", "153237.944000", "153237.946000", "153237.949000", "153237.951000", "153237.954000", "153257.893000", "153257.896000", "153257.898000", "153257.901000", "153257.903000", "153257.906000", "153257.908000", "153257.911000", "153257.913000", "153257.916000", "153257.919000", "153257.921000", "153257.924000", "153257.927000", "153257.930000", "153257.933000", "153257.935000", "153257.938000", "153257.941000", "153257.944000", "153317.892000", "153317.895000", "153317.898000", "153317.900000", "153317.903000", "153317.905000", "153317.908000", "153317.910000", "153317.913000", "153317.915000", "153317.918000", "153317.920000", "153317.923000", "153317.925000", "153317.928000", "153317.930000", "153317.933000", "153317.935000", "153317.938000", "153317.941000", "153317.943000", "153357.923000", "153357.925000", "153357.928000", "153357.930000", "153357.933000", "153357.936000", "153357.938000", "153357.941000", "153357.943000", "153357.946000", "153357.948000", "153357.951000", "153357.953000", "153357.956000", "153357.958000", "153357.961000", "153357.964000", "153357.966000", "153357.969000", "153357.971000", "153357.974000", "153357.976000", "153357.979000", "153357.981000", "153357.984000", "153357.986000", "153357.989000", "153437.930000", "153437.932000", "153437.935000", "153437.938000", "153437.940000", "153437.943000", "153437.945000", "153437.948000", "153437.950000", "153437.953000", "153437.965000", "153437.968000", "153437.970000", "153437.973000", "153437.975000", "153437.978000", "153437.980000", "153437.983000", "153437.985000", "153437.988000", "153437.990000", "153437.993000", "153437.996000", "153437.998000", "153438.002000", "153438.004000", "153517.915000", "153517.918000", "153517.922000", "153517.925000", "153517.927000", "153517.930000", "153517.932000", "153517.935000", "153517.937000", "153517.940000", "153517.942000", "153517.945000", "153517.948000", "153517.950000", "153517.953000", "153517.955000", "153517.958000", "153517.960000", "153517.963000", "153517.965000", "153517.968000", "153517.970000", "153517.973000", "153517.976000", "153517.978000", "153517.981000", "153517.984000", "153525.636000", "153525.639000", "153525.642000", "153525.644000", "153525.647000", "153525.650000"],
      "InstanceNumber": [1, 2, 3, 4, 5, 6, 7, 8, 9, 10, 11, 12, 13, 14, 15, 16, 17, 18, 19, 20, 21, 22, 23, 24, 25, 26, 27, 28, 29, 30, 31, 32, 33, 34, 35, 36, 37, 38, 39, 40, 41, 42, 43, 44, 45, 46, 47, 48, 49, 50, 51, 52, 53, 54, 55, 56, 57, 58, 59, 60, 61, 62, 63, 64, 65, 66, 67, 68, 69, 70, 71, 72, 73, 74, 75, 76, 77, 78, 79, 80, 81, 82, 83, 84, 85, 86, 87, 88, 89, 90, 91, 92, 93, 94, 95, 96, 97, 98, 99, 100, 101, 102, 103, 104, 105, 106, 107, 108, 109, 110, 111, 112, 113, 114, 115, 116, 117, 118, 119, 120, 121, 122, 123, 124, 125, 126, 127, 128, 129, 130, 131, 132, 133, 134, 135, 136, 137, 138, 139, 140, 141, 142, 143, 144, 145, 146, 147, 148, 149, 150, 151, 152, 153, 154, 155, 156, 157, 158, 159, 160, 161, 162, 163, 164, 165, 166, 167, 168, 169, 170, 171, 172, 173, 174, 175, 176, 177, 178, 179, 180, 181, 182, 183, 184, 185, 186, 187, 188, 189, 190],
      "WindowCenter": [4832.0, 4830.0, 4796.0, 4828.0, 4790.0, 4828.0, 4826.0, 4766.0, 4798.0, 4768.0, 4828.0, 4796.0, 4826.0, 4828.0, 4796.0, 4832.0, 4796.0, 4832.0, 4798.0, 4800.0, 4826.0, 4768.0, 4808.0, 4770.0, 4800.0, 4802.0, 4796.0, 4836.0, 4798.0, 4830.0, 4800.0, 4796.0, 4830.0, 4790.0, 4806.0, 4800.0, 4796.0, 4828.0, 4796.0, 4832.0, 4824.0, 4832.0, 4826.0, 4800.0, 4832.0, 4792.0, 4802.0, 4802.0, 4766.0, 4832.0, 4828.0, 4798.0, 4832.0, 4798.0, 4804.0, 4800.0, 4796.0, 4826.0, 4768.0, 4824.0, 4836.0, 4796.0, 4832.0, 4800.0, 4800.0, 4830.0, 4768.0, 4826.0, 4772.0, 4798.0, 4826.0, 4830.0, 4798.0, 4764.0, 4792.0, 4824.0, 4792.0, 4824.0, 4768.0, 4802.0, 4794.0, 4800.0, 4830.0, 4768.0, 4800.0, 4768.0, 4826.0, 4802.0, 4794.0, 4828.0, 4792.0, 4766.0, 4832.0, 4802.0, 4800.0, 4800.0, 4796.0, 4802.0, 4794.0, 4826.0, 4794.0, 4798.0, 4800.0, 4794.0, 4828.0, 4792.0, 4828.0, 4800.0, 4802.0, 4802.0, 4798.0, 4824.0, 4770.0, 4828.0, 4800.0, 4796.0, 4834.0, 4798.0, 4804.0, 4800.0, 4768.0, 4824.0, 4802.0, 4800.0, 4830.0, 4794.0, 4828.0, 4798.0, 4794.0, 4802.0, 4768.0, 4800.0, 4800.0, 4798.0, 4834.0, 4792.0, 4802.0, 4802.0, 4798.0, 4804.0, 4794.0, 4802.0, 4768.0, 4800.0, 4828.0, 4798.0, 4836.0, 4794.0, 4806.0, 4830.0, 4790.0, 4802.0, 4768.0, 4824.0, 4794.0, 4828.0, 4796.0, 4828.0, 4834.0, 4770.0, 4826.0, 4796.0, 4796.0, 4824.0, 4768.0, 4830.0, 4800.0, 4832.0, 4796.0, 4802.0, 4828.0, 4770.0, 4800.0, 4822.0, 4770.0, 4828.0, 4794.0, 4804.0, 4826.0, 4800.0, 4838.0, 4798.0, 4828.0, 4798.0, 4798.0, 4804.0, 4794.0, 4826.0, 4804.0, 4794.0],
      "WindowWidth": [18646.0, 18642.0, 18598.0, 18644.0, 18598.0, 18636.0, 18638.0, 18564.0, 18604.0, 18560.0, 18636.0, 18598.0, 18638.0, 18646.0, 18608.0, 18648.0, 18596.0, 18650.0, 18600.0, 18602.0, 18640.0, 18562.0, 18612.0, 18566.0, 18606.0, 18610.0, 18604.0, 18656.0, 18606.0, 18644.0, 18606.0, 18598.0, 18648.0, 18592.0, 18608.0, 18604.0, 18598.0, 18646.0, 18600.0, 18648.0, 18636.0, 18646.0, 18640.0, 18604.0, 18644.0, 18596.0, 18604.0, 18608.0, 18562.0, 18646.0, 18644.0, 18598.0, 18644.0, 18600.0, 18608.0, 18604.0, 18602.0, 18642.0, 18564.0, 18638.0, 18652.0, 18600.0, 18646.0, 18608.0, 18608.0, 18640.0, 18560.0, 18636.0, 18566.0, 18602.0, 18640.0, 18644.0, 18602.0, 18562.0, 18594.0, 18644.0, 18596.0, 18638.0, 18562.0, 18608.0, 18602.0, 18602.0, 18644.0, 18562.0, 18608.0, 18568.0, 18640.0, 18610.0, 18596.0, 18638.0, 18598.0, 18562.0, 18646.0, 18604.0, 18608.0, 18610.0, 18604.0, 18614.0, 18598.0, 18640.0, 18596.0, 18598.0, 18608.0, 18596.0, 18644.0, 18598.0, 18644.0, 18602.0, 18610.0, 18606.0, 18602.0, 18638.0, 18564.0, 18640.0, 18600.0, 18596.0, 18648.0, 18604.0, 18608.0, 18610.0, 18560.0, 18640.0, 18612.0, 18606.0, 18642.0, 18594.0, 18640.0, 18608.0, 18596.0, 18610.0, 18564.0, 18600.0, 18606.0, 18602.0, 18648.0, 18596.0, 18606.0, 18610.0, 18604.0, 18610.0, 18590.0, 18608.0, 18566.0, 18600.0, 18644.0, 18600.0, 18648.0, 18600.0, 18606.0, 18646.0, 18594.0, 18606.0, 18562.0, 18632.0, 18592.0, 18644.0, 18604.0, 18642.0, 18646.0, 18562.0, 18640.0, 18596.0, 18598.0, 18640.0, 18562.0, 18644.0, 18608.0, 18646.0, 18604.0, 18606.0, 18638.0, 18564.0, 18608.0, 18640.0, 18568.0, 18640.0, 18600.0, 18610.0, 18636.0, 18604.0, 18646.0, 18600.0, 18636.0, 18602.0, 18600.0, 18606.0, 18596.0, 18640.0, 18606.0, 18600.0]
    },
    "slices": {}
  }
}