{
  "AcquisitionMatrixPE": 104,
  "AcquisitionNumber": 1,
  "AcquisitionTime": "15:24:28.230000",
  "BandwidthPerPixelPhaseEncode": 17.17,
  "BaseResolution": 104,
  "BodyPartExamined": "BRAIN",
  "CoilString": "HC1-7;NC1_2",
  "ConsistencyInfo": "N4_VE11C_LATEST_20160120",
  "ConversionSoftware": "dcm2niix",
  "ConversionSoftwareVersion": "v1.0.20190902",
  "DerivedVendorReportedEchoSpacing": 0.000560011,
  "DeviceSerialNumber": "167006",
  "DwellTime": 2.1e-06,
  "EchoTime": 0.037,
  "EchoTrainLength": 104,
  "EffectiveEchoSpacing": 0.000560011,
  "FlipAngle": 52,
  "HeudiconvVersion": "0.10.0",
  "ImageComments": "Unaliased_MB4_PE3_LB",
  "ImageOrientationPatientDICOM": [0.998662, -0.049981, 0.0132435, 0.0516386, 0.95104, -0.304722],
  "ImageType": [
    "ORIGINAL",
    "PRIMARY",
    "P",
    "MB",
    "ND",
    "MOSAIC"
],
  "ImagingFrequency": 123.259,
  "InPlanePhaseEncodingDirectionDICOM": "COL",
  "InstitutionAddress": "Chemin_Queen-Mary_4565_Montreal_District_CA_H3W_1W5",
  "InstitutionName": "IUGM",
  "InstitutionalDepartmentName": "Department",
  "MRAcquisitionType": "2D",
  "MagneticFieldStrength": 3,
  "Manufacturer": "Siemens",
  "ManufacturersModelName": "Prisma_fit",
  "Modality": "MR",
  "MultibandAccelerationFactor": 4,
  "PartialFourier": 1,
  "PatientPosition": "HFS",
  "PercentPhaseFOV": 100,
  "PhaseEncodingDirection": "j",
  "PhaseEncodingSteps": 104,
  "PhaseResolution": 1,
  "PixelBandwidth": 2290,
  "ProcedureStepDescription": "memory_things",
  "ProtocolName": "func_task-things_run-1",
  "PulseSequenceDetails": "%CustomerSeq%_cmrr_mbep2d_bold",
  "ReceiveCoilActiveElements": "HC1-7;NC1,2",
  "ReceiveCoilName": "HeadNeck_64",
  "ReconMatrixPE": 104,
  "RepetitionTime": 1.49,
  "SAR": 0.0289749,
  "ScanOptions": "FS",
  "ScanningSequence": "EP",
  "SequenceName": "epfid2d1_104",
  "SequenceVariant": "SK_SS",
  "SeriesDescription": "func_task-things_run-1",
  "SeriesNumber": 11,
  "ShimSetting": [626, -7245, -8818, 614, 8, -189, -79, -36],
  "SliceThickness": 2,
  "SliceTiming": [0, 0.7825, 0.0975, 0.8825, 0.195, 0.98, 0.2925, 1.0775, 0.3925, 1.175, 0.49, 1.2725, 0.5875, 1.3725, 0.685, 0, 0.7825, 0.0975, 0.8825, 0.195, 0.98, 0.2925, 1.0775, 0.3925, 1.175, 0.49, 1.2725, 0.5875, 1.3725, 0.685, 0, 0.7825, 0.0975, 0.8825, 0.195, 0.98, 0.2925, 1.0775, 0.3925, 1.175, 0.49, 1.2725, 0.5875, 1.3725, 0.685, 0, 0.7825, 0.0975, 0.8825, 0.195, 0.98, 0.2925, 1.0775, 0.3925, 1.175, 0.49, 1.2725, 0.5875, 1.3725, 0.685],
  "SoftwareVersions": "syngo_MR_E11",
  "SpacingBetweenSlices": 2,
  "StationName": "MRC35049",
  "TaskName": "things",
  "TotalReadoutTime": 0.0576811,
  "TxRefAmp": 221.437,
  "WipMemBlock": "d99d8fb3-75ac-4994-84ea-a679d7710e07||Sequence: R016 ve11c/master r/e634e98; Dec 19 2017 11:00:25 by eja",
  "dcmmeta_affine": [
    [-1.9973247051239014, 0.10327713936567307, -0.005270414520055056, 101.79496765136719],
    [0.09996190667152405, 1.9020806550979614, -0.6099973917007446, -72.29450225830078],
    [0.026487015187740326, 0.6094448566436768, 1.9046982526779175, -65.91278076171875],
    [0.0, 0.0, 0.0, 1.0]
],
  "dcmmeta_reorient_transform": [
    [0.0, -1.0, 0.0, 103.0],
    [1.0, 0.0, 0.0, 0.0],
    [0.0, 0.0, 1.0, 0.0],
    [0.0, 0.0, 0.0, 1.0]
],
  "dcmmeta_shape": [104, 104, 60, 190],
  "dcmmeta_slice_dim": 2,
  "dcmmeta_version": 0.6,
  "global": {
    "const": {
      "AcquisitionMatrix": [104, 0, 0, 104],
      "AngioFlag": "N",
      "BitsAllocated": 16,
      "BitsStored": 16,
      "BodyPartExamined": "BRAIN",
      "Columns": 832,
      "EchoNumbers": 1,
      "EchoTime": 37.0,
      "EchoTrainLength": 104,
      "FlipAngle": 52.0,
      "HighBit": 15,
      "ImageOrientationPatient": [0.99866236219653, -0.0499809546643, 0.01324350795235, 0.05163857099394, 0.9510403274505, -0.3047224204888],
      "ImagePositionPatient": [-877.05159144323, -779.59102797986, 209.05668936119],
      "ImageType": [
        "ORIGINAL",
        "PRIMARY",
        "P",
        "MB",
        "ND",
        "MOSAIC"
],
      "ImagedNucleus": "1H",
      "ImagingFrequency": 123.258868,
      "InPlanePhaseEncodingDirection": "COL",
      "LargestImagePixelValue": 4095,
      "MRAcquisitionType": "2D",
      "MagneticFieldStrength": 3.0,
      "Manufacturer": "SIEMENS",
      "ManufacturerModelName": "Prisma_fit",
      "Modality": "MR",
      "NumberOfAverages": 1.0,
      "NumberOfPhaseEncodingSteps": 104,
      "PercentPhaseFieldOfView": 100.0,
      "PercentSampling": 100.0,
      "PerformedProcedureStepStartTime": "151411.151000",
      "PhotometricInterpretation": "MONOCHROME2",
      "PixelBandwidth": 2290.0,
      "PixelRepresentation": 0,
      "PixelSpacing": [2.0, 2.0],
      "ProtocolName": "func_task-things_run-1",
      "RepetitionTime": 1490.0,
      "RescaleIntercept": -4096.0,
      "RescaleSlope": 2.0,
      "RescaleType": "US",
      "Rows": 832,
      "SAR": 0.02897489081305,
      "SamplesPerPixel": 1,
      "ScanOptions": "FS",
      "ScanningSequence": "EP",
      "SequenceName": "epfid2d1_104",
      "SequenceVariant": [
        "SK",
        "SS"
],
      "SeriesDescription": "func_task-things_run-1",
      "SeriesNumber": 11,
      "SeriesTime": "152555.863000",
      "SliceLocation": -40.9904983766,
      "SliceThickness": 2.0,
      "SmallestImagePixelValue": 0,
      "SoftwareVersions": "syngo MR E11",
      "SpacingBetweenSlices": 2.000000011166,
      "SpecificCharacterSet": "ISO_IR 100",
      "StudyID": "1",
      "StudyTime": "151411.081000",
      "TransmitCoilName": "Body",
      "VariableFlipAngleFlag": "N",
      "WindowCenterWidthExplanation": "Algo1",
      "dBdt": 0.0},
    "slices": {}
  },
  "time": {
    "samples": {
      "AcquisitionNumber": [1, 2, 3, 4, 5, 6, 7, 8, 9, 10, 11, 12, 13, 14, 15, 16, 17, 18, 19, 20, 21, 22, 23, 24, 25, 26, 27, 28, 29, 30, 31, 32, 33, 34, 35, 36, 37, 38, 39, 40, 41, 42, 43, 44, 45, 46, 47, 48, 49, 50, 51, 52, 53, 54, 55, 56, 57, 58, 59, 60, 61, 62, 63, 64, 65, 66, 67, 68, 69, 70, 71, 72, 73, 74, 75, 76, 77, 78, 79, 80, 81, 82, 83, 84, 85, 86, 87, 88, 89, 90, 91, 92, 93, 94, 95, 96, 97, 98, 99, 100, 101, 102, 103, 104, 105, 106, 107, 108, 109, 110, 111, 112, 113, 114, 115, 116, 117, 118, 119, 120, 121, 122, 123, 124, 125, 126, 127, 128, 129, 130, 131, 132, 133, 134, 135, 136, 137, 138, 139, 140, 141, 142, 143, 144, 145, 146, 147, 148, 149, 150, 151, 152, 153, 154, 155, 156, 157, 158, 159, 160, 161, 162, 163, 164, 165, 166, 167, 168, 169, 170, 171, 172, 173, 174, 175, 176, 177, 178, 179, 180, 181, 182, 183, 184, 185, 186, 187, 188, 189, 190],
      "AcquisitionTime": ["152428.230000", "152429.720000", "152431.210000", "152432.700000", "152434.190000", "152435.680000", "152437.170000", "152438.660000", "152440.150000", "152441.640000", "152443.130000", "152444.620000", "152446.110000", "152447.600000", "152449.090000", "152450.580000", "152452.070000", "152453.560000", "152455.050000", "152456.540000", "152458.030000", "152459.520000", "152501.010000", "152502.500000", "152503.990000", "152505.480000", "152506.970000", "152508.460000", "152509.950000", "152511.440000", "152512.930000", "152514.420000", "152515.910000", "152517.400000", "152518.890000", "152520.380000", "152521.870000", "152523.360000", "152524.850000", "152526.340000", "152527.830000", "152529.320000", "152530.810000", "152532.300000", "152533.790000", "152535.280000", "152536.770000", "152538.260000", "152539.750000", "152541.240000", "152542.730000", "152544.220000", "152545.710000", "152547.200000", "152548.690000", "152550.180000", "152551.670000", "152553.160000", "152554.650000", "152556.140000", "152557.630000", "152559.120000", "152600.610000", "152602.100000", "152603.590000", "152605.080000", "152606.570000", "152608.060000", "152609.550000", "152611.040000", "152612.530000", "152614.020000", "152615.510000", "152617.000000", "152618.490000", "152619.980000", "152621.470000", "152622.960000", "152624.450000", "152625.940000", "152627.430000", "152628.920000", "152630.410000", "152631.900000", "152633.390000", "152634.880000", "152636.370000", "152637.860000", "152639.350000", "152640.840000", "152642.330000", "152643.820000", "152645.310000", "152646.800000", "152648.290000", "152649.780000", "152651.270000", "152652.760000", "152654.250000", "152655.740000", "152657.230000", "152658.720000", "152700.210000", "152701.700000", "152703.190000", "152704.680000", "152706.170000", "152707.660000", "152709.150000", "152710.640000", "152712.130000", "152713.620000", "152715.110000", "152716.600000", "152718.090000", "152719.580000", "152721.070000", "152722.560000", "152724.050000", "152725.540000", "152727.030000", "152728.520000", "152730.010000", "152731.500000", "152732.990000", "152734.480000", "152735.970000", "152737.460000", "152738.950000", "152740.440000", "152741.930000", "152743.420000", "152744.910000", "152746.400000", "152747.890000", "152749.380000", "152750.870000", "152752.360000", "152753.850000", "152755.340000", "152756.830000", "152758.320000", "152759.810000", "152801.300000", "152802.790000", "152804.280000", "152805.770000", "152807.260000", "152808.750000", "152810.240000", "152811.730000", "152813.220000", "152814.710000", "152816.200000", "152817.690000", "152819.180000", "152820.670000", "152822.160000", "152823.650000", "152825.140000", "152826.630000", "152828.120000", "152829.610000", "152831.100000", "152832.590000", "152834.080000", "152835.570000", "152837.060000", "152838.550000", "152840.040000", "152841.530000", "152843.020000", "152844.510000", "152846.000000", "152847.490000", "152848.980000", "152850.470000", "152851.960000", "152853.450000", "152854.940000", "152856.430000", "152857.920000", "152859.410000", "152900.900000", "152902.390000", "152903.880000", "152905.370000", "152906.860000", "152908.350000", "152909.840000"],
      "ContentTime": ["152555.865000", "152555.868000", "152555.871000", "152555.873000", "152555.876000", "152555.878000", "152555.881000", "152555.884000", "152555.886000", "152555.889000", "152555.891000", "152555.894000", "152555.896000", "152555.899000", "152555.901000", "152555.904000", "152555.906000", "152555.909000", "152555.911000", "152555.914000", "152555.916000", "152555.919000", "152555.921000", "152555.924000", "152555.926000", "152555.932000", "152555.935000", "152555.937000", "152555.940000", "152555.943000", "152555.945000", "152555.948000", "152555.951000", "152555.953000", "152555.956000", "152615.782000", "152615.785000", "152615.788000", "152615.790000", "152615.793000", "152615.795000", "152615.798000", "152615.800000", "152615.803000", "152615.806000", "152615.808000", "152615.811000", "152615.813000", "152615.816000", "152615.818000", "152615.821000", "152615.823000", "152615.826000", "152615.828000", "152615.831000", "152635.781000", "152635.784000", "152635.787000", "152635.789000", "152635.792000", "152635.794000", "152635.797000", "152635.799000", "152635.802000", "152635.804000", "152635.807000", "152635.810000", "152635.812000", "152635.815000", "152635.817000", "152635.820000", "152635.822000", "152635.826000", "152635.828000", "152635.831000", "152655.832000", "152655.835000", "152655.837000", "152655.840000", "152655.842000", "152655.845000", "152655.847000", "152655.850000", "152655.852000", "152655.855000", "152655.857000", "152655.860000", "152655.862000", "152655.865000", "152655.867000", "152655.870000", "152655.872000", "152655.875000", "152655.877000", "152655.880000", "152735.817000", "152735.820000", "152735.822000", "152735.825000", "152735.827000", "152735.830000", "152735.833000", "152735.835000", "152735.838000", "152735.840000", "152735.843000", "152735.845000", "152735.848000", "152735.850000", "152735.853000", "152735.855000", "152735.858000", "152735.860000", "152735.863000", "152735.865000", "152735.868000", "152735.871000", "152735.873000", "152735.876000", "152735.878000", "152735.881000", "152735.883000", "152735.886000", "152735.888000", "152735.891000", "152815.820000", "152815.822000", "152815.825000", "152815.828000", "152815.830000", "152815.833000", "152815.835000", "152815.838000", "152815.840000", "152815.843000", "152815.845000", "152815.848000", "152815.850000", "152815.853000", "152815.856000", "152815.858000", "152815.861000", "152815.863000", "152815.866000", "152815.868000", "152815.871000", "152815.874000", "152815.876000", "152815.879000", "152815.881000", "152815.884000", "152815.886000", "152855.804000", "152855.807000", "152855.810000", "152855.812000", "152855.818000", "152855.820000", "152855.823000", "152855.826000", "152855.828000", "152855.831000", "152855.833000", "152855.836000", "152855.839000", "152855.841000", "152855.844000", "152855.846000", "152855.849000", "152855.851000", "152855.854000", "152855.856000", "152855.859000", "152855.862000", "152855.864000", "152855.867000", "152855.869000", "152855.872000", "152855.874000", "152911.827000", "152911.830000", "152911.832000", "152911.835000", "152911.838000", "152911.841000", "152911.843000", "152911.846000", "152911.849000", "152911.851000", "152911.854000"],
      "InstanceCreationTime": ["152555.865000", "152555.868000", "152555.871000", "152555.873000", "152555.876000", "152555.878000", "152555.881000", "152555.884000", "152555.886000", "152555.889000", "152555.891000", "152555.894000", "152555.896000", "152555.899000", "152555.901000", "152555.904000", "152555.906000", "152555.909000", "152555.911000", "152555.914000", "152555.916000", "152555.919000", "152555.921000", "152555.924000", "152555.926000", "152555.932000", "152555.935000", "152555.937000", "152555.940000", "152555.943000", "152555.945000", "152555.948000", "152555.951000", "152555.953000", "152555.956000", "152615.782000", "152615.785000", "152615.788000", "152615.790000", "152615.793000", "152615.795000", "152615.798000", "152615.800000", "152615.803000", "152615.806000", "152615.808000", "152615.811000", "152615.813000", "152615.816000", "152615.818000", "152615.821000", "152615.823000", "152615.826000", "152615.828000", "152615.831000", "152635.781000", "152635.784000", "152635.787000", "152635.789000", "152635.792000", "152635.794000", "152635.797000", "152635.799000", "152635.802000", "152635.804000", "152635.807000", "152635.810000", "152635.812000", "152635.815000", "152635.817000", "152635.820000", "152635.822000", "152635.826000", "152635.828000", "152635.831000", "152655.832000", "152655.835000", "152655.837000", "152655.840000", "152655.842000", "152655.845000", "152655.847000", "152655.850000", "152655.852000", "152655.855000", "152655.857000", "152655.860000", "152655.862000", "152655.865000", "152655.867000", "152655.870000", "152655.872000", "152655.875000", "152655.877000", "152655.880000", "152735.817000", "152735.820000", "152735.822000", "152735.825000", "152735.827000", "152735.830000", "152735.833000", "152735.835000", "152735.838000", "152735.840000", "152735.843000", "152735.845000", "152735.848000", "152735.850000", "152735.853000", "152735.855000", "152735.858000", "152735.860000", "152735.863000", "152735.865000", "152735.868000", "152735.871000", "152735.873000", "152735.876000", "152735.878000", "152735.881000", "152735.883000", "152735.886000", "152735.888000", "152735.891000", "152815.820000", "152815.822000", "152815.825000", "152815.828000", "152815.830000", "152815.833000", "152815.835000", "152815.838000", "152815.840000", "152815.843000", "152815.845000", "152815.848000", "152815.850000", "152815.853000", "152815.856000", "152815.858000", "152815.861000", "152815.863000", "152815.866000", "152815.868000", "152815.871000", "152815.874000", "152815.876000", "152815.879000", "152815.881000", "152815.884000", "152815.886000", "152855.804000", "152855.807000", "152855.810000", "152855.812000", "152855.818000", "152855.820000", "152855.823000", "152855.826000", "152855.828000", "152855.831000", "152855.833000", "152855.836000", "152855.839000", "152855.841000", "152855.844000", "152855.846000", "152855.849000", "152855.851000", "152855.854000", "152855.856000", "152855.859000", "152855.862000", "152855.864000", "152855.867000", "152855.869000", "152855.872000", "152855.874000", "152911.827000", "152911.830000", "152911.832000", "152911.835000", "152911.838000", "152911.841000", "152911.843000", "152911.846000", "152911.849000", "152911.851000", "152911.854000"],
      "InstanceNumber": [1, 2, 3, 4, 5, 6, 7, 8, 9, 10, 11, 12, 13, 14, 15, 16, 17, 18, 19, 20, 21, 22, 23, 24, 25, 26, 27, 28, 29, 30, 31, 32, 33, 34, 35, 36, 37, 38, 39, 40, 41, 42, 43, 44, 45, 46, 47, 48, 49, 50, 51, 52, 53, 54, 55, 56, 57, 58, 59, 60, 61, 62, 63, 64, 65, 66, 67, 68, 69, 70, 71, 72, 73, 74, 75, 76, 77, 78, 79, 80, 81, 82, 83, 84, 85, 86, 87, 88, 89, 90, 91, 92, 93, 94, 95, 96, 97, 98, 99, 100, 101, 102, 103, 104, 105, 106, 107, 108, 109, 110, 111, 112, 113, 114, 115, 116, 117, 118, 119, 120, 121, 122, 123, 124, 125, 126, 127, 128, 129, 130, 131, 132, 133, 134, 135, 136, 137, 138, 139, 140, 141, 142, 143, 144, 145, 146, 147, 148, 149, 150, 151, 152, 153, 154, 155, 156, 157, 158, 159, 160, 161, 162, 163, 164, 165, 166, 167, 168, 169, 170, 171, 172, 173, 174, 175, 176, 177, 178, 179, 180, 181, 182, 183, 184, 185, 186, 187, 188, 189, 190],
      "WindowCenter": [4868.0, 4860.0, 4798.0, 4838.0, 4766.0, 4838.0, 4796.0, 4770.0, 4766.0, 4866.0, 4878.0, 4902.0, 4902.0, 4868.0, 4800.0, 4796.0, 4768.0, 4800.0, 4790.0, 4864.0, 4868.0, 4864.0, 4898.0, 4838.0, 4874.0, 4866.0, 4798.0, 4836.0, 4770.0, 4834.0, 4772.0, 4804.0, 4876.0, 4860.0, 4872.0, 4860.0, 4838.0, 4830.0, 4802.0, 4838.0, 4792.0, 4862.0, 4832.0, 4826.0, 4868.0, 4800.0, 4864.0, 4802.0, 4796.0, 4864.0, 4828.0, 4864.0, 4806.0, 4866.0, 4834.0, 4830.0, 4836.0, 4794.0, 4838.0, 4830.0, 4868.0, 4832.0, 4838.0, 4866.0, 4800.0, 4840.0, 4836.0, 4798.0, 4838.0, 4824.0, 4830.0, 4864.0, 4806.0, 4868.0, 4828.0, 4840.0, 4828.0, 4836.0, 4842.0, 4798.0, 4840.0, 4830.0, 4804.0, 4844.0, 4828.0, 4866.0, 4770.0, 4770.0, 4768.0, 4828.0, 4870.0, 4896.0, 4902.0, 4866.0, 4860.0, 4804.0, 4768.0, 4770.0, 4770.0, 4796.0, 4804.0, 4866.0, 4830.0, 4896.0, 4862.0, 4836.0, 4830.0, 4794.0, 4794.0, 4768.0, 4762.0, 4826.0, 4830.0, 4834.0, 4896.0, 4836.0, 4832.0, 4834.0, 4768.0, 4802.0, 4770.0, 4770.0, 4830.0, 4790.0, 4836.0, 4828.0, 4800.0, 4862.0, 4792.0, 4804.0, 4798.0, 4800.0, 4826.0, 4796.0, 4836.0, 4794.0, 4826.0, 4800.0, 4832.0, 4826.0, 4798.0, 4830.0, 4794.0, 4828.0, 4800.0, 4804.0, 4830.0, 4764.0, 4794.0, 4864.0, 4832.0, 4862.0, 4832.0, 4796.0, 4768.0, 4792.0, 4828.0, 4860.0, 4828.0, 4862.0, 4838.0, 4794.0, 4796.0, 4802.0, 4766.0, 4794.0, 4828.0, 4792.0, 4862.0, 4824.0, 4834.0, 4804.0, 4796.0, 4828.0, 4770.0, 4794.0, 4768.0, 4758.0, 4828.0, 4826.0, 4828.0, 4832.0, 4800.0, 4832.0, 4792.0, 4794.0, 4800.0, 4768.0, 4804.0, 4796.0],
      "WindowWidth": [18694.0, 18688.0, 18604.0, 18654.0, 18564.0, 18658.0, 18602.0, 18570.0, 18564.0, 18690.0, 18674.0, 18716.0, 18730.0, 18696.0, 18610.0, 18600.0, 18564.0, 18604.0, 18590.0, 18688.0, 18694.0, 18688.0, 18726.0, 18658.0, 18698.0, 18690.0, 18604.0, 18654.0, 18566.0, 18650.0, 18564.0, 18610.0, 18702.0, 18690.0, 18698.0, 18688.0, 18654.0, 18648.0, 18608.0, 18650.0, 18594.0, 18684.0, 18652.0, 18644.0, 18694.0, 18612.0, 18690.0, 18610.0, 18604.0, 18690.0, 18644.0, 18690.0, 18610.0, 18688.0, 18648.0, 18640.0, 18652.0, 18594.0, 18654.0, 18642.0, 18690.0, 18644.0, 18654.0, 18690.0, 18608.0, 18658.0, 18650.0, 18602.0, 18654.0, 18644.0, 18644.0, 18688.0, 18610.0, 18692.0, 18646.0, 18656.0, 18640.0, 18658.0, 18658.0, 18598.0, 18654.0, 18646.0, 18608.0, 18654.0, 18642.0, 18688.0, 18566.0, 18570.0, 18566.0, 18646.0, 18702.0, 18728.0, 18724.0, 18698.0, 18686.0, 18612.0, 18564.0, 18568.0, 18562.0, 18600.0, 18610.0, 18696.0, 18650.0, 18728.0, 18688.0, 18652.0, 18652.0, 18594.0, 18598.0, 18566.0, 18556.0, 18640.0, 18648.0, 18650.0, 18728.0, 18656.0, 18650.0, 18650.0, 18566.0, 18610.0, 18566.0, 18570.0, 18640.0, 18594.0, 18656.0, 18644.0, 18610.0, 18682.0, 18596.0, 18612.0, 18596.0, 18606.0, 18650.0, 18604.0, 18652.0, 18596.0, 18646.0, 18608.0, 18650.0, 18640.0, 18604.0, 18644.0, 18600.0, 18644.0, 18606.0, 18610.0, 18646.0, 18562.0, 18600.0, 18688.0, 18650.0, 18688.0, 18650.0, 18600.0, 18562.0, 18596.0, 18642.0, 18684.0, 18644.0, 18688.0, 18660.0, 18600.0, 18602.0, 18610.0, 18558.0, 18600.0, 18644.0, 18596.0, 18680.0, 18642.0, 18650.0, 18612.0, 18602.0, 18640.0, 18564.0, 18600.0, 18568.0, 18554.0, 18644.0, 18646.0, 18644.0, 18646.0, 18610.0, 18654.0, 18600.0, 18606.0, 18604.0, 18566.0, 18610.0, 18604.0]
    },
    "slices": {}
  }
}