{
  "AcquisitionMatrixPE": 104,
  "AcquisitionNumber": 1,
  "AcquisitionTime": "16:00:34.140000",
  "BandwidthPerPixelPhaseEncode": 17.17,
  "BaseResolution": 104,
  "BodyPartExamined": "BRAIN",
  "CoilString": "HC1-7;NC1_2",
  "ConsistencyInfo": "N4_VE11C_LATEST_20160120",
  "ConversionSoftware": "dcm2niix",
  "ConversionSoftwareVersion": "v1.0.20190902",
  "DerivedVendorReportedEchoSpacing": 0.000560011,
  "DeviceSerialNumber": "167006",
  "DwellTime": 2.1e-06,
  "EchoTime": 0.037,
  "EchoTrainLength": 104,
  "EffectiveEchoSpacing": 0.000560011,
  "FlipAngle": 52,
  "HeudiconvVersion": "0.10.0",
  "ImageComments": "Unaliased_MB4_PE3_LB",
  "ImageOrientationPatientDICOM": [0.998662, -0.049981, 0.0132435, 0.0516386, 0.95104, -0.304722],
  "ImageType": [
    "ORIGINAL",
    "PRIMARY",
    "P",
    "MB",
    "ND",
    "MOSAIC"
],
  "ImagingFrequency": 123.259,
  "InPlanePhaseEncodingDirectionDICOM": "COL",
  "InstitutionAddress": "Chemin_Queen-Mary_4565_Montreal_District_CA_H3W_1W5",
  "InstitutionName": "IUGM",
  "InstitutionalDepartmentName": "Department",
  "MRAcquisitionType": "2D",
  "MagneticFieldStrength": 3,
  "Manufacturer": "Siemens",
  "ManufacturersModelName": "Prisma_fit",
  "Modality": "MR",
  "MultibandAccelerationFactor": 4,
  "PartialFourier": 1,
  "PatientPosition": "HFS",
  "PercentPhaseFOV": 100,
  "PhaseEncodingDirection": "j",
  "PhaseEncodingSteps": 104,
  "PhaseResolution": 1,
  "PixelBandwidth": 2290,
  "ProcedureStepDescription": "memory_things",
  "ProtocolName": "func_task-things_run-6",
  "PulseSequenceDetails": "%CustomerSeq%_cmrr_mbep2d_bold",
  "ReceiveCoilActiveElements": "HC1-7;NC1,2",
  "ReceiveCoilName": "HeadNeck_64",
  "ReconMatrixPE": 104,
  "RepetitionTime": 1.49,
  "SAR": 0.0289749,
  "ScanOptions": "FS",
  "ScanningSequence": "EP",
  "SequenceName": "epfid2d1_104",
  "SequenceVariant": "SK_SS",
  "SeriesDescription": "func_task-things_run-6",
  "SeriesNumber": 26,
  "ShimSetting": [626, -7245, -8818, 614, 8, -189, -79, -36],
  "SliceThickness": 2,
  "SliceTiming": [0, 0.785, 0.0975, 0.8825, 0.195, 0.98, 0.295, 1.0775, 0.3925, 1.175, 0.49, 1.2725, 0.5875, 1.3725, 0.685, 0, 0.785, 0.0975, 0.8825, 0.195, 0.98, 0.295, 1.0775, 0.3925, 1.175, 0.49, 1.2725, 0.5875, 1.3725, 0.685, 0, 0.785, 0.0975, 0.8825, 0.195, 0.98, 0.295, 1.0775, 0.3925, 1.175, 0.49, 1.2725, 0.5875, 1.3725, 0.685, 0, 0.785, 0.0975, 0.8825, 0.195, 0.98, 0.295, 1.0775, 0.3925, 1.175, 0.49, 1.2725, 0.5875, 1.3725, 0.685],
  "SoftwareVersions": "syngo_MR_E11",
  "SpacingBetweenSlices": 2,
  "StationName": "MRC35049",
  "TaskName": "things",
  "TotalReadoutTime": 0.0576811,
  "TxRefAmp": 221.437,
  "WipMemBlock": "24e2246e-fdec-43ff-a095-3aab52770822||Sequence: R016 ve11c/master r/e634e98; Dec 19 2017 11:00:25 by eja",
  "dcmmeta_affine": [
    [-1.9973247051239014, 0.10327713936567307, -0.005270414520055056, 101.79496765136719],
    [0.09996190667152405, 1.9020806550979614, -0.6099973917007446, -72.29450225830078],
    [0.026487015187740326, 0.6094448566436768, 1.9046982526779175, -65.91278076171875],
    [0.0, 0.0, 0.0, 1.0]
],
  "dcmmeta_reorient_transform": [
    [0.0, -1.0, 0.0, 103.0],
    [1.0, 0.0, 0.0, 0.0],
    [0.0, 0.0, 1.0, 0.0],
    [0.0, 0.0, 0.0, 1.0]
],
  "dcmmeta_shape": [104, 104, 60, 190],
  "dcmmeta_slice_dim": 2,
  "dcmmeta_version": 0.6,
  "global": {
    "const": {
      "AcquisitionMatrix": [104, 0, 0, 104],
      "AngioFlag": "N",
      "BitsAllocated": 16,
      "BitsStored": 16,
      "BodyPartExamined": "BRAIN",
      "Columns": 832,
      "EchoNumbers": 1,
      "EchoTime": 37.0,
      "EchoTrainLength": 104,
      "FlipAngle": 52.0,
      "HighBit": 15,
      "ImageOrientationPatient": [0.99866236219653, -0.0499809546643, 0.01324350795235, 0.05163857099394, 0.9510403274505, -0.3047224204888],
      "ImagePositionPatient": [-877.05159144323, -779.59102797986, 209.05668936119],
      "ImageType": [
        "ORIGINAL",
        "PRIMARY",
        "P",
        "MB",
        "ND",
        "MOSAIC"
],
      "ImagedNucleus": "1H",
      "ImagingFrequency": 123.258882,
      "InPlanePhaseEncodingDirection": "COL",
      "LargestImagePixelValue": 4095,
      "MRAcquisitionType": "2D",
      "MagneticFieldStrength": 3.0,
      "Manufacturer": "SIEMENS",
      "ManufacturerModelName": "Prisma_fit",
      "Modality": "MR",
      "NumberOfAverages": 1.0,
      "NumberOfPhaseEncodingSteps": 104,
      "PercentPhaseFieldOfView": 100.0,
      "PercentSampling": 100.0,
      "PerformedProcedureStepStartTime": "151411.151000",
      "PhotometricInterpretation": "MONOCHROME2",
      "PixelBandwidth": 2290.0,
      "PixelRepresentation": 0,
      "PixelSpacing": [2.0, 2.0],
      "ProtocolName": "func_task-things_run-6",
      "RepetitionTime": 1490.0,
      "RescaleIntercept": -4096.0,
      "RescaleSlope": 2.0,
      "RescaleType": "US",
      "Rows": 832,
      "SAR": 0.02897489081305,
      "SamplesPerPixel": 1,
      "ScanOptions": "FS",
      "ScanningSequence": "EP",
      "SequenceName": "epfid2d1_104",
      "SequenceVariant": [
        "SK",
        "SS"
],
      "SeriesDescription": "func_task-things_run-6",
      "SeriesNumber": 26,
      "SeriesTime": "160146.571000",
      "SliceLocation": -40.9904983766,
      "SliceThickness": 2.0,
      "SmallestImagePixelValue": 0,
      "SoftwareVersions": "syngo MR E11",
      "SpacingBetweenSlices": 2.000000011166,
      "SpecificCharacterSet": "ISO_IR 100",
      "StudyID": "1",
      "StudyTime": "151411.081000",
      "TransmitCoilName": "Body",
      "VariableFlipAngleFlag": "N",
      "WindowCenterWidthExplanation": "Algo1",
      "dBdt": 0.0},
    "slices": {}
  },
  "time": {
    "samples": {
      "AcquisitionNumber": [1, 2, 3, 4, 5, 6, 7, 8, 9, 10, 11, 12, 13, 14, 15, 16, 17, 18, 19, 20, 21, 22, 23, 24, 25, 26, 27, 28, 29, 30, 31, 32, 33, 34, 35, 36, 37, 38, 39, 40, 41, 42, 43, 44, 45, 46, 47, 48, 49, 50, 51, 52, 53, 54, 55, 56, 57, 58, 59, 60, 61, 62, 63, 64, 65, 66, 67, 68, 69, 70, 71, 72, 73, 74, 75, 76, 77, 78, 79, 80, 81, 82, 83, 84, 85, 86, 87, 88, 89, 90, 91, 92, 93, 94, 95, 96, 97, 98, 99, 100, 101, 102, 103, 104, 105, 106, 107, 108, 109, 110, 111, 112, 113, 114, 115, 116, 117, 118, 119, 120, 121, 122, 123, 124, 125, 126, 127, 128, 129, 130, 131, 132, 133, 134, 135, 136, 137, 138, 139, 140, 141, 142, 143, 144, 145, 146, 147, 148, 149, 150, 151, 152, 153, 154, 155, 156, 157, 158, 159, 160, 161, 162, 163, 164, 165, 166, 167, 168, 169, 170, 171, 172, 173, 174, 175, 176, 177, 178, 179, 180, 181, 182, 183, 184, 185, 186, 187, 188, 189, 190],
      "AcquisitionTime": ["160034.140000", "160035.630000", "160037.120000", "160038.610000", "160040.100000", "160041.590000", "160043.080000", "160044.570000", "160046.060000", "160047.550000", "160049.040000", "160050.530000", "160052.020000", "160053.510000", "160055.000000", "160056.490000", "160057.980000", "160059.470000", "160100.960000", "160102.450000", "160103.940000", "160105.430000", "160106.920000", "160108.410000", "160109.900000", "160111.390000", "160112.880000", "160114.370000", "160115.860000", "160117.350000", "160118.840000", "160120.330000", "160121.820000", "160123.310000", "160124.800000", "160126.290000", "160127.780000", "160129.270000", "160130.760000", "160132.250000", "160133.740000", "160135.230000", "160136.720000", "160138.210000", "160139.700000", "160141.190000", "160142.680000", "160144.170000", "160145.660000", "160147.150000", "160148.640000", "160150.130000", "160151.620000", "160153.110000", "160154.600000", "160156.090000", "160157.580000", "160159.070000", "160200.560000", "160202.050000", "160203.540000", "160205.030000", "160206.520000", "160208.010000", "160209.500000", "160210.990000", "160212.480000", "160213.970000", "160215.460000", "160216.950000", "160218.440000", "160219.930000", "160221.420000", "160222.910000", "160224.400000", "160225.890000", "160227.380000", "160228.870000", "160230.360000", "160231.850000", "160233.340000", "160234.830000", "160236.320000", "160237.810000", "160239.300000", "160240.790000", "160242.280000", "160243.770000", "160245.260000", "160246.750000", "160248.240000", "160249.730000", "160251.220000", "160252.710000", "160254.200000", "160255.690000", "160257.180000", "160258.670000", "160300.160000", "160301.650000", "160303.140000", "160304.630000", "160306.120000", "160307.610000", "160309.100000", "160310.590000", "160312.080000", "160313.570000", "160315.060000", "160316.550000", "160318.040000", "160319.530000", "160321.020000", "160322.510000", "160324.000000", "160325.490000", "160326.980000", "160328.470000", "160329.960000", "160331.450000", "160332.940000", "160334.430000", "160335.920000", "160337.410000", "160338.900000", "160340.390000", "160341.880000", "160343.370000", "160344.860000", "160346.350000", "160347.840000", "160349.330000", "160350.820000", "160352.310000", "160353.800000", "160355.290000", "160356.780000", "160358.270000", "160359.760000", "160401.250000", "160402.740000", "160404.230000", "160405.720000", "160407.210000", "160408.700000", "160410.190000", "160411.680000", "160413.170000", "160414.660000", "160416.150000", "160417.640000", "160419.130000", "160420.620000", "160422.110000", "160423.600000", "160425.090000", "160426.580000", "160428.070000", "160429.560000", "160431.050000", "160432.540000", "160434.030000", "160435.520000", "160437.010000", "160438.500000", "160439.990000", "160441.480000", "160442.970000", "160444.460000", "160445.950000", "160447.440000", "160448.930000", "160450.420000", "160451.910000", "160453.400000", "160454.890000", "160456.380000", "160457.870000", "160459.360000", "160500.850000", "160502.340000", "160503.830000", "160505.320000", "160506.810000", "160508.300000", "160509.790000", "160511.280000", "160512.770000", "160514.260000", "160515.750000"],
      "ContentTime": ["160146.573000", "160146.576000", "160146.579000", "160146.586000", "160146.589000", "160146.592000", "160146.594000", "160146.597000", "160146.599000", "160146.602000", "160146.604000", "160146.607000", "160146.610000", "160146.612000", "160146.615000", "160146.617000", "160146.620000", "160146.622000", "160206.543000", "160206.546000", "160206.548000", "160206.551000", "160206.553000", "160206.556000", "160206.559000", "160206.561000", "160206.564000", "160206.566000", "160206.569000", "160206.571000", "160206.574000", "160206.576000", "160206.579000", "160206.581000", "160206.584000", "160206.586000", "160206.589000", "160206.591000", "160226.542000", "160226.544000", "160226.547000", "160226.550000", "160226.552000", "160226.555000", "160226.557000", "160226.560000", "160226.562000", "160226.565000", "160226.567000", "160226.570000", "160226.572000", "160226.575000", "160226.577000", "160226.591000", "160226.594000", "160226.596000", "160226.599000", "160226.601000", "160246.530000", "160246.533000", "160246.537000", "160246.539000", "160246.542000", "160246.545000", "160246.548000", "160246.552000", "160246.555000", "160246.558000", "160246.562000", "160246.565000", "160246.568000", "160246.570000", "160246.573000", "160246.576000", "160246.578000", "160246.581000", "160246.583000", "160246.593000", "160306.546000", "160306.549000", "160306.551000", "160306.554000", "160306.556000", "160306.559000", "160306.561000", "160306.564000", "160306.567000", "160306.569000", "160306.572000", "160306.574000", "160306.577000", "160306.579000", "160306.582000", "160306.585000", "160306.587000", "160306.590000", "160306.592000", "160306.595000", "160346.588000", "160346.591000", "160346.594000", "160346.596000", "160346.599000", "160346.601000", "160346.604000", "160346.606000", "160346.609000", "160346.612000", "160346.614000", "160346.617000", "160346.619000", "160346.622000", "160346.624000", "160346.627000", "160346.630000", "160346.632000", "160346.635000", "160346.643000", "160346.646000", "160346.648000", "160346.651000", "160346.654000", "160346.656000", "160346.659000", "160346.661000", "160346.664000", "160346.667000", "160346.669000", "160426.574000", "160426.577000", "160426.579000", "160426.582000", "160426.585000", "160426.587000", "160426.590000", "160426.592000", "160426.595000", "160426.598000", "160426.600000", "160426.603000", "160426.606000", "160426.608000", "160426.611000", "160426.613000", "160426.616000", "160426.618000", "160426.621000", "160426.623000", "160426.626000", "160426.629000", "160426.631000", "160426.634000", "160426.636000", "160426.639000", "160426.641000", "160506.598000", "160506.601000", "160506.604000", "160506.607000", "160506.609000", "160506.612000", "160506.614000", "160506.617000", "160506.620000", "160506.622000", "160506.625000", "160506.627000", "160506.630000", "160506.632000", "160506.635000", "160506.637000", "160506.640000", "160506.643000", "160506.645000", "160506.648000", "160506.650000", "160506.653000", "160506.655000", "160506.658000", "160506.660000", "160506.663000", "160506.666000", "160517.907000", "160517.910000", "160517.912000", "160517.915000", "160517.918000", "160517.920000", "160517.923000", "160517.925000"],
      "InstanceCreationTime": ["160146.573000", "160146.576000", "160146.579000", "160146.586000", "160146.589000", "160146.592000", "160146.594000", "160146.597000", "160146.599000", "160146.602000", "160146.604000", "160146.607000", "160146.610000", "160146.612000", "160146.615000", "160146.617000", "160146.620000", "160146.622000", "160206.543000", "160206.546000", "160206.548000", "160206.551000", "160206.553000", "160206.556000", "160206.559000", "160206.561000", "160206.564000", "160206.566000", "160206.569000", "160206.571000", "160206.574000", "160206.576000", "160206.579000", "160206.581000", "160206.584000", "160206.586000", "160206.589000", "160206.591000", "160226.542000", "160226.544000", "160226.547000", "160226.550000", "160226.552000", "160226.555000", "160226.557000", "160226.560000", "160226.562000", "160226.565000", "160226.567000", "160226.570000", "160226.572000", "160226.575000", "160226.577000", "160226.591000", "160226.594000", "160226.596000", "160226.599000", "160226.601000", "160246.530000", "160246.533000", "160246.537000", "160246.539000", "160246.542000", "160246.545000", "160246.548000", "160246.552000", "160246.555000", "160246.558000", "160246.562000", "160246.565000", "160246.568000", "160246.570000", "160246.573000", "160246.576000", "160246.578000", "160246.581000", "160246.583000", "160246.593000", "160306.546000", "160306.549000", "160306.551000", "160306.554000", "160306.556000", "160306.559000", "160306.561000", "160306.564000", "160306.567000", "160306.569000", "160306.572000", "160306.574000", "160306.577000", "160306.579000", "160306.582000", "160306.585000", "160306.587000", "160306.590000", "160306.592000", "160306.595000", "160346.588000", "160346.591000", "160346.594000", "160346.596000", "160346.599000", "160346.601000", "160346.604000", "160346.606000", "160346.609000", "160346.612000", "160346.614000", "160346.617000", "160346.619000", "160346.622000", "160346.624000", "160346.627000", "160346.630000", "160346.632000", "160346.635000", "160346.643000", "160346.646000", "160346.648000", "160346.651000", "160346.654000", "160346.656000", "160346.659000", "160346.661000", "160346.664000", "160346.667000", "160346.669000", "160426.574000", "160426.577000", "160426.579000", "160426.582000", "160426.585000", "160426.587000", "160426.590000", "160426.592000", "160426.595000", "160426.598000", "160426.600000", "160426.603000", "160426.606000", "160426.608000", "160426.611000", "160426.613000", "160426.616000", "160426.618000", "160426.621000", "160426.623000", "160426.626000", "160426.629000", "160426.631000", "160426.634000", "160426.636000", "160426.639000", "160426.641000", "160506.598000", "160506.601000", "160506.604000", "160506.607000", "160506.609000", "160506.612000", "160506.614000", "160506.617000", "160506.620000", "160506.622000", "160506.625000", "160506.627000", "160506.630000", "160506.632000", "160506.635000", "160506.637000", "160506.640000", "160506.643000", "160506.645000", "160506.648000", "160506.650000", "160506.653000", "160506.655000", "160506.658000", "160506.660000", "160506.663000", "160506.666000", "160517.907000", "160517.910000", "160517.912000", "160517.915000", "160517.918000", "160517.920000", "160517.923000", "160517.925000"],
      "InstanceNumber": [1, 2, 3, 4, 5, 6, 7, 8, 9, 10, 11, 12, 13, 14, 15, 16, 17, 18, 19, 20, 21, 22, 23, 24, 25, 26, 27, 28, 29, 30, 31, 32, 33, 34, 35, 36, 37, 38, 39, 40, 41, 42, 43, 44, 45, 46, 47, 48, 49, 50, 51, 52, 53, 54, 55, 56, 57, 58, 59, 60, 61, 62, 63, 64, 65, 66, 67, 68, 69, 70, 71, 72, 73, 74, 75, 76, 77, 78, 79, 80, 81, 82, 83, 84, 85, 86, 87, 88, 89, 90, 91, 92, 93, 94, 95, 96, 97, 98, 99, 100, 101, 102, 103, 104, 105, 106, 107, 108, 109, 110, 111, 112, 113, 114, 115, 116, 117, 118, 119, 120, 121, 122, 123, 124, 125, 126, 127, 128, 129, 130, 131, 132, 133, 134, 135, 136, 137, 138, 139, 140, 141, 142, 143, 144, 145, 146, 147, 148, 149, 150, 151, 152, 153, 154, 155, 156, 157, 158, 159, 160, 161, 162, 163, 164, 165, 166, 167, 168, 169, 170, 171, 172, 173, 174, 175, 176, 177, 178, 179, 180, 181, 182, 183, 184, 185, 186, 187, 188, 189, 190],
      "WindowCenter": [4904.0, 4904.0, 4906.0, 4894.0, 4896.0, 4904.0, 4866.0, 4900.0, 4904.0, 4900.0, 4906.0, 4900.0, 4896.0, 4902.0, 4898.0, 4902.0, 4894.0, 4862.0, 4904.0, 4874.0, 4796.0, 4874.0, 4852.0, 4884.0, 4902.0, 4902.0, 4860.0, 4768.0, 4800.0, 4896.0, 4906.0, 4902.0, 4882.0, 4888.0, 4904.0, 4900.0, 4906.0, 4898.0, 4826.0, 4868.0, 4906.0, 4900.0, 4904.0, 4900.0, 4870.0, 4906.0, 4908.0, 4900.0, 4906.0, 4904.0, 4904.0, 4870.0, 4826.0, 4868.0, 4906.0, 4904.0, 4906.0, 4902.0, 4904.0, 4866.0, 4900.0, 4904.0, 4904.0, 4898.0, 4906.0, 4904.0, 4872.0, 4898.0, 4902.0, 4896.0, 4900.0, 4902.0, 4898.0, 4832.0, 4900.0, 4908.0, 4906.0, 4902.0, 4830.0, 4800.0, 4862.0, 4906.0, 4906.0, 4900.0, 4900.0, 4904.0, 4904.0, 4892.0, 4902.0, 4902.0, 4834.0, 4858.0, 4906.0, 4906.0, 4904.0, 4904.0, 4902.0, 4890.0, 4872.0, 4902.0, 4900.0, 4896.0, 4904.0, 4874.0, 4896.0, 4908.0, 4900.0, 4898.0, 4906.0, 4902.0, 4902.0, 4906.0, 4894.0, 4896.0, 4908.0, 4896.0, 4902.0, 4902.0, 4872.0, 4904.0, 4906.0, 4866.0, 4898.0, 4904.0, 4834.0, 4832.0, 4900.0, 4904.0, 4906.0, 4904.0, 4898.0, 4800.0, 4744.0, 4834.0, 4906.0, 4882.0, 4878.0, 4882.0, 4908.0, 4898.0, 4864.0, 4860.0, 4794.0, 4768.0, 4860.0, 4902.0, 4880.0, 4906.0, 4904.0, 4904.0, 4906.0, 4900.0, 4862.0, 4838.0, 4824.0, 4862.0, 4908.0, 4908.0, 4908.0, 4880.0, 4898.0, 4896.0, 4906.0, 4866.0, 4900.0, 4874.0, 4894.0, 4898.0, 4900.0, 4906.0, 4904.0, 4906.0, 4900.0, 4896.0, 4902.0, 4896.0, 4904.0, 4900.0, 4904.0, 4904.0, 4896.0, 4900.0, 4900.0, 4898.0, 4908.0, 4900.0, 4906.0, 4906.0, 4900.0, 4902.0],
      "WindowWidth": [18728.0, 18722.0, 18716.0, 18722.0, 18718.0, 18728.0, 18694.0, 18710.0, 18714.0, 18720.0, 18712.0, 18720.0, 18730.0, 18720.0, 18730.0, 18724.0, 18724.0, 18686.0, 18720.0, 18688.0, 18616.0, 18682.0, 18618.0, 18662.0, 18708.0, 18726.0, 18682.0, 18566.0, 18606.0, 18726.0, 18716.0, 18724.0, 18674.0, 18670.0, 18724.0, 18722.0, 18726.0, 18730.0, 18646.0, 18692.0, 18730.0, 18726.0, 18728.0, 18720.0, 18692.0, 18718.0, 18710.0, 18728.0, 18732.0, 18724.0, 18724.0, 18692.0, 18644.0, 18688.0, 18728.0, 18714.0, 18732.0, 18710.0, 18716.0, 18692.0, 18730.0, 18720.0, 18726.0, 18722.0, 18724.0, 18724.0, 18692.0, 18726.0, 18722.0, 18726.0, 18728.0, 18716.0, 18722.0, 18648.0, 18726.0, 18720.0, 18710.0, 18716.0, 18644.0, 18610.0, 18680.0, 18726.0, 18706.0, 18718.0, 18724.0, 18718.0, 18728.0, 18726.0, 18730.0, 18730.0, 18652.0, 18678.0, 18724.0, 18724.0, 18726.0, 18706.0, 18708.0, 18724.0, 18690.0, 18726.0, 18728.0, 18724.0, 18722.0, 18694.0, 18720.0, 18718.0, 18724.0, 18724.0, 18716.0, 18728.0, 18730.0, 18724.0, 18722.0, 18724.0, 18724.0, 18730.0, 18722.0, 18724.0, 18696.0, 18724.0, 18720.0, 18696.0, 18732.0, 18728.0, 18652.0, 18648.0, 18722.0, 18726.0, 18718.0, 18710.0, 18730.0, 18610.0, 18536.0, 18656.0, 18716.0, 18670.0, 18662.0, 18668.0, 18728.0, 18726.0, 18690.0, 18684.0, 18600.0, 18570.0, 18676.0, 18706.0, 18654.0, 18700.0, 18702.0, 18706.0, 18726.0, 18728.0, 18690.0, 18652.0, 18642.0, 18684.0, 18728.0, 18728.0, 18706.0, 18666.0, 18722.0, 18722.0, 18728.0, 18696.0, 18728.0, 18690.0, 18724.0, 18726.0, 18724.0, 18718.0, 18728.0, 18722.0, 18724.0, 18724.0, 18724.0, 18730.0, 18726.0, 18724.0, 18724.0, 18722.0, 18728.0, 18726.0, 18722.0, 18726.0, 18728.0, 18728.0, 18728.0, 18720.0, 18726.0, 18718.0]
    },
    "slices": {}
  }
}