{
  "AcquisitionMatrixPE": 104,
  "AcquisitionNumber": 1,
  "AcquisitionTime": "10:56:48.220000",
  "BandwidthPerPixelPhaseEncode": 17.17,
  "BaseResolution": 104,
  "BodyPartExamined": "BRAIN",
  "CoilString": "HC1-7;NC1_2",
  "ConsistencyInfo": "N4_VE11C_LATEST_20160120",
  "ConversionSoftware": "dcm2niix",
  "ConversionSoftwareVersion": "v1.0.20190902",
  "DerivedVendorReportedEchoSpacing": 0.000560011,
  "DeviceSerialNumber": "167006",
  "DwellTime": 2.1e-06,
  "EchoTime": 0.037,
  "EchoTrainLength": 104,
  "EffectiveEchoSpacing": 0.000560011,
  "FlipAngle": 52,
  "ImageComments": "Unaliased_MB4_PE3_LB",
  "ImageOrientationPatientDICOM": [0.999615, 0.0156946, 0.0228675, -0.00209358, 0.864839, -0.502045],
  "ImageType": [
    "ORIGINAL",
    "PRIMARY",
    "M",
    "MB",
    "ND",
    "MOSAIC"
],
  "ImagingFrequency": 123.259,
  "InPlanePhaseEncodingDirectionDICOM": "COL",
  "InstitutionAddress": "Chemin_Queen-Mary_4565_Montreal_District_CA_H3W_1W5",
  "InstitutionName": "IUGM",
  "InstitutionalDepartmentName": "Department",
  "MRAcquisitionType": "2D",
  "MagneticFieldStrength": 3,
  "Manufacturer": "Siemens",
  "ManufacturersModelName": "Prisma_fit",
  "Modality": "MR",
  "MultibandAccelerationFactor": 4,
  "PartialFourier": 1,
  "PatientPosition": "HFS",
  "PercentPhaseFOV": 100,
  "PhaseEncodingDirection": "j",
  "PhaseEncodingSteps": 104,
  "PhaseResolution": 1,
  "PixelBandwidth": 2290,
  "ProcedureStepDescription": "memory_things",
  "ProtocolName": "func_task-things_run-3",
  "PulseSequenceDetails": "%CustomerSeq%_cmrr_mbep2d_bold",
  "ReceiveCoilActiveElements": "HC1-7;NC1,2",
  "ReceiveCoilName": "HeadNeck_64",
  "ReconMatrixPE": 104,
  "RepetitionTime": 1.49,
  "SAR": 0.0605283,
  "ScanOptions": "FS",
  "ScanningSequence": "EP",
  "SequenceName": "epfid2d1_104",
  "SequenceVariant": "SK_SS",
  "SeriesDescription": "func_task-things_run-3",
  "SeriesNumber": 16,
  "ShimSetting": [622, -7189, -8869, 282, 24, -134, -8, 11],
  "SliceThickness": 2,
  "SliceTiming": [0, 0.7825, 0.0975, 0.88, 0.195, 0.9775, 0.2925, 1.0775, 0.39, 1.175, 0.4875, 1.2725, 0.5875, 1.37, 0.685, 0, 0.7825, 0.0975, 0.88, 0.195, 0.9775, 0.2925, 1.0775, 0.39, 1.175, 0.4875, 1.2725, 0.5875, 1.37, 0.685, 0, 0.7825, 0.0975, 0.88, 0.195, 0.9775, 0.2925, 1.0775, 0.39, 1.175, 0.4875, 1.2725, 0.5875, 1.37, 0.685, 0, 0.7825, 0.0975, 0.88, 0.195, 0.9775, 0.2925, 1.0775, 0.39, 1.175, 0.4875, 1.2725, 0.5875, 1.37, 0.685],
  "SoftwareVersions": "syngo_MR_E11",
  "SpacingBetweenSlices": 2,
  "StationName": "MRC35049",
  "TaskName": "things",
  "TotalReadoutTime": 0.0576811,
  "TxRefAmp": 289.742,
  "WipMemBlock": "93ca129e-8f31-401e-9cd2-2ae8df3fad9d||Sequence: R016 ve11c/master r/e634e98; Dec 19 2017 11:00:25 by eja",
  "dcmmeta_affine": [
    [-1.9992306232452393, -0.004187168087810278, 0.055312175303697586, 105.70159912109375],
    [-0.03138919547200203, 1.729677438735962, -1.0036089420318604, -50.443206787109375],
    [0.04573496803641319, 1.0040909051895142, 1.729077696800232, -98.86005401611328],
    [0.0, 0.0, 0.0, 1.0]
],
  "dcmmeta_reorient_transform": [
    [0.0, -1.0, 0.0, 103.0],
    [1.0, 0.0, 0.0, 0.0],
    [0.0, 0.0, 1.0, 0.0],
    [0.0, 0.0, 0.0, 1.0]
],
  "dcmmeta_shape": [104, 104, 60, 190],
  "dcmmeta_slice_dim": 2,
  "dcmmeta_version": 0.6,
  "global": {
    "const": {
      "AcquisitionMatrix": [104, 0, 0, 104],
      "AngioFlag": "N",
      "BitsAllocated": 16,
      "BitsStored": 16,
      "BodyPartExamined": "BRAIN",
      "Columns": 832,
      "EchoNumbers": 1,
      "EchoTime": 37.0,
      "EchoTrainLength": 104,
      "FlipAngle": 52.0,
      "HighBit": 15,
      "ImageOrientationPatient": [0.99961530486712, 0.01569459804083, 0.02286748494586, -0.0020935839873, 0.86483869521292, -0.5020454642445],
      "ImagePositionPatient": [-831.46613399637, -768.74180347222, 353.40288160242],
      "ImageType": [
        "ORIGINAL",
        "PRIMARY",
        "M",
        "MB",
        "ND",
        "MOSAIC"
],
      "ImagedNucleus": "1H",
      "ImagingFrequency": 123.259091,
      "InPlanePhaseEncodingDirection": "COL",
      "MRAcquisitionType": "2D",
      "MagneticFieldStrength": 3.0,
      "Manufacturer": "SIEMENS",
      "ManufacturerModelName": "Prisma_fit",
      "Modality": "MR",
      "NumberOfAverages": 1.0,
      "NumberOfPhaseEncodingSteps": 104,
      "PercentPhaseFieldOfView": 100.0,
      "PercentSampling": 100.0,
      "PerformedProcedureStepStartTime": "102254.312000",
      "PhotometricInterpretation": "MONOCHROME2",
      "PixelBandwidth": 2290.0,
      "PixelRepresentation": 0,
      "PixelSpacing": [2.0, 2.0],
      "ProtocolName": "func_task-things_run-3",
      "RepetitionTime": 1490.0,
      "Rows": 832,
      "SAR": 0.06052827140436,
      "SamplesPerPixel": 1,
      "ScanOptions": "FS",
      "ScanningSequence": "EP",
      "SequenceName": "epfid2d1_104",
      "SequenceVariant": [
        "SK",
        "SS"
],
      "SeriesDescription": "func_task-things_run-3",
      "SeriesNumber": 16,
      "SeriesTime": "105800.388000",
      "SliceLocation": -57.232439092883,
      "SliceThickness": 2.0,
      "SmallestImagePixelValue": 0,
      "SoftwareVersions": "syngo MR E11",
      "SpacingBetweenSlices": 1.9999999688932,
      "SpecificCharacterSet": "ISO_IR 100",
      "StudyID": "1",
      "StudyTime": "102254.244000",
      "TransmitCoilName": "Body",
      "VariableFlipAngleFlag": "N",
      "WindowCenterWidthExplanation": "Algo1",
      "dBdt": 0.0},
    "slices": {}
  },
  "time": {
    "samples": {
      "AcquisitionNumber": [1, 2, 3, 4, 5, 6, 7, 8, 9, 10, 11, 12, 13, 14, 15, 16, 17, 18, 19, 20, 21, 22, 23, 24, 25, 26, 27, 28, 29, 30, 31, 32, 33, 34, 35, 36, 37, 38, 39, 40, 41, 42, 43, 44, 45, 46, 47, 48, 49, 50, 51, 52, 53, 54, 55, 56, 57, 58, 59, 60, 61, 62, 63, 64, 65, 66, 67, 68, 69, 70, 71, 72, 73, 74, 75, 76, 77, 78, 79, 80, 81, 82, 83, 84, 85, 86, 87, 88, 89, 90, 91, 92, 93, 94, 95, 96, 97, 98, 99, 100, 101, 102, 103, 104, 105, 106, 107, 108, 109, 110, 111, 112, 113, 114, 115, 116, 117, 118, 119, 120, 121, 122, 123, 124, 125, 126, 127, 128, 129, 130, 131, 132, 133, 134, 135, 136, 137, 138, 139, 140, 141, 142, 143, 144, 145, 146, 147, 148, 149, 150, 151, 152, 153, 154, 155, 156, 157, 158, 159, 160, 161, 162, 163, 164, 165, 166, 167, 168, 169, 170, 171, 172, 173, 174, 175, 176, 177, 178, 179, 180, 181, 182, 183, 184, 185, 186, 187, 188, 189, 190],
      "AcquisitionTime": ["105648.220000", "105649.710000", "105651.200000", "105652.690000", "105654.180000", "105655.670000", "105657.160000", "105658.650000", "105700.140000", "105701.630000", "105703.120000", "105704.610000", "105706.100000", "105707.590000", "105709.080000", "105710.570000", "105712.060000", "105713.550000", "105715.040000", "105716.530000", "105718.020000", "105719.510000", "105721.000000", "105722.490000", "105723.980000", "105725.470000", "105726.960000", "105728.450000", "105729.940000", "105731.430000", "105732.920000", "105734.410000", "105735.900000", "105737.390000", "105738.880000", "105740.370000", "105741.860000", "105743.350000", "105744.840000", "105746.330000", "105747.820000", "105749.310000", "105750.800000", "105752.290000", "105753.780000", "105755.270000", "105756.760000", "105758.250000", "105759.740000", "105801.230000", "105802.720000", "105804.210000", "105805.700000", "105807.190000", "105808.680000", "105810.170000", "105811.660000", "105813.150000", "105814.640000", "105816.130000", "105817.620000", "105819.110000", "105820.600000", "105822.090000", "105823.580000", "105825.070000", "105826.560000", "105828.050000", "105829.540000", "105831.030000", "105832.520000", "105834.010000", "105835.500000", "105836.990000", "105838.480000", "105839.970000", "105841.460000", "105842.950000", "105844.440000", "105845.930000", "105847.420000", "105848.910000", "105850.400000", "105851.890000", "105853.380000", "105854.870000", "105856.360000", "105857.850000", "105859.340000", "105900.830000", "105902.320000", "105903.810000", "105905.300000", "105906.790000", "105908.280000", "105909.770000", "105911.260000", "105912.750000", "105914.240000", "105915.730000", "105917.220000", "105918.710000", "105920.200000", "105921.690000", "105923.180000", "105924.670000", "105926.160000", "105927.650000", "105929.140000", "105930.630000", "105932.120000", "105933.610000", "105935.100000", "105936.590000", "105938.080000", "105939.570000", "105941.060000", "105942.550000", "105944.040000", "105945.530000", "105947.020000", "105948.510000", "105950.000000", "105951.490000", "105952.980000", "105954.470000", "105955.960000", "105957.450000", "105958.940000", "110000.430000", "110001.920000", "110003.410000", "110004.900000", "110006.390000", "110007.880000", "110009.370000", "110010.860000", "110012.350000", "110013.840000", "110015.330000", "110016.820000", "110018.310000", "110019.800000", "110021.290000", "110022.780000", "110024.270000", "110025.760000", "110027.250000", "110028.740000", "110030.230000", "110031.720000", "110033.210000", "110034.700000", "110036.190000", "110037.680000", "110039.170000", "110040.660000", "110042.150000", "110043.640000", "110045.130000", "110046.620000", "110048.110000", "110049.600000", "110051.090000", "110052.580000", "110054.070000", "110055.560000", "110057.050000", "110058.540000", "110100.030000", "110101.520000", "110103.010000", "110104.500000", "110105.990000", "110107.480000", "110108.970000", "110110.460000", "110111.950000", "110113.440000", "110114.930000", "110116.420000", "110117.910000", "110119.400000", "110120.890000", "110122.380000", "110123.870000", "110125.360000", "110126.850000", "110128.340000", "110129.830000"],
      "ContentTime": ["105800.391000", "105800.395000", "105800.398000", "105800.402000", "105800.405000", "105800.416000", "105800.419000", "105800.422000", "105800.426000", "105800.429000", "105800.432000", "105800.443000", "105800.446000", "105800.450000", "105800.453000", "105800.457000", "105800.460000", "105800.463000", "105820.352000", "105820.356000", "105820.359000", "105820.376000", "105820.379000", "105820.382000", "105820.385000", "105820.389000", "105820.392000", "105820.395000", "105820.399000", "105820.402000", "105820.406000", "105820.409000", "105820.412000", "105820.416000", "105820.419000", "105820.422000", "105820.425000", "105820.429000", "105840.353000", "105840.357000", "105840.360000", "105840.363000", "105840.367000", "105840.370000", "105840.373000", "105840.377000", "105840.380000", "105840.383000", "105840.387000", "105840.390000", "105840.393000", "105840.397000", "105840.400000", "105840.404000", "105840.407000", "105840.410000", "105840.413000", "105840.417000", "105840.420000", "105900.353000", "105900.357000", "105900.360000", "105900.364000", "105900.367000", "105900.370000", "105900.374000", "105900.377000", "105900.380000", "105900.384000", "105900.387000", "105900.390000", "105900.393000", "105900.413000", "105900.417000", "105900.420000", "105900.423000", "105900.427000", "105900.430000", "105900.433000", "105920.352000", "105920.356000", "105920.359000", "105920.362000", "105920.365000", "105920.369000", "105920.372000", "105920.376000", "105920.379000", "105920.382000", "105920.385000", "105920.389000", "105920.392000", "105920.395000", "105920.399000", "105920.402000", "105920.405000", "105920.409000", "105920.412000", "105920.415000", "110000.352000", "110000.356000", "110000.359000", "110000.363000", "110000.366000", "110000.369000", "110000.373000", "110000.376000", "110000.379000", "110000.383000", "110000.386000", "110000.389000", "110000.393000", "110000.396000", "110000.399000", "110000.403000", "110000.406000", "110000.409000", "110000.413000", "110000.416000", "110000.419000", "110000.423000", "110000.426000", "110000.429000", "110000.433000", "110000.436000", "110000.439000", "110000.443000", "110000.446000", "110040.352000", "110040.356000", "110040.359000", "110040.363000", "110040.366000", "110040.369000", "110040.372000", "110040.376000", "110040.379000", "110040.383000", "110040.386000", "110040.389000", "110040.392000", "110040.396000", "110040.399000", "110040.402000", "110040.406000", "110040.409000", "110040.412000", "110040.415000", "110040.419000", "110040.422000", "110040.425000", "110040.429000", "110040.432000", "110040.435000", "110040.438000", "110120.353000", "110120.357000", "110120.360000", "110120.363000", "110120.367000", "110120.370000", "110120.373000", "110120.377000", "110120.380000", "110120.383000", "110120.387000", "110120.390000", "110120.393000", "110120.397000", "110120.400000", "110120.412000", "110120.415000", "110120.418000", "110120.422000", "110120.425000", "110120.428000", "110120.432000", "110120.435000", "110120.438000", "110120.441000", "110120.445000", "110120.448000", "110132.119000", "110132.123000", "110132.126000", "110132.130000", "110132.133000", "110132.137000", "110132.140000", "110132.143000"],
      "InstanceCreationTime": ["105800.391000", "105800.395000", "105800.398000", "105800.402000", "105800.405000", "105800.416000", "105800.419000", "105800.422000", "105800.426000", "105800.429000", "105800.432000", "105800.443000", "105800.446000", "105800.450000", "105800.453000", "105800.457000", "105800.460000", "105800.463000", "105820.352000", "105820.356000", "105820.359000", "105820.376000", "105820.379000", "105820.382000", "105820.385000", "105820.389000", "105820.392000", "105820.395000", "105820.399000", "105820.402000", "105820.406000", "105820.409000", "105820.412000", "105820.416000", "105820.419000", "105820.422000", "105820.425000", "105820.429000", "105840.353000", "105840.357000", "105840.360000", "105840.363000", "105840.367000", "105840.370000", "105840.373000", "105840.377000", "105840.380000", "105840.383000", "105840.387000", "105840.390000", "105840.393000", "105840.397000", "105840.400000", "105840.404000", "105840.407000", "105840.410000", "105840.413000", "105840.417000", "105840.420000", "105900.353000", "105900.357000", "105900.360000", "105900.364000", "105900.367000", "105900.370000", "105900.374000", "105900.377000", "105900.380000", "105900.384000", "105900.387000", "105900.390000", "105900.393000", "105900.413000", "105900.417000", "105900.420000", "105900.423000", "105900.427000", "105900.430000", "105900.433000", "105920.352000", "105920.356000", "105920.359000", "105920.362000", "105920.365000", "105920.369000", "105920.372000", "105920.376000", "105920.379000", "105920.382000", "105920.385000", "105920.389000", "105920.392000", "105920.395000", "105920.399000", "105920.402000", "105920.405000", "105920.409000", "105920.412000", "105920.415000", "110000.352000", "110000.356000", "110000.359000", "110000.363000", "110000.366000", "110000.369000", "110000.373000", "110000.376000", "110000.379000", "110000.383000", "110000.386000", "110000.389000", "110000.393000", "110000.396000", "110000.399000", "110000.403000", "110000.406000", "110000.409000", "110000.413000", "110000.416000", "110000.419000", "110000.423000", "110000.426000", "110000.429000", "110000.433000", "110000.436000", "110000.439000", "110000.443000", "110000.446000", "110040.352000", "110040.356000", "110040.359000", "110040.363000", "110040.366000", "110040.369000", "110040.372000", "110040.376000", "110040.379000", "110040.383000", "110040.386000", "110040.389000", "110040.392000", "110040.396000", "110040.399000", "110040.402000", "110040.406000", "110040.409000", "110040.412000", "110040.415000", "110040.419000", "110040.422000", "110040.425000", "110040.429000", "110040.432000", "110040.435000", "110040.438000", "110120.353000", "110120.357000", "110120.360000", "110120.363000", "110120.367000", "110120.370000", "110120.373000", "110120.377000", "110120.380000", "110120.383000", "110120.387000", "110120.390000", "110120.393000", "110120.397000", "110120.400000", "110120.412000", "110120.415000", "110120.418000", "110120.422000", "110120.425000", "110120.428000", "110120.432000", "110120.435000", "110120.438000", "110120.441000", "110120.445000", "110120.448000", "110132.119000", "110132.123000", "110132.126000", "110132.130000", "110132.133000", "110132.137000", "110132.140000", "110132.143000"],
      "InstanceNumber": [1, 2, 3, 4, 5, 6, 7, 8, 9, 10, 11, 12, 13, 14, 15, 16, 17, 18, 19, 20, 21, 22, 23, 24, 25, 26, 27, 28, 29, 30, 31, 32, 33, 34, 35, 36, 37, 38, 39, 40, 41, 42, 43, 44, 45, 46, 47, 48, 49, 50, 51, 52, 53, 54, 55, 56, 57, 58, 59, 60, 61, 62, 63, 64, 65, 66, 67, 68, 69, 70, 71, 72, 73, 74, 75, 76, 77, 78, 79, 80, 81, 82, 83, 84, 85, 86, 87, 88, 89, 90, 91, 92, 93, 94, 95, 96, 97, 98, 99, 100, 101, 102, 103, 104, 105, 106, 107, 108, 109, 110, 111, 112, 113, 114, 115, 116, 117, 118, 119, 120, 121, 122, 123, 124, 125, 126, 127, 128, 129, 130, 131, 132, 133, 134, 135, 136, 137, 138, 139, 140, 141, 142, 143, 144, 145, 146, 147, 148, 149, 150, 151, 152, 153, 154, 155, 156, 157, 158, 159, 160, 161, 162, 163, 164, 165, 166, 167, 168, 169, 170, 171, 172, 173, 174, 175, 176, 177, 178, 179, 180, 181, 182, 183, 184, 185, 186, 187, 188, 189, 190],
      "LargestImagePixelValue": [47194, 45843, 45968, 46051, 44799, 44782, 44628, 44590, 44833, 44576, 44798, 44848, 44926, 44591, 43729, 44483, 43843, 44263, 45484, 43910, 47334, 43870, 45813, 44054, 45040, 45101, 43953, 44057, 44193, 47093, 46992, 44612, 44526, 44897, 43674, 44145, 43513, 44204, 43691, 43974, 43618, 44200, 45914, 43818, 44355, 43611, 44459, 44131, 44464, 43767, 44062, 43914, 43953, 44868, 43961, 43778, 44626, 43904, 43722, 44547, 43802, 44545, 44733, 43899, 43881, 43884, 44901, 44433, 43851, 43773, 44315, 45633, 44482, 44355, 44267, 43627, 44707, 43896, 43854, 44002, 44816, 44343, 45579, 45884, 44051, 44414, 43418, 43812, 43927, 44193, 44520, 44111, 44523, 43834, 47051, 46119, 45552, 44421, 43776, 44183, 43927, 43823, 44210, 43660, 43806, 44152, 43824, 44115, 45063, 44200, 45225, 44108, 44775, 45381, 45932, 44034, 45958, 43908, 44047, 43862, 44596, 43771, 44515, 43776, 44359, 44412, 43990, 44003, 45234, 44810, 44360, 44025, 44878, 44077, 43953, 44193, 44240, 44991, 45594, 44932, 43825, 44128, 43881, 44793, 44242, 44632, 45043, 46079, 43864, 46020, 44304, 45168, 43786, 44845, 44389, 44288, 44276, 43891, 45609, 44265, 43866, 44166, 45047, 44572, 45109, 44066, 44062, 46240, 44571, 45960, 44888, 45257, 44410, 44370, 45655, 44186, 44728, 44138, 43668, 45031, 46521, 44875, 47264, 44542, 45661, 45372, 45603, 45234, 44331, 47004],
      "WindowCenter": [11151.0, 11127.0, 11133.0, 11122.0, 11093.0, 11089.0, 11076.0, 11080.0, 11087.0, 11100.0, 11096.0, 11082.0, 11095.0, 11088.0, 11085.0, 11126.0, 11058.0, 11083.0, 11117.0, 11130.0, 11134.0, 11080.0, 11078.0, 11073.0, 11153.0, 11084.0, 11092.0, 11113.0, 11105.0, 11115.0, 11094.0, 11032.0, 11030.0, 11122.0, 11049.0, 11070.0, 11070.0, 11045.0, 11031.0, 11059.0, 11047.0, 11070.0, 11119.0, 11034.0, 11050.0, 11047.0, 11072.0, 11061.0, 11082.0, 11017.0, 11069.0, 11096.0, 11066.0, 11078.0, 11057.0, 11051.0, 11074.0, 11072.0, 11052.0, 11043.0, 11053.0, 11075.0, 11076.0, 11038.0, 11029.0, 11062.0, 11077.0, 11060.0, 11046.0, 11062.0, 11062.0, 11086.0, 11041.0, 11042.0, 11066.0, 11087.0, 11065.0, 11047.0, 11089.0, 11043.0, 11047.0, 11060.0, 11052.0, 11056.0, 11044.0, 11027.0, 11045.0, 11047.0, 11031.0, 11036.0, 11042.0, 11042.0, 11053.0, 11068.0, 11094.0, 11081.0, 11052.0, 11045.0, 11069.0, 11111.0, 11057.0, 11049.0, 11057.0, 11052.0, 11061.0, 11072.0, 11082.0, 11096.0, 11102.0, 11080.0, 11067.0, 11032.0, 11063.0, 11095.0, 11101.0, 11071.0, 11082.0, 11081.0, 11069.0, 11066.0, 11062.0, 11046.0, 11043.0, 11035.0, 11047.0, 11052.0, 11055.0, 11050.0, 11050.0, 11056.0, 11044.0, 11063.0, 11125.0, 11050.0, 11053.0, 11086.0, 11049.0, 11099.0, 11087.0, 11073.0, 11062.0, 11104.0, 11033.0, 11030.0, 11031.0, 11067.0, 11094.0, 11086.0, 11039.0, 11064.0, 11086.0, 11107.0, 11101.0, 11098.0, 11063.0, 11072.0, 11043.0, 11044.0, 11049.0, 11041.0, 11041.0, 11058.0, 11080.0, 11067.0, 11069.0, 11091.0, 11038.0, 11098.0, 11058.0, 11080.0, 11073.0, 11080.0, 11083.0, 11062.0, 11096.0, 11060.0, 11048.0, 11063.0, 11054.0, 11097.0, 11127.0, 11101.0, 11110.0, 11072.0, 11058.0, 11044.0, 11078.0, 11104.0, 11116.0, 11140.0],
      "WindowWidth": [24058.0, 23970.0, 23962.0, 23928.0, 23855.0, 23837.0, 23811.0, 23815.0, 23830.0, 23863.0, 23853.0, 23817.0, 23845.0, 23829.0, 23824.0, 23923.0, 23761.0, 23817.0, 23891.0, 23930.0, 23927.0, 23821.0, 23801.0, 23796.0, 23983.0, 23821.0, 23841.0, 23886.0, 23872.0, 23879.0, 23838.0, 23701.0, 23695.0, 23908.0, 23747.0, 23786.0, 23789.0, 23726.0, 23695.0, 23762.0, 23734.0, 23786.0, 23901.0, 23706.0, 23739.0, 23736.0, 23790.0, 23768.0, 23818.0, 23666.0, 23781.0, 23851.0, 23781.0, 23804.0, 23765.0, 23745.0, 23797.0, 23794.0, 23748.0, 23725.0, 23749.0, 23799.0, 23803.0, 23716.0, 23696.0, 23769.0, 23803.0, 23765.0, 23734.0, 23769.0, 23770.0, 23820.0, 23723.0, 23718.0, 23774.0, 23832.0, 23775.0, 23734.0, 23835.0, 23728.0, 23728.0, 23762.0, 23741.0, 23748.0, 23729.0, 23685.0, 23729.0, 23734.0, 23697.0, 23704.0, 23717.0, 23717.0, 23744.0, 23785.0, 23830.0, 23807.0, 23744.0, 23731.0, 23785.0, 23888.0, 23762.0, 23738.0, 23758.0, 23746.0, 23764.0, 23792.0, 23817.0, 23847.0, 23859.0, 23810.0, 23778.0, 23698.0, 23765.0, 23839.0, 23856.0, 23793.0, 23808.0, 23815.0, 23789.0, 23781.0, 23770.0, 23731.0, 23723.0, 23708.0, 23728.0, 23743.0, 23752.0, 23740.0, 23735.0, 23755.0, 23722.0, 23767.0, 23918.0, 23738.0, 23746.0, 23827.0, 23735.0, 23849.0, 23820.0, 23792.0, 23772.0, 23870.0, 23712.0, 23691.0, 23695.0, 23777.0, 23840.0, 23821.0, 23721.0, 23768.0, 23829.0, 23872.0, 23862.0, 23852.0, 23770.0, 23789.0, 23722.0, 23724.0, 23731.0, 23718.0, 23719.0, 23757.0, 23809.0, 23778.0, 23779.0, 23840.0, 23716.0, 23843.0, 23760.0, 23800.0, 23793.0, 23805.0, 23819.0, 23770.0, 23843.0, 23765.0, 23736.0, 23772.0, 23750.0, 23844.0, 23913.0, 23856.0, 23867.0, 23793.0, 23756.0, 23721.0, 23800.0, 23863.0, 23894.0, 23940.0]
    },
    "slices": {}
  }
}