{
  "AcquisitionMatrixPE": 104,
  "AcquisitionNumber": 1,
  "AcquisitionTime": "10:43:27.747500",
  "BandwidthPerPixelPhaseEncode": 17.17,
  "BaseResolution": 104,
  "BodyPartExamined": "BRAIN",
  "CoilString": "HC1-7;NC1_2",
  "ConsistencyInfo": "N4_VE11C_LATEST_20160120",
  "ConversionSoftware": "dcm2niix",
  "ConversionSoftwareVersion": "v1.0.20190902",
  "DerivedVendorReportedEchoSpacing": 0.000560011,
  "DeviceSerialNumber": "167006",
  "DwellTime": 2.1e-06,
  "EchoTime": 0.037,
  "EchoTrainLength": 104,
  "EffectiveEchoSpacing": 0.000560011,
  "FlipAngle": 52,
  "ImageComments": "Unaliased_MB4_PE3_LB",
  "ImageOrientationPatientDICOM": [0.999615, 0.0156946, 0.0228675, -0.00209358, 0.864839, -0.502045],
  "ImageType": [
    "ORIGINAL",
    "PRIMARY",
    "P",
    "MB",
    "ND",
    "MOSAIC"
],
  "ImagingFrequency": 123.259,
  "InPlanePhaseEncodingDirectionDICOM": "COL",
  "InstitutionAddress": "Chemin_Queen-Mary_4565_Montreal_District_CA_H3W_1W5",
  "InstitutionName": "IUGM",
  "InstitutionalDepartmentName": "Department",
  "MRAcquisitionType": "2D",
  "MagneticFieldStrength": 3,
  "Manufacturer": "Siemens",
  "ManufacturersModelName": "Prisma_fit",
  "Modality": "MR",
  "MultibandAccelerationFactor": 4,
  "PartialFourier": 1,
  "PatientPosition": "HFS",
  "PercentPhaseFOV": 100,
  "PhaseEncodingDirection": "j",
  "PhaseEncodingSteps": 104,
  "PhaseResolution": 1,
  "PixelBandwidth": 2290,
  "ProcedureStepDescription": "memory_things",
  "ProtocolName": "func_task-things_run-1",
  "PulseSequenceDetails": "%CustomerSeq%_cmrr_mbep2d_bold",
  "ReceiveCoilActiveElements": "HC1-7;NC1,2",
  "ReceiveCoilName": "HeadNeck_64",
  "ReconMatrixPE": 104,
  "RepetitionTime": 1.49,
  "SAR": 0.0605283,
  "ScanOptions": "FS",
  "ScanningSequence": "EP",
  "SequenceName": "epfid2d1_104",
  "SequenceVariant": "SK_SS",
  "SeriesDescription": "func_task-things_run-1",
  "SeriesNumber": 11,
  "ShimSetting": [622, -7189, -8869, 282, 24, -134, -8, 11],
  "SliceThickness": 2,
  "SliceTiming": [0, 0.785, 0.0975, 0.8825, 0.195, 0.98, 0.295, 1.0775, 0.3925, 1.175, 0.49, 1.275, 0.5875, 1.3725, 0.685, 0, 0.785, 0.0975, 0.8825, 0.195, 0.98, 0.295, 1.0775, 0.3925, 1.175, 0.49, 1.275, 0.5875, 1.3725, 0.685, 0, 0.785, 0.0975, 0.8825, 0.195, 0.98, 0.295, 1.0775, 0.3925, 1.175, 0.49, 1.275, 0.5875, 1.3725, 0.685, 0, 0.785, 0.0975, 0.8825, 0.195, 0.98, 0.295, 1.0775, 0.3925, 1.175, 0.49, 1.275, 0.5875, 1.3725, 0.685],
  "SoftwareVersions": "syngo_MR_E11",
  "SpacingBetweenSlices": 2,
  "StationName": "MRC35049",
  "TaskName": "things",
  "TotalReadoutTime": 0.0576811,
  "TxRefAmp": 289.742,
  "WipMemBlock": "382444e7-194a-4f60-8b2f-4e33c2721e8f||Sequence: R016 ve11c/master r/e634e98; Dec 19 2017 11:00:25 by eja",
  "dcmmeta_affine": [
    [-1.9992306232452393, -0.004187168087810278, 0.055312175303697586, 105.70159912109375],
    [-0.03138919547200203, 1.729677438735962, -1.0036089420318604, -50.443206787109375],
    [0.04573496803641319, 1.0040909051895142, 1.729077696800232, -98.86005401611328],
    [0.0, 0.0, 0.0, 1.0]
],
  "dcmmeta_reorient_transform": [
    [0.0, -1.0, 0.0, 103.0],
    [1.0, 0.0, 0.0, 0.0],
    [0.0, 0.0, 1.0, 0.0],
    [0.0, 0.0, 0.0, 1.0]
],
  "dcmmeta_shape": [104, 104, 60, 190],
  "dcmmeta_slice_dim": 2,
  "dcmmeta_version": 0.6,
  "global": {
    "const": {
      "AcquisitionMatrix": [104, 0, 0, 104],
      "AngioFlag": "N",
      "BitsAllocated": 16,
      "BitsStored": 16,
      "BodyPartExamined": "BRAIN",
      "Columns": 832,
      "EchoNumbers": 1,
      "EchoTime": 37.0,
      "EchoTrainLength": 104,
      "FlipAngle": 52.0,
      "HighBit": 15,
      "ImageOrientationPatient": [0.99961530486712, 0.01569459804083, 0.02286748494586, -0.0020935839873, 0.86483869521292, -0.5020454642445],
      "ImagePositionPatient": [-831.46613399637, -768.74180347222, 353.40288160242],
      "ImageType": [
        "ORIGINAL",
        "PRIMARY",
        "P",
        "MB",
        "ND",
        "MOSAIC"
],
      "ImagedNucleus": "1H",
      "ImagingFrequency": 123.259082,
      "InPlanePhaseEncodingDirection": "COL",
      "LargestImagePixelValue": 4095,
      "MRAcquisitionType": "2D",
      "MagneticFieldStrength": 3.0,
      "Manufacturer": "SIEMENS",
      "ManufacturerModelName": "Prisma_fit",
      "Modality": "MR",
      "NumberOfAverages": 1.0,
      "NumberOfPhaseEncodingSteps": 104,
      "PercentPhaseFieldOfView": 100.0,
      "PercentSampling": 100.0,
      "PerformedProcedureStepStartTime": "102254.312000",
      "PhotometricInterpretation": "MONOCHROME2",
      "PixelBandwidth": 2290.0,
      "PixelRepresentation": 0,
      "PixelSpacing": [2.0, 2.0],
      "ProtocolName": "func_task-things_run-1",
      "RepetitionTime": 1490.0,
      "RescaleIntercept": -4096.0,
      "RescaleSlope": 2.0,
      "RescaleType": "US",
      "Rows": 832,
      "SAR": 0.06052827140436,
      "SamplesPerPixel": 1,
      "ScanOptions": "FS",
      "ScanningSequence": "EP",
      "SequenceName": "epfid2d1_104",
      "SequenceVariant": [
        "SK",
        "SS"
],
      "SeriesDescription": "func_task-things_run-1",
      "SeriesNumber": 11,
      "SeriesTime": "104447.814000",
      "SliceLocation": -57.232439092883,
      "SliceThickness": 2.0,
      "SmallestImagePixelValue": 0,
      "SoftwareVersions": "syngo MR E11",
      "SpacingBetweenSlices": 1.9999999688932,
      "SpecificCharacterSet": "ISO_IR 100",
      "StudyID": "1",
      "StudyTime": "102254.244000",
      "TransmitCoilName": "Body",
      "VariableFlipAngleFlag": "N",
      "WindowCenterWidthExplanation": "Algo1",
      "dBdt": 0.0},
    "slices": {}
  },
  "time": {
    "samples": {
      "AcquisitionNumber": [1, 2, 3, 4, 5, 6, 7, 8, 9, 10, 11, 12, 13, 14, 15, 16, 17, 18, 19, 20, 21, 22, 23, 24, 25, 26, 27, 28, 29, 30, 31, 32, 33, 34, 35, 36, 37, 38, 39, 40, 41, 42, 43, 44, 45, 46, 47, 48, 49, 50, 51, 52, 53, 54, 55, 56, 57, 58, 59, 60, 61, 62, 63, 64, 65, 66, 67, 68, 69, 70, 71, 72, 73, 74, 75, 76, 77, 78, 79, 80, 81, 82, 83, 84, 85, 86, 87, 88, 89, 90, 91, 92, 93, 94, 95, 96, 97, 98, 99, 100, 101, 102, 103, 104, 105, 106, 107, 108, 109, 110, 111, 112, 113, 114, 115, 116, 117, 118, 119, 120, 121, 122, 123, 124, 125, 126, 127, 128, 129, 130, 131, 132, 133, 134, 135, 136, 137, 138, 139, 140, 141, 142, 143, 144, 145, 146, 147, 148, 149, 150, 151, 152, 153, 154, 155, 156, 157, 158, 159, 160, 161, 162, 163, 164, 165, 166, 167, 168, 169, 170, 171, 172, 173, 174, 175, 176, 177, 178, 179, 180, 181, 182, 183, 184, 185, 186, 187, 188, 189, 190],
      "AcquisitionTime": ["104327.747500", "104329.237500", "104330.727500", "104332.217500", "104333.707500", "104335.197500", "104336.687500", "104338.177500", "104339.667500", "104341.157500", "104342.647500", "104344.137500", "104345.627500", "104347.117500", "104348.607500", "104350.097500", "104351.587500", "104353.077500", "104354.567500", "104356.057500", "104357.547500", "104359.037500", "104400.527500", "104402.017500", "104403.507500", "104404.997500", "104406.487500", "104407.977500", "104409.467500", "104410.957500", "104412.447500", "104413.937500", "104415.427500", "104416.917500", "104418.407500", "104419.897500", "104421.387500", "104422.877500", "104424.367500", "104425.857500", "104427.347500", "104428.837500", "104430.327500", "104431.817500", "104433.307500", "104434.797500", "104436.287500", "104437.777500", "104439.267500", "104440.757500", "104442.247500", "104443.737500", "104445.227500", "104446.717500", "104448.207500", "104449.697500", "104451.187500", "104452.677500", "104454.167500", "104455.657500", "104457.147500", "104458.637500", "104500.127500", "104501.617500", "104503.107500", "104504.597500", "104506.087500", "104507.577500", "104509.067500", "104510.557500", "104512.047500", "104513.537500", "104515.027500", "104516.517500", "104518.007500", "104519.497500", "104520.987500", "104522.477500", "104523.967500", "104525.457500", "104526.947500", "104528.437500", "104529.927500", "104531.417500", "104532.907500", "104534.397500", "104535.887500", "104537.377500", "104538.867500", "104540.357500", "104541.847500", "104543.337500", "104544.827500", "104546.317500", "104547.807500", "104549.297500", "104550.787500", "104552.277500", "104553.767500", "104555.257500", "104556.747500", "104558.237500", "104559.727500", "104601.217500", "104602.707500", "104604.197500", "104605.687500", "104607.177500", "104608.667500", "104610.157500", "104611.647500", "104613.137500", "104614.627500", "104616.117500", "104617.607500", "104619.097500", "104620.587500", "104622.077500", "104623.567500", "104625.057500", "104626.547500", "104628.037500", "104629.527500", "104631.017500", "104632.507500", "104633.997500", "104635.487500", "104636.977500", "104638.467500", "104639.957500", "104641.447500", "104642.937500", "104644.427500", "104645.917500", "104647.407500", "104648.897500", "104650.387500", "104651.877500", "104653.367500", "104654.857500", "104656.347500", "104657.837500", "104659.327500", "104700.817500", "104702.307500", "104703.797500", "104705.287500", "104706.777500", "104708.267500", "104709.757500", "104711.247500", "104712.737500", "104714.227500", "104715.717500", "104717.207500", "104718.697500", "104720.187500", "104721.677500", "104723.167500", "104724.657500", "104726.147500", "104727.637500", "104729.127500", "104730.617500", "104732.107500", "104733.597500", "104735.087500", "104736.577500", "104738.067500", "104739.557500", "104741.047500", "104742.537500", "104744.027500", "104745.517500", "104747.007500", "104748.497500", "104749.987500", "104751.477500", "104752.967500", "104754.457500", "104755.947500", "104757.437500", "104758.927500", "104800.417500", "104801.907500", "104803.397500", "104804.887500", "104806.377500", "104807.867500", "104809.357500"],
      "ContentTime": ["104447.816000", "104447.819000", "104447.822000", "104447.824000", "104447.827000", "104447.829000", "104447.832000", "104447.834000", "104447.837000", "104447.839000", "104447.842000", "104447.844000", "104447.846000", "104447.849000", "104447.851000", "104447.854000", "104447.856000", "104447.865000", "104447.867000", "104447.870000", "104447.872000", "104447.874000", "104447.877000", "104447.880000", "104447.882000", "104527.864000", "104527.867000", "104527.870000", "104527.872000", "104527.875000", "104527.877000", "104527.880000", "104527.882000", "104527.885000", "104527.897000", "104527.900000", "104527.902000", "104527.905000", "104527.907000", "104527.910000", "104527.912000", "104527.915000", "104527.926000", "104527.928000", "104527.931000", "104527.933000", "104527.936000", "104527.938000", "104527.941000", "104527.943000", "104527.945000", "104527.948000", "104527.950000", "104527.953000", "104527.955000", "104527.958000", "104527.973000", "104527.976000", "104527.978000", "104527.981000", "104527.984000", "104527.986000", "104527.988000", "104527.991000", "104547.771000", "104547.774000", "104547.784000", "104547.786000", "104547.789000", "104547.791000", "104547.794000", "104547.796000", "104547.799000", "104547.801000", "104547.804000", "104547.806000", "104547.809000", "104547.811000", "104547.814000", "104547.816000", "104547.819000", "104547.821000", "104547.824000", "104547.826000", "104547.829000", "104607.777000", "104607.780000", "104607.783000", "104607.785000", "104607.788000", "104607.790000", "104607.793000", "104607.795000", "104607.798000", "104607.800000", "104607.803000", "104607.805000", "104607.808000", "104607.810000", "104607.813000", "104607.815000", "104607.818000", "104607.829000", "104607.832000", "104607.834000", "104647.808000", "104647.811000", "104647.813000", "104647.816000", "104647.818000", "104647.821000", "104647.823000", "104647.826000", "104647.828000", "104647.831000", "104647.834000", "104647.836000", "104647.839000", "104647.841000", "104647.844000", "104647.846000", "104647.849000", "104647.851000", "104647.854000", "104647.856000", "104647.859000", "104647.861000", "104647.864000", "104647.866000", "104647.869000", "104647.871000", "104647.874000", "104647.876000", "104727.810000", "104727.812000", "104727.815000", "104727.818000", "104727.820000", "104727.823000", "104727.825000", "104727.828000", "104727.830000", "104727.833000", "104727.835000", "104727.838000", "104727.840000", "104727.843000", "104727.845000", "104727.848000", "104727.850000", "104727.853000", "104727.856000", "104727.858000", "104727.861000", "104727.863000", "104727.866000", "104727.868000", "104727.871000", "104727.873000", "104727.875000", "104807.811000", "104807.814000", "104807.817000", "104807.819000", "104807.822000", "104807.825000", "104807.827000", "104807.829000", "104807.832000", "104807.835000", "104807.837000", "104807.840000", "104807.842000", "104807.845000", "104807.847000", "104807.850000", "104807.852000", "104807.855000", "104807.857000", "104807.860000", "104807.862000", "104807.865000", "104807.867000", "104807.870000", "104807.873000", "104807.875000", "104807.878000", "104811.812000", "104811.816000", "104811.827000"],
      "InstanceCreationTime": ["104447.816000", "104447.819000", "104447.822000", "104447.824000", "104447.827000", "104447.829000", "104447.832000", "104447.834000", "104447.837000", "104447.839000", "104447.842000", "104447.844000", "104447.846000", "104447.849000", "104447.851000", "104447.854000", "104447.856000", "104447.865000", "104447.867000", "104447.870000", "104447.872000", "104447.874000", "104447.877000", "104447.880000", "104447.882000", "104527.864000", "104527.867000", "104527.870000", "104527.872000", "104527.875000", "104527.877000", "104527.880000", "104527.882000", "104527.885000", "104527.897000", "104527.900000", "104527.902000", "104527.905000", "104527.907000", "104527.910000", "104527.912000", "104527.915000", "104527.926000", "104527.928000", "104527.931000", "104527.933000", "104527.936000", "104527.938000", "104527.941000", "104527.943000", "104527.945000", "104527.948000", "104527.950000", "104527.953000", "104527.955000", "104527.958000", "104527.973000", "104527.976000", "104527.978000", "104527.981000", "104527.984000", "104527.986000", "104527.988000", "104527.991000", "104547.771000", "104547.774000", "104547.784000", "104547.786000", "104547.789000", "104547.791000", "104547.794000", "104547.796000", "104547.799000", "104547.801000", "104547.804000", "104547.806000", "104547.809000", "104547.811000", "104547.814000", "104547.816000", "104547.819000", "104547.821000", "104547.824000", "104547.826000", "104547.829000", "104607.777000", "104607.780000", "104607.783000", "104607.785000", "104607.788000", "104607.790000", "104607.793000", "104607.795000", "104607.798000", "104607.800000", "104607.803000", "104607.805000", "104607.808000", "104607.810000", "104607.813000", "104607.815000", "104607.818000", "104607.829000", "104607.832000", "104607.834000", "104647.808000", "104647.811000", "104647.813000", "104647.816000", "104647.818000", "104647.821000", "104647.823000", "104647.826000", "104647.828000", "104647.831000", "104647.834000", "104647.836000", "104647.839000", "104647.841000", "104647.844000", "104647.846000", "104647.849000", "104647.851000", "104647.854000", "104647.856000", "104647.859000", "104647.861000", "104647.864000", "104647.866000", "104647.869000", "104647.871000", "104647.874000", "104647.876000", "104727.810000", "104727.812000", "104727.815000", "104727.818000", "104727.820000", "104727.823000", "104727.825000", "104727.828000", "104727.830000", "104727.833000", "104727.835000", "104727.838000", "104727.840000", "104727.843000", "104727.845000", "104727.848000", "104727.850000", "104727.853000", "104727.856000", "104727.858000", "104727.861000", "104727.863000", "104727.866000", "104727.868000", "104727.871000", "104727.873000", "104727.875000", "104807.811000", "104807.814000", "104807.817000", "104807.819000", "104807.822000", "104807.825000", "104807.827000", "104807.829000", "104807.832000", "104807.835000", "104807.837000", "104807.840000", "104807.842000", "104807.845000", "104807.847000", "104807.850000", "104807.852000", "104807.855000", "104807.857000", "104807.860000", "104807.862000", "104807.865000", "104807.867000", "104807.870000", "104807.873000", "104807.875000", "104807.878000", "104811.812000", "104811.816000", "104811.827000"],
      "InstanceNumber": [1, 2, 3, 4, 5, 6, 7, 8, 9, 10, 11, 12, 13, 14, 15, 16, 17, 18, 19, 20, 21, 22, 23, 24, 25, 26, 27, 28, 29, 30, 31, 32, 33, 34, 35, 36, 37, 38, 39, 40, 41, 42, 43, 44, 45, 46, 47, 48, 49, 50, 51, 52, 53, 54, 55, 56, 57, 58, 59, 60, 61, 62, 63, 64, 65, 66, 67, 68, 69, 70, 71, 72, 73, 74, 75, 76, 77, 78, 79, 80, 81, 82, 83, 84, 85, 86, 87, 88, 89, 90, 91, 92, 93, 94, 95, 96, 97, 98, 99, 100, 101, 102, 103, 104, 105, 106, 107, 108, 109, 110, 111, 112, 113, 114, 115, 116, 117, 118, 119, 120, 121, 122, 123, 124, 125, 126, 127, 128, 129, 130, 131, 132, 133, 134, 135, 136, 137, 138, 139, 140, 141, 142, 143, 144, 145, 146, 147, 148, 149, 150, 151, 152, 153, 154, 155, 156, 157, 158, 159, 160, 161, 162, 163, 164, 165, 166, 167, 168, 169, 170, 171, 172, 173, 174, 175, 176, 177, 178, 179, 180, 181, 182, 183, 184, 185, 186, 187, 188, 189, 190],
      "WindowCenter": [4878.0, 4878.0, 4878.0, 4878.0, 4898.0, 4900.0, 4880.0, 4898.0, 4880.0, 4898.0, 4874.0, 4898.0, 4876.0, 4902.0, 4876.0, 4880.0, 4876.0, 4900.0, 4878.0, 4896.0, 4882.0, 4880.0, 4902.0, 4878.0, 4882.0, 4898.0, 4880.0, 4880.0, 4854.0, 4882.0, 4876.0, 4880.0, 4880.0, 4878.0, 4900.0, 4898.0, 4880.0, 4878.0, 4876.0, 4880.0, 4900.0, 4880.0, 4880.0, 4878.0, 4878.0, 4878.0, 4900.0, 4880.0, 4898.0, 4880.0, 4902.0, 4884.0, 4902.0, 4880.0, 4878.0, 4878.0, 4878.0, 4900.0, 4878.0, 4878.0, 4876.0, 4900.0, 4878.0, 4880.0, 4878.0, 4882.0, 4882.0, 4902.0, 4878.0, 4878.0, 4880.0, 4880.0, 4876.0, 4894.0, 4888.0, 4880.0, 4856.0, 4854.0, 4878.0, 4854.0, 4878.0, 4880.0, 4894.0, 4898.0, 4900.0, 4896.0, 4880.0, 4878.0, 4878.0, 4904.0, 4880.0, 4880.0, 4880.0, 4882.0, 4880.0, 4880.0, 4882.0, 4878.0, 4884.0, 4880.0, 4880.0, 4880.0, 4878.0, 4902.0, 4898.0, 4878.0, 4900.0, 4878.0, 4882.0, 4880.0, 4882.0, 4880.0, 4898.0, 4888.0, 4882.0, 4882.0, 4856.0, 4876.0, 4880.0, 4882.0, 4884.0, 4880.0, 4900.0, 4898.0, 4878.0, 4882.0, 4878.0, 4902.0, 4900.0, 4882.0, 4882.0, 4882.0, 4880.0, 4882.0, 4880.0, 4882.0, 4880.0, 4898.0, 4882.0, 4898.0, 4884.0, 4880.0, 4880.0, 4878.0, 4880.0, 4900.0, 4876.0, 4880.0, 4882.0, 4880.0, 4878.0, 4878.0, 4882.0, 4896.0, 4898.0, 4882.0, 4858.0, 4878.0, 4856.0, 4854.0, 4880.0, 4882.0, 4878.0, 4880.0, 4898.0, 4880.0, 4902.0, 4878.0, 4882.0, 4876.0, 4880.0, 4880.0, 4878.0, 4878.0, 4900.0, 4902.0, 4882.0, 4880.0, 4880.0, 4880.0, 4882.0, 4902.0, 4880.0, 4882.0, 4880.0, 4880.0, 4898.0, 4898.0, 4880.0, 4902.0],
      "WindowWidth": [18678.0, 18670.0, 18668.0, 18664.0, 18710.0, 18710.0, 18678.0, 18712.0, 18680.0, 18706.0, 18678.0, 18710.0, 18662.0, 18706.0, 18666.0, 18670.0, 18662.0, 18708.0, 18674.0, 18714.0, 18678.0, 18674.0, 18708.0, 18678.0, 18682.0, 18718.0, 18668.0, 18660.0, 18624.0, 18674.0, 18666.0, 18674.0, 18676.0, 18672.0, 18712.0, 18710.0, 18672.0, 18662.0, 18670.0, 18664.0, 18714.0, 18676.0, 18668.0, 18658.0, 18666.0, 18668.0, 18718.0, 18674.0, 18716.0, 18674.0, 18714.0, 18668.0, 18708.0, 18658.0, 18662.0, 18676.0, 18674.0, 18716.0, 18674.0, 18682.0, 18672.0, 18712.0, 18668.0, 18672.0, 18664.0, 18676.0, 18666.0, 18706.0, 18668.0, 18666.0, 18670.0, 18676.0, 18666.0, 18726.0, 18736.0, 18676.0, 18624.0, 18614.0, 18654.0, 18622.0, 18676.0, 18674.0, 18726.0, 18714.0, 18724.0, 18712.0, 18662.0, 18652.0, 18654.0, 18704.0, 18662.0, 18674.0, 18674.0, 18678.0, 18682.0, 18674.0, 18664.0, 18672.0, 18674.0, 18680.0, 18672.0, 18676.0, 18666.0, 18708.0, 18708.0, 18674.0, 18708.0, 18658.0, 18658.0, 18662.0, 18672.0, 18666.0, 18730.0, 18732.0, 18676.0, 18676.0, 18620.0, 18658.0, 18652.0, 18666.0, 18666.0, 18680.0, 18722.0, 18716.0, 18680.0, 18672.0, 18662.0, 18710.0, 18710.0, 18660.0, 18670.0, 18662.0, 18668.0, 18674.0, 18668.0, 18676.0, 18676.0, 18710.0, 18676.0, 18722.0, 18678.0, 18666.0, 18674.0, 18654.0, 18670.0, 18710.0, 18662.0, 18662.0, 18670.0, 18680.0, 18674.0, 18680.0, 18670.0, 18716.0, 18724.0, 18678.0, 18624.0, 18662.0, 18624.0, 18622.0, 18668.0, 18674.0, 18678.0, 18682.0, 18716.0, 18676.0, 18714.0, 18668.0, 18670.0, 18660.0, 18664.0, 18662.0, 18672.0, 18666.0, 18714.0, 18716.0, 18680.0, 18664.0, 18668.0, 18672.0, 18664.0, 18710.0, 18662.0, 18674.0, 18668.0, 18668.0, 18722.0, 18718.0, 18674.0, 18710.0]
    },
    "slices": {}
  }
}