{
  "AcquisitionMatrixPE": 104,
  "AcquisitionNumber": 1,
  "AcquisitionTime": "11:14:56.307500",
  "BandwidthPerPixelPhaseEncode": 17.17,
  "BaseResolution": 104,
  "BodyPartExamined": "BRAIN",
  "CoilString": "HC1-7;NC1_2",
  "ConsistencyInfo": "N4_VE11C_LATEST_20160120",
  "ConversionSoftware": "dcm2niix",
  "ConversionSoftwareVersion": "v1.0.20190902",
  "DerivedVendorReportedEchoSpacing": 0.000560011,
  "DeviceSerialNumber": "167006",
  "DwellTime": 2.1e-06,
  "EchoTime": 0.037,
  "EchoTrainLength": 104,
  "EffectiveEchoSpacing": 0.000560011,
  "FlipAngle": 52,
  "ImageComments": "Unaliased_MB4_PE3_LB",
  "ImageOrientationPatientDICOM": [0.999615, 0.0156946, 0.0228675, -0.00209358, 0.864839, -0.502045],
  "ImageType": [
    "ORIGINAL",
    "PRIMARY",
    "M",
    "MB",
    "ND",
    "MOSAIC"
],
  "ImagingFrequency": 123.259,
  "InPlanePhaseEncodingDirectionDICOM": "COL",
  "InstitutionAddress": "Chemin_Queen-Mary_4565_Montreal_District_CA_H3W_1W5",
  "InstitutionName": "IUGM",
  "InstitutionalDepartmentName": "Department",
  "MRAcquisitionType": "2D",
  "MagneticFieldStrength": 3,
  "Manufacturer": "Siemens",
  "ManufacturersModelName": "Prisma_fit",
  "Modality": "MR",
  "MultibandAccelerationFactor": 4,
  "PartialFourier": 1,
  "PatientPosition": "HFS",
  "PercentPhaseFOV": 100,
  "PhaseEncodingDirection": "j",
  "PhaseEncodingSteps": 104,
  "PhaseResolution": 1,
  "PixelBandwidth": 2290,
  "ProcedureStepDescription": "memory_things",
  "ProtocolName": "func_task-things_run-6",
  "PulseSequenceDetails": "%CustomerSeq%_cmrr_mbep2d_bold",
  "ReceiveCoilActiveElements": "HC1-7;NC1,2",
  "ReceiveCoilName": "HeadNeck_64",
  "ReconMatrixPE": 104,
  "RepetitionTime": 1.49,
  "SAR": 0.0605283,
  "ScanOptions": "FS",
  "ScanningSequence": "EP",
  "SequenceName": "epfid2d1_104",
  "SequenceVariant": "SK_SS",
  "SeriesDescription": "func_task-things_run-6",
  "SeriesNumber": 25,
  "ShimSetting": [622, -7189, -8869, 282, 24, -134, -8, 11],
  "SliceThickness": 2,
  "SliceTiming": [0, 0.785, 0.0975, 0.8825, 0.1975, 0.98, 0.295, 1.0775, 0.3925, 1.1775, 0.49, 1.275, 0.5875, 1.3725, 0.6875, 0, 0.785, 0.0975, 0.8825, 0.1975, 0.98, 0.295, 1.0775, 0.3925, 1.1775, 0.49, 1.275, 0.5875, 1.3725, 0.6875, 0, 0.785, 0.0975, 0.8825, 0.1975, 0.98, 0.295, 1.0775, 0.3925, 1.1775, 0.49, 1.275, 0.5875, 1.3725, 0.6875, 0, 0.785, 0.0975, 0.8825, 0.1975, 0.98, 0.295, 1.0775, 0.3925, 1.1775, 0.49, 1.275, 0.5875, 1.3725, 0.6875],
  "SoftwareVersions": "syngo_MR_E11",
  "SpacingBetweenSlices": 2,
  "StationName": "MRC35049",
  "TaskName": "things",
  "TotalReadoutTime": 0.0576811,
  "TxRefAmp": 289.742,
  "WipMemBlock": "e6aa749b-1042-48b6-bc0b-46c2fc03f3a3||Sequence: R016 ve11c/master r/e634e98; Dec 19 2017 11:00:25 by eja",
  "dcmmeta_affine": [
    [-1.9992306232452393, -0.004187168087810278, 0.055312175303697586, 105.70159912109375],
    [-0.03138919547200203, 1.729677438735962, -1.0036089420318604, -50.443206787109375],
    [0.04573496803641319, 1.0040909051895142, 1.729077696800232, -98.86005401611328],
    [0.0, 0.0, 0.0, 1.0]
],
  "dcmmeta_reorient_transform": [
    [0.0, -1.0, 0.0, 103.0],
    [1.0, 0.0, 0.0, 0.0],
    [0.0, 0.0, 1.0, 0.0],
    [0.0, 0.0, 0.0, 1.0]
],
  "dcmmeta_shape": [104, 104, 60, 190],
  "dcmmeta_slice_dim": 2,
  "dcmmeta_version": 0.6,
  "global": {
    "const": {
      "AcquisitionMatrix": [104, 0, 0, 104],
      "AngioFlag": "N",
      "BitsAllocated": 16,
      "BitsStored": 16,
      "BodyPartExamined": "BRAIN",
      "Columns": 832,
      "EchoNumbers": 1,
      "EchoTime": 37.0,
      "EchoTrainLength": 104,
      "FlipAngle": 52.0,
      "HighBit": 15,
      "ImageOrientationPatient": [0.99961530486712, 0.01569459804083, 0.02286748494586, -0.0020935839873, 0.86483869521292, -0.5020454642445],
      "ImagePositionPatient": [-831.46613399637, -768.74180347222, 353.40288160242],
      "ImageType": [
        "ORIGINAL",
        "PRIMARY",
        "M",
        "MB",
        "ND",
        "MOSAIC"
],
      "ImagedNucleus": "1H",
      "ImagingFrequency": 123.259099,
      "InPlanePhaseEncodingDirection": "COL",
      "MRAcquisitionType": "2D",
      "MagneticFieldStrength": 3.0,
      "Manufacturer": "SIEMENS",
      "ManufacturerModelName": "Prisma_fit",
      "Modality": "MR",
      "NumberOfAverages": 1.0,
      "NumberOfPhaseEncodingSteps": 104,
      "PercentPhaseFieldOfView": 100.0,
      "PercentSampling": 100.0,
      "PerformedProcedureStepStartTime": "102254.312000",
      "PhotometricInterpretation": "MONOCHROME2",
      "PixelBandwidth": 2290.0,
      "PixelRepresentation": 0,
      "PixelSpacing": [2.0, 2.0],
      "ProtocolName": "func_task-things_run-6",
      "RepetitionTime": 1490.0,
      "Rows": 832,
      "SAR": 0.06052827140436,
      "SamplesPerPixel": 1,
      "ScanOptions": "FS",
      "ScanningSequence": "EP",
      "SequenceName": "epfid2d1_104",
      "SequenceVariant": [
        "SK",
        "SS"
],
      "SeriesDescription": "func_task-things_run-6",
      "SeriesNumber": 25,
      "SeriesTime": "111600.387000",
      "SliceLocation": -57.232439092883,
      "SliceThickness": 2.0,
      "SmallestImagePixelValue": 0,
      "SoftwareVersions": "syngo MR E11",
      "SpacingBetweenSlices": 1.9999999688932,
      "SpecificCharacterSet": "ISO_IR 100",
      "StudyID": "1",
      "StudyTime": "102254.244000",
      "TransmitCoilName": "Body",
      "VariableFlipAngleFlag": "N",
      "WindowCenterWidthExplanation": "Algo1",
      "dBdt": 0.0},
    "slices": {}
  },
  "time": {
    "samples": {
      "AcquisitionNumber": [1, 2, 3, 4, 5, 6, 7, 8, 9, 10, 11, 12, 13, 14, 15, 16, 17, 18, 19, 20, 21, 22, 23, 24, 25, 26, 27, 28, 29, 30, 31, 32, 33, 34, 35, 36, 37, 38, 39, 40, 41, 42, 43, 44, 45, 46, 47, 48, 49, 50, 51, 52, 53, 54, 55, 56, 57, 58, 59, 60, 61, 62, 63, 64, 65, 66, 67, 68, 69, 70, 71, 72, 73, 74, 75, 76, 77, 78, 79, 80, 81, 82, 83, 84, 85, 86, 87, 88, 89, 90, 91, 92, 93, 94, 95, 96, 97, 98, 99, 100, 101, 102, 103, 104, 105, 106, 107, 108, 109, 110, 111, 112, 113, 114, 115, 116, 117, 118, 119, 120, 121, 122, 123, 124, 125, 126, 127, 128, 129, 130, 131, 132, 133, 134, 135, 136, 137, 138, 139, 140, 141, 142, 143, 144, 145, 146, 147, 148, 149, 150, 151, 152, 153, 154, 155, 156, 157, 158, 159, 160, 161, 162, 163, 164, 165, 166, 167, 168, 169, 170, 171, 172, 173, 174, 175, 176, 177, 178, 179, 180, 181, 182, 183, 184, 185, 186, 187, 188, 189, 190],
      "AcquisitionTime": ["111456.307500", "111457.797500", "111459.287500", "111500.777500", "111502.267500", "111503.757500", "111505.247500", "111506.737500", "111508.227500", "111509.717500", "111511.207500", "111512.697500", "111514.187500", "111515.677500", "111517.167500", "111518.657500", "111520.147500", "111521.637500", "111523.127500", "111524.617500", "111526.107500", "111527.597500", "111529.087500", "111530.577500", "111532.067500", "111533.557500", "111535.047500", "111536.537500", "111538.027500", "111539.517500", "111541.007500", "111542.497500", "111543.987500", "111545.477500", "111546.967500", "111548.457500", "111549.947500", "111551.437500", "111552.927500", "111554.417500", "111555.907500", "111557.397500", "111558.887500", "111600.377500", "111601.867500", "111603.357500", "111604.847500", "111606.337500", "111607.827500", "111609.317500", "111610.807500", "111612.297500", "111613.787500", "111615.277500", "111616.767500", "111618.257500", "111619.747500", "111621.237500", "111622.727500", "111624.217500", "111625.707500", "111627.197500", "111628.687500", "111630.177500", "111631.667500", "111633.157500", "111634.647500", "111636.137500", "111637.627500", "111639.117500", "111640.607500", "111642.097500", "111643.587500", "111645.077500", "111646.567500", "111648.057500", "111649.547500", "111651.037500", "111652.527500", "111654.017500", "111655.507500", "111656.997500", "111658.487500", "111659.977500", "111701.467500", "111702.957500", "111704.447500", "111705.937500", "111707.427500", "111708.917500", "111710.407500", "111711.897500", "111713.387500", "111714.877500", "111716.367500", "111717.857500", "111719.347500", "111720.837500", "111722.327500", "111723.817500", "111725.307500", "111726.797500", "111728.287500", "111729.777500", "111731.267500", "111732.757500", "111734.247500", "111735.737500", "111737.227500", "111738.717500", "111740.207500", "111741.697500", "111743.187500", "111744.677500", "111746.167500", "111747.657500", "111749.147500", "111750.637500", "111752.127500", "111753.617500", "111755.107500", "111756.597500", "111758.087500", "111759.577500", "111801.067500", "111802.557500", "111804.047500", "111805.537500", "111807.027500", "111808.517500", "111810.007500", "111811.497500", "111812.987500", "111814.477500", "111815.967500", "111817.457500", "111818.947500", "111820.437500", "111821.927500", "111823.417500", "111824.907500", "111826.397500", "111827.887500", "111829.377500", "111830.867500", "111832.357500", "111833.847500", "111835.337500", "111836.827500", "111838.317500", "111839.807500", "111841.297500", "111842.787500", "111844.277500", "111845.767500", "111847.257500", "111848.747500", "111850.237500", "111851.727500", "111853.217500", "111854.707500", "111856.197500", "111857.687500", "111859.177500", "111900.667500", "111902.157500", "111903.647500", "111905.137500", "111906.627500", "111908.117500", "111909.607500", "111911.097500", "111912.587500", "111914.077500", "111915.567500", "111917.057500", "111918.547500", "111920.037500", "111921.527500", "111923.017500", "111924.507500", "111925.997500", "111927.487500", "111928.977500", "111930.467500", "111931.957500", "111933.447500", "111934.937500", "111936.427500", "111937.917500"],
      "ContentTime": ["111600.391000", "111600.401000", "111600.404000", "111600.408000", "111600.411000", "111600.414000", "111600.418000", "111600.426000", "111620.352000", "111620.356000", "111620.359000", "111620.362000", "111620.366000", "111620.369000", "111620.372000", "111620.375000", "111620.379000", "111620.382000", "111620.385000", "111620.388000", "111620.392000", "111620.399000", "111620.402000", "111620.406000", "111620.409000", "111620.412000", "111620.416000", "111620.419000", "111640.352000", "111640.356000", "111640.359000", "111640.371000", "111640.374000", "111640.378000", "111640.381000", "111640.384000", "111640.388000", "111640.391000", "111640.394000", "111640.397000", "111640.401000", "111640.404000", "111640.407000", "111640.411000", "111640.414000", "111640.417000", "111640.421000", "111640.424000", "111640.427000", "111700.352000", "111700.356000", "111700.359000", "111700.362000", "111700.366000", "111700.369000", "111700.372000", "111700.376000", "111700.379000", "111700.382000", "111700.386000", "111700.389000", "111700.392000", "111700.395000", "111700.399000", "111700.402000", "111700.405000", "111700.409000", "111700.412000", "111700.415000", "111720.353000", "111720.368000", "111720.372000", "111720.376000", "111720.380000", "111720.384000", "111720.388000", "111720.392000", "111720.395000", "111720.399000", "111720.402000", "111720.405000", "111720.409000", "111720.412000", "111720.415000", "111720.419000", "111720.422000", "111720.425000", "111720.428000", "111720.432000", "111740.352000", "111740.356000", "111740.359000", "111740.362000", "111740.366000", "111740.369000", "111740.372000", "111740.375000", "111740.379000", "111740.382000", "111740.386000", "111740.389000", "111740.392000", "111740.395000", "111740.399000", "111740.402000", "111740.405000", "111740.408000", "111740.412000", "111740.415000", "111820.352000", "111820.356000", "111820.359000", "111820.362000", "111820.366000", "111820.369000", "111820.372000", "111820.376000", "111820.379000", "111820.382000", "111820.386000", "111820.397000", "111820.400000", "111820.403000", "111820.407000", "111820.410000", "111820.413000", "111820.416000", "111820.420000", "111820.423000", "111820.426000", "111820.430000", "111820.433000", "111820.436000", "111820.440000", "111820.443000", "111820.446000", "111900.352000", "111900.356000", "111900.359000", "111900.362000", "111900.366000", "111900.369000", "111900.372000", "111900.376000", "111900.379000", "111900.382000", "111900.386000", "111900.389000", "111900.392000", "111900.396000", "111900.399000", "111900.402000", "111900.406000", "111900.409000", "111900.412000", "111900.415000", "111900.419000", "111900.422000", "111900.426000", "111900.429000", "111900.432000", "111900.436000", "111900.439000", "111940.364000", "111940.368000", "111940.371000", "111940.375000", "111940.378000", "111940.389000", "111940.393000", "111940.396000", "111940.399000", "111940.403000", "111940.406000", "111940.410000", "111940.413000", "111940.416000", "111940.420000", "111940.423000", "111940.426000", "111940.430000", "111940.433000", "111940.436000", "111940.440000", "111940.443000", "111940.446000", "111940.450000", "111940.453000", "111940.456000", "111940.460000"],
      "InstanceCreationTime": ["111600.391000", "111600.401000", "111600.404000", "111600.408000", "111600.411000", "111600.414000", "111600.418000", "111600.426000", "111620.352000", "111620.356000", "111620.359000", "111620.362000", "111620.366000", "111620.369000", "111620.372000", "111620.375000", "111620.379000", "111620.382000", "111620.385000", "111620.388000", "111620.392000", "111620.399000", "111620.402000", "111620.406000", "111620.409000", "111620.412000", "111620.416000", "111620.419000", "111640.352000", "111640.356000", "111640.359000", "111640.371000", "111640.374000", "111640.378000", "111640.381000", "111640.384000", "111640.388000", "111640.391000", "111640.394000", "111640.397000", "111640.401000", "111640.404000", "111640.407000", "111640.411000", "111640.414000", "111640.417000", "111640.421000", "111640.424000", "111640.427000", "111700.352000", "111700.356000", "111700.359000", "111700.362000", "111700.366000", "111700.369000", "111700.372000", "111700.376000", "111700.379000", "111700.382000", "111700.386000", "111700.389000", "111700.392000", "111700.395000", "111700.399000", "111700.402000", "111700.405000", "111700.409000", "111700.412000", "111700.415000", "111720.353000", "111720.368000", "111720.372000", "111720.376000", "111720.380000", "111720.384000", "111720.388000", "111720.392000", "111720.395000", "111720.399000", "111720.402000", "111720.405000", "111720.409000", "111720.412000", "111720.415000", "111720.419000", "111720.422000", "111720.425000", "111720.428000", "111720.432000", "111740.352000", "111740.356000", "111740.359000", "111740.362000", "111740.366000", "111740.369000", "111740.372000", "111740.375000", "111740.379000", "111740.382000", "111740.386000", "111740.389000", "111740.392000", "111740.395000", "111740.399000", "111740.402000", "111740.405000", "111740.408000", "111740.412000", "111740.415000", "111820.352000", "111820.356000", "111820.359000", "111820.362000", "111820.366000", "111820.369000", "111820.372000", "111820.376000", "111820.379000", "111820.382000", "111820.386000", "111820.397000", "111820.400000", "111820.403000", "111820.407000", "111820.410000", "111820.413000", "111820.416000", "111820.420000", "111820.423000", "111820.426000", "111820.430000", "111820.433000", "111820.436000", "111820.440000", "111820.443000", "111820.446000", "111900.352000", "111900.356000", "111900.359000", "111900.362000", "111900.366000", "111900.369000", "111900.372000", "111900.376000", "111900.379000", "111900.382000", "111900.386000", "111900.389000", "111900.392000", "111900.396000", "111900.399000", "111900.402000", "111900.406000", "111900.409000", "111900.412000", "111900.415000", "111900.419000", "111900.422000", "111900.426000", "111900.429000", "111900.432000", "111900.436000", "111900.439000", "111940.364000", "111940.368000", "111940.371000", "111940.375000", "111940.378000", "111940.389000", "111940.393000", "111940.396000", "111940.399000", "111940.403000", "111940.406000", "111940.410000", "111940.413000", "111940.416000", "111940.420000", "111940.423000", "111940.426000", "111940.430000", "111940.433000", "111940.436000", "111940.440000", "111940.443000", "111940.446000", "111940.450000", "111940.453000", "111940.456000", "111940.460000"],
      "InstanceNumber": [1, 2, 3, 4, 5, 6, 7, 8, 9, 10, 11, 12, 13, 14, 15, 16, 17, 18, 19, 20, 21, 22, 23, 24, 25, 26, 27, 28, 29, 30, 31, 32, 33, 34, 35, 36, 37, 38, 39, 40, 41, 42, 43, 44, 45, 46, 47, 48, 49, 50, 51, 52, 53, 54, 55, 56, 57, 58, 59, 60, 61, 62, 63, 64, 65, 66, 67, 68, 69, 70, 71, 72, 73, 74, 75, 76, 77, 78, 79, 80, 81, 82, 83, 84, 85, 86, 87, 88, 89, 90, 91, 92, 93, 94, 95, 96, 97, 98, 99, 100, 101, 102, 103, 104, 105, 106, 107, 108, 109, 110, 111, 112, 113, 114, 115, 116, 117, 118, 119, 120, 121, 122, 123, 124, 125, 126, 127, 128, 129, 130, 131, 132, 133, 134, 135, 136, 137, 138, 139, 140, 141, 142, 143, 144, 145, 146, 147, 148, 149, 150, 151, 152, 153, 154, 155, 156, 157, 158, 159, 160, 161, 162, 163, 164, 165, 166, 167, 168, 169, 170, 171, 172, 173, 174, 175, 176, 177, 178, 179, 180, 181, 182, 183, 184, 185, 186, 187, 188, 189, 190],
      "LargestImagePixelValue": [45873, 46624, 44599, 44248, 44299, 43546, 44005, 43562, 44195, 43806, 43460, 44166, 44734, 43742, 45247, 43365, 44726, 43570, 44383, 43960, 44251, 44748, 44503, 43104, 43440, 43868, 43394, 43357, 43994, 45413, 43966, 44276, 43905, 44031, 43943, 44252, 43193, 44284, 44131, 44017, 43645, 43964, 44549, 43970, 43611, 43978, 44409, 43214, 44430, 43114, 43977, 43207, 44039, 43313, 43175, 44142, 43282, 43979, 44620, 43848, 43531, 43583, 44195, 44265, 43644, 43922, 44123, 44478, 44590, 44368, 44762, 44296, 42824, 42904, 44209, 43323, 45299, 42911, 43573, 43581, 44010, 43932, 43046, 44406, 43538, 44016, 43675, 45062, 44451, 42739, 43726, 43610, 44160, 45125, 44721, 45080, 43393, 44574, 43384, 43326, 43311, 43738, 45417, 44732, 43878, 44134, 43151, 43172, 43408, 43213, 44418, 43271, 44730, 43792, 43443, 44387, 43224, 44448, 45370, 43542, 42663, 42868, 44180, 44943, 45499, 43753, 44736, 44527, 43123, 44374, 43301, 43486, 43918, 43027, 43531, 44846, 43658, 44167, 44108, 43399, 43254, 43332, 44468, 42944, 43502, 44132, 43086, 44869, 44139, 45374, 44007, 45335, 43763, 44292, 44507, 45382, 44460, 44560, 44766, 43673, 44774, 43615, 45104, 43840, 44866, 43535, 45343, 43572, 45043, 44128, 43887, 45428, 43521, 45005, 44796, 45213, 44199, 44555, 43498, 43237, 43763, 45887, 44797, 44944, 44841, 45812, 43337, 45894, 46605, 46968],
      "WindowCenter": [11172.0, 11108.0, 11073.0, 11059.0, 11090.0, 11122.0, 11096.0, 11081.0, 11051.0, 11061.0, 11070.0, 11092.0, 11114.0, 11089.0, 11052.0, 11034.0, 11047.0, 11065.0, 11134.0, 11137.0, 11118.0, 11130.0, 11083.0, 11033.0, 11088.0, 11073.0, 11091.0, 11085.0, 11058.0, 11071.0, 11041.0, 11042.0, 11054.0, 11062.0, 11052.0, 11072.0, 11064.0, 11091.0, 11103.0, 11113.0, 11065.0, 11047.0, 11108.0, 11042.0, 11051.0, 11077.0, 11053.0, 11032.0, 11083.0, 11039.0, 11048.0, 11026.0, 11011.0, 11024.0, 11034.0, 11016.0, 11002.0, 11054.0, 11037.0, 11067.0, 11045.0, 11041.0, 11049.0, 11024.0, 11026.0, 11054.0, 11071.0, 11060.0, 11049.0, 11021.0, 11020.0, 11038.0, 11005.0, 10990.0, 11034.0, 11012.0, 11038.0, 11019.0, 11024.0, 11009.0, 11044.0, 11022.0, 11029.0, 11047.0, 11065.0, 11039.0, 11029.0, 11067.0, 10992.0, 10994.0, 11016.0, 11001.0, 11019.0, 11047.0, 11016.0, 11046.0, 11012.0, 11020.0, 11023.0, 11012.0, 11000.0, 11039.0, 11045.0, 11065.0, 11074.0, 11044.0, 11008.0, 11016.0, 11031.0, 11032.0, 11045.0, 10997.0, 11007.0, 11062.0, 11041.0, 11026.0, 11014.0, 11006.0, 11024.0, 11049.0, 11029.0, 10998.0, 11001.0, 11046.0, 11043.0, 11022.0, 10998.0, 10980.0, 10977.0, 11010.0, 11004.0, 11034.0, 11016.0, 11008.0, 11033.0, 11020.0, 11009.0, 11044.0, 11052.0, 11035.0, 11027.0, 11042.0, 11071.0, 11064.0, 11058.0, 11038.0, 11009.0, 11015.0, 11014.0, 11039.0, 11031.0, 11040.0, 11019.0, 11018.0, 11018.0, 11023.0, 11034.0, 11003.0, 11009.0, 11001.0, 11009.0, 11022.0, 11026.0, 11006.0, 11023.0, 11020.0, 11033.0, 11012.0, 11017.0, 11003.0, 11017.0, 11007.0, 10987.0, 11007.0, 11072.0, 10979.0, 10975.0, 11000.0, 10999.0, 10996.0, 11012.0, 11032.0, 10994.0, 10958.0, 10951.0, 11004.0, 11014.0, 11040.0, 11019.0, 10976.0],
      "WindowWidth": [24102.0, 23909.0, 23814.0, 23769.0, 23831.0, 23907.0, 23843.0, 23804.0, 23734.0, 23759.0, 23778.0, 23827.0, 23875.0, 23821.0, 23735.0, 23699.0, 23721.0, 23769.0, 23927.0, 23938.0, 23893.0, 23920.0, 23812.0, 23692.0, 23821.0, 23785.0, 23826.0, 23816.0, 23750.0, 23772.0, 23711.0, 23710.0, 23739.0, 23758.0, 23732.0, 23777.0, 23769.0, 23824.0, 23855.0, 23881.0, 23770.0, 23727.0, 23870.0, 23710.0, 23732.0, 23793.0, 23735.0, 23690.0, 23806.0, 23705.0, 23723.0, 23681.0, 23633.0, 23667.0, 23697.0, 23649.0, 23618.0, 23740.0, 23695.0, 23770.0, 23722.0, 23710.0, 23727.0, 23673.0, 23675.0, 23738.0, 23777.0, 23747.0, 23721.0, 23655.0, 23653.0, 23699.0, 23630.0, 23597.0, 23690.0, 23645.0, 23695.0, 23665.0, 23683.0, 23640.0, 23721.0, 23669.0, 23689.0, 23725.0, 23770.0, 23707.0, 23683.0, 23769.0, 23591.0, 23602.0, 23650.0, 23619.0, 23654.0, 23722.0, 23644.0, 23713.0, 23643.0, 23654.0, 23667.0, 23644.0, 23617.0, 23703.0, 23714.0, 23758.0, 23784.0, 23716.0, 23637.0, 23654.0, 23687.0, 23691.0, 23716.0, 23608.0, 23622.0, 23753.0, 23709.0, 23670.0, 23644.0, 23624.0, 23658.0, 23725.0, 23686.0, 23615.0, 23610.0, 23714.0, 23705.0, 23664.0, 23606.0, 23563.0, 23560.0, 23634.0, 23625.0, 23696.0, 23651.0, 23633.0, 23691.0, 23659.0, 23633.0, 23712.0, 23736.0, 23697.0, 23681.0, 23714.0, 23777.0, 23764.0, 23750.0, 23700.0, 23637.0, 23650.0, 23645.0, 23696.0, 23682.0, 23699.0, 23656.0, 23654.0, 23649.0, 23659.0, 23689.0, 23618.0, 23629.0, 23615.0, 23631.0, 23665.0, 23673.0, 23629.0, 23664.0, 23662.0, 23685.0, 23642.0, 23649.0, 23616.0, 23654.0, 23620.0, 23584.0, 23626.0, 23782.0, 23560.0, 23549.0, 23608.0, 23610.0, 23606.0, 23640.0, 23675.0, 23592.0, 23515.0, 23494.0, 23609.0, 23648.0, 23702.0, 23661.0, 23560.0]
    },
    "slices": {}
  }
}