{
  "AcquisitionMatrixPE": 104,
  "AcquisitionNumber": 1,
  "AcquisitionTime": "11:02:50.372500",
  "BandwidthPerPixelPhaseEncode": 17.17,
  "BaseResolution": 104,
  "BodyPartExamined": "BRAIN",
  "CoilString": "HC1-7;NC1_2",
  "ConsistencyInfo": "N4_VE11C_LATEST_20160120",
  "ConversionSoftware": "dcm2niix",
  "ConversionSoftwareVersion": "v1.0.20190902",
  "DerivedVendorReportedEchoSpacing": 0.000560011,
  "DeviceSerialNumber": "167006",
  "DwellTime": 2.1e-06,
  "EchoTime": 0.037,
  "EchoTrainLength": 104,
  "EffectiveEchoSpacing": 0.000560011,
  "FlipAngle": 52,
  "ImageComments": "Unaliased_MB4_PE3_LB",
  "ImageOrientationPatientDICOM": [0.999615, 0.0156946, 0.0228675, -0.00209358, 0.864839, -0.502045],
  "ImageType": [
    "ORIGINAL",
    "PRIMARY",
    "P",
    "MB",
    "ND",
    "MOSAIC"
],
  "ImagingFrequency": 123.259,
  "InPlanePhaseEncodingDirectionDICOM": "COL",
  "InstitutionAddress": "Chemin_Queen-Mary_4565_Montreal_District_CA_H3W_1W5",
  "InstitutionName": "IUGM",
  "InstitutionalDepartmentName": "Department",
  "MRAcquisitionType": "2D",
  "MagneticFieldStrength": 3,
  "Manufacturer": "Siemens",
  "ManufacturersModelName": "Prisma_fit",
  "Modality": "MR",
  "MultibandAccelerationFactor": 4,
  "PartialFourier": 1,
  "PatientPosition": "HFS",
  "PercentPhaseFOV": 100,
  "PhaseEncodingDirection": "j",
  "PhaseEncodingSteps": 104,
  "PhaseResolution": 1,
  "PixelBandwidth": 2290,
  "ProcedureStepDescription": "memory_things",
  "ProtocolName": "func_task-things_run-4",
  "PulseSequenceDetails": "%CustomerSeq%_cmrr_mbep2d_bold",
  "ReceiveCoilActiveElements": "HC1-7;NC1,2",
  "ReceiveCoilName": "HeadNeck_64",
  "ReconMatrixPE": 104,
  "RepetitionTime": 1.49,
  "SAR": 0.0605283,
  "ScanOptions": "FS",
  "ScanningSequence": "EP",
  "SequenceName": "epfid2d1_104",
  "SequenceVariant": "SK_SS",
  "SeriesDescription": "func_task-things_run-4",
  "SeriesNumber": 20,
  "ShimSetting": [622, -7189, -8869, 282, 24, -134, -8, 11],
  "SliceThickness": 2,
  "SliceTiming": [0, 0.7825, 0.0975, 0.88, 0.195, 0.98, 0.2925, 1.0775, 0.39, 1.175, 0.49, 1.2725, 0.5875, 1.37, 0.685, 0, 0.7825, 0.0975, 0.88, 0.195, 0.98, 0.2925, 1.0775, 0.39, 1.175, 0.49, 1.2725, 0.5875, 1.37, 0.685, 0, 0.7825, 0.0975, 0.88, 0.195, 0.98, 0.2925, 1.0775, 0.39, 1.175, 0.49, 1.2725, 0.5875, 1.37, 0.685, 0, 0.7825, 0.0975, 0.88, 0.195, 0.98, 0.2925, 1.0775, 0.39, 1.175, 0.49, 1.2725, 0.5875, 1.37, 0.685],
  "SoftwareVersions": "syngo_MR_E11",
  "SpacingBetweenSlices": 2,
  "StationName": "MRC35049",
  "TaskName": "things",
  "TotalReadoutTime": 0.0576811,
  "TxRefAmp": 289.742,
  "WipMemBlock": "ebfb8f9e-3063-4270-a8a9-3b0b81b704f3||Sequence: R016 ve11c/master r/e634e98; Dec 19 2017 11:00:25 by eja",
  "dcmmeta_affine": [
    [-1.9992306232452393, -0.004187168087810278, 0.055312175303697586, 105.70159912109375],
    [-0.03138919547200203, 1.729677438735962, -1.0036089420318604, -50.443206787109375],
    [0.04573496803641319, 1.0040909051895142, 1.729077696800232, -98.86005401611328],
    [0.0, 0.0, 0.0, 1.0]
],
  "dcmmeta_reorient_transform": [
    [0.0, -1.0, 0.0, 103.0],
    [1.0, 0.0, 0.0, 0.0],
    [0.0, 0.0, 1.0, 0.0],
    [0.0, 0.0, 0.0, 1.0]
],
  "dcmmeta_shape": [104, 104, 60, 190],
  "dcmmeta_slice_dim": 2,
  "dcmmeta_version": 0.6,
  "global": {
    "const": {
      "AcquisitionMatrix": [104, 0, 0, 104],
      "AngioFlag": "N",
      "BitsAllocated": 16,
      "BitsStored": 16,
      "BodyPartExamined": "BRAIN",
      "Columns": 832,
      "EchoNumbers": 1,
      "EchoTime": 37.0,
      "EchoTrainLength": 104,
      "FlipAngle": 52.0,
      "HighBit": 15,
      "ImageOrientationPatient": [0.99961530486712, 0.01569459804083, 0.02286748494586, -0.0020935839873, 0.86483869521292, -0.5020454642445],
      "ImagePositionPatient": [-831.46613399637, -768.74180347222, 353.40288160242],
      "ImageType": [
        "ORIGINAL",
        "PRIMARY",
        "P",
        "MB",
        "ND",
        "MOSAIC"
],
      "ImagedNucleus": "1H",
      "ImagingFrequency": 123.259094,
      "InPlanePhaseEncodingDirection": "COL",
      "LargestImagePixelValue": 4095,
      "MRAcquisitionType": "2D",
      "MagneticFieldStrength": 3.0,
      "Manufacturer": "SIEMENS",
      "ManufacturerModelName": "Prisma_fit",
      "Modality": "MR",
      "NumberOfAverages": 1.0,
      "NumberOfPhaseEncodingSteps": 104,
      "PercentPhaseFieldOfView": 100.0,
      "PercentSampling": 100.0,
      "PerformedProcedureStepStartTime": "102254.312000",
      "PhotometricInterpretation": "MONOCHROME2",
      "PixelBandwidth": 2290.0,
      "PixelRepresentation": 0,
      "PixelSpacing": [2.0, 2.0],
      "ProtocolName": "func_task-things_run-4",
      "RepetitionTime": 1490.0,
      "RescaleIntercept": -4096.0,
      "RescaleSlope": 2.0,
      "RescaleType": "US",
      "Rows": 832,
      "SAR": 0.06052827140436,
      "SamplesPerPixel": 1,
      "ScanOptions": "FS",
      "ScanningSequence": "EP",
      "SequenceName": "epfid2d1_104",
      "SequenceVariant": [
        "SK",
        "SS"
],
      "SeriesDescription": "func_task-things_run-4",
      "SeriesNumber": 20,
      "SeriesTime": "110407.820000",
      "SliceLocation": -57.232439092883,
      "SliceThickness": 2.0,
      "SmallestImagePixelValue": 0,
      "SoftwareVersions": "syngo MR E11",
      "SpacingBetweenSlices": 1.9999999688932,
      "SpecificCharacterSet": "ISO_IR 100",
      "StudyID": "1",
      "StudyTime": "102254.244000",
      "TransmitCoilName": "Body",
      "VariableFlipAngleFlag": "N",
      "WindowCenterWidthExplanation": "Algo1",
      "dBdt": 0.0},
    "slices": {}
  },
  "time": {
    "samples": {
      "AcquisitionNumber": [1, 2, 3, 4, 5, 6, 7, 8, 9, 10, 11, 12, 13, 14, 15, 16, 17, 18, 19, 20, 21, 22, 23, 24, 25, 26, 27, 28, 29, 30, 31, 32, 33, 34, 35, 36, 37, 38, 39, 40, 41, 42, 43, 44, 45, 46, 47, 48, 49, 50, 51, 52, 53, 54, 55, 56, 57, 58, 59, 60, 61, 62, 63, 64, 65, 66, 67, 68, 69, 70, 71, 72, 73, 74, 75, 76, 77, 78, 79, 80, 81, 82, 83, 84, 85, 86, 87, 88, 89, 90, 91, 92, 93, 94, 95, 96, 97, 98, 99, 100, 101, 102, 103, 104, 105, 106, 107, 108, 109, 110, 111, 112, 113, 114, 115, 116, 117, 118, 119, 120, 121, 122, 123, 124, 125, 126, 127, 128, 129, 130, 131, 132, 133, 134, 135, 136, 137, 138, 139, 140, 141, 142, 143, 144, 145, 146, 147, 148, 149, 150, 151, 152, 153, 154, 155, 156, 157, 158, 159, 160, 161, 162, 163, 164, 165, 166, 167, 168, 169, 170, 171, 172, 173, 174, 175, 176, 177, 178, 179, 180, 181, 182, 183, 184, 185, 186, 187, 188, 189, 190],
      "AcquisitionTime": ["110250.372500", "110251.862500", "110253.352500", "110254.842500", "110256.332500", "110257.822500", "110259.312500", "110300.802500", "110302.292500", "110303.782500", "110305.272500", "110306.762500", "110308.252500", "110309.742500", "110311.232500", "110312.722500", "110314.212500", "110315.702500", "110317.192500", "110318.682500", "110320.172500", "110321.662500", "110323.152500", "110324.642500", "110326.132500", "110327.622500", "110329.112500", "110330.602500", "110332.092500", "110333.582500", "110335.072500", "110336.562500", "110338.052500", "110339.542500", "110341.032500", "110342.522500", "110344.012500", "110345.502500", "110346.992500", "110348.482500", "110349.972500", "110351.462500", "110352.952500", "110354.442500", "110355.932500", "110357.422500", "110358.912500", "110400.402500", "110401.892500", "110403.382500", "110404.872500", "110406.362500", "110407.852500", "110409.342500", "110410.832500", "110412.322500", "110413.812500", "110415.302500", "110416.792500", "110418.282500", "110419.772500", "110421.262500", "110422.752500", "110424.242500", "110425.732500", "110427.222500", "110428.712500", "110430.202500", "110431.692500", "110433.182500", "110434.672500", "110436.162500", "110437.652500", "110439.142500", "110440.632500", "110442.122500", "110443.612500", "110445.102500", "110446.592500", "110448.082500", "110449.572500", "110451.062500", "110452.552500", "110454.042500", "110455.532500", "110457.022500", "110458.512500", "110500.002500", "110501.492500", "110502.982500", "110504.472500", "110505.962500", "110507.452500", "110508.942500", "110510.432500", "110511.922500", "110513.412500", "110514.902500", "110516.392500", "110517.882500", "110519.372500", "110520.862500", "110522.352500", "110523.842500", "110525.332500", "110526.822500", "110528.312500", "110529.802500", "110531.292500", "110532.782500", "110534.272500", "110535.762500", "110537.252500", "110538.742500", "110540.232500", "110541.722500", "110543.212500", "110544.702500", "110546.192500", "110547.682500", "110549.172500", "110550.662500", "110552.152500", "110553.642500", "110555.132500", "110556.622500", "110558.112500", "110559.602500", "110601.092500", "110602.582500", "110604.072500", "110605.562500", "110607.052500", "110608.542500", "110610.032500", "110611.522500", "110613.012500", "110614.502500", "110615.992500", "110617.482500", "110618.972500", "110620.462500", "110621.952500", "110623.442500", "110624.932500", "110626.422500", "110627.912500", "110629.402500", "110630.892500", "110632.382500", "110633.872500", "110635.362500", "110636.852500", "110638.342500", "110639.832500", "110641.322500", "110642.812500", "110644.302500", "110645.792500", "110647.282500", "110648.772500", "110650.262500", "110651.752500", "110653.242500", "110654.732500", "110656.222500", "110657.712500", "110659.202500", "110700.692500", "110702.182500", "110703.672500", "110705.162500", "110706.652500", "110708.142500", "110709.632500", "110711.122500", "110712.612500", "110714.102500", "110715.592500", "110717.082500", "110718.572500", "110720.062500", "110721.552500", "110723.042500", "110724.532500", "110726.022500", "110727.512500", "110729.002500", "110730.492500", "110731.982500"],
      "ContentTime": ["110407.822000", "110407.830000", "110407.833000", "110407.835000", "110407.837000", "110407.840000", "110407.842000", "110407.846000", "110407.849000", "110407.851000", "110407.853000", "110407.856000", "110407.858000", "110407.861000", "110407.863000", "110407.866000", "110407.868000", "110407.871000", "110407.873000", "110407.876000", "110407.878000", "110427.773000", "110427.776000", "110427.779000", "110427.781000", "110427.784000", "110427.786000", "110427.789000", "110427.791000", "110427.794000", "110427.796000", "110427.799000", "110427.801000", "110427.804000", "110427.806000", "110427.809000", "110427.811000", "110427.814000", "110427.816000", "110427.819000", "110427.821000", "110427.824000", "110447.773000", "110447.776000", "110447.778000", "110447.781000", "110447.783000", "110447.786000", "110447.789000", "110447.791000", "110447.793000", "110447.796000", "110447.798000", "110447.801000", "110447.803000", "110447.806000", "110447.808000", "110447.811000", "110447.813000", "110447.816000", "110447.818000", "110447.821000", "110507.796000", "110507.799000", "110507.801000", "110507.804000", "110507.806000", "110507.809000", "110507.811000", "110507.814000", "110507.817000", "110507.819000", "110507.822000", "110507.824000", "110507.827000", "110507.829000", "110507.832000", "110507.834000", "110507.837000", "110507.839000", "110507.842000", "110507.844000", "110527.777000", "110527.780000", "110527.782000", "110527.785000", "110527.788000", "110527.790000", "110527.793000", "110527.795000", "110527.798000", "110527.800000", "110527.803000", "110527.805000", "110527.808000", "110527.810000", "110527.813000", "110527.815000", "110527.818000", "110527.820000", "110527.822000", "110527.825000", "110527.827000", "110547.753000", "110547.756000", "110547.758000", "110547.761000", "110547.764000", "110547.766000", "110547.768000", "110547.771000", "110547.774000", "110547.776000", "110547.779000", "110547.781000", "110547.784000", "110547.786000", "110547.789000", "110627.823000", "110627.826000", "110627.828000", "110627.831000", "110627.834000", "110627.836000", "110627.839000", "110627.841000", "110627.844000", "110627.846000", "110627.849000", "110627.851000", "110627.854000", "110627.856000", "110627.859000", "110627.861000", "110627.864000", "110627.866000", "110627.869000", "110627.871000", "110627.874000", "110627.876000", "110627.879000", "110627.881000", "110627.883000", "110627.886000", "110627.888000", "110707.797000", "110707.800000", "110707.803000", "110707.805000", "110707.808000", "110707.810000", "110707.813000", "110707.815000", "110707.818000", "110707.820000", "110707.831000", "110707.833000", "110707.836000", "110707.838000", "110707.841000", "110707.843000", "110707.846000", "110707.848000", "110707.851000", "110707.853000", "110707.856000", "110707.858000", "110707.861000", "110707.863000", "110707.866000", "110707.868000", "110707.871000", "110733.791000", "110733.794000", "110733.796000", "110733.799000", "110733.801000", "110733.804000", "110733.807000", "110733.810000", "110733.812000", "110733.815000", "110733.818000", "110733.820000", "110733.823000", "110733.826000", "110733.828000", "110733.831000", "110733.833000", "110733.836000"],
      "InstanceCreationTime": ["110407.822000", "110407.830000", "110407.833000", "110407.835000", "110407.837000", "110407.840000", "110407.842000", "110407.846000", "110407.849000", "110407.851000", "110407.853000", "110407.856000", "110407.858000", "110407.861000", "110407.863000", "110407.866000", "110407.868000", "110407.871000", "110407.873000", "110407.876000", "110407.878000", "110427.773000", "110427.776000", "110427.779000", "110427.781000", "110427.784000", "110427.786000", "110427.789000", "110427.791000", "110427.794000", "110427.796000", "110427.799000", "110427.801000", "110427.804000", "110427.806000", "110427.809000", "110427.811000", "110427.814000", "110427.816000", "110427.819000", "110427.821000", "110427.824000", "110447.773000", "110447.776000", "110447.778000", "110447.781000", "110447.783000", "110447.786000", "110447.789000", "110447.791000", "110447.793000", "110447.796000", "110447.798000", "110447.801000", "110447.803000", "110447.806000", "110447.808000", "110447.811000", "110447.813000", "110447.816000", "110447.818000", "110447.821000", "110507.796000", "110507.799000", "110507.801000", "110507.804000", "110507.806000", "110507.809000", "110507.811000", "110507.814000", "110507.817000", "110507.819000", "110507.822000", "110507.824000", "110507.827000", "110507.829000", "110507.832000", "110507.834000", "110507.837000", "110507.839000", "110507.842000", "110507.844000", "110527.777000", "110527.780000", "110527.782000", "110527.785000", "110527.788000", "110527.790000", "110527.793000", "110527.795000", "110527.798000", "110527.800000", "110527.803000", "110527.805000", "110527.808000", "110527.810000", "110527.813000", "110527.815000", "110527.818000", "110527.820000", "110527.822000", "110527.825000", "110527.827000", "110547.753000", "110547.756000", "110547.758000", "110547.761000", "110547.764000", "110547.766000", "110547.768000", "110547.771000", "110547.774000", "110547.776000", "110547.779000", "110547.781000", "110547.784000", "110547.786000", "110547.789000", "110627.823000", "110627.826000", "110627.828000", "110627.831000", "110627.834000", "110627.836000", "110627.839000", "110627.841000", "110627.844000", "110627.846000", "110627.849000", "110627.851000", "110627.854000", "110627.856000", "110627.859000", "110627.861000", "110627.864000", "110627.866000", "110627.869000", "110627.871000", "110627.874000", "110627.876000", "110627.879000", "110627.881000", "110627.883000", "110627.886000", "110627.888000", "110707.797000", "110707.800000", "110707.803000", "110707.805000", "110707.808000", "110707.810000", "110707.813000", "110707.815000", "110707.818000", "110707.820000", "110707.831000", "110707.833000", "110707.836000", "110707.838000", "110707.841000", "110707.843000", "110707.846000", "110707.848000", "110707.851000", "110707.853000", "110707.856000", "110707.858000", "110707.861000", "110707.863000", "110707.866000", "110707.868000", "110707.871000", "110733.791000", "110733.794000", "110733.796000", "110733.799000", "110733.801000", "110733.804000", "110733.807000", "110733.810000", "110733.812000", "110733.815000", "110733.818000", "110733.820000", "110733.823000", "110733.826000", "110733.828000", "110733.831000", "110733.833000", "110733.836000"],
      "InstanceNumber": [1, 2, 3, 4, 5, 6, 7, 8, 9, 10, 11, 12, 13, 14, 15, 16, 17, 18, 19, 20, 21, 22, 23, 24, 25, 26, 27, 28, 29, 30, 31, 32, 33, 34, 35, 36, 37, 38, 39, 40, 41, 42, 43, 44, 45, 46, 47, 48, 49, 50, 51, 52, 53, 54, 55, 56, 57, 58, 59, 60, 61, 62, 63, 64, 65, 66, 67, 68, 69, 70, 71, 72, 73, 74, 75, 76, 77, 78, 79, 80, 81, 82, 83, 84, 85, 86, 87, 88, 89, 90, 91, 92, 93, 94, 95, 96, 97, 98, 99, 100, 101, 102, 103, 104, 105, 106, 107, 108, 109, 110, 111, 112, 113, 114, 115, 116, 117, 118, 119, 120, 121, 122, 123, 124, 125, 126, 127, 128, 129, 130, 131, 132, 133, 134, 135, 136, 137, 138, 139, 140, 141, 142, 143, 144, 145, 146, 147, 148, 149, 150, 151, 152, 153, 154, 155, 156, 157, 158, 159, 160, 161, 162, 163, 164, 165, 166, 167, 168, 169, 170, 171, 172, 173, 174, 175, 176, 177, 178, 179, 180, 181, 182, 183, 184, 185, 186, 187, 188, 189, 190],
      "WindowCenter": [4882.0, 4880.0, 4878.0, 4880.0, 4880.0, 4904.0, 4882.0, 4882.0, 4902.0, 4882.0, 4884.0, 4884.0, 4880.0, 4882.0, 4882.0, 4880.0, 4906.0, 4882.0, 4882.0, 4906.0, 4884.0, 4882.0, 4880.0, 4852.0, 4882.0, 4880.0, 4880.0, 4880.0, 4880.0, 4876.0, 4882.0, 4904.0, 4882.0, 4898.0, 4902.0, 4878.0, 4880.0, 4856.0, 4884.0, 4882.0, 4880.0, 4880.0, 4882.0, 4906.0, 4882.0, 4878.0, 4884.0, 4882.0, 4856.0, 4904.0, 4880.0, 4880.0, 4882.0, 4880.0, 4880.0, 4904.0, 4880.0, 4900.0, 4914.0, 4902.0, 4878.0, 4862.0, 4864.0, 4860.0, 4884.0, 4880.0, 4904.0, 4898.0, 4900.0, 4902.0, 4902.0, 4878.0, 4858.0, 4882.0, 4882.0, 4880.0, 4882.0, 4880.0, 4880.0, 4900.0, 4904.0, 4884.0, 4882.0, 4858.0, 4858.0, 4906.0, 4904.0, 4880.0, 4880.0, 4906.0, 4878.0, 4884.0, 4884.0, 4880.0, 4882.0, 4882.0, 4882.0, 4906.0, 4882.0, 4880.0, 4878.0, 4876.0, 4880.0, 4902.0, 4882.0, 4902.0, 4906.0, 4878.0, 4878.0, 4858.0, 4882.0, 4860.0, 4878.0, 4880.0, 4880.0, 4902.0, 4902.0, 4880.0, 4882.0, 4878.0, 4880.0, 4880.0, 4880.0, 4882.0, 4880.0, 4904.0, 4882.0, 4880.0, 4878.0, 4880.0, 4906.0, 4880.0, 4880.0, 4904.0, 4854.0, 4882.0, 4882.0, 4884.0, 4878.0, 4884.0, 4884.0, 4880.0, 4904.0, 4880.0, 4882.0, 4882.0, 4880.0, 4878.0, 4878.0, 4884.0, 4878.0, 4880.0, 4882.0, 4878.0, 4882.0, 4878.0, 4904.0, 4880.0, 4882.0, 4880.0, 4876.0, 4882.0, 4856.0, 4902.0, 4874.0, 4880.0, 4920.0, 4904.0, 4884.0, 4882.0, 4884.0, 4858.0, 4882.0, 4880.0, 4902.0, 4904.0, 4906.0, 4880.0, 4880.0, 4880.0, 4880.0, 4882.0, 4880.0, 4880.0, 4916.0, 4920.0, 4906.0, 4884.0, 4884.0, 4886.0],
      "WindowWidth": [18650.0, 18642.0, 18654.0, 18654.0, 18648.0, 18702.0, 18658.0, 18660.0, 18694.0, 18644.0, 18646.0, 18642.0, 18632.0, 18644.0, 18646.0, 18644.0, 18702.0, 18664.0, 18656.0, 18700.0, 18646.0, 18652.0, 18640.0, 18594.0, 18644.0, 18630.0, 18654.0, 18648.0, 18636.0, 18636.0, 18650.0, 18714.0, 18664.0, 18696.0, 18694.0, 18636.0, 18646.0, 18604.0, 18640.0, 18638.0, 18640.0, 18656.0, 18650.0, 18700.0, 18664.0, 18640.0, 18658.0, 18642.0, 18602.0, 18682.0, 18642.0, 18634.0, 18650.0, 18642.0, 18646.0, 18696.0, 18642.0, 18692.0, 18762.0, 18710.0, 18634.0, 18600.0, 18604.0, 18600.0, 18646.0, 18654.0, 18700.0, 18724.0, 18718.0, 18698.0, 18704.0, 18640.0, 18598.0, 18640.0, 18632.0, 18632.0, 18644.0, 18646.0, 18650.0, 18704.0, 18706.0, 18664.0, 18636.0, 18596.0, 18598.0, 18698.0, 18700.0, 18638.0, 18652.0, 18690.0, 18638.0, 18660.0, 18662.0, 18642.0, 18652.0, 18660.0, 18636.0, 18690.0, 18652.0, 18642.0, 18630.0, 18622.0, 18652.0, 18706.0, 18658.0, 18708.0, 18712.0, 18636.0, 18636.0, 18596.0, 18634.0, 18600.0, 18642.0, 18658.0, 18654.0, 18712.0, 18704.0, 18650.0, 18654.0, 18628.0, 18638.0, 18638.0, 18630.0, 18652.0, 18648.0, 18710.0, 18664.0, 18650.0, 18634.0, 18656.0, 18698.0, 18642.0, 18654.0, 18690.0, 18604.0, 18648.0, 18640.0, 18654.0, 18634.0, 18650.0, 18652.0, 18646.0, 18696.0, 18648.0, 18668.0, 18658.0, 18646.0, 18644.0, 18640.0, 18656.0, 18636.0, 18656.0, 18652.0, 18646.0, 18658.0, 18644.0, 18694.0, 18654.0, 18654.0, 18640.0, 18646.0, 18650.0, 18606.0, 18686.0, 18638.0, 18658.0, 18752.0, 18708.0, 18642.0, 18624.0, 18632.0, 18596.0, 18640.0, 18644.0, 18700.0, 18706.0, 18696.0, 18658.0, 18648.0, 18648.0, 18638.0, 18652.0, 18648.0, 18656.0, 18758.0, 18754.0, 18698.0, 18628.0, 18630.0, 18624.0]
    },
    "slices": {}
  }
}