{
  "AcquisitionMatrixPE": 104,
  "AcquisitionNumber": 1,
  "AcquisitionTime": "10:56:48.220000",
  "BandwidthPerPixelPhaseEncode": 17.17,
  "BaseResolution": 104,
  "BodyPartExamined": "BRAIN",
  "CoilString": "HC1-7;NC1_2",
  "ConsistencyInfo": "N4_VE11C_LATEST_20160120",
  "ConversionSoftware": "dcm2niix",
  "ConversionSoftwareVersion": "v1.0.20190902",
  "DerivedVendorReportedEchoSpacing": 0.000560011,
  "DeviceSerialNumber": "167006",
  "DwellTime": 2.1e-06,
  "EchoTime": 0.037,
  "EchoTrainLength": 104,
  "EffectiveEchoSpacing": 0.000560011,
  "FlipAngle": 52,
  "ImageComments": "Unaliased_MB4_PE3_LB",
  "ImageOrientationPatientDICOM": [0.999615, 0.0156946, 0.0228675, -0.00209358, 0.864839, -0.502045],
  "ImageType": [
    "ORIGINAL",
    "PRIMARY",
    "P",
    "MB",
    "ND",
    "MOSAIC"
],
  "ImagingFrequency": 123.259,
  "InPlanePhaseEncodingDirectionDICOM": "COL",
  "InstitutionAddress": "Chemin_Queen-Mary_4565_Montreal_District_CA_H3W_1W5",
  "InstitutionName": "IUGM",
  "InstitutionalDepartmentName": "Department",
  "MRAcquisitionType": "2D",
  "MagneticFieldStrength": 3,
  "Manufacturer": "Siemens",
  "ManufacturersModelName": "Prisma_fit",
  "Modality": "MR",
  "MultibandAccelerationFactor": 4,
  "PartialFourier": 1,
  "PatientPosition": "HFS",
  "PercentPhaseFOV": 100,
  "PhaseEncodingDirection": "j",
  "PhaseEncodingSteps": 104,
  "PhaseResolution": 1,
  "PixelBandwidth": 2290,
  "ProcedureStepDescription": "memory_things",
  "ProtocolName": "func_task-things_run-3",
  "PulseSequenceDetails": "%CustomerSeq%_cmrr_mbep2d_bold",
  "ReceiveCoilActiveElements": "HC1-7;NC1,2",
  "ReceiveCoilName": "HeadNeck_64",
  "ReconMatrixPE": 104,
  "RepetitionTime": 1.49,
  "SAR": 0.0605283,
  "ScanOptions": "FS",
  "ScanningSequence": "EP",
  "SequenceName": "epfid2d1_104",
  "SequenceVariant": "SK_SS",
  "SeriesDescription": "func_task-things_run-3",
  "SeriesNumber": 17,
  "ShimSetting": [622, -7189, -8869, 282, 24, -134, -8, 11],
  "SliceThickness": 2,
  "SliceTiming": [0, 0.7825, 0.0975, 0.88, 0.195, 0.9775, 0.2925, 1.0775, 0.39, 1.175, 0.4875, 1.2725, 0.5875, 1.37, 0.685, 0, 0.7825, 0.0975, 0.88, 0.195, 0.9775, 0.2925, 1.0775, 0.39, 1.175, 0.4875, 1.2725, 0.5875, 1.37, 0.685, 0, 0.7825, 0.0975, 0.88, 0.195, 0.9775, 0.2925, 1.0775, 0.39, 1.175, 0.4875, 1.2725, 0.5875, 1.37, 0.685, 0, 0.7825, 0.0975, 0.88, 0.195, 0.9775, 0.2925, 1.0775, 0.39, 1.175, 0.4875, 1.2725, 0.5875, 1.37, 0.685],
  "SoftwareVersions": "syngo_MR_E11",
  "SpacingBetweenSlices": 2,
  "StationName": "MRC35049",
  "TaskName": "things",
  "TotalReadoutTime": 0.0576811,
  "TxRefAmp": 289.742,
  "WipMemBlock": "93ca129e-8f31-401e-9cd2-2ae8df3fad9d||Sequence: R016 ve11c/master r/e634e98; Dec 19 2017 11:00:25 by eja",
  "dcmmeta_affine": [
    [-1.9992306232452393, -0.004187168087810278, 0.055312175303697586, 105.70159912109375],
    [-0.03138919547200203, 1.729677438735962, -1.0036089420318604, -50.443206787109375],
    [0.04573496803641319, 1.0040909051895142, 1.729077696800232, -98.86005401611328],
    [0.0, 0.0, 0.0, 1.0]
],
  "dcmmeta_reorient_transform": [
    [0.0, -1.0, 0.0, 103.0],
    [1.0, 0.0, 0.0, 0.0],
    [0.0, 0.0, 1.0, 0.0],
    [0.0, 0.0, 0.0, 1.0]
],
  "dcmmeta_shape": [104, 104, 60, 190],
  "dcmmeta_slice_dim": 2,
  "dcmmeta_version": 0.6,
  "global": {
    "const": {
      "AcquisitionMatrix": [104, 0, 0, 104],
      "AngioFlag": "N",
      "BitsAllocated": 16,
      "BitsStored": 16,
      "BodyPartExamined": "BRAIN",
      "Columns": 832,
      "EchoNumbers": 1,
      "EchoTime": 37.0,
      "EchoTrainLength": 104,
      "FlipAngle": 52.0,
      "HighBit": 15,
      "ImageOrientationPatient": [0.99961530486712, 0.01569459804083, 0.02286748494586, -0.0020935839873, 0.86483869521292, -0.5020454642445],
      "ImagePositionPatient": [-831.46613399637, -768.74180347222, 353.40288160242],
      "ImageType": [
        "ORIGINAL",
        "PRIMARY",
        "P",
        "MB",
        "ND",
        "MOSAIC"
],
      "ImagedNucleus": "1H",
      "ImagingFrequency": 123.259091,
      "InPlanePhaseEncodingDirection": "COL",
      "LargestImagePixelValue": 4095,
      "MRAcquisitionType": "2D",
      "MagneticFieldStrength": 3.0,
      "Manufacturer": "SIEMENS",
      "ManufacturerModelName": "Prisma_fit",
      "Modality": "MR",
      "NumberOfAverages": 1.0,
      "NumberOfPhaseEncodingSteps": 104,
      "PercentPhaseFieldOfView": 100.0,
      "PercentSampling": 100.0,
      "PerformedProcedureStepStartTime": "102254.312000",
      "PhotometricInterpretation": "MONOCHROME2",
      "PixelBandwidth": 2290.0,
      "PixelRepresentation": 0,
      "PixelSpacing": [2.0, 2.0],
      "ProtocolName": "func_task-things_run-3",
      "RepetitionTime": 1490.0,
      "RescaleIntercept": -4096.0,
      "RescaleSlope": 2.0,
      "RescaleType": "US",
      "Rows": 832,
      "SAR": 0.06052827140436,
      "SamplesPerPixel": 1,
      "ScanOptions": "FS",
      "ScanningSequence": "EP",
      "SequenceName": "epfid2d1_104",
      "SequenceVariant": [
        "SK",
        "SS"
],
      "SeriesDescription": "func_task-things_run-3",
      "SeriesNumber": 17,
      "SeriesTime": "105801.012000",
      "SliceLocation": -57.232439092883,
      "SliceThickness": 2.0,
      "SmallestImagePixelValue": 0,
      "SoftwareVersions": "syngo MR E11",
      "SpacingBetweenSlices": 1.9999999688932,
      "SpecificCharacterSet": "ISO_IR 100",
      "StudyID": "1",
      "StudyTime": "102254.244000",
      "TransmitCoilName": "Body",
      "VariableFlipAngleFlag": "N",
      "WindowCenterWidthExplanation": "Algo1",
      "dBdt": 0.0},
    "slices": {}
  },
  "time": {
    "samples": {
      "AcquisitionNumber": [1, 2, 3, 4, 5, 6, 7, 8, 9, 10, 11, 12, 13, 14, 15, 16, 17, 18, 19, 20, 21, 22, 23, 24, 25, 26, 27, 28, 29, 30, 31, 32, 33, 34, 35, 36, 37, 38, 39, 40, 41, 42, 43, 44, 45, 46, 47, 48, 49, 50, 51, 52, 53, 54, 55, 56, 57, 58, 59, 60, 61, 62, 63, 64, 65, 66, 67, 68, 69, 70, 71, 72, 73, 74, 75, 76, 77, 78, 79, 80, 81, 82, 83, 84, 85, 86, 87, 88, 89, 90, 91, 92, 93, 94, 95, 96, 97, 98, 99, 100, 101, 102, 103, 104, 105, 106, 107, 108, 109, 110, 111, 112, 113, 114, 115, 116, 117, 118, 119, 120, 121, 122, 123, 124, 125, 126, 127, 128, 129, 130, 131, 132, 133, 134, 135, 136, 137, 138, 139, 140, 141, 142, 143, 144, 145, 146, 147, 148, 149, 150, 151, 152, 153, 154, 155, 156, 157, 158, 159, 160, 161, 162, 163, 164, 165, 166, 167, 168, 169, 170, 171, 172, 173, 174, 175, 176, 177, 178, 179, 180, 181, 182, 183, 184, 185, 186, 187, 188, 189, 190],
      "AcquisitionTime": ["105648.220000", "105649.710000", "105651.200000", "105652.690000", "105654.180000", "105655.670000", "105657.160000", "105658.650000", "105700.140000", "105701.630000", "105703.120000", "105704.610000", "105706.100000", "105707.590000", "105709.080000", "105710.570000", "105712.060000", "105713.550000", "105715.040000", "105716.530000", "105718.020000", "105719.510000", "105721.000000", "105722.490000", "105723.980000", "105725.470000", "105726.960000", "105728.450000", "105729.940000", "105731.430000", "105732.920000", "105734.410000", "105735.900000", "105737.390000", "105738.880000", "105740.370000", "105741.860000", "105743.350000", "105744.840000", "105746.330000", "105747.820000", "105749.310000", "105750.800000", "105752.290000", "105753.780000", "105755.270000", "105756.760000", "105758.250000", "105759.740000", "105801.230000", "105802.720000", "105804.210000", "105805.700000", "105807.190000", "105808.680000", "105810.170000", "105811.660000", "105813.150000", "105814.640000", "105816.130000", "105817.620000", "105819.110000", "105820.600000", "105822.090000", "105823.580000", "105825.070000", "105826.560000", "105828.050000", "105829.540000", "105831.030000", "105832.520000", "105834.010000", "105835.500000", "105836.990000", "105838.480000", "105839.970000", "105841.460000", "105842.950000", "105844.440000", "105845.930000", "105847.420000", "105848.910000", "105850.400000", "105851.890000", "105853.380000", "105854.870000", "105856.360000", "105857.850000", "105859.340000", "105900.830000", "105902.320000", "105903.810000", "105905.300000", "105906.790000", "105908.280000", "105909.770000", "105911.260000", "105912.750000", "105914.240000", "105915.730000", "105917.220000", "105918.710000", "105920.200000", "105921.690000", "105923.180000", "105924.670000", "105926.160000", "105927.650000", "105929.140000", "105930.630000", "105932.120000", "105933.610000", "105935.100000", "105936.590000", "105938.080000", "105939.570000", "105941.060000", "105942.550000", "105944.040000", "105945.530000", "105947.020000", "105948.510000", "105950.000000", "105951.490000", "105952.980000", "105954.470000", "105955.960000", "105957.450000", "105958.940000", "110000.430000", "110001.920000", "110003.410000", "110004.900000", "110006.390000", "110007.880000", "110009.370000", "110010.860000", "110012.350000", "110013.840000", "110015.330000", "110016.820000", "110018.310000", "110019.800000", "110021.290000", "110022.780000", "110024.270000", "110025.760000", "110027.250000", "110028.740000", "110030.230000", "110031.720000", "110033.210000", "110034.700000", "110036.190000", "110037.680000", "110039.170000", "110040.660000", "110042.150000", "110043.640000", "110045.130000", "110046.620000", "110048.110000", "110049.600000", "110051.090000", "110052.580000", "110054.070000", "110055.560000", "110057.050000", "110058.540000", "110100.030000", "110101.520000", "110103.010000", "110104.500000", "110105.990000", "110107.480000", "110108.970000", "110110.460000", "110111.950000", "110113.440000", "110114.930000", "110116.420000", "110117.910000", "110119.400000", "110120.890000", "110122.380000", "110123.870000", "110125.360000", "110126.850000", "110128.340000", "110129.830000"],
      "ContentTime": ["105801.014000", "105801.017000", "105801.020000", "105801.022000", "105801.025000", "105801.027000", "105801.030000", "105801.033000", "105801.035000", "105801.037000", "105801.040000", "105801.043000", "105801.045000", "105801.048000", "105801.050000", "105801.053000", "105801.055000", "105801.058000", "105820.470000", "105820.472000", "105820.475000", "105820.484000", "105820.486000", "105820.489000", "105820.491000", "105820.494000", "105820.496000", "105820.499000", "105820.501000", "105820.504000", "105820.507000", "105820.509000", "105820.512000", "105820.514000", "105820.517000", "105820.519000", "105820.522000", "105820.525000", "105840.464000", "105840.467000", "105840.470000", "105840.472000", "105840.475000", "105840.481000", "105840.484000", "105840.486000", "105840.489000", "105840.491000", "105840.494000", "105840.497000", "105840.499000", "105840.502000", "105840.504000", "105840.507000", "105840.509000", "105840.512000", "105840.514000", "105840.517000", "105840.519000", "105900.469000", "105900.471000", "105900.474000", "105900.476000", "105900.479000", "105900.482000", "105900.484000", "105900.487000", "105900.489000", "105900.492000", "105900.494000", "105900.497000", "105900.499000", "105900.502000", "105900.504000", "105900.507000", "105900.509000", "105900.512000", "105900.514000", "105900.516000", "105920.461000", "105920.464000", "105920.466000", "105920.469000", "105920.471000", "105920.474000", "105920.476000", "105920.478000", "105920.481000", "105920.483000", "105920.486000", "105920.488000", "105920.491000", "105920.493000", "105920.496000", "105920.498000", "105920.501000", "105920.512000", "105920.515000", "105920.517000", "110000.503000", "110000.506000", "110000.508000", "110000.511000", "110000.513000", "110000.516000", "110000.518000", "110000.521000", "110000.523000", "110000.526000", "110000.528000", "110000.531000", "110000.533000", "110000.536000", "110000.538000", "110000.541000", "110000.543000", "110000.546000", "110000.548000", "110000.551000", "110000.553000", "110000.556000", "110000.558000", "110000.561000", "110000.563000", "110000.566000", "110000.568000", "110000.571000", "110000.574000", "110040.488000", "110040.491000", "110040.493000", "110040.495000", "110040.498000", "110040.500000", "110040.503000", "110040.505000", "110040.508000", "110040.510000", "110040.513000", "110040.515000", "110040.518000", "110040.520000", "110040.523000", "110040.525000", "110040.528000", "110040.530000", "110040.533000", "110040.535000", "110040.538000", "110040.540000", "110040.543000", "110040.545000", "110040.548000", "110040.550000", "110040.553000", "110120.490000", "110120.493000", "110120.496000", "110120.498000", "110120.500000", "110120.503000", "110120.505000", "110120.508000", "110120.510000", "110120.513000", "110120.515000", "110120.518000", "110120.520000", "110120.523000", "110120.525000", "110120.528000", "110120.530000", "110120.533000", "110120.535000", "110120.538000", "110120.540000", "110120.543000", "110120.545000", "110120.548000", "110120.550000", "110120.553000", "110120.555000", "110132.177000", "110132.180000", "110132.183000", "110132.190000", "110132.192000", "110132.195000", "110132.198000", "110132.200000"],
      "InstanceCreationTime": ["105801.014000", "105801.017000", "105801.020000", "105801.022000", "105801.025000", "105801.027000", "105801.030000", "105801.033000", "105801.035000", "105801.037000", "105801.040000", "105801.043000", "105801.045000", "105801.048000", "105801.050000", "105801.053000", "105801.055000", "105801.058000", "105820.470000", "105820.472000", "105820.475000", "105820.484000", "105820.486000", "105820.489000", "105820.491000", "105820.494000", "105820.496000", "105820.499000", "105820.501000", "105820.504000", "105820.507000", "105820.509000", "105820.512000", "105820.514000", "105820.517000", "105820.519000", "105820.522000", "105820.525000", "105840.464000", "105840.467000", "105840.470000", "105840.472000", "105840.475000", "105840.481000", "105840.484000", "105840.486000", "105840.489000", "105840.491000", "105840.494000", "105840.497000", "105840.499000", "105840.502000", "105840.504000", "105840.507000", "105840.509000", "105840.512000", "105840.514000", "105840.517000", "105840.519000", "105900.469000", "105900.471000", "105900.474000", "105900.476000", "105900.479000", "105900.482000", "105900.484000", "105900.487000", "105900.489000", "105900.492000", "105900.494000", "105900.497000", "105900.499000", "105900.502000", "105900.504000", "105900.507000", "105900.509000", "105900.512000", "105900.514000", "105900.516000", "105920.461000", "105920.464000", "105920.466000", "105920.469000", "105920.471000", "105920.474000", "105920.476000", "105920.478000", "105920.481000", "105920.483000", "105920.486000", "105920.488000", "105920.491000", "105920.493000", "105920.496000", "105920.498000", "105920.501000", "105920.512000", "105920.515000", "105920.517000", "110000.503000", "110000.506000", "110000.508000", "110000.511000", "110000.513000", "110000.516000", "110000.518000", "110000.521000", "110000.523000", "110000.526000", "110000.528000", "110000.531000", "110000.533000", "110000.536000", "110000.538000", "110000.541000", "110000.543000", "110000.546000", "110000.548000", "110000.551000", "110000.553000", "110000.556000", "110000.558000", "110000.561000", "110000.563000", "110000.566000", "110000.568000", "110000.571000", "110000.574000", "110040.488000", "110040.491000", "110040.493000", "110040.495000", "110040.498000", "110040.500000", "110040.503000", "110040.505000", "110040.508000", "110040.510000", "110040.513000", "110040.515000", "110040.518000", "110040.520000", "110040.523000", "110040.525000", "110040.528000", "110040.530000", "110040.533000", "110040.535000", "110040.538000", "110040.540000", "110040.543000", "110040.545000", "110040.548000", "110040.550000", "110040.553000", "110120.490000", "110120.493000", "110120.496000", "110120.498000", "110120.500000", "110120.503000", "110120.505000", "110120.508000", "110120.510000", "110120.513000", "110120.515000", "110120.518000", "110120.520000", "110120.523000", "110120.525000", "110120.528000", "110120.530000", "110120.533000", "110120.535000", "110120.538000", "110120.540000", "110120.543000", "110120.545000", "110120.548000", "110120.550000", "110120.553000", "110120.555000", "110132.177000", "110132.180000", "110132.183000", "110132.190000", "110132.192000", "110132.195000", "110132.198000", "110132.200000"],
      "InstanceNumber": [1, 2, 3, 4, 5, 6, 7, 8, 9, 10, 11, 12, 13, 14, 15, 16, 17, 18, 19, 20, 21, 22, 23, 24, 25, 26, 27, 28, 29, 30, 31, 32, 33, 34, 35, 36, 37, 38, 39, 40, 41, 42, 43, 44, 45, 46, 47, 48, 49, 50, 51, 52, 53, 54, 55, 56, 57, 58, 59, 60, 61, 62, 63, 64, 65, 66, 67, 68, 69, 70, 71, 72, 73, 74, 75, 76, 77, 78, 79, 80, 81, 82, 83, 84, 85, 86, 87, 88, 89, 90, 91, 92, 93, 94, 95, 96, 97, 98, 99, 100, 101, 102, 103, 104, 105, 106, 107, 108, 109, 110, 111, 112, 113, 114, 115, 116, 117, 118, 119, 120, 121, 122, 123, 124, 125, 126, 127, 128, 129, 130, 131, 132, 133, 134, 135, 136, 137, 138, 139, 140, 141, 142, 143, 144, 145, 146, 147, 148, 149, 150, 151, 152, 153, 154, 155, 156, 157, 158, 159, 160, 161, 162, 163, 164, 165, 166, 167, 168, 169, 170, 171, 172, 173, 174, 175, 176, 177, 178, 179, 180, 181, 182, 183, 184, 185, 186, 187, 188, 189, 190],
      "WindowCenter": [4854.0, 4852.0, 4880.0, 4856.0, 4858.0, 4856.0, 4852.0, 4880.0, 4876.0, 4852.0, 4856.0, 4856.0, 4854.0, 4854.0, 4852.0, 4852.0, 4854.0, 4880.0, 4854.0, 4880.0, 4854.0, 4856.0, 4854.0, 4852.0, 4854.0, 4850.0, 4852.0, 4876.0, 4896.0, 4898.0, 4880.0, 4880.0, 4852.0, 4852.0, 4854.0, 4854.0, 4852.0, 4878.0, 4878.0, 4882.0, 4880.0, 4880.0, 4856.0, 4852.0, 4858.0, 4852.0, 4856.0, 4852.0, 4852.0, 4852.0, 4878.0, 4880.0, 4880.0, 4880.0, 4856.0, 4880.0, 4850.0, 4854.0, 4852.0, 4856.0, 4856.0, 4880.0, 4856.0, 4882.0, 4880.0, 4858.0, 4852.0, 4878.0, 4856.0, 4854.0, 4880.0, 4856.0, 4878.0, 4882.0, 4878.0, 4854.0, 4852.0, 4854.0, 4852.0, 4876.0, 4922.0, 4902.0, 4880.0, 4854.0, 4858.0, 4854.0, 4852.0, 4852.0, 4878.0, 4854.0, 4880.0, 4878.0, 4896.0, 4898.0, 4878.0, 4862.0, 4862.0, 4860.0, 4856.0, 4854.0, 4880.0, 4880.0, 4902.0, 4882.0, 4856.0, 4856.0, 4854.0, 4856.0, 4856.0, 4878.0, 4852.0, 4854.0, 4900.0, 4882.0, 4856.0, 4878.0, 4856.0, 4852.0, 4852.0, 4854.0, 4856.0, 4854.0, 4880.0, 4854.0, 4902.0, 4876.0, 4856.0, 4880.0, 4856.0, 4856.0, 4854.0, 4856.0, 4856.0, 4878.0, 4880.0, 4854.0, 4902.0, 4878.0, 4852.0, 4858.0, 4856.0, 4854.0, 4856.0, 4882.0, 4880.0, 4900.0, 4880.0, 4882.0, 4880.0, 4856.0, 4856.0, 4856.0, 4854.0, 4856.0, 4878.0, 4878.0, 4882.0, 4880.0, 4878.0, 4878.0, 4854.0, 4876.0, 4854.0, 4882.0, 4880.0, 4856.0, 4882.0, 4856.0, 4880.0, 4880.0, 4854.0, 4854.0, 4856.0, 4880.0, 4856.0, 4880.0, 4858.0, 4876.0, 4880.0, 4880.0, 4854.0, 4880.0, 4852.0, 4854.0, 4882.0, 4856.0, 4854.0, 4852.0, 4904.0, 4880.0],
      "WindowWidth": [18612.0, 18606.0, 18658.0, 18614.0, 18620.0, 18618.0, 18602.0, 18652.0, 18644.0, 18596.0, 18610.0, 18600.0, 18604.0, 18608.0, 18610.0, 18612.0, 18620.0, 18662.0, 18614.0, 18664.0, 18608.0, 18612.0, 18604.0, 18600.0, 18604.0, 18594.0, 18598.0, 18646.0, 18730.0, 18714.0, 18646.0, 18638.0, 18596.0, 18592.0, 18600.0, 18602.0, 18608.0, 18660.0, 18652.0, 18662.0, 18658.0, 18664.0, 18614.0, 18602.0, 18606.0, 18592.0, 18604.0, 18598.0, 18602.0, 18606.0, 18658.0, 18656.0, 18668.0, 18650.0, 18616.0, 18642.0, 18596.0, 18594.0, 18596.0, 18606.0, 18606.0, 18652.0, 18610.0, 18658.0, 18652.0, 18622.0, 18604.0, 18642.0, 18610.0, 18606.0, 18648.0, 18600.0, 18644.0, 18666.0, 18640.0, 18602.0, 18598.0, 18606.0, 18604.0, 18648.0, 18758.0, 18710.0, 18642.0, 18598.0, 18606.0, 18598.0, 18594.0, 18598.0, 18640.0, 18618.0, 18648.0, 18658.0, 18726.0, 18720.0, 18650.0, 18602.0, 18606.0, 18598.0, 18588.0, 18600.0, 18650.0, 18648.0, 18696.0, 18668.0, 18616.0, 18612.0, 18606.0, 18602.0, 18600.0, 18644.0, 18604.0, 18606.0, 18694.0, 18654.0, 18606.0, 18638.0, 18600.0, 18598.0, 18596.0, 18600.0, 18610.0, 18610.0, 18656.0, 18620.0, 18698.0, 18654.0, 18612.0, 18648.0, 18602.0, 18602.0, 18598.0, 18602.0, 18608.0, 18644.0, 18652.0, 18612.0, 18700.0, 18652.0, 18598.0, 18600.0, 18600.0, 18598.0, 18602.0, 18656.0, 18660.0, 18710.0, 18674.0, 18644.0, 18646.0, 18596.0, 18598.0, 18596.0, 18596.0, 18596.0, 18648.0, 18650.0, 18656.0, 18662.0, 18644.0, 18636.0, 18604.0, 18636.0, 18598.0, 18648.0, 18642.0, 18610.0, 18662.0, 18604.0, 18656.0, 18640.0, 18606.0, 18596.0, 18596.0, 18640.0, 18604.0, 18646.0, 18608.0, 18644.0, 18644.0, 18652.0, 18608.0, 18650.0, 18600.0, 18606.0, 18646.0, 18604.0, 18598.0, 18598.0, 18688.0, 18652.0]
    },
    "slices": {}
  }
}