{
  "AcquisitionMatrixPE": 104,
  "AcquisitionNumber": 1,
  "AcquisitionTime": "11:08:50.140000",
  "BandwidthPerPixelPhaseEncode": 17.17,
  "BaseResolution": 104,
  "BodyPartExamined": "BRAIN",
  "CoilString": "HC1-7;NC1_2",
  "ConsistencyInfo": "N4_VE11C_LATEST_20160120",
  "ConversionSoftware": "dcm2niix",
  "ConversionSoftwareVersion": "v1.0.20190902",
  "DerivedVendorReportedEchoSpacing": 0.000560011,
  "DeviceSerialNumber": "167006",
  "DwellTime": 2.1e-06,
  "EchoTime": 0.037,
  "EchoTrainLength": 104,
  "EffectiveEchoSpacing": 0.000560011,
  "FlipAngle": 52,
  "ImageComments": "Unaliased_MB4_PE3_LB",
  "ImageOrientationPatientDICOM": [0.999615, 0.0156946, 0.0228675, -0.00209358, 0.864839, -0.502045],
  "ImageType": [
    "ORIGINAL",
    "PRIMARY",
    "M",
    "MB",
    "ND",
    "MOSAIC"
],
  "ImagingFrequency": 123.259,
  "InPlanePhaseEncodingDirectionDICOM": "COL",
  "InstitutionAddress": "Chemin_Queen-Mary_4565_Montreal_District_CA_H3W_1W5",
  "InstitutionName": "IUGM",
  "InstitutionalDepartmentName": "Department",
  "MRAcquisitionType": "2D",
  "MagneticFieldStrength": 3,
  "Manufacturer": "Siemens",
  "ManufacturersModelName": "Prisma_fit",
  "Modality": "MR",
  "MultibandAccelerationFactor": 4,
  "PartialFourier": 1,
  "PatientPosition": "HFS",
  "PercentPhaseFOV": 100,
  "PhaseEncodingDirection": "j",
  "PhaseEncodingSteps": 104,
  "PhaseResolution": 1,
  "PixelBandwidth": 2290,
  "ProcedureStepDescription": "memory_things",
  "ProtocolName": "func_task-things_run-5",
  "PulseSequenceDetails": "%CustomerSeq%_cmrr_mbep2d_bold",
  "ReceiveCoilActiveElements": "HC1-7;NC1,2",
  "ReceiveCoilName": "HeadNeck_64",
  "ReconMatrixPE": 104,
  "RepetitionTime": 1.49,
  "SAR": 0.0605283,
  "ScanOptions": "FS",
  "ScanningSequence": "EP",
  "SequenceName": "epfid2d1_104",
  "SequenceVariant": "SK_SS",
  "SeriesDescription": "func_task-things_run-5",
  "SeriesNumber": 22,
  "ShimSetting": [622, -7189, -8869, 282, 24, -134, -8, 11],
  "SliceThickness": 2,
  "SliceTiming": [0, 0.7825, 0.0975, 0.88, 0.195, 0.98, 0.2925, 1.0775, 0.39, 1.175, 0.49, 1.2725, 0.5875, 1.37, 0.685, 0, 0.7825, 0.0975, 0.88, 0.195, 0.98, 0.2925, 1.0775, 0.39, 1.175, 0.49, 1.2725, 0.5875, 1.37, 0.685, 0, 0.7825, 0.0975, 0.88, 0.195, 0.98, 0.2925, 1.0775, 0.39, 1.175, 0.49, 1.2725, 0.5875, 1.37, 0.685, 0, 0.7825, 0.0975, 0.88, 0.195, 0.98, 0.2925, 1.0775, 0.39, 1.175, 0.49, 1.2725, 0.5875, 1.37, 0.685],
  "SoftwareVersions": "syngo_MR_E11",
  "SpacingBetweenSlices": 2,
  "StationName": "MRC35049",
  "TaskName": "things",
  "TotalReadoutTime": 0.0576811,
  "TxRefAmp": 289.742,
  "WipMemBlock": "45b89a3b-7fd5-4599-a0fd-0c0e58e19cfd||Sequence: R016 ve11c/master r/e634e98; Dec 19 2017 11:00:25 by eja",
  "dcmmeta_affine": [
    [-1.9992306232452393, -0.004187168087810278, 0.055312175303697586, 105.70159912109375],
    [-0.03138919547200203, 1.729677438735962, -1.0036089420318604, -50.443206787109375],
    [0.04573496803641319, 1.0040909051895142, 1.729077696800232, -98.86005401611328],
    [0.0, 0.0, 0.0, 1.0]
],
  "dcmmeta_reorient_transform": [
    [0.0, -1.0, 0.0, 103.0],
    [1.0, 0.0, 0.0, 0.0],
    [0.0, 0.0, 1.0, 0.0],
    [0.0, 0.0, 0.0, 1.0]
],
  "dcmmeta_shape": [104, 104, 60, 190],
  "dcmmeta_slice_dim": 2,
  "dcmmeta_version": 0.6,
  "global": {
    "const": {
      "AcquisitionMatrix": [104, 0, 0, 104],
      "AngioFlag": "N",
      "BitsAllocated": 16,
      "BitsStored": 16,
      "BodyPartExamined": "BRAIN",
      "Columns": 832,
      "EchoNumbers": 1,
      "EchoTime": 37.0,
      "EchoTrainLength": 104,
      "FlipAngle": 52.0,
      "HighBit": 15,
      "ImageOrientationPatient": [0.99961530486712, 0.01569459804083, 0.02286748494586, -0.0020935839873, 0.86483869521292, -0.5020454642445],
      "ImagePositionPatient": [-831.46613399637, -768.74180347222, 353.40288160242],
      "ImageType": [
        "ORIGINAL",
        "PRIMARY",
        "M",
        "MB",
        "ND",
        "MOSAIC"
],
      "ImagedNucleus": "1H",
      "ImagingFrequency": 123.259096,
      "InPlanePhaseEncodingDirection": "COL",
      "MRAcquisitionType": "2D",
      "MagneticFieldStrength": 3.0,
      "Manufacturer": "SIEMENS",
      "ManufacturerModelName": "Prisma_fit",
      "Modality": "MR",
      "NumberOfAverages": 1.0,
      "NumberOfPhaseEncodingSteps": 104,
      "PercentPhaseFieldOfView": 100.0,
      "PercentSampling": 100.0,
      "PerformedProcedureStepStartTime": "102254.312000",
      "PhotometricInterpretation": "MONOCHROME2",
      "PixelBandwidth": 2290.0,
      "PixelRepresentation": 0,
      "PixelSpacing": [2.0, 2.0],
      "ProtocolName": "func_task-things_run-5",
      "RepetitionTime": 1490.0,
      "Rows": 832,
      "SAR": 0.06052827140436,
      "SamplesPerPixel": 1,
      "ScanOptions": "FS",
      "ScanningSequence": "EP",
      "SequenceName": "epfid2d1_104",
      "SequenceVariant": [
        "SK",
        "SS"
],
      "SeriesDescription": "func_task-things_run-5",
      "SeriesNumber": 22,
      "SeriesTime": "111020.472000",
      "SliceLocation": -57.232439092883,
      "SliceThickness": 2.0,
      "SmallestImagePixelValue": 0,
      "SoftwareVersions": "syngo MR E11",
      "SpacingBetweenSlices": 1.9999999688932,
      "SpecificCharacterSet": "ISO_IR 100",
      "StudyID": "1",
      "StudyTime": "102254.244000",
      "TransmitCoilName": "Body",
      "VariableFlipAngleFlag": "N",
      "WindowCenterWidthExplanation": "Algo1",
      "dBdt": 0.0},
    "slices": {}
  },
  "time": {
    "samples": {
      "AcquisitionNumber": [1, 2, 3, 4, 5, 6, 7, 8, 9, 10, 11, 12, 13, 14, 15, 16, 17, 18, 19, 20, 21, 22, 23, 24, 25, 26, 27, 28, 29, 30, 31, 32, 33, 34, 35, 36, 37, 38, 39, 40, 41, 42, 43, 44, 45, 46, 47, 48, 49, 50, 51, 52, 53, 54, 55, 56, 57, 58, 59, 60, 61, 62, 63, 64, 65, 66, 67, 68, 69, 70, 71, 72, 73, 74, 75, 76, 77, 78, 79, 80, 81, 82, 83, 84, 85, 86, 87, 88, 89, 90, 91, 92, 93, 94, 95, 96, 97, 98, 99, 100, 101, 102, 103, 104, 105, 106, 107, 108, 109, 110, 111, 112, 113, 114, 115, 116, 117, 118, 119, 120, 121, 122, 123, 124, 125, 126, 127, 128, 129, 130, 131, 132, 133, 134, 135, 136, 137, 138, 139, 140, 141, 142, 143, 144, 145, 146, 147, 148, 149, 150, 151, 152, 153, 154, 155, 156, 157, 158, 159, 160, 161, 162, 163, 164, 165, 166, 167, 168, 169, 170, 171, 172, 173, 174, 175, 176, 177, 178, 179, 180, 181, 182, 183, 184, 185, 186, 187, 188, 189, 190],
      "AcquisitionTime": ["110850.140000", "110851.630000", "110853.120000", "110854.610000", "110856.100000", "110857.590000", "110859.080000", "110900.570000", "110902.060000", "110903.550000", "110905.040000", "110906.530000", "110908.020000", "110909.510000", "110911.000000", "110912.490000", "110913.980000", "110915.470000", "110916.960000", "110918.450000", "110919.940000", "110921.430000", "110922.920000", "110924.410000", "110925.900000", "110927.390000", "110928.880000", "110930.370000", "110931.860000", "110933.350000", "110934.840000", "110936.330000", "110937.820000", "110939.310000", "110940.800000", "110942.290000", "110943.780000", "110945.270000", "110946.760000", "110948.250000", "110949.740000", "110951.230000", "110952.720000", "110954.210000", "110955.700000", "110957.190000", "110958.680000", "111000.170000", "111001.660000", "111003.150000", "111004.640000", "111006.130000", "111007.620000", "111009.110000", "111010.600000", "111012.090000", "111013.580000", "111015.070000", "111016.560000", "111018.050000", "111019.540000", "111021.030000", "111022.520000", "111024.010000", "111025.500000", "111026.990000", "111028.480000", "111029.970000", "111031.460000", "111032.950000", "111034.440000", "111035.930000", "111037.420000", "111038.910000", "111040.400000", "111041.890000", "111043.380000", "111044.870000", "111046.360000", "111047.850000", "111049.340000", "111050.830000", "111052.320000", "111053.810000", "111055.300000", "111056.790000", "111058.280000", "111059.770000", "111101.260000", "111102.750000", "111104.240000", "111105.730000", "111107.220000", "111108.710000", "111110.200000", "111111.690000", "111113.180000", "111114.670000", "111116.160000", "111117.650000", "111119.140000", "111120.630000", "111122.120000", "111123.610000", "111125.100000", "111126.590000", "111128.080000", "111129.570000", "111131.060000", "111132.550000", "111134.040000", "111135.530000", "111137.020000", "111138.510000", "111140.000000", "111141.490000", "111142.980000", "111144.470000", "111145.960000", "111147.450000", "111148.940000", "111150.430000", "111151.920000", "111153.410000", "111154.900000", "111156.390000", "111157.880000", "111159.370000", "111200.860000", "111202.350000", "111203.840000", "111205.330000", "111206.820000", "111208.310000", "111209.800000", "111211.290000", "111212.780000", "111214.270000", "111215.760000", "111217.250000", "111218.740000", "111220.230000", "111221.720000", "111223.210000", "111224.700000", "111226.190000", "111227.680000", "111229.170000", "111230.660000", "111232.150000", "111233.640000", "111235.130000", "111236.620000", "111238.110000", "111239.600000", "111241.090000", "111242.580000", "111244.070000", "111245.560000", "111247.050000", "111248.540000", "111250.030000", "111251.520000", "111253.010000", "111254.500000", "111255.990000", "111257.480000", "111258.970000", "111300.460000", "111301.950000", "111303.440000", "111304.930000", "111306.420000", "111307.910000", "111309.400000", "111310.890000", "111312.380000", "111313.870000", "111315.360000", "111316.850000", "111318.340000", "111319.830000", "111321.320000", "111322.810000", "111324.300000", "111325.790000", "111327.280000", "111328.770000", "111330.260000", "111331.750000"],
      "ContentTime": ["111020.475000", "111020.479000", "111020.482000", "111020.486000", "111020.489000", "111020.492000", "111020.496000", "111020.499000", "111020.502000", "111020.505000", "111020.509000", "111020.512000", "111020.515000", "111020.519000", "111020.522000", "111020.525000", "111020.528000", "111020.532000", "111020.535000", "111020.538000", "111020.549000", "111020.552000", "111020.555000", "111020.559000", "111020.562000", "111020.565000", "111020.569000", "111020.572000", "111020.576000", "111020.579000", "111020.582000", "111020.585000", "111020.589000", "111020.592000", "111020.595000", "111020.599000", "111040.431000", "111040.435000", "111040.438000", "111040.442000", "111040.445000", "111040.448000", "111040.452000", "111040.455000", "111040.458000", "111040.462000", "111040.465000", "111040.468000", "111040.471000", "111040.475000", "111040.480000", "111040.484000", "111040.487000", "111040.491000", "111040.494000", "111040.497000", "111100.431000", "111100.440000", "111100.443000", "111100.446000", "111100.450000", "111100.453000", "111100.456000", "111100.460000", "111100.463000", "111100.467000", "111100.470000", "111100.473000", "111100.477000", "111100.480000", "111100.483000", "111100.487000", "111100.503000", "111100.514000", "111100.517000", "111100.521000", "111100.524000", "111120.431000", "111120.435000", "111120.438000", "111120.441000", "111120.445000", "111120.448000", "111120.452000", "111120.455000", "111120.458000", "111120.462000", "111120.465000", "111120.469000", "111120.472000", "111120.475000", "111120.479000", "111120.482000", "111120.485000", "111120.489000", "111120.492000", "111120.495000", "111200.431000", "111200.435000", "111200.438000", "111200.442000", "111200.445000", "111200.448000", "111200.452000", "111200.455000", "111200.458000", "111200.462000", "111200.465000", "111200.469000", "111200.472000", "111200.475000", "111200.479000", "111200.482000", "111200.485000", "111200.489000", "111200.492000", "111200.495000", "111200.499000", "111200.502000", "111200.505000", "111200.509000", "111200.512000", "111200.515000", "111200.519000", "111200.522000", "111200.525000", "111200.529000", "111240.432000", "111240.436000", "111240.439000", "111240.443000", "111240.446000", "111240.450000", "111240.453000", "111240.456000", "111240.459000", "111240.463000", "111240.466000", "111240.470000", "111240.473000", "111240.476000", "111240.480000", "111240.483000", "111240.486000", "111240.490000", "111240.493000", "111240.496000", "111240.499000", "111240.503000", "111240.506000", "111240.509000", "111240.513000", "111240.516000", "111240.519000", "111320.431000", "111320.435000", "111320.438000", "111320.442000", "111320.445000", "111320.448000", "111320.452000", "111320.455000", "111320.458000", "111320.462000", "111320.465000", "111320.468000", "111320.472000", "111320.475000", "111320.479000", "111320.483000", "111320.487000", "111320.491000", "111320.496000", "111320.500000", "111320.504000", "111320.507000", "111320.511000", "111320.531000", "111320.535000", "111320.538000", "111333.963000", "111333.967000", "111333.971000", "111333.974000", "111333.978000", "111333.981000", "111333.985000", "111333.989000", "111333.992000", "111333.996000"],
      "InstanceCreationTime": ["111020.475000", "111020.479000", "111020.482000", "111020.486000", "111020.489000", "111020.492000", "111020.496000", "111020.499000", "111020.502000", "111020.505000", "111020.509000", "111020.512000", "111020.515000", "111020.519000", "111020.522000", "111020.525000", "111020.528000", "111020.532000", "111020.535000", "111020.538000", "111020.549000", "111020.552000", "111020.555000", "111020.559000", "111020.562000", "111020.565000", "111020.569000", "111020.572000", "111020.576000", "111020.579000", "111020.582000", "111020.585000", "111020.589000", "111020.592000", "111020.595000", "111020.599000", "111040.431000", "111040.435000", "111040.438000", "111040.442000", "111040.445000", "111040.448000", "111040.452000", "111040.455000", "111040.458000", "111040.462000", "111040.465000", "111040.468000", "111040.471000", "111040.475000", "111040.480000", "111040.484000", "111040.487000", "111040.491000", "111040.494000", "111040.497000", "111100.431000", "111100.440000", "111100.443000", "111100.446000", "111100.450000", "111100.453000", "111100.456000", "111100.460000", "111100.463000", "111100.467000", "111100.470000", "111100.473000", "111100.477000", "111100.480000", "111100.483000", "111100.487000", "111100.503000", "111100.514000", "111100.517000", "111100.521000", "111100.524000", "111120.431000", "111120.435000", "111120.438000", "111120.441000", "111120.445000", "111120.448000", "111120.452000", "111120.455000", "111120.458000", "111120.462000", "111120.465000", "111120.469000", "111120.472000", "111120.475000", "111120.479000", "111120.482000", "111120.485000", "111120.489000", "111120.492000", "111120.495000", "111200.431000", "111200.435000", "111200.438000", "111200.442000", "111200.445000", "111200.448000", "111200.452000", "111200.455000", "111200.458000", "111200.462000", "111200.465000", "111200.469000", "111200.472000", "111200.475000", "111200.479000", "111200.482000", "111200.485000", "111200.489000", "111200.492000", "111200.495000", "111200.499000", "111200.502000", "111200.505000", "111200.509000", "111200.512000", "111200.515000", "111200.519000", "111200.522000", "111200.525000", "111200.529000", "111240.432000", "111240.436000", "111240.439000", "111240.443000", "111240.446000", "111240.450000", "111240.453000", "111240.456000", "111240.459000", "111240.463000", "111240.466000", "111240.470000", "111240.473000", "111240.476000", "111240.480000", "111240.483000", "111240.486000", "111240.490000", "111240.493000", "111240.496000", "111240.499000", "111240.503000", "111240.506000", "111240.509000", "111240.513000", "111240.516000", "111240.519000", "111320.431000", "111320.435000", "111320.438000", "111320.442000", "111320.445000", "111320.448000", "111320.452000", "111320.455000", "111320.458000", "111320.462000", "111320.465000", "111320.468000", "111320.472000", "111320.475000", "111320.479000", "111320.483000", "111320.487000", "111320.491000", "111320.496000", "111320.500000", "111320.504000", "111320.507000", "111320.511000", "111320.531000", "111320.535000", "111320.538000", "111333.963000", "111333.967000", "111333.971000", "111333.974000", "111333.978000", "111333.981000", "111333.985000", "111333.989000", "111333.992000", "111333.996000"],
      "InstanceNumber": [1, 2, 3, 4, 5, 6, 7, 8, 9, 10, 11, 12, 13, 14, 15, 16, 17, 18, 19, 20, 21, 22, 23, 24, 25, 26, 27, 28, 29, 30, 31, 32, 33, 34, 35, 36, 37, 38, 39, 40, 41, 42, 43, 44, 45, 46, 47, 48, 49, 50, 51, 52, 53, 54, 55, 56, 57, 58, 59, 60, 61, 62, 63, 64, 65, 66, 67, 68, 69, 70, 71, 72, 73, 74, 75, 76, 77, 78, 79, 80, 81, 82, 83, 84, 85, 86, 87, 88, 89, 90, 91, 92, 93, 94, 95, 96, 97, 98, 99, 100, 101, 102, 103, 104, 105, 106, 107, 108, 109, 110, 111, 112, 113, 114, 115, 116, 117, 118, 119, 120, 121, 122, 123, 124, 125, 126, 127, 128, 129, 130, 131, 132, 133, 134, 135, 136, 137, 138, 139, 140, 141, 142, 143, 144, 145, 146, 147, 148, 149, 150, 151, 152, 153, 154, 155, 156, 157, 158, 159, 160, 161, 162, 163, 164, 165, 166, 167, 168, 169, 170, 171, 172, 173, 174, 175, 176, 177, 178, 179, 180, 181, 182, 183, 184, 185, 186, 187, 188, 189, 190],
      "LargestImagePixelValue": [46371, 45362, 44310, 45160, 45811, 45345, 44897, 43965, 44171, 44059, 43063, 44760, 43565, 44586, 44118, 45171, 43529, 45240, 44762, 43394, 44888, 43048, 43662, 44740, 43891, 43294, 43564, 43266, 43750, 43200, 44299, 43298, 45074, 44041, 44439, 44365, 43476, 43269, 43499, 43936, 43146, 45006, 44419, 44027, 44780, 44618, 44544, 43724, 44429, 43224, 44794, 44509, 43708, 43829, 43168, 43462, 43211, 43309, 42807, 43697, 44484, 43732, 44864, 44455, 44977, 43416, 44665, 44776, 43571, 44666, 43801, 43747, 44037, 43485, 44417, 43994, 43608, 44953, 44917, 44143, 43724, 43512, 42626, 42803, 42921, 43309, 43156, 44661, 43839, 44858, 45829, 43491, 43248, 43191, 43307, 43956, 43145, 43418, 42860, 43710, 44690, 44975, 43789, 43202, 43727, 43599, 43108, 43759, 43237, 44243, 44660, 44018, 44695, 43488, 44805, 43554, 43739, 44454, 43269, 44356, 44169, 43242, 44920, 44504, 43118, 45242, 42892, 43471, 43862, 44015, 44351, 44697, 44519, 43262, 44928, 44623, 44553, 44505, 44627, 43300, 44238, 44511, 43211, 45488, 44150, 44031, 45156, 43505, 44534, 44474, 44011, 43918, 43629, 44273, 45054, 44203, 44535, 44510, 43098, 44134, 43908, 44431, 43222, 43672, 45466, 45259, 43627, 45402, 43797, 43178, 44624, 43677, 43194, 44944, 43680, 43266, 45198, 44746, 43029, 44351, 43768, 42920, 44603, 43287, 43350, 44644, 45502, 44446, 43959, 43438],
      "WindowCenter": [11148.0, 11086.0, 11069.0, 11131.0, 11070.0, 11073.0, 11037.0, 11036.0, 11062.0, 11052.0, 11020.0, 11029.0, 11039.0, 11042.0, 11025.0, 11079.0, 10981.0, 11029.0, 11091.0, 10995.0, 11010.0, 11030.0, 11066.0, 11075.0, 11065.0, 11045.0, 11042.0, 11037.0, 11024.0, 11030.0, 11011.0, 10992.0, 11011.0, 10999.0, 10986.0, 10996.0, 10993.0, 10992.0, 11000.0, 11020.0, 10989.0, 11024.0, 11023.0, 11006.0, 11014.0, 11051.0, 11038.0, 11052.0, 11054.0, 11000.0, 11003.0, 11032.0, 10980.0, 10998.0, 11004.0, 11004.0, 10995.0, 10978.0, 11006.0, 11046.0, 11075.0, 11033.0, 10994.0, 11029.0, 10981.0, 11008.0, 11065.0, 11055.0, 11043.0, 11040.0, 11025.0, 11036.0, 11054.0, 11047.0, 11042.0, 11004.0, 10963.0, 11005.0, 11023.0, 11012.0, 11027.0, 11011.0, 11002.0, 10999.0, 10992.0, 10993.0, 10995.0, 11062.0, 10984.0, 11006.0, 11025.0, 11007.0, 10990.0, 11009.0, 11001.0, 11026.0, 11013.0, 10994.0, 10988.0, 11083.0, 11047.0, 11039.0, 11042.0, 11013.0, 10998.0, 10973.0, 11000.0, 11052.0, 11036.0, 11052.0, 11048.0, 11069.0, 11015.0, 10997.0, 11027.0, 10999.0, 11008.0, 11012.0, 10988.0, 11005.0, 11008.0, 10994.0, 11027.0, 11035.0, 10990.0, 11036.0, 10991.0, 10993.0, 10999.0, 11035.0, 11018.0, 11033.0, 11023.0, 11015.0, 11040.0, 11033.0, 11014.0, 11014.0, 11023.0, 11006.0, 11035.0, 11031.0, 11008.0, 11044.0, 11025.0, 11007.0, 11040.0, 11010.0, 11021.0, 11024.0, 11049.0, 10998.0, 11001.0, 11024.0, 11037.0, 11020.0, 11021.0, 11003.0, 11015.0, 11024.0, 11028.0, 11040.0, 11021.0, 11032.0, 11053.0, 11028.0, 10984.0, 11011.0, 11016.0, 11016.0, 11036.0, 11016.0, 10993.0, 11047.0, 11032.0, 11023.0, 11062.0, 11061.0, 10978.0, 10992.0, 10985.0, 10994.0, 11029.0, 11015.0, 11010.0, 11030.0, 11025.0, 11012.0, 11011.0, 11025.0],
      "WindowWidth": [24050.0, 23868.0, 23809.0, 23944.0, 23792.0, 23799.0, 23712.0, 23712.0, 23770.0, 23745.0, 23676.0, 23689.0, 23713.0, 23722.0, 23680.0, 23810.0, 23586.0, 23682.0, 23837.0, 23620.0, 23641.0, 23693.0, 23775.0, 23796.0, 23774.0, 23731.0, 23721.0, 23712.0, 23683.0, 23695.0, 23650.0, 23610.0, 23645.0, 23620.0, 23589.0, 23614.0, 23609.0, 23607.0, 23623.0, 23674.0, 23604.0, 23671.0, 23676.0, 23637.0, 23654.0, 23742.0, 23710.0, 23740.0, 23752.0, 23627.0, 23624.0, 23695.0, 23574.0, 23617.0, 23633.0, 23634.0, 23613.0, 23574.0, 23641.0, 23729.0, 23795.0, 23701.0, 23606.0, 23693.0, 23569.0, 23639.0, 23768.0, 23747.0, 23726.0, 23717.0, 23681.0, 23708.0, 23745.0, 23734.0, 23721.0, 23638.0, 23538.0, 23628.0, 23677.0, 23651.0, 23689.0, 23653.0, 23634.0, 23624.0, 23608.0, 23604.0, 23609.0, 23764.0, 23582.0, 23626.0, 23667.0, 23638.0, 23600.0, 23642.0, 23625.0, 23679.0, 23653.0, 23607.0, 23594.0, 23812.0, 23732.0, 23707.0, 23720.0, 23656.0, 23619.0, 23564.0, 23621.0, 23740.0, 23706.0, 23736.0, 23727.0, 23783.0, 23652.0, 23615.0, 23681.0, 23619.0, 23638.0, 23644.0, 23595.0, 23631.0, 23639.0, 23610.0, 23679.0, 23700.0, 23596.0, 23698.0, 23607.0, 23607.0, 23619.0, 23699.0, 23658.0, 23692.0, 23672.0, 23659.0, 23712.0, 23702.0, 23654.0, 23654.0, 23677.0, 23641.0, 23702.0, 23693.0, 23643.0, 23718.0, 23684.0, 23637.0, 23712.0, 23649.0, 23668.0, 23678.0, 23739.0, 23618.0, 23625.0, 23674.0, 23699.0, 23667.0, 23669.0, 23626.0, 23659.0, 23676.0, 23687.0, 23711.0, 23674.0, 23697.0, 23737.0, 23686.0, 23589.0, 23642.0, 23662.0, 23664.0, 23705.0, 23665.0, 23611.0, 23727.0, 23699.0, 23679.0, 23759.0, 23765.0, 23584.0, 23601.0, 23585.0, 23612.0, 23686.0, 23660.0, 23650.0, 23690.0, 23674.0, 23648.0, 23653.0, 23690.0]
    },
    "slices": {}
  }
}