{
  "AcquisitionMatrixPE": 104,
  "AcquisitionNumber": 1,
  "AcquisitionTime": "11:02:50.372500",
  "BandwidthPerPixelPhaseEncode": 17.17,
  "BaseResolution": 104,
  "BodyPartExamined": "BRAIN",
  "CoilString": "HC1-7;NC1_2",
  "ConsistencyInfo": "N4_VE11C_LATEST_20160120",
  "ConversionSoftware": "dcm2niix",
  "ConversionSoftwareVersion": "v1.0.20190902",
  "DerivedVendorReportedEchoSpacing": 0.000560011,
  "DeviceSerialNumber": "167006",
  "DwellTime": 2.1e-06,
  "EchoTime": 0.037,
  "EchoTrainLength": 104,
  "EffectiveEchoSpacing": 0.000560011,
  "FlipAngle": 52,
  "ImageComments": "Unaliased_MB4_PE3_LB",
  "ImageOrientationPatientDICOM": [0.999615, 0.0156946, 0.0228675, -0.00209358, 0.864839, -0.502045],
  "ImageType": [
    "ORIGINAL",
    "PRIMARY",
    "M",
    "MB",
    "ND",
    "MOSAIC"
],
  "ImagingFrequency": 123.259,
  "InPlanePhaseEncodingDirectionDICOM": "COL",
  "InstitutionAddress": "Chemin_Queen-Mary_4565_Montreal_District_CA_H3W_1W5",
  "InstitutionName": "IUGM",
  "InstitutionalDepartmentName": "Department",
  "MRAcquisitionType": "2D",
  "MagneticFieldStrength": 3,
  "Manufacturer": "Siemens",
  "ManufacturersModelName": "Prisma_fit",
  "Modality": "MR",
  "MultibandAccelerationFactor": 4,
  "PartialFourier": 1,
  "PatientPosition": "HFS",
  "PercentPhaseFOV": 100,
  "PhaseEncodingDirection": "j",
  "PhaseEncodingSteps": 104,
  "PhaseResolution": 1,
  "PixelBandwidth": 2290,
  "ProcedureStepDescription": "memory_things",
  "ProtocolName": "func_task-things_run-4",
  "PulseSequenceDetails": "%CustomerSeq%_cmrr_mbep2d_bold",
  "ReceiveCoilActiveElements": "HC1-7;NC1,2",
  "ReceiveCoilName": "HeadNeck_64",
  "ReconMatrixPE": 104,
  "RepetitionTime": 1.49,
  "SAR": 0.0605283,
  "ScanOptions": "FS",
  "ScanningSequence": "EP",
  "SequenceName": "epfid2d1_104",
  "SequenceVariant": "SK_SS",
  "SeriesDescription": "func_task-things_run-4",
  "SeriesNumber": 19,
  "ShimSetting": [622, -7189, -8869, 282, 24, -134, -8, 11],
  "SliceThickness": 2,
  "SliceTiming": [0, 0.7825, 0.0975, 0.88, 0.195, 0.98, 0.2925, 1.0775, 0.39, 1.175, 0.49, 1.2725, 0.5875, 1.37, 0.685, 0, 0.7825, 0.0975, 0.88, 0.195, 0.98, 0.2925, 1.0775, 0.39, 1.175, 0.49, 1.2725, 0.5875, 1.37, 0.685, 0, 0.7825, 0.0975, 0.88, 0.195, 0.98, 0.2925, 1.0775, 0.39, 1.175, 0.49, 1.2725, 0.5875, 1.37, 0.685, 0, 0.7825, 0.0975, 0.88, 0.195, 0.98, 0.2925, 1.0775, 0.39, 1.175, 0.49, 1.2725, 0.5875, 1.37, 0.685],
  "SoftwareVersions": "syngo_MR_E11",
  "SpacingBetweenSlices": 2,
  "StationName": "MRC35049",
  "TaskName": "things",
  "TotalReadoutTime": 0.0576811,
  "TxRefAmp": 289.742,
  "WipMemBlock": "ebfb8f9e-3063-4270-a8a9-3b0b81b704f3||Sequence: R016 ve11c/master r/e634e98; Dec 19 2017 11:00:25 by eja",
  "dcmmeta_affine": [
    [-1.9992306232452393, -0.004187168087810278, 0.055312175303697586, 105.70159912109375],
    [-0.03138919547200203, 1.729677438735962, -1.0036089420318604, -50.443206787109375],
    [0.04573496803641319, 1.0040909051895142, 1.729077696800232, -98.86005401611328],
    [0.0, 0.0, 0.0, 1.0]
],
  "dcmmeta_reorient_transform": [
    [0.0, -1.0, 0.0, 103.0],
    [1.0, 0.0, 0.0, 0.0],
    [0.0, 0.0, 1.0, 0.0],
    [0.0, 0.0, 0.0, 1.0]
],
  "dcmmeta_shape": [104, 104, 60, 190],
  "dcmmeta_slice_dim": 2,
  "dcmmeta_version": 0.6,
  "global": {
    "const": {
      "AcquisitionMatrix": [104, 0, 0, 104],
      "AngioFlag": "N",
      "BitsAllocated": 16,
      "BitsStored": 16,
      "BodyPartExamined": "BRAIN",
      "Columns": 832,
      "EchoNumbers": 1,
      "EchoTime": 37.0,
      "EchoTrainLength": 104,
      "FlipAngle": 52.0,
      "HighBit": 15,
      "ImageOrientationPatient": [0.99961530486712, 0.01569459804083, 0.02286748494586, -0.0020935839873, 0.86483869521292, -0.5020454642445],
      "ImagePositionPatient": [-831.46613399637, -768.74180347222, 353.40288160242],
      "ImageType": [
        "ORIGINAL",
        "PRIMARY",
        "M",
        "MB",
        "ND",
        "MOSAIC"
],
      "ImagedNucleus": "1H",
      "ImagingFrequency": 123.259094,
      "InPlanePhaseEncodingDirection": "COL",
      "MRAcquisitionType": "2D",
      "MagneticFieldStrength": 3.0,
      "Manufacturer": "SIEMENS",
      "ManufacturerModelName": "Prisma_fit",
      "Modality": "MR",
      "NumberOfAverages": 1.0,
      "NumberOfPhaseEncodingSteps": 104,
      "PercentPhaseFieldOfView": 100.0,
      "PercentSampling": 100.0,
      "PerformedProcedureStepStartTime": "102254.312000",
      "PhotometricInterpretation": "MONOCHROME2",
      "PixelBandwidth": 2290.0,
      "PixelRepresentation": 0,
      "PixelSpacing": [2.0, 2.0],
      "ProtocolName": "func_task-things_run-4",
      "RepetitionTime": 1490.0,
      "Rows": 832,
      "SAR": 0.06052827140436,
      "SamplesPerPixel": 1,
      "ScanOptions": "FS",
      "ScanningSequence": "EP",
      "SequenceName": "epfid2d1_104",
      "SequenceVariant": [
        "SK",
        "SS"
],
      "SeriesDescription": "func_task-things_run-4",
      "SeriesNumber": 19,
      "SeriesTime": "110407.703000",
      "SliceLocation": -57.232439092883,
      "SliceThickness": 2.0,
      "SmallestImagePixelValue": 0,
      "SoftwareVersions": "syngo MR E11",
      "SpacingBetweenSlices": 1.9999999688932,
      "SpecificCharacterSet": "ISO_IR 100",
      "StudyID": "1",
      "StudyTime": "102254.244000",
      "TransmitCoilName": "Body",
      "VariableFlipAngleFlag": "N",
      "WindowCenterWidthExplanation": "Algo1",
      "dBdt": 0.0},
    "slices": {}
  },
  "time": {
    "samples": {
      "AcquisitionNumber": [1, 2, 3, 4, 5, 6, 7, 8, 9, 10, 11, 12, 13, 14, 15, 16, 17, 18, 19, 20, 21, 22, 23, 24, 25, 26, 27, 28, 29, 30, 31, 32, 33, 34, 35, 36, 37, 38, 39, 40, 41, 42, 43, 44, 45, 46, 47, 48, 49, 50, 51, 52, 53, 54, 55, 56, 57, 58, 59, 60, 61, 62, 63, 64, 65, 66, 67, 68, 69, 70, 71, 72, 73, 74, 75, 76, 77, 78, 79, 80, 81, 82, 83, 84, 85, 86, 87, 88, 89, 90, 91, 92, 93, 94, 95, 96, 97, 98, 99, 100, 101, 102, 103, 104, 105, 106, 107, 108, 109, 110, 111, 112, 113, 114, 115, 116, 117, 118, 119, 120, 121, 122, 123, 124, 125, 126, 127, 128, 129, 130, 131, 132, 133, 134, 135, 136, 137, 138, 139, 140, 141, 142, 143, 144, 145, 146, 147, 148, 149, 150, 151, 152, 153, 154, 155, 156, 157, 158, 159, 160, 161, 162, 163, 164, 165, 166, 167, 168, 169, 170, 171, 172, 173, 174, 175, 176, 177, 178, 179, 180, 181, 182, 183, 184, 185, 186, 187, 188, 189, 190],
      "AcquisitionTime": ["110250.372500", "110251.862500", "110253.352500", "110254.842500", "110256.332500", "110257.822500", "110259.312500", "110300.802500", "110302.292500", "110303.782500", "110305.272500", "110306.762500", "110308.252500", "110309.742500", "110311.232500", "110312.722500", "110314.212500", "110315.702500", "110317.192500", "110318.682500", "110320.172500", "110321.662500", "110323.152500", "110324.642500", "110326.132500", "110327.622500", "110329.112500", "110330.602500", "110332.092500", "110333.582500", "110335.072500", "110336.562500", "110338.052500", "110339.542500", "110341.032500", "110342.522500", "110344.012500", "110345.502500", "110346.992500", "110348.482500", "110349.972500", "110351.462500", "110352.952500", "110354.442500", "110355.932500", "110357.422500", "110358.912500", "110400.402500", "110401.892500", "110403.382500", "110404.872500", "110406.362500", "110407.852500", "110409.342500", "110410.832500", "110412.322500", "110413.812500", "110415.302500", "110416.792500", "110418.282500", "110419.772500", "110421.262500", "110422.752500", "110424.242500", "110425.732500", "110427.222500", "110428.712500", "110430.202500", "110431.692500", "110433.182500", "110434.672500", "110436.162500", "110437.652500", "110439.142500", "110440.632500", "110442.122500", "110443.612500", "110445.102500", "110446.592500", "110448.082500", "110449.572500", "110451.062500", "110452.552500", "110454.042500", "110455.532500", "110457.022500", "110458.512500", "110500.002500", "110501.492500", "110502.982500", "110504.472500", "110505.962500", "110507.452500", "110508.942500", "110510.432500", "110511.922500", "110513.412500", "110514.902500", "110516.392500", "110517.882500", "110519.372500", "110520.862500", "110522.352500", "110523.842500", "110525.332500", "110526.822500", "110528.312500", "110529.802500", "110531.292500", "110532.782500", "110534.272500", "110535.762500", "110537.252500", "110538.742500", "110540.232500", "110541.722500", "110543.212500", "110544.702500", "110546.192500", "110547.682500", "110549.172500", "110550.662500", "110552.152500", "110553.642500", "110555.132500", "110556.622500", "110558.112500", "110559.602500", "110601.092500", "110602.582500", "110604.072500", "110605.562500", "110607.052500", "110608.542500", "110610.032500", "110611.522500", "110613.012500", "110614.502500", "110615.992500", "110617.482500", "110618.972500", "110620.462500", "110621.952500", "110623.442500", "110624.932500", "110626.422500", "110627.912500", "110629.402500", "110630.892500", "110632.382500", "110633.872500", "110635.362500", "110636.852500", "110638.342500", "110639.832500", "110641.322500", "110642.812500", "110644.302500", "110645.792500", "110647.282500", "110648.772500", "110650.262500", "110651.752500", "110653.242500", "110654.732500", "110656.222500", "110657.712500", "110659.202500", "110700.692500", "110702.182500", "110703.672500", "110705.162500", "110706.652500", "110708.142500", "110709.632500", "110711.122500", "110712.612500", "110714.102500", "110715.592500", "110717.082500", "110718.572500", "110720.062500", "110721.552500", "110723.042500", "110724.532500", "110726.022500", "110727.512500", "110729.002500", "110730.492500", "110731.982500"],
      "ContentTime": ["110407.706000", "110407.710000", "110407.713000", "110407.717000", "110407.720000", "110407.723000", "110407.727000", "110407.730000", "110407.733000", "110407.737000", "110407.740000", "110407.743000", "110407.747000", "110407.750000", "110407.753000", "110407.757000", "110407.760000", "110407.763000", "110407.766000", "110407.770000", "110407.773000", "110427.662000", "110427.666000", "110427.669000", "110427.672000", "110427.676000", "110427.679000", "110427.682000", "110427.685000", "110427.689000", "110427.692000", "110427.695000", "110427.699000", "110427.702000", "110427.705000", "110427.709000", "110427.712000", "110427.715000", "110427.718000", "110427.722000", "110427.725000", "110427.728000", "110447.662000", "110447.670000", "110447.673000", "110447.677000", "110447.688000", "110447.691000", "110447.695000", "110447.698000", "110447.701000", "110447.705000", "110447.708000", "110447.711000", "110447.715000", "110447.718000", "110447.721000", "110447.725000", "110447.728000", "110447.731000", "110447.735000", "110447.738000", "110507.662000", "110507.666000", "110507.669000", "110507.672000", "110507.676000", "110507.679000", "110507.682000", "110507.686000", "110507.689000", "110507.715000", "110507.718000", "110507.721000", "110507.725000", "110507.728000", "110507.732000", "110507.735000", "110507.738000", "110507.742000", "110507.745000", "110507.748000", "110527.662000", "110527.666000", "110527.669000", "110527.672000", "110527.676000", "110527.679000", "110527.682000", "110527.686000", "110527.689000", "110527.693000", "110527.696000", "110527.699000", "110527.703000", "110527.706000", "110527.709000", "110527.713000", "110527.716000", "110527.719000", "110527.723000", "110527.726000", "110527.730000", "110547.662000", "110547.666000", "110547.669000", "110547.674000", "110547.677000", "110547.680000", "110547.684000", "110547.687000", "110547.691000", "110547.694000", "110547.697000", "110547.701000", "110547.704000", "110547.707000", "110547.711000", "110627.662000", "110627.666000", "110627.669000", "110627.673000", "110627.676000", "110627.680000", "110627.683000", "110627.686000", "110627.690000", "110627.693000", "110627.696000", "110627.700000", "110627.703000", "110627.706000", "110627.710000", "110627.713000", "110627.716000", "110627.720000", "110627.723000", "110627.726000", "110627.730000", "110627.733000", "110627.736000", "110627.740000", "110627.743000", "110627.746000", "110627.750000", "110707.662000", "110707.666000", "110707.669000", "110707.672000", "110707.676000", "110707.679000", "110707.682000", "110707.686000", "110707.689000", "110707.692000", "110707.696000", "110707.699000", "110707.703000", "110707.706000", "110707.709000", "110707.712000", "110707.716000", "110707.719000", "110707.722000", "110707.726000", "110707.729000", "110707.732000", "110707.735000", "110707.739000", "110707.742000", "110707.745000", "110707.756000", "110733.679000", "110733.683000", "110733.687000", "110733.690000", "110733.694000", "110733.697000", "110733.701000", "110733.704000", "110733.707000", "110733.711000", "110733.714000", "110733.717000", "110733.721000", "110733.724000", "110733.727000", "110733.731000", "110733.734000", "110733.738000"],
      "InstanceCreationTime": ["110407.706000", "110407.710000", "110407.713000", "110407.717000", "110407.720000", "110407.723000", "110407.727000", "110407.730000", "110407.733000", "110407.737000", "110407.740000", "110407.743000", "110407.747000", "110407.750000", "110407.753000", "110407.757000", "110407.760000", "110407.763000", "110407.766000", "110407.770000", "110407.773000", "110427.662000", "110427.666000", "110427.669000", "110427.672000", "110427.676000", "110427.679000", "110427.682000", "110427.685000", "110427.689000", "110427.692000", "110427.695000", "110427.699000", "110427.702000", "110427.705000", "110427.709000", "110427.712000", "110427.715000", "110427.718000", "110427.722000", "110427.725000", "110427.728000", "110447.662000", "110447.670000", "110447.673000", "110447.677000", "110447.688000", "110447.691000", "110447.695000", "110447.698000", "110447.701000", "110447.705000", "110447.708000", "110447.711000", "110447.715000", "110447.718000", "110447.721000", "110447.725000", "110447.728000", "110447.731000", "110447.735000", "110447.738000", "110507.662000", "110507.666000", "110507.669000", "110507.672000", "110507.676000", "110507.679000", "110507.682000", "110507.686000", "110507.689000", "110507.715000", "110507.718000", "110507.721000", "110507.725000", "110507.728000", "110507.732000", "110507.735000", "110507.738000", "110507.742000", "110507.745000", "110507.748000", "110527.662000", "110527.666000", "110527.669000", "110527.672000", "110527.676000", "110527.679000", "110527.682000", "110527.686000", "110527.689000", "110527.693000", "110527.696000", "110527.699000", "110527.703000", "110527.706000", "110527.709000", "110527.713000", "110527.716000", "110527.719000", "110527.723000", "110527.726000", "110527.730000", "110547.662000", "110547.666000", "110547.669000", "110547.674000", "110547.677000", "110547.680000", "110547.684000", "110547.687000", "110547.691000", "110547.694000", "110547.697000", "110547.701000", "110547.704000", "110547.707000", "110547.711000", "110627.662000", "110627.666000", "110627.669000", "110627.673000", "110627.676000", "110627.680000", "110627.683000", "110627.686000", "110627.690000", "110627.693000", "110627.696000", "110627.700000", "110627.703000", "110627.706000", "110627.710000", "110627.713000", "110627.716000", "110627.720000", "110627.723000", "110627.726000", "110627.730000", "110627.733000", "110627.736000", "110627.740000", "110627.743000", "110627.746000", "110627.750000", "110707.662000", "110707.666000", "110707.669000", "110707.672000", "110707.676000", "110707.679000", "110707.682000", "110707.686000", "110707.689000", "110707.692000", "110707.696000", "110707.699000", "110707.703000", "110707.706000", "110707.709000", "110707.712000", "110707.716000", "110707.719000", "110707.722000", "110707.726000", "110707.729000", "110707.732000", "110707.735000", "110707.739000", "110707.742000", "110707.745000", "110707.756000", "110733.679000", "110733.683000", "110733.687000", "110733.690000", "110733.694000", "110733.697000", "110733.701000", "110733.704000", "110733.707000", "110733.711000", "110733.714000", "110733.717000", "110733.721000", "110733.724000", "110733.727000", "110733.731000", "110733.734000", "110733.738000"],
      "InstanceNumber": [1, 2, 3, 4, 5, 6, 7, 8, 9, 10, 11, 12, 13, 14, 15, 16, 17, 18, 19, 20, 21, 22, 23, 24, 25, 26, 27, 28, 29, 30, 31, 32, 33, 34, 35, 36, 37, 38, 39, 40, 41, 42, 43, 44, 45, 46, 47, 48, 49, 50, 51, 52, 53, 54, 55, 56, 57, 58, 59, 60, 61, 62, 63, 64, 65, 66, 67, 68, 69, 70, 71, 72, 73, 74, 75, 76, 77, 78, 79, 80, 81, 82, 83, 84, 85, 86, 87, 88, 89, 90, 91, 92, 93, 94, 95, 96, 97, 98, 99, 100, 101, 102, 103, 104, 105, 106, 107, 108, 109, 110, 111, 112, 113, 114, 115, 116, 117, 118, 119, 120, 121, 122, 123, 124, 125, 126, 127, 128, 129, 130, 131, 132, 133, 134, 135, 136, 137, 138, 139, 140, 141, 142, 143, 144, 145, 146, 147, 148, 149, 150, 151, 152, 153, 154, 155, 156, 157, 158, 159, 160, 161, 162, 163, 164, 165, 166, 167, 168, 169, 170, 171, 172, 173, 174, 175, 176, 177, 178, 179, 180, 181, 182, 183, 184, 185, 186, 187, 188, 189, 190],
      "LargestImagePixelValue": [46306, 45850, 44998, 45488, 45094, 44461, 45074, 45097, 44464, 45607, 45381, 44460, 45299, 44068, 44445, 45650, 44115, 44856, 45188, 44299, 46079, 45260, 45425, 45634, 44527, 45874, 44712, 45417, 45632, 45083, 45228, 44132, 46718, 45135, 46600, 46052, 45112, 44872, 44315, 44851, 45046, 44936, 45314, 45179, 44920, 45615, 44748, 45007, 45323, 44312, 45221, 45579, 44494, 45117, 45225, 44447, 45905, 44797, 44891, 46669, 46109, 46775, 45045, 44214, 44447, 44432, 44277, 44455, 44881, 45233, 44541, 45450, 46466, 43986, 44985, 45316, 44841, 44967, 45190, 44660, 45510, 45778, 45294, 44127, 44747, 44746, 45007, 45565, 44962, 44821, 45031, 44701, 44756, 45995, 44600, 44789, 45858, 44897, 45512, 45740, 45164, 44869, 44481, 44356, 46011, 44871, 45446, 46528, 45357, 45913, 44455, 45410, 44913, 44627, 45089, 44845, 46013, 45719, 44278, 45243, 45489, 44836, 44976, 44814, 45497, 44789, 46427, 44585, 45135, 44415, 44960, 46426, 44902, 44421, 45394, 43948, 45197, 45190, 45226, 44557, 44917, 45966, 44212, 45308, 45034, 45651, 45885, 45365, 46196, 44512, 45060, 44164, 45327, 44914, 44505, 44977, 44375, 45311, 45313, 45718, 45029, 44782, 45471, 44754, 45983, 45725, 44849, 46843, 46434, 46438, 45594, 45086, 44028, 45081, 45067, 44813, 45470, 45285, 45788, 45367, 45690, 44536, 46073, 45634, 44806, 46176, 45905, 47004, 45371, 45057],
      "WindowCenter": [11120.0, 11091.0, 11082.0, 11120.0, 11047.0, 11041.0, 11042.0, 11047.0, 11047.0, 11063.0, 11064.0, 11062.0, 11108.0, 11067.0, 11081.0, 11137.0, 11080.0, 11100.0, 11096.0, 11077.0, 11116.0, 11093.0, 11088.0, 11101.0, 11080.0, 11096.0, 11088.0, 11092.0, 11089.0, 11074.0, 11096.0, 11091.0, 11114.0, 11103.0, 11072.0, 11063.0, 11095.0, 11056.0, 11078.0, 11095.0, 11088.0, 11078.0, 11073.0, 11066.0, 11061.0, 11051.0, 11037.0, 11047.0, 11081.0, 11038.0, 11055.0, 11073.0, 11029.0, 11012.0, 11025.0, 11035.0, 11086.0, 11056.0, 11064.0, 11109.0, 11104.0, 11068.0, 11039.0, 11057.0, 11061.0, 11043.0, 11026.0, 10991.0, 11010.0, 11024.0, 11025.0, 11044.0, 11069.0, 11012.0, 11040.0, 11058.0, 11046.0, 11036.0, 11042.0, 11063.0, 11091.0, 11058.0, 11039.0, 11049.0, 11114.0, 11083.0, 11067.0, 11067.0, 11053.0, 11058.0, 11044.0, 11054.0, 11072.0, 11136.0, 11050.0, 11075.0, 11060.0, 11047.0, 11061.0, 11068.0, 11055.0, 11057.0, 11066.0, 11069.0, 11105.0, 11068.0, 11062.0, 11071.0, 11062.0, 11063.0, 11060.0, 11088.0, 11075.0, 11074.0, 11089.0, 11052.0, 11047.0, 11048.0, 11042.0, 11071.0, 11048.0, 11025.0, 11039.0, 11105.0, 11059.0, 11072.0, 11129.0, 11063.0, 11087.0, 11096.0, 11112.0, 11092.0, 11050.0, 11015.0, 11038.0, 11062.0, 11090.0, 11092.0, 11065.0, 11041.0, 11038.0, 11095.0, 11012.0, 11041.0, 11035.0, 11045.0, 11055.0, 11076.0, 11023.0, 11018.0, 11040.0, 11052.0, 11069.0, 11062.0, 11011.0, 11038.0, 11065.0, 11095.0, 11101.0, 11044.0, 11023.0, 11062.0, 11106.0, 11088.0, 11078.0, 11081.0, 11055.0, 11124.0, 11089.0, 11061.0, 11040.0, 11043.0, 11033.0, 11047.0, 11021.0, 11010.0, 11033.0, 11033.0, 11044.0, 11052.0, 11066.0, 11047.0, 11069.0, 11062.0, 11055.0, 11081.0, 11080.0, 11077.0, 11050.0, 11051.0],
      "WindowWidth": [23986.0, 23878.0, 23840.0, 23916.0, 23741.0, 23725.0, 23722.0, 23730.0, 23734.0, 23766.0, 23770.0, 23765.0, 23870.0, 23783.0, 23809.0, 23940.0, 23809.0, 23856.0, 23848.0, 23806.0, 23888.0, 23841.0, 23826.0, 23856.0, 23812.0, 23843.0, 23829.0, 23837.0, 23830.0, 23797.0, 23849.0, 23837.0, 23882.0, 23867.0, 23786.0, 23764.0, 23848.0, 23755.0, 23808.0, 23844.0, 23830.0, 23805.0, 23790.0, 23775.0, 23767.0, 23738.0, 23710.0, 23731.0, 23811.0, 23714.0, 23747.0, 23791.0, 23688.0, 23649.0, 23679.0, 23701.0, 23817.0, 23754.0, 23771.0, 23867.0, 23863.0, 23778.0, 23714.0, 23759.0, 23766.0, 23723.0, 23684.0, 23605.0, 23642.0, 23681.0, 23680.0, 23724.0, 23783.0, 23657.0, 23713.0, 23757.0, 23731.0, 23708.0, 23718.0, 23769.0, 23835.0, 23756.0, 23711.0, 23740.0, 23893.0, 23816.0, 23779.0, 23774.0, 23746.0, 23758.0, 23726.0, 23751.0, 23788.0, 23941.0, 23741.0, 23795.0, 23761.0, 23732.0, 23763.0, 23777.0, 23751.0, 23756.0, 23776.0, 23784.0, 23864.0, 23785.0, 23766.0, 23783.0, 23765.0, 23766.0, 23765.0, 23825.0, 23798.0, 23795.0, 23827.0, 23745.0, 23722.0, 23729.0, 23720.0, 23787.0, 23733.0, 23678.0, 23708.0, 23869.0, 23757.0, 23787.0, 23918.0, 23766.0, 23821.0, 23847.0, 23883.0, 23830.0, 23742.0, 23659.0, 23705.0, 23768.0, 23830.0, 23834.0, 23770.0, 23720.0, 23708.0, 23838.0, 23649.0, 23713.0, 23699.0, 23718.0, 23742.0, 23799.0, 23669.0, 23662.0, 23714.0, 23747.0, 23781.0, 23770.0, 23651.0, 23706.0, 23774.0, 23840.0, 23860.0, 23723.0, 23673.0, 23764.0, 23869.0, 23830.0, 23799.0, 23810.0, 23751.0, 23902.0, 23821.0, 23758.0, 23714.0, 23720.0, 23702.0, 23728.0, 23668.0, 23641.0, 23692.0, 23692.0, 23716.0, 23736.0, 23768.0, 23731.0, 23773.0, 23761.0, 23747.0, 23801.0, 23804.0, 23794.0, 23736.0, 23740.0]
    },
    "slices": {}
  }
}