{
  "AcquisitionMatrixPE": 104,
  "AcquisitionNumber": 1,
  "AcquisitionTime": "10:50:41.857500",
  "BandwidthPerPixelPhaseEncode": 17.17,
  "BaseResolution": 104,
  "BodyPartExamined": "BRAIN",
  "CoilString": "HC1-7;NC1_2",
  "ConsistencyInfo": "N4_VE11C_LATEST_20160120",
  "ConversionSoftware": "dcm2niix",
  "ConversionSoftwareVersion": "v1.0.20190902",
  "DerivedVendorReportedEchoSpacing": 0.000560011,
  "DeviceSerialNumber": "167006",
  "DwellTime": 2.1e-06,
  "EchoTime": 0.037,
  "EchoTrainLength": 104,
  "EffectiveEchoSpacing": 0.000560011,
  "FlipAngle": 52,
  "ImageComments": "Unaliased_MB4_PE3_LB",
  "ImageOrientationPatientDICOM": [0.999615, 0.0156946, 0.0228675, -0.00209358, 0.864839, -0.502045],
  "ImageType": [
    "ORIGINAL",
    "PRIMARY",
    "P",
    "MB",
    "ND",
    "MOSAIC"
],
  "ImagingFrequency": 123.259,
  "InPlanePhaseEncodingDirectionDICOM": "COL",
  "InstitutionAddress": "Chemin_Queen-Mary_4565_Montreal_District_CA_H3W_1W5",
  "InstitutionName": "IUGM",
  "InstitutionalDepartmentName": "Department",
  "MRAcquisitionType": "2D",
  "MagneticFieldStrength": 3,
  "Manufacturer": "Siemens",
  "ManufacturersModelName": "Prisma_fit",
  "Modality": "MR",
  "MultibandAccelerationFactor": 4,
  "PartialFourier": 1,
  "PatientPosition": "HFS",
  "PercentPhaseFOV": 100,
  "PhaseEncodingDirection": "j",
  "PhaseEncodingSteps": 104,
  "PhaseResolution": 1,
  "PixelBandwidth": 2290,
  "ProcedureStepDescription": "memory_things",
  "ProtocolName": "func_task-things_run-2",
  "PulseSequenceDetails": "%CustomerSeq%_cmrr_mbep2d_bold",
  "ReceiveCoilActiveElements": "HC1-7;NC1,2",
  "ReceiveCoilName": "HeadNeck_64",
  "ReconMatrixPE": 104,
  "RepetitionTime": 1.49,
  "SAR": 0.0605283,
  "ScanOptions": "FS",
  "ScanningSequence": "EP",
  "SequenceName": "epfid2d1_104",
  "SequenceVariant": "SK_SS",
  "SeriesDescription": "func_task-things_run-2",
  "SeriesNumber": 14,
  "ShimSetting": [622, -7189, -8869, 282, 24, -134, -8, 11],
  "SliceThickness": 2,
  "SliceTiming": [0, 0.7825, 0.0975, 0.88, 0.195, 0.98, 0.2925, 1.0775, 0.3925, 1.175, 0.49, 1.2725, 0.5875, 1.37, 0.685, 0, 0.7825, 0.0975, 0.88, 0.195, 0.98, 0.2925, 1.0775, 0.3925, 1.175, 0.49, 1.2725, 0.5875, 1.37, 0.685, 0, 0.7825, 0.0975, 0.88, 0.195, 0.98, 0.2925, 1.0775, 0.3925, 1.175, 0.49, 1.2725, 0.5875, 1.37, 0.685, 0, 0.7825, 0.0975, 0.88, 0.195, 0.98, 0.2925, 1.0775, 0.3925, 1.175, 0.49, 1.2725, 0.5875, 1.37, 0.685],
  "SoftwareVersions": "syngo_MR_E11",
  "SpacingBetweenSlices": 2,
  "StationName": "MRC35049",
  "TaskName": "things",
  "TotalReadoutTime": 0.0576811,
  "TxRefAmp": 289.742,
  "WipMemBlock": "76f4ecc0-ba55-4339-b6e7-151a7bb4f82f||Sequence: R016 ve11c/master r/e634e98; Dec 19 2017 11:00:25 by eja",
  "dcmmeta_affine": [
    [-1.9992306232452393, -0.004187168087810278, 0.055312175303697586, 105.70159912109375],
    [-0.03138919547200203, 1.729677438735962, -1.0036089420318604, -50.443206787109375],
    [0.04573496803641319, 1.0040909051895142, 1.729077696800232, -98.86005401611328],
    [0.0, 0.0, 0.0, 1.0]
],
  "dcmmeta_reorient_transform": [
    [0.0, -1.0, 0.0, 103.0],
    [1.0, 0.0, 0.0, 0.0],
    [0.0, 0.0, 1.0, 0.0],
    [0.0, 0.0, 0.0, 1.0]
],
  "dcmmeta_shape": [104, 104, 60, 190],
  "dcmmeta_slice_dim": 2,
  "dcmmeta_version": 0.6,
  "global": {
    "const": {
      "AcquisitionMatrix": [104, 0, 0, 104],
      "AngioFlag": "N",
      "BitsAllocated": 16,
      "BitsStored": 16,
      "BodyPartExamined": "BRAIN",
      "Columns": 832,
      "EchoNumbers": 1,
      "EchoTime": 37.0,
      "EchoTrainLength": 104,
      "FlipAngle": 52.0,
      "HighBit": 15,
      "ImageOrientationPatient": [0.99961530486712, 0.01569459804083, 0.02286748494586, -0.0020935839873, 0.86483869521292, -0.5020454642445],
      "ImagePositionPatient": [-831.46613399637, -768.74180347222, 353.40288160242],
      "ImageType": [
        "ORIGINAL",
        "PRIMARY",
        "P",
        "MB",
        "ND",
        "MOSAIC"
],
      "ImagedNucleus": "1H",
      "ImagingFrequency": 123.259086,
      "InPlanePhaseEncodingDirection": "COL",
      "LargestImagePixelValue": 4095,
      "MRAcquisitionType": "2D",
      "MagneticFieldStrength": 3.0,
      "Manufacturer": "SIEMENS",
      "ManufacturerModelName": "Prisma_fit",
      "Modality": "MR",
      "NumberOfAverages": 1.0,
      "NumberOfPhaseEncodingSteps": 104,
      "PercentPhaseFieldOfView": 100.0,
      "PercentSampling": 100.0,
      "PerformedProcedureStepStartTime": "102254.312000",
      "PhotometricInterpretation": "MONOCHROME2",
      "PixelBandwidth": 2290.0,
      "PixelRepresentation": 0,
      "PixelSpacing": [2.0, 2.0],
      "ProtocolName": "func_task-things_run-2",
      "RepetitionTime": 1490.0,
      "RescaleIntercept": -4096.0,
      "RescaleSlope": 2.0,
      "RescaleType": "US",
      "Rows": 832,
      "SAR": 0.06052827140436,
      "SamplesPerPixel": 1,
      "ScanOptions": "FS",
      "ScanningSequence": "EP",
      "SequenceName": "epfid2d1_104",
      "SequenceVariant": [
        "SK",
        "SS"
],
      "SeriesDescription": "func_task-things_run-2",
      "SeriesNumber": 14,
      "SeriesTime": "105200.588000",
      "SliceLocation": -57.232439092883,
      "SliceThickness": 2.0,
      "SmallestImagePixelValue": 0,
      "SoftwareVersions": "syngo MR E11",
      "SpacingBetweenSlices": 1.9999999688932,
      "SpecificCharacterSet": "ISO_IR 100",
      "StudyID": "1",
      "StudyTime": "102254.244000",
      "TransmitCoilName": "Body",
      "VariableFlipAngleFlag": "N",
      "WindowCenterWidthExplanation": "Algo1",
      "dBdt": 0.0},
    "slices": {}
  },
  "time": {
    "samples": {
      "AcquisitionNumber": [1, 2, 3, 4, 5, 6, 7, 8, 9, 10, 11, 12, 13, 14, 15, 16, 17, 18, 19, 20, 21, 22, 23, 24, 25, 26, 27, 28, 29, 30, 31, 32, 33, 34, 35, 36, 37, 38, 39, 40, 41, 42, 43, 44, 45, 46, 47, 48, 49, 50, 51, 52, 53, 54, 55, 56, 57, 58, 59, 60, 61, 62, 63, 64, 65, 66, 67, 68, 69, 70, 71, 72, 73, 74, 75, 76, 77, 78, 79, 80, 81, 82, 83, 84, 85, 86, 87, 88, 89, 90, 91, 92, 93, 94, 95, 96, 97, 98, 99, 100, 101, 102, 103, 104, 105, 106, 107, 108, 109, 110, 111, 112, 113, 114, 115, 116, 117, 118, 119, 120, 121, 122, 123, 124, 125, 126, 127, 128, 129, 130, 131, 132, 133, 134, 135, 136, 137, 138, 139, 140, 141, 142, 143, 144, 145, 146, 147, 148, 149, 150, 151, 152, 153, 154, 155, 156, 157, 158, 159, 160, 161, 162, 163, 164, 165, 166, 167, 168, 169, 170, 171, 172, 173, 174, 175, 176, 177, 178, 179, 180, 181, 182, 183, 184, 185, 186, 187, 188, 189, 190],
      "AcquisitionTime": ["105041.857500", "105043.347500", "105044.837500", "105046.327500", "105047.817500", "105049.307500", "105050.797500", "105052.287500", "105053.777500", "105055.267500", "105056.757500", "105058.247500", "105059.737500", "105101.227500", "105102.717500", "105104.207500", "105105.697500", "105107.187500", "105108.677500", "105110.167500", "105111.657500", "105113.147500", "105114.637500", "105116.127500", "105117.617500", "105119.107500", "105120.597500", "105122.087500", "105123.577500", "105125.067500", "105126.557500", "105128.047500", "105129.537500", "105131.027500", "105132.517500", "105134.007500", "105135.497500", "105136.987500", "105138.477500", "105139.967500", "105141.457500", "105142.947500", "105144.437500", "105145.927500", "105147.417500", "105148.907500", "105150.397500", "105151.887500", "105153.377500", "105154.867500", "105156.357500", "105157.847500", "105159.337500", "105200.827500", "105202.317500", "105203.807500", "105205.297500", "105206.787500", "105208.277500", "105209.767500", "105211.257500", "105212.747500", "105214.237500", "105215.727500", "105217.217500", "105218.707500", "105220.197500", "105221.687500", "105223.177500", "105224.667500", "105226.157500", "105227.647500", "105229.137500", "105230.627500", "105232.117500", "105233.607500", "105235.097500", "105236.587500", "105238.077500", "105239.567500", "105241.057500", "105242.547500", "105244.037500", "105245.527500", "105247.017500", "105248.507500", "105249.997500", "105251.487500", "105252.977500", "105254.467500", "105255.957500", "105257.447500", "105258.937500", "105300.427500", "105301.917500", "105303.407500", "105304.897500", "105306.387500", "105307.877500", "105309.367500", "105310.857500", "105312.347500", "105313.837500", "105315.327500", "105316.817500", "105318.307500", "105319.797500", "105321.287500", "105322.777500", "105324.267500", "105325.757500", "105327.247500", "105328.737500", "105330.227500", "105331.717500", "105333.207500", "105334.697500", "105336.187500", "105337.677500", "105339.167500", "105340.657500", "105342.147500", "105343.637500", "105345.127500", "105346.617500", "105348.107500", "105349.597500", "105351.087500", "105352.577500", "105354.067500", "105355.557500", "105357.047500", "105358.537500", "105400.027500", "105401.517500", "105403.007500", "105404.497500", "105405.987500", "105407.477500", "105408.967500", "105410.457500", "105411.947500", "105413.437500", "105414.927500", "105416.417500", "105417.907500", "105419.397500", "105420.887500", "105422.377500", "105423.867500", "105425.357500", "105426.847500", "105428.337500", "105429.827500", "105431.317500", "105432.807500", "105434.297500", "105435.787500", "105437.277500", "105438.767500", "105440.257500", "105441.747500", "105443.237500", "105444.727500", "105446.217500", "105447.707500", "105449.197500", "105450.687500", "105452.177500", "105453.667500", "105455.157500", "105456.647500", "105458.137500", "105459.627500", "105501.117500", "105502.607500", "105504.097500", "105505.587500", "105507.077500", "105508.567500", "105510.057500", "105511.547500", "105513.037500", "105514.527500", "105516.017500", "105517.507500", "105518.997500", "105520.487500", "105521.977500", "105523.467500"],
      "ContentTime": ["105200.590000", "105200.592000", "105200.595000", "105200.598000", "105200.600000", "105200.602000", "105200.605000", "105200.608000", "105200.610000", "105200.613000", "105200.615000", "105200.618000", "105200.627000", "105200.630000", "105200.632000", "105200.635000", "105200.637000", "105200.640000", "105200.643000", "105200.645000", "105200.647000", "105200.650000", "105200.653000", "105200.655000", "105220.558000", "105220.561000", "105220.564000", "105220.566000", "105220.569000", "105220.571000", "105220.574000", "105220.576000", "105220.579000", "105220.581000", "105220.584000", "105220.586000", "105220.589000", "105220.591000", "105220.594000", "105220.596000", "105220.599000", "105220.601000", "105220.604000", "105220.606000", "105240.540000", "105240.543000", "105240.545000", "105240.548000", "105240.550000", "105240.553000", "105240.556000", "105240.558000", "105240.561000", "105240.563000", "105240.566000", "105240.568000", "105240.571000", "105240.573000", "105240.576000", "105240.578000", "105240.581000", "105240.583000", "105240.586000", "105240.588000", "105300.551000", "105300.553000", "105300.556000", "105300.558000", "105300.573000", "105300.575000", "105300.578000", "105300.580000", "105300.583000", "105300.585000", "105300.588000", "105300.590000", "105300.593000", "105300.595000", "105300.598000", "105300.601000", "105300.603000", "105300.606000", "105300.609000", "105300.611000", "105300.614000", "105320.538000", "105320.541000", "105320.544000", "105320.546000", "105320.549000", "105320.551000", "105320.554000", "105320.557000", "105320.559000", "105320.562000", "105320.564000", "105320.567000", "105320.569000", "105320.572000", "105320.574000", "105320.577000", "105320.579000", "105320.582000", "105320.584000", "105320.587000", "105400.570000", "105400.573000", "105400.575000", "105400.578000", "105400.580000", "105400.583000", "105400.585000", "105400.588000", "105400.590000", "105400.593000", "105400.595000", "105400.598000", "105400.600000", "105400.603000", "105400.614000", "105400.617000", "105400.619000", "105400.622000", "105400.624000", "105400.627000", "105400.629000", "105400.632000", "105400.634000", "105400.637000", "105400.640000", "105400.643000", "105400.646000", "105440.577000", "105440.580000", "105440.583000", "105440.585000", "105440.588000", "105440.590000", "105440.593000", "105440.596000", "105440.598000", "105440.601000", "105440.603000", "105440.606000", "105440.608000", "105440.611000", "105440.613000", "105440.616000", "105440.618000", "105440.621000", "105440.623000", "105440.626000", "105440.628000", "105440.631000", "105440.633000", "105440.636000", "105440.638000", "105440.641000", "105440.643000", "105520.596000", "105520.599000", "105520.602000", "105520.604000", "105520.607000", "105520.609000", "105520.612000", "105520.614000", "105520.617000", "105520.620000", "105520.622000", "105520.625000", "105520.627000", "105520.630000", "105520.632000", "105520.635000", "105520.638000", "105520.640000", "105520.643000", "105520.645000", "105520.648000", "105520.650000", "105520.653000", "105520.655000", "105520.658000", "105520.661000", "105520.663000", "105525.826000", "105525.829000", "105525.832000", "105525.834000"],
      "InstanceCreationTime": ["105200.590000", "105200.592000", "105200.595000", "105200.598000", "105200.600000", "105200.602000", "105200.605000", "105200.608000", "105200.610000", "105200.613000", "105200.615000", "105200.618000", "105200.627000", "105200.630000", "105200.632000", "105200.635000", "105200.637000", "105200.640000", "105200.643000", "105200.645000", "105200.647000", "105200.650000", "105200.653000", "105200.655000", "105220.558000", "105220.561000", "105220.564000", "105220.566000", "105220.569000", "105220.571000", "105220.574000", "105220.576000", "105220.579000", "105220.581000", "105220.584000", "105220.586000", "105220.589000", "105220.591000", "105220.594000", "105220.596000", "105220.599000", "105220.601000", "105220.604000", "105220.606000", "105240.540000", "105240.543000", "105240.545000", "105240.548000", "105240.550000", "105240.553000", "105240.556000", "105240.558000", "105240.561000", "105240.563000", "105240.566000", "105240.568000", "105240.571000", "105240.573000", "105240.576000", "105240.578000", "105240.581000", "105240.583000", "105240.586000", "105240.588000", "105300.551000", "105300.553000", "105300.556000", "105300.558000", "105300.573000", "105300.575000", "105300.578000", "105300.580000", "105300.583000", "105300.585000", "105300.588000", "105300.590000", "105300.593000", "105300.595000", "105300.598000", "105300.601000", "105300.603000", "105300.606000", "105300.609000", "105300.611000", "105300.614000", "105320.538000", "105320.541000", "105320.544000", "105320.546000", "105320.549000", "105320.551000", "105320.554000", "105320.557000", "105320.559000", "105320.562000", "105320.564000", "105320.567000", "105320.569000", "105320.572000", "105320.574000", "105320.577000", "105320.579000", "105320.582000", "105320.584000", "105320.587000", "105400.570000", "105400.573000", "105400.575000", "105400.578000", "105400.580000", "105400.583000", "105400.585000", "105400.588000", "105400.590000", "105400.593000", "105400.595000", "105400.598000", "105400.600000", "105400.603000", "105400.614000", "105400.617000", "105400.619000", "105400.622000", "105400.624000", "105400.627000", "105400.629000", "105400.632000", "105400.634000", "105400.637000", "105400.640000", "105400.643000", "105400.646000", "105440.577000", "105440.580000", "105440.583000", "105440.585000", "105440.588000", "105440.590000", "105440.593000", "105440.596000", "105440.598000", "105440.601000", "105440.603000", "105440.606000", "105440.608000", "105440.611000", "105440.613000", "105440.616000", "105440.618000", "105440.621000", "105440.623000", "105440.626000", "105440.628000", "105440.631000", "105440.633000", "105440.636000", "105440.638000", "105440.641000", "105440.643000", "105520.596000", "105520.599000", "105520.602000", "105520.604000", "105520.607000", "105520.609000", "105520.612000", "105520.614000", "105520.617000", "105520.620000", "105520.622000", "105520.625000", "105520.627000", "105520.630000", "105520.632000", "105520.635000", "105520.638000", "105520.640000", "105520.643000", "105520.645000", "105520.648000", "105520.650000", "105520.653000", "105520.655000", "105520.658000", "105520.661000", "105520.663000", "105525.826000", "105525.829000", "105525.832000", "105525.834000"],
      "InstanceNumber": [1, 2, 3, 4, 5, 6, 7, 8, 9, 10, 11, 12, 13, 14, 15, 16, 17, 18, 19, 20, 21, 22, 23, 24, 25, 26, 27, 28, 29, 30, 31, 32, 33, 34, 35, 36, 37, 38, 39, 40, 41, 42, 43, 44, 45, 46, 47, 48, 49, 50, 51, 52, 53, 54, 55, 56, 57, 58, 59, 60, 61, 62, 63, 64, 65, 66, 67, 68, 69, 70, 71, 72, 73, 74, 75, 76, 77, 78, 79, 80, 81, 82, 83, 84, 85, 86, 87, 88, 89, 90, 91, 92, 93, 94, 95, 96, 97, 98, 99, 100, 101, 102, 103, 104, 105, 106, 107, 108, 109, 110, 111, 112, 113, 114, 115, 116, 117, 118, 119, 120, 121, 122, 123, 124, 125, 126, 127, 128, 129, 130, 131, 132, 133, 134, 135, 136, 137, 138, 139, 140, 141, 142, 143, 144, 145, 146, 147, 148, 149, 150, 151, 152, 153, 154, 155, 156, 157, 158, 159, 160, 161, 162, 163, 164, 165, 166, 167, 168, 169, 170, 171, 172, 173, 174, 175, 176, 177, 178, 179, 180, 181, 182, 183, 184, 185, 186, 187, 188, 189, 190],
      "WindowCenter": [4878.0, 4900.0, 4880.0, 4882.0, 4882.0, 4878.0, 4878.0, 4880.0, 4880.0, 4878.0, 4874.0, 4880.0, 4880.0, 4880.0, 4878.0, 4882.0, 4878.0, 4882.0, 4876.0, 4896.0, 4898.0, 4858.0, 4852.0, 4852.0, 4854.0, 4854.0, 4900.0, 4878.0, 4894.0, 4898.0, 4878.0, 4856.0, 4880.0, 4852.0, 4880.0, 4858.0, 4878.0, 4878.0, 4880.0, 4880.0, 4878.0, 4878.0, 4878.0, 4880.0, 4882.0, 4880.0, 4900.0, 4904.0, 4880.0, 4884.0, 4852.0, 4880.0, 4880.0, 4882.0, 4882.0, 4900.0, 4882.0, 4880.0, 4880.0, 4876.0, 4878.0, 4880.0, 4878.0, 4878.0, 4878.0, 4882.0, 4880.0, 4878.0, 4882.0, 4882.0, 4900.0, 4878.0, 4880.0, 4884.0, 4882.0, 4880.0, 4856.0, 4882.0, 4878.0, 4880.0, 4882.0, 4882.0, 4880.0, 4878.0, 4880.0, 4878.0, 4880.0, 4880.0, 4880.0, 4874.0, 4880.0, 4876.0, 4878.0, 4884.0, 4902.0, 4880.0, 4880.0, 4882.0, 4856.0, 4854.0, 4904.0, 4880.0, 4876.0, 4880.0, 4880.0, 4882.0, 4878.0, 4882.0, 4878.0, 4882.0, 4880.0, 4880.0, 4856.0, 4882.0, 4878.0, 4902.0, 4880.0, 4882.0, 4878.0, 4880.0, 4858.0, 4856.0, 4882.0, 4880.0, 4894.0, 4896.0, 4882.0, 4856.0, 4852.0, 4880.0, 4902.0, 4882.0, 4880.0, 4878.0, 4878.0, 4880.0, 4880.0, 4878.0, 4878.0, 4904.0, 4878.0, 4880.0, 4904.0, 4880.0, 4878.0, 4880.0, 4852.0, 4880.0, 4856.0, 4880.0, 4878.0, 4874.0, 4882.0, 4878.0, 4900.0, 4882.0, 4882.0, 4878.0, 4856.0, 4856.0, 4856.0, 4880.0, 4880.0, 4900.0, 4880.0, 4900.0, 4902.0, 4878.0, 4880.0, 4880.0, 4854.0, 4854.0, 4856.0, 4884.0, 4882.0, 4898.0, 4902.0, 4882.0, 4882.0, 4856.0, 4856.0, 4856.0, 4882.0, 4878.0, 4908.0, 4880.0, 4902.0, 4900.0, 4884.0, 4856.0],
      "WindowWidth": [18662.0, 18714.0, 18664.0, 18664.0, 18658.0, 18654.0, 18656.0, 18666.0, 18668.0, 18660.0, 18672.0, 18660.0, 18664.0, 18656.0, 18662.0, 18658.0, 18668.0, 18666.0, 18654.0, 18730.0, 18710.0, 18614.0, 18596.0, 18598.0, 18612.0, 18620.0, 18708.0, 18676.0, 18734.0, 18714.0, 18670.0, 18618.0, 18650.0, 18608.0, 18654.0, 18620.0, 18654.0, 18664.0, 18666.0, 18672.0, 18664.0, 18658.0, 18668.0, 18664.0, 18674.0, 18664.0, 18714.0, 18708.0, 18654.0, 18658.0, 18612.0, 18644.0, 18648.0, 18660.0, 18664.0, 18708.0, 18668.0, 18670.0, 18664.0, 18666.0, 18656.0, 18660.0, 18660.0, 18654.0, 18660.0, 18660.0, 18662.0, 18658.0, 18672.0, 18660.0, 18702.0, 18660.0, 18666.0, 18666.0, 18648.0, 18654.0, 18614.0, 18666.0, 18650.0, 18670.0, 18658.0, 18672.0, 18658.0, 18670.0, 18654.0, 18666.0, 18654.0, 18660.0, 18658.0, 18652.0, 18660.0, 18656.0, 18670.0, 18676.0, 18704.0, 18656.0, 18670.0, 18660.0, 18616.0, 18612.0, 18702.0, 18660.0, 18656.0, 18664.0, 18658.0, 18656.0, 18658.0, 18670.0, 18656.0, 18672.0, 18656.0, 18658.0, 18626.0, 18664.0, 18652.0, 18702.0, 18666.0, 18668.0, 18672.0, 18648.0, 18614.0, 18612.0, 18658.0, 18658.0, 18730.0, 18726.0, 18670.0, 18606.0, 18596.0, 18646.0, 18702.0, 18662.0, 18652.0, 18664.0, 18652.0, 18664.0, 18662.0, 18670.0, 18658.0, 18704.0, 18672.0, 18656.0, 18700.0, 18660.0, 18652.0, 18652.0, 18608.0, 18656.0, 18624.0, 18666.0, 18662.0, 18672.0, 18664.0, 18672.0, 18708.0, 18650.0, 18662.0, 18648.0, 18612.0, 18608.0, 18620.0, 18664.0, 18662.0, 18708.0, 18664.0, 18708.0, 18710.0, 18646.0, 18660.0, 18650.0, 18600.0, 18604.0, 18608.0, 18668.0, 18662.0, 18710.0, 18704.0, 18674.0, 18668.0, 18612.0, 18614.0, 18610.0, 18652.0, 18656.0, 18704.0, 18664.0, 18712.0, 18716.0, 18664.0, 18618.0]
    },
    "slices": {}
  }
}