{
  "AcquisitionMatrixPE": 104,
  "AcquisitionNumber": 1,
  "AcquisitionTime": "17:58:33.665000",
  "BandwidthPerPixelPhaseEncode": 17.17,
  "BaseResolution": 104,
  "BodyPartExamined": "BRAIN",
  "CoilCombinationMethod": "Sum of Squares",
  "ConsistencyInfo": "N4_VE11C_LATEST_20160120",
  "ConversionSoftware": "dcm2niix",
  "ConversionSoftwareVersion": "v1.0.20211006",
  "DerivedVendorReportedEchoSpacing": 0.000560011,
  "DeviceSerialNumber": "167006",
  "DwellTime": 2.1e-06,
  "EchoTime": 0.037,
  "EchoTrainLength": 104,
  "EffectiveEchoSpacing": 0.000560011,
  "FlipAngle": 52,
  "HeudiconvVersion": "0.10.0",
  "ImageComments": "Unaliased MB4/PE3/LB",
  "ImageOrientationPatientDICOM": [0.996729, 0.0681795, 0.0434, -0.0466558, 0.923868, -0.379856],
  "ImageOrientationText": "Tra>Cor(-22.2)>Sag(3.8)",
  "ImageType": [
    "ORIGINAL",
    "PRIMARY",
    "M",
    "MB",
    "ND",
    "MOSAIC"
],
  "ImagingFrequency": 123.259,
  "InPlanePhaseEncodingDirectionDICOM": "COL",
  "InstitutionAddress": "Chemin Queen-Mary 4565,Montreal,District,CA,H3W 1W5",
  "InstitutionName": "IUGM",
  "InstitutionalDepartmentName": "Department",
  "MRAcquisitionType": "2D",
  "MagneticFieldStrength": 3,
  "Manufacturer": "Siemens",
  "ManufacturersModelName": "Prisma_fit",
  "MatrixCoilMode": "SENSE",
  "Modality": "MR",
  "MultibandAccelerationFactor": 4,
  "PartialFourier": 1,
  "PatientPosition": "HFS",
  "PercentPhaseFOV": 100,
  "PercentSampling": 100,
  "PhaseEncodingDirection": "j",
  "PhaseEncodingSteps": 104,
  "PhaseResolution": 1,
  "PixelBandwidth": 2290,
  "ProcedureStepDescription": "memory^things",
  "ProtocolName": "func_task-things_run-4",
  "PulseSequenceDetails": "%CustomerSeq%\\cmrr_mbep2d_bold",
  "ReceiveCoilActiveElements": "HC1-7;NC1,2",
  "ReceiveCoilName": "HeadNeck_64",
  "ReconMatrixPE": 104,
  "RepetitionTime": 1.49,
  "SAR": 0.0337727,
  "ScanOptions": "FS",
  "ScanningSequence": "EP",
  "SequenceName": "epfid2d1_104",
  "SequenceVariant": "SK\\SS",
  "SeriesDescription": "func_task-things_run-4",
  "SeriesNumber": 19,
  "ShimSetting": [636, -7194, -8840, 645, 97, 5, -41, 24],
  "SliceThickness": 2,
  "SliceTiming": [0, 0.785, 0.1, 0.8825, 0.1975, 0.98, 0.295, 1.08, 0.3925, 1.1775, 0.49, 1.275, 0.59, 1.3725, 0.6875, 0, 0.785, 0.1, 0.8825, 0.1975, 0.98, 0.295, 1.08, 0.3925, 1.1775, 0.49, 1.275, 0.59, 1.3725, 0.6875, 0, 0.785, 0.1, 0.8825, 0.1975, 0.98, 0.295, 1.08, 0.3925, 1.1775, 0.49, 1.275, 0.59, 1.3725, 0.6875, 0, 0.785, 0.1, 0.8825, 0.1975, 0.98, 0.295, 1.08, 0.3925, 1.1775, 0.49, 1.275, 0.59, 1.3725, 0.6875],
  "SoftwareVersions": "syngo MR E11",
  "SpacingBetweenSlices": 2,
  "StationName": "MRC35049",
  "TaskName": "things",
  "TotalReadoutTime": 0.0576811,
  "TxRefAmp": 236.792,
  "WipMemBlock": "f2443b0d-511a-41a0-87bb-0cf6cb8331c8||Sequence: R016 ve11c/master r/e634e98; Dec 19 2017 11:00:25 by eja",
  "dcmmeta_affine": [
    [-1.993457317352295, -0.0933116152882576, 0.1319885104894638, 107.90227508544922],
    [-0.1363590806722641, 1.8477364778518677, -0.7531772255897522, -50.459110260009766],
    [0.08679990470409393, 0.7597122192382812, 1.8480538129806519, -70.88758850097656],
    [0.0, 0.0, 0.0, 1.0]
],
  "dcmmeta_reorient_transform": [
    [0.0, -1.0, 0.0, 103.0],
    [1.0, 0.0, 0.0, 0.0],
    [0.0, 0.0, 1.0, 0.0],
    [0.0, 0.0, 0.0, 1.0]
],
  "dcmmeta_shape": [104, 104, 60, 190],
  "dcmmeta_slice_dim": 2,
  "dcmmeta_version": 0.6,
  "global": {
    "const": {
      "AcquisitionMatrix": [104, 0, 0, 104],
      "AngioFlag": "N",
      "BitsAllocated": 16,
      "BitsStored": 16,
      "BodyPartExamined": "BRAIN",
      "Columns": 832,
      "EchoNumbers": 1,
      "EchoTime": 37.0,
      "EchoTrainLength": 104,
      "FlipAngle": 52.0,
      "HighBit": 15,
      "ImageOrientationPatient": [0.9967286461397, 0.068179543211, 0.04339995221274, -0.0466558065371, 0.92386826287272, -0.3798561156187],
      "ImagePositionPatient": [-789.94420543083, -862.06855478251, 252.30286012232],
      "ImageType": [
        "ORIGINAL",
        "PRIMARY",
        "M",
        "MB",
        "ND",
        "MOSAIC"
],
      "ImagedNucleus": "1H",
      "ImagingFrequency": 123.258974,
      "InPlanePhaseEncodingDirection": "COL",
      "MRAcquisitionType": "2D",
      "MagneticFieldStrength": 3.0,
      "Manufacturer": "SIEMENS",
      "ManufacturerModelName": "Prisma_fit",
      "Modality": "MR",
      "NumberOfAverages": 1.0,
      "NumberOfPhaseEncodingSteps": 104,
      "PercentPhaseFieldOfView": 100.0,
      "PercentSampling": 100.0,
      "PerformedProcedureStepStartTime": "165231.524000",
      "PhotometricInterpretation": "MONOCHROME2",
      "PixelBandwidth": 2290.0,
      "PixelRepresentation": 0,
      "PixelSpacing": [2.0, 2.0],
      "ProtocolName": "func_task-things_run-4",
      "RepetitionTime": 1490.0,
      "Rows": 832,
      "SAR": 0.0337726543884,
      "SamplesPerPixel": 1,
      "ScanOptions": "FS",
      "ScanningSequence": "EP",
      "SequenceName": "epfid2d1_104",
      "SequenceVariant": [
        "SK",
        "SS"
],
      "SeriesDescription": "func_task-things_run-4",
      "SeriesNumber": 19,
      "SeriesTime": "180002.595000",
      "SliceLocation": -39.378782912035,
      "SliceThickness": 2.0,
      "SmallestImagePixelValue": 0,
      "SoftwareVersions": "syngo MR E11",
      "SpacingBetweenSlices": 1.9999999711374,
      "SpecificCharacterSet": "ISO_IR 100",
      "StudyID": "1",
      "StudyTime": "165231.426000",
      "TransmitCoilName": "Body",
      "VariableFlipAngleFlag": "N",
      "WindowCenterWidthExplanation": "Algo1",
      "dBdt": 0.0},
    "slices": {}
  },
  "time": {
    "samples": {
      "AcquisitionNumber": [1, 2, 3, 4, 5, 6, 7, 8, 9, 10, 11, 12, 13, 14, 15, 16, 17, 18, 19, 20, 21, 22, 23, 24, 25, 26, 27, 28, 29, 30, 31, 32, 33, 34, 35, 36, 37, 38, 39, 40, 41, 42, 43, 44, 45, 46, 47, 48, 49, 50, 51, 52, 53, 54, 55, 56, 57, 58, 59, 60, 61, 62, 63, 64, 65, 66, 67, 68, 69, 70, 71, 72, 73, 74, 75, 76, 77, 78, 79, 80, 81, 82, 83, 84, 85, 86, 87, 88, 89, 90, 91, 92, 93, 94, 95, 96, 97, 98, 99, 100, 101, 102, 103, 104, 105, 106, 107, 108, 109, 110, 111, 112, 113, 114, 115, 116, 117, 118, 119, 120, 121, 122, 123, 124, 125, 126, 127, 128, 129, 130, 131, 132, 133, 134, 135, 136, 137, 138, 139, 140, 141, 142, 143, 144, 145, 146, 147, 148, 149, 150, 151, 152, 153, 154, 155, 156, 157, 158, 159, 160, 161, 162, 163, 164, 165, 166, 167, 168, 169, 170, 171, 172, 173, 174, 175, 176, 177, 178, 179, 180, 181, 182, 183, 184, 185, 186, 187, 188, 189, 190],
      "AcquisitionTime": ["175833.665000", "175835.155000", "175836.645000", "175838.135000", "175839.625000", "175841.115000", "175842.605000", "175844.095000", "175845.585000", "175847.075000", "175848.565000", "175850.055000", "175851.545000", "175853.035000", "175854.525000", "175856.015000", "175857.505000", "175858.995000", "175900.485000", "175901.975000", "175903.465000", "175904.955000", "175906.445000", "175907.935000", "175909.425000", "175910.915000", "175912.405000", "175913.895000", "175915.385000", "175916.875000", "175918.365000", "175919.855000", "175921.345000", "175922.835000", "175924.325000", "175925.815000", "175927.305000", "175928.795000", "175930.285000", "175931.775000", "175933.265000", "175934.755000", "175936.245000", "175937.735000", "175939.225000", "175940.715000", "175942.205000", "175943.695000", "175945.185000", "175946.675000", "175948.165000", "175949.655000", "175951.145000", "175952.635000", "175954.125000", "175955.615000", "175957.105000", "175958.595000", "180000.085000", "180001.575000", "180003.065000", "180004.555000", "180006.045000", "180007.535000", "180009.025000", "180010.515000", "180012.005000", "180013.495000", "180014.985000", "180016.475000", "180017.965000", "180019.455000", "180020.945000", "180022.435000", "180023.925000", "180025.415000", "180026.905000", "180028.395000", "180029.885000", "180031.375000", "180032.865000", "180034.355000", "180035.845000", "180037.335000", "180038.825000", "180040.315000", "180041.805000", "180043.295000", "180044.785000", "180046.275000", "180047.765000", "180049.255000", "180050.745000", "180052.235000", "180053.725000", "180055.215000", "180056.705000", "180058.195000", "180059.685000", "180101.175000", "180102.665000", "180104.155000", "180105.645000", "180107.135000", "180108.625000", "180110.115000", "180111.605000", "180113.095000", "180114.585000", "180116.075000", "180117.565000", "180119.055000", "180120.545000", "180122.035000", "180123.525000", "180125.015000", "180126.505000", "180127.995000", "180129.485000", "180130.975000", "180132.465000", "180133.955000", "180135.445000", "180136.935000", "180138.425000", "180139.915000", "180141.405000", "180142.895000", "180144.385000", "180145.875000", "180147.365000", "180148.855000", "180150.345000", "180151.835000", "180153.325000", "180154.815000", "180156.305000", "180157.795000", "180159.285000", "180200.775000", "180202.265000", "180203.755000", "180205.245000", "180206.735000", "180208.225000", "180209.715000", "180211.205000", "180212.695000", "180214.185000", "180215.675000", "180217.165000", "180218.655000", "180220.145000", "180221.635000", "180223.125000", "180224.615000", "180226.105000", "180227.595000", "180229.085000", "180230.575000", "180232.065000", "180233.555000", "180235.045000", "180236.535000", "180238.025000", "180239.515000", "180241.005000", "180242.495000", "180243.985000", "180245.475000", "180246.965000", "180248.455000", "180249.945000", "180251.435000", "180252.925000", "180254.415000", "180255.905000", "180257.395000", "180258.885000", "180300.375000", "180301.865000", "180303.355000", "180304.845000", "180306.335000", "180307.825000", "180309.315000", "180310.805000", "180312.295000", "180313.785000", "180315.275000"],
      "ContentTime": ["180002.598000", "180002.608000", "180002.611000", "180002.615000", "180002.618000", "180002.621000", "180002.624000", "180002.628000", "180002.631000", "180002.634000", "180002.638000", "180002.642000", "180002.645000", "180002.648000", "180002.658000", "180002.661000", "180002.664000", "180002.668000", "180002.680000", "180002.683000", "180002.686000", "180002.689000", "180002.693000", "180002.696000", "180002.699000", "180002.702000", "180002.706000", "180002.709000", "180002.712000", "180002.716000", "180002.719000", "180002.722000", "180002.725000", "180002.729000", "180002.732000", "180022.566000", "180022.570000", "180022.573000", "180022.576000", "180022.580000", "180022.583000", "180022.586000", "180022.589000", "180022.592000", "180022.596000", "180022.599000", "180022.602000", "180022.606000", "180022.609000", "180022.612000", "180022.615000", "180022.618000", "180022.622000", "180022.625000", "180022.628000", "180022.631000", "180042.566000", "180042.570000", "180042.573000", "180042.576000", "180042.580000", "180042.583000", "180042.586000", "180042.589000", "180042.593000", "180042.596000", "180042.599000", "180042.602000", "180042.606000", "180042.609000", "180042.612000", "180042.615000", "180042.619000", "180042.622000", "180042.638000", "180042.641000", "180102.566000", "180102.570000", "180102.573000", "180102.576000", "180102.580000", "180102.583000", "180102.586000", "180102.589000", "180102.593000", "180102.596000", "180102.599000", "180102.603000", "180102.606000", "180102.609000", "180102.612000", "180102.615000", "180102.619000", "180102.622000", "180102.625000", "180102.628000", "180142.567000", "180142.571000", "180142.574000", "180142.577000", "180142.581000", "180142.584000", "180142.587000", "180142.590000", "180142.593000", "180142.597000", "180142.600000", "180142.603000", "180142.607000", "180142.610000", "180142.613000", "180142.616000", "180142.620000", "180142.623000", "180142.626000", "180142.629000", "180142.632000", "180142.636000", "180142.639000", "180142.642000", "180142.645000", "180142.649000", "180142.652000", "180142.655000", "180142.658000", "180142.662000", "180222.567000", "180222.571000", "180222.574000", "180222.577000", "180222.581000", "180222.584000", "180222.587000", "180222.590000", "180222.594000", "180222.597000", "180222.600000", "180222.603000", "180222.607000", "180222.610000", "180222.613000", "180222.616000", "180222.620000", "180222.623000", "180222.626000", "180222.629000", "180222.633000", "180222.636000", "180222.639000", "180222.642000", "180222.646000", "180222.649000", "180222.652000", "180302.566000", "180302.570000", "180302.573000", "180302.576000", "180302.579000", "180302.583000", "180302.586000", "180302.589000", "180302.593000", "180302.596000", "180302.599000", "180302.602000", "180302.605000", "180302.609000", "180302.619000", "180302.623000", "180302.626000", "180302.629000", "180302.632000", "180302.635000", "180302.639000", "180302.642000", "180302.645000", "180302.649000", "180302.652000", "180302.655000", "180302.658000", "180317.375000", "180317.379000", "180317.383000", "180317.386000", "180317.389000", "180317.393000", "180317.396000", "180317.399000", "180317.403000", "180317.406000"],
      "InstanceCreationTime": ["180002.598000", "180002.608000", "180002.611000", "180002.615000", "180002.618000", "180002.621000", "180002.624000", "180002.628000", "180002.631000", "180002.634000", "180002.638000", "180002.642000", "180002.645000", "180002.648000", "180002.658000", "180002.661000", "180002.664000", "180002.668000", "180002.680000", "180002.683000", "180002.686000", "180002.689000", "180002.693000", "180002.696000", "180002.699000", "180002.702000", "180002.706000", "180002.709000", "180002.712000", "180002.716000", "180002.719000", "180002.722000", "180002.725000", "180002.729000", "180002.732000", "180022.566000", "180022.570000", "180022.573000", "180022.576000", "180022.580000", "180022.583000", "180022.586000", "180022.589000", "180022.592000", "180022.596000", "180022.599000", "180022.602000", "180022.606000", "180022.609000", "180022.612000", "180022.615000", "180022.618000", "180022.622000", "180022.625000", "180022.628000", "180022.631000", "180042.566000", "180042.570000", "180042.573000", "180042.576000", "180042.580000", "180042.583000", "180042.586000", "180042.589000", "180042.593000", "180042.596000", "180042.599000", "180042.602000", "180042.606000", "180042.609000", "180042.612000", "180042.615000", "180042.619000", "180042.622000", "180042.638000", "180042.641000", "180102.566000", "180102.570000", "180102.573000", "180102.576000", "180102.580000", "180102.583000", "180102.586000", "180102.589000", "180102.593000", "180102.596000", "180102.599000", "180102.603000", "180102.606000", "180102.609000", "180102.612000", "180102.615000", "180102.619000", "180102.622000", "180102.625000", "180102.628000", "180142.567000", "180142.571000", "180142.574000", "180142.577000", "180142.581000", "180142.584000", "180142.587000", "180142.590000", "180142.593000", "180142.597000", "180142.600000", "180142.603000", "180142.607000", "180142.610000", "180142.613000", "180142.616000", "180142.620000", "180142.623000", "180142.626000", "180142.629000", "180142.632000", "180142.636000", "180142.639000", "180142.642000", "180142.645000", "180142.649000", "180142.652000", "180142.655000", "180142.658000", "180142.662000", "180222.567000", "180222.571000", "180222.574000", "180222.577000", "180222.581000", "180222.584000", "180222.587000", "180222.590000", "180222.594000", "180222.597000", "180222.600000", "180222.603000", "180222.607000", "180222.610000", "180222.613000", "180222.616000", "180222.620000", "180222.623000", "180222.626000", "180222.629000", "180222.633000", "180222.636000", "180222.639000", "180222.642000", "180222.646000", "180222.649000", "180222.652000", "180302.566000", "180302.570000", "180302.573000", "180302.576000", "180302.579000", "180302.583000", "180302.586000", "180302.589000", "180302.593000", "180302.596000", "180302.599000", "180302.602000", "180302.605000", "180302.609000", "180302.619000", "180302.623000", "180302.626000", "180302.629000", "180302.632000", "180302.635000", "180302.639000", "180302.642000", "180302.645000", "180302.649000", "180302.652000", "180302.655000", "180302.658000", "180317.375000", "180317.379000", "180317.383000", "180317.386000", "180317.389000", "180317.393000", "180317.396000", "180317.399000", "180317.403000", "180317.406000"],
      "InstanceNumber": [1, 2, 3, 4, 5, 6, 7, 8, 9, 10, 11, 12, 13, 14, 15, 16, 17, 18, 19, 20, 21, 22, 23, 24, 25, 26, 27, 28, 29, 30, 31, 32, 33, 34, 35, 36, 37, 38, 39, 40, 41, 42, 43, 44, 45, 46, 47, 48, 49, 50, 51, 52, 53, 54, 55, 56, 57, 58, 59, 60, 61, 62, 63, 64, 65, 66, 67, 68, 69, 70, 71, 72, 73, 74, 75, 76, 77, 78, 79, 80, 81, 82, 83, 84, 85, 86, 87, 88, 89, 90, 91, 92, 93, 94, 95, 96, 97, 98, 99, 100, 101, 102, 103, 104, 105, 106, 107, 108, 109, 110, 111, 112, 113, 114, 115, 116, 117, 118, 119, 120, 121, 122, 123, 124, 125, 126, 127, 128, 129, 130, 131, 132, 133, 134, 135, 136, 137, 138, 139, 140, 141, 142, 143, 144, 145, 146, 147, 148, 149, 150, 151, 152, 153, 154, 155, 156, 157, 158, 159, 160, 161, 162, 163, 164, 165, 166, 167, 168, 169, 170, 171, 172, 173, 174, 175, 176, 177, 178, 179, 180, 181, 182, 183, 184, 185, 186, 187, 188, 189, 190],
      "LargestImagePixelValue": [45693, 44773, 44483, 44829, 43602, 43100, 44595, 44939, 42537, 42334, 42926, 43143, 41897, 40486, 41968, 44056, 43909, 44191, 44635, 44660, 43635, 41278, 41982, 45084, 44521, 43170, 40764, 41133, 43229, 44269, 43895, 42301, 42061, 43425, 41877, 41559, 41983, 42528, 43775, 43538, 43259, 43416, 44079, 45109, 44774, 44855, 44890, 44338, 43579, 44223, 43209, 42645, 42448, 43270, 43182, 43047, 42527, 43366, 42640, 42384, 41962, 40446, 41509, 41522, 41254, 40937, 41000, 41446, 41937, 42445, 42330, 42679, 41329, 40651, 43099, 41066, 41399, 40701, 41438, 40569, 39859, 39869, 40044, 40026, 40320, 40580, 39663, 39992, 40550, 40264, 40017, 39616, 40202, 40278, 40091, 40293, 39937, 40471, 41049, 41085, 40491, 40382, 40109, 40220, 40350, 40788, 40140, 42246, 40299, 44342, 44296, 44233, 44295, 44566, 44588, 44460, 45081, 44769, 44620, 45262, 43415, 44202, 44915, 45172, 44088, 44127, 44590, 44159, 45900, 45152, 44206, 44028, 44675, 43584, 44393, 44184, 43631, 43399, 43631, 45205, 43739, 42322, 42585, 44313, 43334, 43757, 44443, 44298, 43755, 42982, 42924, 43776, 43656, 43784, 44161, 42890, 43462, 43241, 42583, 42385, 41469, 43373, 42748, 42200, 41888, 42160, 43921, 43721, 43859, 44841, 44608, 43945, 44745, 43990, 43808, 44431, 42938, 42858, 41742, 41153, 41726, 42343, 42683, 43279, 41538, 39514, 40838, 40738, 40388, 44184],
      "WindowCenter": [10591.0, 10550.0, 10506.0, 10479.0, 10435.0, 10422.0, 10452.0, 10478.0, 10460.0, 10447.0, 10457.0, 10465.0, 10437.0, 10402.0, 10419.0, 10481.0, 10497.0, 10483.0, 10467.0, 10455.0, 10444.0, 10414.0, 10427.0, 10480.0, 10469.0, 10439.0, 10404.0, 10418.0, 10456.0, 10464.0, 10436.0, 10404.0, 10406.0, 10431.0, 10425.0, 10439.0, 10437.0, 10439.0, 10449.0, 10450.0, 10464.0, 10465.0, 10469.0, 10478.0, 10461.0, 10446.0, 10451.0, 10467.0, 10482.0, 10506.0, 10491.0, 10462.0, 10455.0, 10453.0, 10453.0, 10460.0, 10481.0, 10504.0, 10509.0, 10498.0, 10480.0, 10467.0, 10467.0, 10470.0, 10479.0, 10487.0, 10497.0, 10499.0, 10484.0, 10481.0, 10471.0, 10467.0, 10468.0, 10472.0, 10505.0, 10494.0, 10484.0, 10454.0, 10445.0, 10438.0, 10424.0, 10421.0, 10432.0, 10442.0, 10450.0, 10450.0, 10430.0, 10434.0, 10437.0, 10429.0, 10432.0, 10437.0, 10435.0, 10440.0, 10439.0, 10433.0, 10431.0, 10440.0, 10455.0, 10469.0, 10460.0, 10447.0, 10444.0, 10436.0, 10434.0, 10449.0, 10455.0, 10454.0, 10435.0, 10476.0, 10476.0, 10476.0, 10487.0, 10487.0, 10470.0, 10461.0, 10464.0, 10449.0, 10455.0, 10488.0, 10484.0, 10479.0, 10476.0, 10461.0, 10435.0, 10444.0, 10464.0, 10482.0, 10494.0, 10498.0, 10487.0, 10470.0, 10472.0, 10462.0, 10477.0, 10484.0, 10488.0, 10476.0, 10473.0, 10499.0, 10471.0, 10471.0, 10478.0, 10498.0, 10479.0, 10489.0, 10490.0, 10493.0, 10473.0, 10454.0, 10443.0, 10450.0, 10452.0, 10452.0, 10465.0, 10455.0, 10463.0, 10460.0, 10449.0, 10451.0, 10463.0, 10494.0, 10479.0, 10463.0, 10460.0, 10449.0, 10465.0, 10484.0, 10495.0, 10499.0, 10492.0, 10463.0, 10462.0, 10449.0, 10446.0, 10477.0, 10473.0, 10458.0, 10446.0, 10423.0, 10435.0, 10458.0, 10472.0, 10473.0, 10433.0, 10398.0, 10406.0, 10410.0, 10419.0, 10456.0],
      "WindowWidth": [22535.0, 22423.0, 22310.0, 22238.0, 22140.0, 22107.0, 22172.0, 22230.0, 22193.0, 22165.0, 22184.0, 22202.0, 22144.0, 22064.0, 22097.0, 22239.0, 22281.0, 22242.0, 22208.0, 22174.0, 22152.0, 22091.0, 22114.0, 22228.0, 22207.0, 22144.0, 22073.0, 22106.0, 22183.0, 22202.0, 22134.0, 22070.0, 22074.0, 22122.0, 22118.0, 22153.0, 22148.0, 22148.0, 22168.0, 22175.0, 22205.0, 22207.0, 22213.0, 22230.0, 22189.0, 22155.0, 22167.0, 22201.0, 22242.0, 22295.0, 22264.0, 22202.0, 22184.0, 22178.0, 22181.0, 22199.0, 22257.0, 22302.0, 22315.0, 22291.0, 22249.0, 22230.0, 22225.0, 22226.0, 22256.0, 22273.0, 22297.0, 22304.0, 22259.0, 22249.0, 22234.0, 22219.0, 22224.0, 22243.0, 22301.0, 22289.0, 22257.0, 22191.0, 22163.0, 22150.0, 22118.0, 22115.0, 22143.0, 22166.0, 22187.0, 22182.0, 22139.0, 22151.0, 22154.0, 22135.0, 22144.0, 22159.0, 22150.0, 22160.0, 22167.0, 22142.0, 22142.0, 22162.0, 22196.0, 22227.0, 22210.0, 22181.0, 22173.0, 22156.0, 22150.0, 22184.0, 22202.0, 22184.0, 22145.0, 22221.0, 22221.0, 22223.0, 22250.0, 22251.0, 22211.0, 22189.0, 22192.0, 22161.0, 22176.0, 22250.0, 22248.0, 22230.0, 22220.0, 22181.0, 22131.0, 22146.0, 22201.0, 22240.0, 22263.0, 22275.0, 22256.0, 22210.0, 22213.0, 22195.0, 22241.0, 22245.0, 22259.0, 22231.0, 22222.0, 22277.0, 22212.0, 22223.0, 22236.0, 22285.0, 22238.0, 22258.0, 22256.0, 22266.0, 22220.0, 22185.0, 22153.0, 22164.0, 22168.0, 22173.0, 22201.0, 22181.0, 22200.0, 22192.0, 22167.0, 22174.0, 22211.0, 22268.0, 22246.0, 22209.0, 22193.0, 22168.0, 22199.0, 22247.0, 22272.0, 22275.0, 22260.0, 22195.0, 22189.0, 22162.0, 22151.0, 22222.0, 22220.0, 22186.0, 22165.0, 22108.0, 22143.0, 22192.0, 22219.0, 22223.0, 22136.0, 22055.0, 22067.0, 22079.0, 22104.0, 22172.0]
    },
    "slices": {}
  }
}