{
  "AcquisitionMatrixPE": 104,
  "AcquisitionNumber": 1,
  "AcquisitionTime": "17:43:13.055000",
  "BandwidthPerPixelPhaseEncode": 17.17,
  "BaseResolution": 104,
  "BodyPartExamined": "BRAIN",
  "CoilCombinationMethod": "Sum of Squares",
  "ConsistencyInfo": "N4_VE11C_LATEST_20160120",
  "ConversionSoftware": "dcm2niix",
  "ConversionSoftwareVersion": "v1.0.20211006",
  "DerivedVendorReportedEchoSpacing": 0.000560011,
  "DeviceSerialNumber": "167006",
  "DwellTime": 2.1e-06,
  "EchoTime": 0.037,
  "EchoTrainLength": 104,
  "EffectiveEchoSpacing": 0.000560011,
  "FlipAngle": 52,
  "HeudiconvVersion": "0.10.0",
  "ImageComments": "Unaliased MB4/PE3/LB",
  "ImageOrientationPatientDICOM": [0.996729, 0.0681795, 0.0434, -0.0466558, 0.923868, -0.379856],
  "ImageOrientationText": "Tra>Cor(-22.2)>Sag(3.8)",
  "ImageType": [
    "ORIGINAL",
    "PRIMARY",
    "M",
    "MB",
    "ND",
    "MOSAIC"
],
  "ImagingFrequency": 123.259,
  "InPlanePhaseEncodingDirectionDICOM": "COL",
  "InstitutionAddress": "Chemin Queen-Mary 4565,Montreal,District,CA,H3W 1W5",
  "InstitutionName": "IUGM",
  "InstitutionalDepartmentName": "Department",
  "MRAcquisitionType": "2D",
  "MagneticFieldStrength": 3,
  "Manufacturer": "Siemens",
  "ManufacturersModelName": "Prisma_fit",
  "MatrixCoilMode": "SENSE",
  "Modality": "MR",
  "MultibandAccelerationFactor": 4,
  "PartialFourier": 1,
  "PatientPosition": "HFS",
  "PercentPhaseFOV": 100,
  "PercentSampling": 100,
  "PhaseEncodingDirection": "j",
  "PhaseEncodingSteps": 104,
  "PhaseResolution": 1,
  "PixelBandwidth": 2290,
  "ProcedureStepDescription": "memory^things",
  "ProtocolName": "func_task-things_run-1",
  "PulseSequenceDetails": "%CustomerSeq%\\cmrr_mbep2d_bold",
  "ReceiveCoilActiveElements": "HC1-7;NC1,2",
  "ReceiveCoilName": "HeadNeck_64",
  "ReconMatrixPE": 104,
  "RepetitionTime": 1.49,
  "SAR": 0.0337727,
  "ScanOptions": "FS",
  "ScanningSequence": "EP",
  "SequenceName": "epfid2d1_104",
  "SequenceVariant": "SK\\SS",
  "SeriesDescription": "func_task-things_run-1",
  "SeriesNumber": 10,
  "ShimSetting": [636, -7194, -8840, 645, 97, 5, -41, 24],
  "SliceThickness": 2,
  "SliceTiming": [0, 0.785, 0.0975, 0.8825, 0.1975, 0.98, 0.295, 1.0775, 0.3925, 1.1775, 0.49, 1.275, 0.5875, 1.3725, 0.6875, 0, 0.785, 0.0975, 0.8825, 0.1975, 0.98, 0.295, 1.0775, 0.3925, 1.1775, 0.49, 1.275, 0.5875, 1.3725, 0.6875, 0, 0.785, 0.0975, 0.8825, 0.1975, 0.98, 0.295, 1.0775, 0.3925, 1.1775, 0.49, 1.275, 0.5875, 1.3725, 0.6875, 0, 0.785, 0.0975, 0.8825, 0.1975, 0.98, 0.295, 1.0775, 0.3925, 1.1775, 0.49, 1.275, 0.5875, 1.3725, 0.6875],
  "SoftwareVersions": "syngo MR E11",
  "SpacingBetweenSlices": 2,
  "StationName": "MRC35049",
  "TaskName": "things",
  "TotalReadoutTime": 0.0576811,
  "TxRefAmp": 236.792,
  "WipMemBlock": "b12c5383-10d8-4188-b994-0b38457afe3d||Sequence: R016 ve11c/master r/e634e98; Dec 19 2017 11:00:25 by eja",
  "dcmmeta_affine": [
    [-1.993457317352295, -0.0933116152882576, 0.1319885104894638, 107.90227508544922],
    [-0.1363590806722641, 1.8477364778518677, -0.7531772255897522, -50.459110260009766],
    [0.08679990470409393, 0.7597122192382812, 1.8480538129806519, -70.88758850097656],
    [0.0, 0.0, 0.0, 1.0]
],
  "dcmmeta_reorient_transform": [
    [0.0, -1.0, 0.0, 103.0],
    [1.0, 0.0, 0.0, 0.0],
    [0.0, 0.0, 1.0, 0.0],
    [0.0, 0.0, 0.0, 1.0]
],
  "dcmmeta_shape": [104, 104, 60, 190],
  "dcmmeta_slice_dim": 2,
  "dcmmeta_version": 0.6,
  "global": {
    "const": {
      "AcquisitionMatrix": [104, 0, 0, 104],
      "AngioFlag": "N",
      "BitsAllocated": 16,
      "BitsStored": 16,
      "BodyPartExamined": "BRAIN",
      "Columns": 832,
      "EchoNumbers": 1,
      "EchoTime": 37.0,
      "EchoTrainLength": 104,
      "FlipAngle": 52.0,
      "HighBit": 15,
      "ImageOrientationPatient": [0.9967286461397, 0.068179543211, 0.04339995221274, -0.0466558065371, 0.92386826287272, -0.3798561156187],
      "ImagePositionPatient": [-789.94420543083, -862.06855478251, 252.30286012232],
      "ImageType": [
        "ORIGINAL",
        "PRIMARY",
        "M",
        "MB",
        "ND",
        "MOSAIC"
],
      "ImagedNucleus": "1H",
      "ImagingFrequency": 123.258959,
      "InPlanePhaseEncodingDirection": "COL",
      "MRAcquisitionType": "2D",
      "MagneticFieldStrength": 3.0,
      "Manufacturer": "SIEMENS",
      "ManufacturerModelName": "Prisma_fit",
      "Modality": "MR",
      "NumberOfAverages": 1.0,
      "NumberOfPhaseEncodingSteps": 104,
      "PercentPhaseFieldOfView": 100.0,
      "PercentSampling": 100.0,
      "PerformedProcedureStepStartTime": "165231.524000",
      "PhotometricInterpretation": "MONOCHROME2",
      "PixelBandwidth": 2290.0,
      "PixelRepresentation": 0,
      "PixelSpacing": [2.0, 2.0],
      "ProtocolName": "func_task-things_run-1",
      "RepetitionTime": 1490.0,
      "Rows": 832,
      "SAR": 0.0337726543884,
      "SamplesPerPixel": 1,
      "ScanOptions": "FS",
      "ScanningSequence": "EP",
      "SequenceName": "epfid2d1_104",
      "SequenceVariant": [
        "SK",
        "SS"
],
      "SeriesDescription": "func_task-things_run-1",
      "SeriesNumber": 10,
      "SeriesTime": "174442.605000",
      "SliceLocation": -39.378782912035,
      "SliceThickness": 2.0,
      "SmallestImagePixelValue": 0,
      "SoftwareVersions": "syngo MR E11",
      "SpacingBetweenSlices": 1.9999999711374,
      "SpecificCharacterSet": "ISO_IR 100",
      "StudyID": "1",
      "StudyTime": "165231.426000",
      "TransmitCoilName": "Body",
      "VariableFlipAngleFlag": "N",
      "WindowCenterWidthExplanation": "Algo1",
      "dBdt": 0.0},
    "slices": {}
  },
  "time": {
    "samples": {
      "AcquisitionNumber": [1, 2, 3, 4, 5, 6, 7, 8, 9, 10, 11, 12, 13, 14, 15, 16, 17, 18, 19, 20, 21, 22, 23, 24, 25, 26, 27, 28, 29, 30, 31, 32, 33, 34, 35, 36, 37, 38, 39, 40, 41, 42, 43, 44, 45, 46, 47, 48, 49, 50, 51, 52, 53, 54, 55, 56, 57, 58, 59, 60, 61, 62, 63, 64, 65, 66, 67, 68, 69, 70, 71, 72, 73, 74, 75, 76, 77, 78, 79, 80, 81, 82, 83, 84, 85, 86, 87, 88, 89, 90, 91, 92, 93, 94, 95, 96, 97, 98, 99, 100, 101, 102, 103, 104, 105, 106, 107, 108, 109, 110, 111, 112, 113, 114, 115, 116, 117, 118, 119, 120, 121, 122, 123, 124, 125, 126, 127, 128, 129, 130, 131, 132, 133, 134, 135, 136, 137, 138, 139, 140, 141, 142, 143, 144, 145, 146, 147, 148, 149, 150, 151, 152, 153, 154, 155, 156, 157, 158, 159, 160, 161, 162, 163, 164, 165, 166, 167, 168, 169, 170, 171, 172, 173, 174, 175, 176, 177, 178, 179, 180, 181, 182, 183, 184, 185, 186, 187, 188, 189, 190],
      "AcquisitionTime": ["174313.055000", "174314.545000", "174316.035000", "174317.525000", "174319.015000", "174320.505000", "174321.995000", "174323.485000", "174324.975000", "174326.465000", "174327.955000", "174329.445000", "174330.935000", "174332.425000", "174333.915000", "174335.405000", "174336.895000", "174338.385000", "174339.875000", "174341.365000", "174342.855000", "174344.345000", "174345.835000", "174347.325000", "174348.815000", "174350.305000", "174351.795000", "174353.285000", "174354.775000", "174356.265000", "174357.755000", "174359.245000", "174400.735000", "174402.225000", "174403.715000", "174405.205000", "174406.695000", "174408.185000", "174409.675000", "174411.165000", "174412.655000", "174414.145000", "174415.635000", "174417.125000", "174418.615000", "174420.105000", "174421.595000", "174423.085000", "174424.575000", "174426.065000", "174427.555000", "174429.045000", "174430.535000", "174432.025000", "174433.515000", "174435.005000", "174436.495000", "174437.985000", "174439.475000", "174440.965000", "174442.455000", "174443.945000", "174445.435000", "174446.925000", "174448.415000", "174449.905000", "174451.395000", "174452.885000", "174454.375000", "174455.865000", "174457.355000", "174458.845000", "174500.335000", "174501.825000", "174503.315000", "174504.805000", "174506.295000", "174507.785000", "174509.275000", "174510.765000", "174512.255000", "174513.745000", "174515.235000", "174516.725000", "174518.215000", "174519.705000", "174521.195000", "174522.685000", "174524.175000", "174525.665000", "174527.155000", "174528.645000", "174530.135000", "174531.625000", "174533.115000", "174534.605000", "174536.095000", "174537.585000", "174539.075000", "174540.565000", "174542.055000", "174543.545000", "174545.035000", "174546.525000", "174548.015000", "174549.505000", "174550.995000", "174552.485000", "174553.975000", "174555.465000", "174556.955000", "174558.445000", "174559.935000", "174601.425000", "174602.915000", "174604.405000", "174605.895000", "174607.385000", "174608.875000", "174610.365000", "174611.855000", "174613.345000", "174614.835000", "174616.325000", "174617.815000", "174619.305000", "174620.795000", "174622.285000", "174623.775000", "174625.265000", "174626.755000", "174628.245000", "174629.735000", "174631.225000", "174632.715000", "174634.205000", "174635.695000", "174637.185000", "174638.675000", "174640.165000", "174641.655000", "174643.145000", "174644.635000", "174646.125000", "174647.615000", "174649.105000", "174650.595000", "174652.085000", "174653.575000", "174655.065000", "174656.555000", "174658.045000", "174659.535000", "174701.025000", "174702.515000", "174704.005000", "174705.495000", "174706.985000", "174708.475000", "174709.965000", "174711.455000", "174712.945000", "174714.435000", "174715.925000", "174717.415000", "174718.905000", "174720.395000", "174721.885000", "174723.375000", "174724.865000", "174726.355000", "174727.845000", "174729.335000", "174730.825000", "174732.315000", "174733.805000", "174735.295000", "174736.785000", "174738.275000", "174739.765000", "174741.255000", "174742.745000", "174744.235000", "174745.725000", "174747.215000", "174748.705000", "174750.195000", "174751.685000", "174753.175000", "174754.665000"],
      "ContentTime": ["174442.608000", "174442.612000", "174442.615000", "174442.618000", "174442.621000", "174442.625000", "174442.628000", "174442.631000", "174442.635000", "174442.638000", "174442.641000", "174442.644000", "174442.647000", "174442.651000", "174442.654000", "174442.657000", "174442.660000", "174442.664000", "174442.667000", "174442.671000", "174442.674000", "174442.683000", "174442.686000", "174442.689000", "174442.692000", "174502.566000", "174502.570000", "174502.573000", "174502.577000", "174502.580000", "174502.583000", "174502.586000", "174502.590000", "174502.593000", "174502.596000", "174502.599000", "174502.603000", "174502.606000", "174502.609000", "174502.612000", "174502.616000", "174502.619000", "174502.622000", "174502.625000", "174502.628000", "174502.632000", "174522.567000", "174522.571000", "174522.574000", "174522.577000", "174522.580000", "174522.584000", "174522.587000", "174522.590000", "174522.593000", "174522.597000", "174522.600000", "174522.603000", "174522.606000", "174522.610000", "174522.613000", "174522.616000", "174522.619000", "174522.623000", "174522.626000", "174522.629000", "174542.567000", "174542.571000", "174542.574000", "174542.577000", "174542.580000", "174542.584000", "174542.587000", "174542.590000", "174542.593000", "174542.597000", "174542.600000", "174542.603000", "174542.606000", "174542.610000", "174542.613000", "174542.616000", "174542.619000", "174542.623000", "174542.633000", "174542.636000", "174602.567000", "174602.571000", "174602.574000", "174602.577000", "174602.580000", "174602.584000", "174602.587000", "174602.590000", "174602.593000", "174602.597000", "174602.600000", "174602.603000", "174602.606000", "174602.610000", "174602.613000", "174602.616000", "174602.619000", "174602.623000", "174602.626000", "174602.629000", "174602.632000", "174642.566000", "174642.570000", "174642.573000", "174642.576000", "174642.579000", "174642.583000", "174642.586000", "174642.589000", "174642.593000", "174642.596000", "174642.599000", "174642.603000", "174642.606000", "174642.609000", "174642.613000", "174642.616000", "174642.619000", "174642.623000", "174642.626000", "174642.629000", "174642.632000", "174642.636000", "174642.639000", "174642.642000", "174642.646000", "174642.649000", "174642.652000", "174642.655000", "174642.659000", "174642.662000", "174642.665000", "174642.669000", "174722.566000", "174722.570000", "174722.573000", "174722.576000", "174722.580000", "174722.583000", "174722.586000", "174722.590000", "174722.593000", "174722.596000", "174722.600000", "174722.603000", "174722.606000", "174722.610000", "174722.613000", "174722.625000", "174722.629000", "174722.632000", "174722.635000", "174722.638000", "174722.642000", "174722.645000", "174722.648000", "174722.652000", "174722.655000", "174722.658000", "174722.661000", "174757.196000", "174757.200000", "174757.203000", "174757.206000", "174757.216000", "174757.220000", "174757.223000", "174757.226000", "174757.230000", "174757.233000", "174757.236000", "174757.240000", "174757.243000", "174757.246000", "174757.250000", "174757.253000", "174757.257000", "174757.260000", "174757.264000", "174757.267000", "174757.270000", "174757.273000", "174757.277000", "174757.280000"],
      "InstanceCreationTime": ["174442.608000", "174442.612000", "174442.615000", "174442.618000", "174442.621000", "174442.625000", "174442.628000", "174442.631000", "174442.635000", "174442.638000", "174442.641000", "174442.644000", "174442.647000", "174442.651000", "174442.654000", "174442.657000", "174442.660000", "174442.664000", "174442.667000", "174442.671000", "174442.674000", "174442.683000", "174442.686000", "174442.689000", "174442.692000", "174502.566000", "174502.570000", "174502.573000", "174502.577000", "174502.580000", "174502.583000", "174502.586000", "174502.590000", "174502.593000", "174502.596000", "174502.599000", "174502.603000", "174502.606000", "174502.609000", "174502.612000", "174502.616000", "174502.619000", "174502.622000", "174502.625000", "174502.628000", "174502.632000", "174522.567000", "174522.571000", "174522.574000", "174522.577000", "174522.580000", "174522.584000", "174522.587000", "174522.590000", "174522.593000", "174522.597000", "174522.600000", "174522.603000", "174522.606000", "174522.610000", "174522.613000", "174522.616000", "174522.619000", "174522.623000", "174522.626000", "174522.629000", "174542.567000", "174542.571000", "174542.574000", "174542.577000", "174542.580000", "174542.584000", "174542.587000", "174542.590000", "174542.593000", "174542.597000", "174542.600000", "174542.603000", "174542.606000", "174542.610000", "174542.613000", "174542.616000", "174542.619000", "174542.623000", "174542.633000", "174542.636000", "174602.567000", "174602.571000", "174602.574000", "174602.577000", "174602.580000", "174602.584000", "174602.587000", "174602.590000", "174602.593000", "174602.597000", "174602.600000", "174602.603000", "174602.606000", "174602.610000", "174602.613000", "174602.616000", "174602.619000", "174602.623000", "174602.626000", "174602.629000", "174602.632000", "174642.566000", "174642.570000", "174642.573000", "174642.576000", "174642.579000", "174642.583000", "174642.586000", "174642.589000", "174642.593000", "174642.596000", "174642.599000", "174642.603000", "174642.606000", "174642.609000", "174642.613000", "174642.616000", "174642.619000", "174642.623000", "174642.626000", "174642.629000", "174642.632000", "174642.636000", "174642.639000", "174642.642000", "174642.646000", "174642.649000", "174642.652000", "174642.655000", "174642.659000", "174642.662000", "174642.665000", "174642.669000", "174722.566000", "174722.570000", "174722.573000", "174722.576000", "174722.580000", "174722.583000", "174722.586000", "174722.590000", "174722.593000", "174722.596000", "174722.600000", "174722.603000", "174722.606000", "174722.610000", "174722.613000", "174722.625000", "174722.629000", "174722.632000", "174722.635000", "174722.638000", "174722.642000", "174722.645000", "174722.648000", "174722.652000", "174722.655000", "174722.658000", "174722.661000", "174757.196000", "174757.200000", "174757.203000", "174757.206000", "174757.216000", "174757.220000", "174757.223000", "174757.226000", "174757.230000", "174757.233000", "174757.236000", "174757.240000", "174757.243000", "174757.246000", "174757.250000", "174757.253000", "174757.257000", "174757.260000", "174757.264000", "174757.267000", "174757.270000", "174757.273000", "174757.277000", "174757.280000"],
      "InstanceNumber": [1, 2, 3, 4, 5, 6, 7, 8, 9, 10, 11, 12, 13, 14, 15, 16, 17, 18, 19, 20, 21, 22, 23, 24, 25, 26, 27, 28, 29, 30, 31, 32, 33, 34, 35, 36, 37, 38, 39, 40, 41, 42, 43, 44, 45, 46, 47, 48, 49, 50, 51, 52, 53, 54, 55, 56, 57, 58, 59, 60, 61, 62, 63, 64, 65, 66, 67, 68, 69, 70, 71, 72, 73, 74, 75, 76, 77, 78, 79, 80, 81, 82, 83, 84, 85, 86, 87, 88, 89, 90, 91, 92, 93, 94, 95, 96, 97, 98, 99, 100, 101, 102, 103, 104, 105, 106, 107, 108, 109, 110, 111, 112, 113, 114, 115, 116, 117, 118, 119, 120, 121, 122, 123, 124, 125, 126, 127, 128, 129, 130, 131, 132, 133, 134, 135, 136, 137, 138, 139, 140, 141, 142, 143, 144, 145, 146, 147, 148, 149, 150, 151, 152, 153, 154, 155, 156, 157, 158, 159, 160, 161, 162, 163, 164, 165, 166, 167, 168, 169, 170, 171, 172, 173, 174, 175, 176, 177, 178, 179, 180, 181, 182, 183, 184, 185, 186, 187, 188, 189, 190],
      "LargestImagePixelValue": [48180, 47422, 47625, 46943, 46630, 45530, 45774, 44847, 44956, 45145, 44869, 44761, 45340, 45841, 44844, 44935, 45048, 44245, 44941, 46039, 45836, 45452, 45722, 45525, 45497, 44633, 44718, 44859, 44337, 43700, 44451, 44129, 43962, 43912, 44176, 44100, 44345, 44214, 44782, 44333, 44456, 44898, 44227, 44870, 44987, 43707, 43678, 43848, 44181, 43455, 43427, 43687, 44085, 43481, 44036, 45162, 45174, 45053, 45175, 44811, 44595, 45129, 44559, 45019, 45271, 45556, 45124, 44638, 43995, 44256, 44948, 44947, 44325, 44645, 44985, 44693, 45106, 45078, 44953, 44893, 45015, 44646, 44701, 44812, 45320, 45146, 44706, 44617, 45108, 44750, 44649, 45404, 44810, 45133, 44856, 44625, 43706, 43765, 45135, 45195, 45120, 45059, 45321, 44702, 45160, 44423, 45239, 45359, 44883, 45156, 44424, 44402, 44794, 44770, 45446, 45537, 45169, 45060, 44667, 44485, 44926, 44970, 45595, 45809, 44561, 44440, 44968, 44618, 44779, 45177, 45802, 45893, 46322, 45592, 46150, 45390, 45797, 44802, 44514, 44749, 44642, 44900, 44763, 44526, 44732, 45283, 45257, 45256, 44862, 44783, 44328, 45333, 45665, 45453, 45218, 44385, 42695, 42619, 43489, 43475, 43841, 44195, 44273, 44842, 44629, 44869, 44133, 44342, 44107, 44194, 43848, 43523, 43554, 43709, 43205, 43510, 43246, 42680, 43365, 43342, 43607, 43227, 42054, 42835, 43349, 44370, 45117, 44014, 43756, 43652],
      "WindowCenter": [10613.0, 10591.0, 10583.0, 10569.0, 10567.0, 10559.0, 10561.0, 10548.0, 10557.0, 10550.0, 10552.0, 10577.0, 10577.0, 10557.0, 10536.0, 10540.0, 10524.0, 10515.0, 10531.0, 10536.0, 10534.0, 10543.0, 10538.0, 10522.0, 10538.0, 10554.0, 10543.0, 10523.0, 10509.0, 10503.0, 10508.0, 10503.0, 10514.0, 10511.0, 10509.0, 10510.0, 10535.0, 10537.0, 10535.0, 10537.0, 10537.0, 10533.0, 10519.0, 10539.0, 10538.0, 10519.0, 10513.0, 10514.0, 10501.0, 10493.0, 10504.0, 10512.0, 10511.0, 10499.0, 10526.0, 10532.0, 10536.0, 10533.0, 10523.0, 10522.0, 10509.0, 10509.0, 10522.0, 10564.0, 10562.0, 10543.0, 10532.0, 10516.0, 10494.0, 10501.0, 10524.0, 10525.0, 10520.0, 10515.0, 10498.0, 10487.0, 10502.0, 10519.0, 10515.0, 10530.0, 10531.0, 10524.0, 10521.0, 10530.0, 10538.0, 10531.0, 10538.0, 10536.0, 10525.0, 10524.0, 10525.0, 10520.0, 10521.0, 10545.0, 10540.0, 10517.0, 10495.0, 10500.0, 10521.0, 10512.0, 10510.0, 10520.0, 10521.0, 10512.0, 10522.0, 10520.0, 10524.0, 10536.0, 10526.0, 10509.0, 10506.0, 10528.0, 10535.0, 10534.0, 10550.0, 10534.0, 10518.0, 10513.0, 10523.0, 10520.0, 10523.0, 10530.0, 10537.0, 10529.0, 10499.0, 10506.0, 10512.0, 10505.0, 10514.0, 10532.0, 10539.0, 10532.0, 10544.0, 10531.0, 10527.0, 10530.0, 10536.0, 10518.0, 10510.0, 10524.0, 10527.0, 10510.0, 10499.0, 10491.0, 10514.0, 10532.0, 10526.0, 10525.0, 10518.0, 10506.0, 10508.0, 10529.0, 10539.0, 10543.0, 10543.0, 10525.0, 10496.0, 10485.0, 10487.0, 10509.0, 10507.0, 10514.0, 10522.0, 10552.0, 10560.0, 10558.0, 10534.0, 10537.0, 10534.0, 10518.0, 10506.0, 10507.0, 10507.0, 10495.0, 10482.0, 10491.0, 10489.0, 10482.0, 10497.0, 10497.0, 10504.0, 10499.0, 10485.0, 10499.0, 10508.0, 10520.0, 10526.0, 10515.0, 10499.0, 10482.0],
      "WindowWidth": [22572.0, 22514.0, 22477.0, 22441.0, 22434.0, 22417.0, 22417.0, 22388.0, 22407.0, 22390.0, 22398.0, 22459.0, 22457.0, 22404.0, 22361.0, 22369.0, 22331.0, 22313.0, 22354.0, 22362.0, 22352.0, 22377.0, 22364.0, 22326.0, 22362.0, 22415.0, 22376.0, 22328.0, 22295.0, 22284.0, 22298.0, 22286.0, 22311.0, 22303.0, 22297.0, 22304.0, 22366.0, 22370.0, 22361.0, 22374.0, 22371.0, 22357.0, 22324.0, 22369.0, 22363.0, 22323.0, 22314.0, 22318.0, 22281.0, 22262.0, 22294.0, 22309.0, 22304.0, 22281.0, 22341.0, 22354.0, 22363.0, 22355.0, 22334.0, 22329.0, 22302.0, 22297.0, 22333.0, 22430.0, 22424.0, 22377.0, 22350.0, 22312.0, 22265.0, 22285.0, 22337.0, 22340.0, 22337.0, 22317.0, 22274.0, 22249.0, 22283.0, 22321.0, 22313.0, 22351.0, 22350.0, 22336.0, 22328.0, 22354.0, 22370.0, 22352.0, 22372.0, 22372.0, 22341.0, 22339.0, 22341.0, 22325.0, 22329.0, 22384.0, 22370.0, 22316.0, 22267.0, 22280.0, 22328.0, 22305.0, 22299.0, 22328.0, 22326.0, 22306.0, 22327.0, 22328.0, 22335.0, 22363.0, 22342.0, 22300.0, 22294.0, 22358.0, 22364.0, 22361.0, 22403.0, 22362.0, 22322.0, 22310.0, 22333.0, 22329.0, 22332.0, 22350.0, 22366.0, 22346.0, 22276.0, 22292.0, 22305.0, 22289.0, 22314.0, 22357.0, 22370.0, 22353.0, 22379.0, 22354.0, 22339.0, 22351.0, 22359.0, 22321.0, 22301.0, 22335.0, 22347.0, 22305.0, 22276.0, 22262.0, 22316.0, 22355.0, 22339.0, 22337.0, 22325.0, 22292.0, 22302.0, 22347.0, 22369.0, 22382.0, 22383.0, 22333.0, 22275.0, 22248.0, 22250.0, 22316.0, 22301.0, 22316.0, 22336.0, 22405.0, 22429.0, 22419.0, 22366.0, 22372.0, 22369.0, 22330.0, 22297.0, 22303.0, 22304.0, 22269.0, 22244.0, 22267.0, 22258.0, 22245.0, 22279.0, 22278.0, 22295.0, 22284.0, 22252.0, 22283.0, 22304.0, 22329.0, 22339.0, 22318.0, 22282.0, 22241.0]
    },
    "slices": {}
  }
}