{
  "AcquisitionMatrixPE": 104,
  "AcquisitionNumber": 1,
  "AcquisitionTime": "17:48:19.165000",
  "BandwidthPerPixelPhaseEncode": 17.17,
  "BaseResolution": 104,
  "BodyPartExamined": "BRAIN",
  "CoilCombinationMethod": "Sum of Squares",
  "ConsistencyInfo": "N4_VE11C_LATEST_20160120",
  "ConversionSoftware": "dcm2niix",
  "ConversionSoftwareVersion": "v1.0.20211006",
  "DerivedVendorReportedEchoSpacing": 0.000560011,
  "DeviceSerialNumber": "167006",
  "DwellTime": 2.1e-06,
  "EchoTime": 0.037,
  "EchoTime1": 0.037,
  "EchoTime2": 0.001,
  "EchoTrainLength": 104,
  "EffectiveEchoSpacing": 0.000560011,
  "FlipAngle": 52,
  "HeudiconvVersion": "0.10.0",
  "ImageComments": "Unaliased MB4/PE3/LB",
  "ImageOrientationPatientDICOM": [0.996729, 0.0681795, 0.0434, -0.0466558, 0.923868, -0.379856],
  "ImageOrientationText": "Tra>Cor(-22.2)>Sag(3.8)",
  "ImageType": [
    "ORIGINAL",
    "PRIMARY",
    "P",
    "MB",
    "ND",
    "MOSAIC",
    "PHASE"
],
  "ImagingFrequency": 123.259,
  "InPlanePhaseEncodingDirectionDICOM": "COL",
  "InstitutionAddress": "Chemin Queen-Mary 4565,Montreal,District,CA,H3W 1W5",
  "InstitutionName": "IUGM",
  "InstitutionalDepartmentName": "Department",
  "MRAcquisitionType": "2D",
  "MagneticFieldStrength": 3,
  "Manufacturer": "Siemens",
  "ManufacturersModelName": "Prisma_fit",
  "MatrixCoilMode": "SENSE",
  "Modality": "MR",
  "MultibandAccelerationFactor": 4,
  "PartialFourier": 1,
  "PatientPosition": "HFS",
  "PercentPhaseFOV": 100,
  "PercentSampling": 100,
  "PhaseEncodingDirection": "j",
  "PhaseEncodingSteps": 104,
  "PhaseResolution": 1,
  "PixelBandwidth": 2290,
  "ProcedureStepDescription": "memory^things",
  "ProtocolName": "func_task-things_run-2",
  "PulseSequenceDetails": "%CustomerSeq%\\cmrr_mbep2d_bold",
  "ReceiveCoilActiveElements": "HC1-7;NC1,2",
  "ReceiveCoilName": "HeadNeck_64",
  "ReconMatrixPE": 104,
  "RepetitionTime": 1.49,
  "SAR": 0.0337727,
  "ScanOptions": "FS",
  "ScanningSequence": "EP",
  "SequenceName": "epfid2d1_104",
  "SequenceVariant": "SK\\SS",
  "SeriesDescription": "func_task-things_run-2",
  "SeriesNumber": 14,
  "ShimSetting": [636, -7194, -8840, 645, 97, 5, -41, 24],
  "SliceThickness": 2,
  "SliceTiming": [0, 0.785, 0.0975, 0.8825, 0.195, 0.98, 0.295, 1.0775, 0.3925, 1.175, 0.49, 1.275, 0.5875, 1.3725, 0.685, 0, 0.785, 0.0975, 0.8825, 0.195, 0.98, 0.295, 1.0775, 0.3925, 1.175, 0.49, 1.275, 0.5875, 1.3725, 0.685, 0, 0.785, 0.0975, 0.8825, 0.195, 0.98, 0.295, 1.0775, 0.3925, 1.175, 0.49, 1.275, 0.5875, 1.3725, 0.685, 0, 0.785, 0.0975, 0.8825, 0.195, 0.98, 0.295, 1.0775, 0.3925, 1.175, 0.49, 1.275, 0.5875, 1.3725, 0.685],
  "SoftwareVersions": "syngo MR E11",
  "SpacingBetweenSlices": 2,
  "StationName": "MRC35049",
  "TaskName": "things",
  "TotalReadoutTime": 0.0576811,
  "TxRefAmp": 236.792,
  "WipMemBlock": "2f55439c-8eb3-4d7b-8a64-c84180c77d3f||Sequence: R016 ve11c/master r/e634e98; Dec 19 2017 11:00:25 by eja",
  "dcmmeta_affine": [
    [-1.993457317352295, -0.0933116152882576, 0.1319885104894638, 107.90227508544922],
    [-0.1363590806722641, 1.8477364778518677, -0.7531772255897522, -50.459110260009766],
    [0.08679990470409393, 0.7597122192382812, 1.8480538129806519, -70.88758850097656],
    [0.0, 0.0, 0.0, 1.0]
],
  "dcmmeta_reorient_transform": [
    [0.0, -1.0, 0.0, 103.0],
    [1.0, 0.0, 0.0, 0.0],
    [0.0, 0.0, 1.0, 0.0],
    [0.0, 0.0, 0.0, 1.0]
],
  "dcmmeta_shape": [104, 104, 60, 190],
  "dcmmeta_slice_dim": 2,
  "dcmmeta_version": 0.6,
  "global": {
    "const": {
      "AcquisitionMatrix": [104, 0, 0, 104],
      "AngioFlag": "N",
      "BitsAllocated": 16,
      "BitsStored": 16,
      "BodyPartExamined": "BRAIN",
      "Columns": 832,
      "EchoNumbers": 1,
      "EchoTime": 37.0,
      "EchoTrainLength": 104,
      "FlipAngle": 52.0,
      "HighBit": 15,
      "ImageOrientationPatient": [0.9967286461397, 0.068179543211, 0.04339995221274, -0.0466558065371, 0.92386826287272, -0.3798561156187],
      "ImagePositionPatient": [-789.94420543083, -862.06855478251, 252.30286012232],
      "ImageType": [
        "ORIGINAL",
        "PRIMARY",
        "P",
        "MB",
        "ND",
        "MOSAIC"
],
      "ImagedNucleus": "1H",
      "ImagingFrequency": 123.258964,
      "InPlanePhaseEncodingDirection": "COL",
      "LargestImagePixelValue": 4095,
      "MRAcquisitionType": "2D",
      "MagneticFieldStrength": 3.0,
      "Manufacturer": "SIEMENS",
      "ManufacturerModelName": "Prisma_fit",
      "Modality": "MR",
      "NumberOfAverages": 1.0,
      "NumberOfPhaseEncodingSteps": 104,
      "PercentPhaseFieldOfView": 100.0,
      "PercentSampling": 100.0,
      "PerformedProcedureStepStartTime": "165231.524000",
      "PhotometricInterpretation": "MONOCHROME2",
      "PixelBandwidth": 2290.0,
      "PixelRepresentation": 0,
      "PixelSpacing": [2.0, 2.0],
      "ProtocolName": "func_task-things_run-2",
      "RepetitionTime": 1490.0,
      "RescaleIntercept": -4096.0,
      "RescaleSlope": 2.0,
      "RescaleType": "US",
      "Rows": 832,
      "SAR": 0.0337726543884,
      "SamplesPerPixel": 1,
      "ScanOptions": "FS",
      "ScanningSequence": "EP",
      "SequenceName": "epfid2d1_104",
      "SequenceVariant": [
        "SK",
        "SS"
],
      "SeriesDescription": "func_task-things_run-2",
      "SeriesNumber": 14,
      "SeriesTime": "174945.289000",
      "SliceLocation": -39.378782912035,
      "SliceThickness": 2.0,
      "SmallestImagePixelValue": 0,
      "SoftwareVersions": "syngo MR E11",
      "SpacingBetweenSlices": 1.9999999711374,
      "SpecificCharacterSet": "ISO_IR 100",
      "StudyID": "1",
      "StudyTime": "165231.426000",
      "TransmitCoilName": "Body",
      "VariableFlipAngleFlag": "N",
      "WindowCenterWidthExplanation": "Algo1",
      "dBdt": 0.0},
    "slices": {}
  },
  "time": {
    "samples": {
      "AcquisitionNumber": [1, 2, 3, 4, 5, 6, 7, 8, 9, 10, 11, 12, 13, 14, 15, 16, 17, 18, 19, 20, 21, 22, 23, 24, 25, 26, 27, 28, 29, 30, 31, 32, 33, 34, 35, 36, 37, 38, 39, 40, 41, 42, 43, 44, 45, 46, 47, 48, 49, 50, 51, 52, 53, 54, 55, 56, 57, 58, 59, 60, 61, 62, 63, 64, 65, 66, 67, 68, 69, 70, 71, 72, 73, 74, 75, 76, 77, 78, 79, 80, 81, 82, 83, 84, 85, 86, 87, 88, 89, 90, 91, 92, 93, 94, 95, 96, 97, 98, 99, 100, 101, 102, 103, 104, 105, 106, 107, 108, 109, 110, 111, 112, 113, 114, 115, 116, 117, 118, 119, 120, 121, 122, 123, 124, 125, 126, 127, 128, 129, 130, 131, 132, 133, 134, 135, 136, 137, 138, 139, 140, 141, 142, 143, 144, 145, 146, 147, 148, 149, 150, 151, 152, 153, 154, 155, 156, 157, 158, 159, 160, 161, 162, 163, 164, 165, 166, 167, 168, 169, 170, 171, 172, 173, 174, 175, 176, 177, 178, 179, 180, 181, 182, 183, 184, 185, 186, 187, 188, 189, 190],
      "AcquisitionTime": ["174819.165000", "174820.655000", "174822.145000", "174823.635000", "174825.125000", "174826.615000", "174828.105000", "174829.595000", "174831.085000", "174832.575000", "174834.065000", "174835.555000", "174837.045000", "174838.535000", "174840.025000", "174841.515000", "174843.005000", "174844.495000", "174845.985000", "174847.475000", "174848.965000", "174850.455000", "174851.945000", "174853.435000", "174854.925000", "174856.415000", "174857.905000", "174859.395000", "174900.885000", "174902.375000", "174903.865000", "174905.355000", "174906.845000", "174908.335000", "174909.825000", "174911.315000", "174912.805000", "174914.295000", "174915.785000", "174917.275000", "174918.765000", "174920.255000", "174921.745000", "174923.235000", "174924.725000", "174926.215000", "174927.705000", "174929.195000", "174930.685000", "174932.175000", "174933.665000", "174935.155000", "174936.645000", "174938.135000", "174939.625000", "174941.115000", "174942.605000", "174944.095000", "174945.585000", "174947.075000", "174948.565000", "174950.055000", "174951.545000", "174953.035000", "174954.525000", "174956.015000", "174957.505000", "174958.995000", "175000.485000", "175001.975000", "175003.465000", "175004.955000", "175006.445000", "175007.935000", "175009.425000", "175010.915000", "175012.405000", "175013.895000", "175015.385000", "175016.875000", "175018.365000", "175019.855000", "175021.345000", "175022.835000", "175024.325000", "175025.815000", "175027.305000", "175028.795000", "175030.285000", "175031.775000", "175033.265000", "175034.755000", "175036.245000", "175037.735000", "175039.225000", "175040.715000", "175042.205000", "175043.695000", "175045.185000", "175046.675000", "175048.165000", "175049.655000", "175051.145000", "175052.635000", "175054.125000", "175055.615000", "175057.105000", "175058.595000", "175100.085000", "175101.575000", "175103.065000", "175104.555000", "175106.045000", "175107.535000", "175109.025000", "175110.515000", "175112.005000", "175113.495000", "175114.985000", "175116.475000", "175117.965000", "175119.455000", "175120.945000", "175122.435000", "175123.925000", "175125.415000", "175126.905000", "175128.395000", "175129.885000", "175131.375000", "175132.865000", "175134.355000", "175135.845000", "175137.335000", "175138.825000", "175140.315000", "175141.805000", "175143.295000", "175144.785000", "175146.275000", "175147.765000", "175149.255000", "175150.745000", "175152.235000", "175153.725000", "175155.215000", "175156.705000", "175158.195000", "175159.685000", "175201.175000", "175202.665000", "175204.155000", "175205.645000", "175207.135000", "175208.625000", "175210.115000", "175211.605000", "175213.095000", "175214.585000", "175216.075000", "175217.565000", "175219.055000", "175220.545000", "175222.035000", "175223.525000", "175225.015000", "175226.505000", "175227.995000", "175229.485000", "175230.975000", "175232.465000", "175233.955000", "175235.445000", "175236.935000", "175238.425000", "175239.915000", "175241.405000", "175242.895000", "175244.385000", "175245.875000", "175247.365000", "175248.855000", "175250.345000", "175251.835000", "175253.325000", "175254.815000", "175256.305000", "175257.795000", "175259.285000", "175300.775000"],
      "ContentTime": ["174945.291000", "174945.293000", "174945.296000", "174945.298000", "174945.301000", "174945.303000", "174945.306000", "174945.308000", "174945.310000", "174945.313000", "174945.315000", "174945.318000", "174945.320000", "174945.323000", "174945.325000", "174945.327000", "174945.330000", "174945.332000", "174945.335000", "174945.337000", "174945.343000", "174945.346000", "174945.348000", "174945.351000", "174945.353000", "174945.356000", "174945.358000", "174945.368000", "174945.370000", "174945.372000", "174945.375000", "175005.219000", "175005.222000", "175005.225000", "175005.227000", "175005.229000", "175005.232000", "175005.234000", "175005.237000", "175005.242000", "175005.244000", "175005.247000", "175005.249000", "175005.252000", "175005.255000", "175005.258000", "175005.260000", "175005.264000", "175005.268000", "175005.270000", "175005.273000", "175025.235000", "175025.238000", "175025.241000", "175025.243000", "175025.245000", "175025.248000", "175025.250000", "175025.253000", "175025.255000", "175025.258000", "175025.260000", "175025.263000", "175025.265000", "175025.268000", "175025.270000", "175025.272000", "175025.275000", "175025.277000", "175025.280000", "175025.282000", "175025.285000", "175045.217000", "175045.231000", "175045.234000", "175045.236000", "175045.238000", "175045.241000", "175045.243000", "175045.246000", "175045.248000", "175045.251000", "175045.253000", "175045.256000", "175045.258000", "175045.260000", "175045.263000", "175045.265000", "175045.268000", "175045.270000", "175045.273000", "175045.275000", "175125.260000", "175125.263000", "175125.265000", "175125.268000", "175125.270000", "175125.273000", "175125.275000", "175125.278000", "175125.280000", "175125.283000", "175125.285000", "175125.288000", "175125.290000", "175125.293000", "175125.295000", "175125.298000", "175125.300000", "175125.303000", "175125.305000", "175125.307000", "175125.310000", "175125.312000", "175125.315000", "175125.317000", "175125.320000", "175125.322000", "175125.325000", "175125.327000", "175125.330000", "175125.332000", "175125.334000", "175125.337000", "175205.257000", "175205.260000", "175205.262000", "175205.265000", "175205.267000", "175205.270000", "175205.272000", "175205.275000", "175205.277000", "175205.279000", "175205.282000", "175205.284000", "175205.287000", "175205.289000", "175205.292000", "175205.294000", "175205.297000", "175205.299000", "175205.302000", "175205.304000", "175205.307000", "175205.309000", "175205.311000", "175205.314000", "175205.316000", "175205.319000", "175205.321000", "175225.186000", "175225.188000", "175225.191000", "175225.193000", "175225.196000", "175225.198000", "175225.201000", "175225.203000", "175225.206000", "175225.208000", "175225.210000", "175225.213000", "175225.215000", "175303.077000", "175303.080000", "175303.082000", "175303.085000", "175303.087000", "175303.090000", "175303.092000", "175303.095000", "175303.097000", "175303.100000", "175303.102000", "175303.105000", "175303.107000", "175303.110000", "175303.112000", "175303.115000", "175303.117000", "175303.120000", "175303.122000", "175303.125000", "175303.127000", "175303.130000", "175303.132000", "175303.135000", "175303.137000", "175303.140000"],
      "InstanceCreationTime": ["174945.291000", "174945.293000", "174945.296000", "174945.298000", "174945.301000", "174945.303000", "174945.306000", "174945.308000", "174945.310000", "174945.313000", "174945.315000", "174945.318000", "174945.320000", "174945.323000", "174945.325000", "174945.327000", "174945.330000", "174945.332000", "174945.335000", "174945.337000", "174945.343000", "174945.346000", "174945.348000", "174945.351000", "174945.353000", "174945.356000", "174945.358000", "174945.368000", "174945.370000", "174945.372000", "174945.375000", "175005.219000", "175005.222000", "175005.225000", "175005.227000", "175005.229000", "175005.232000", "175005.234000", "175005.237000", "175005.242000", "175005.244000", "175005.247000", "175005.249000", "175005.252000", "175005.255000", "175005.258000", "175005.260000", "175005.264000", "175005.268000", "175005.270000", "175005.273000", "175025.235000", "175025.238000", "175025.241000", "175025.243000", "175025.245000", "175025.248000", "175025.250000", "175025.253000", "175025.255000", "175025.258000", "175025.260000", "175025.263000", "175025.265000", "175025.268000", "175025.270000", "175025.272000", "175025.275000", "175025.277000", "175025.280000", "175025.282000", "175025.285000", "175045.217000", "175045.231000", "175045.234000", "175045.236000", "175045.238000", "175045.241000", "175045.243000", "175045.246000", "175045.248000", "175045.251000", "175045.253000", "175045.256000", "175045.258000", "175045.260000", "175045.263000", "175045.265000", "175045.268000", "175045.270000", "175045.273000", "175045.275000", "175125.260000", "175125.263000", "175125.265000", "175125.268000", "175125.270000", "175125.273000", "175125.275000", "175125.278000", "175125.280000", "175125.283000", "175125.285000", "175125.288000", "175125.290000", "175125.293000", "175125.295000", "175125.298000", "175125.300000", "175125.303000", "175125.305000", "175125.307000", "175125.310000", "175125.312000", "175125.315000", "175125.317000", "175125.320000", "175125.322000", "175125.325000", "175125.327000", "175125.330000", "175125.332000", "175125.334000", "175125.337000", "175205.257000", "175205.260000", "175205.262000", "175205.265000", "175205.267000", "175205.270000", "175205.272000", "175205.275000", "175205.277000", "175205.279000", "175205.282000", "175205.284000", "175205.287000", "175205.289000", "175205.292000", "175205.294000", "175205.297000", "175205.299000", "175205.302000", "175205.304000", "175205.307000", "175205.309000", "175205.311000", "175205.314000", "175205.316000", "175205.319000", "175205.321000", "175225.186000", "175225.188000", "175225.191000", "175225.193000", "175225.196000", "175225.198000", "175225.201000", "175225.203000", "175225.206000", "175225.208000", "175225.210000", "175225.213000", "175225.215000", "175303.077000", "175303.080000", "175303.082000", "175303.085000", "175303.087000", "175303.090000", "175303.092000", "175303.095000", "175303.097000", "175303.100000", "175303.102000", "175303.105000", "175303.107000", "175303.110000", "175303.112000", "175303.115000", "175303.117000", "175303.120000", "175303.122000", "175303.125000", "175303.127000", "175303.130000", "175303.132000", "175303.135000", "175303.137000", "175303.140000"],
      "InstanceNumber": [1, 2, 3, 4, 5, 6, 7, 8, 9, 10, 11, 12, 13, 14, 15, 16, 17, 18, 19, 20, 21, 22, 23, 24, 25, 26, 27, 28, 29, 30, 31, 32, 33, 34, 35, 36, 37, 38, 39, 40, 41, 42, 43, 44, 45, 46, 47, 48, 49, 50, 51, 52, 53, 54, 55, 56, 57, 58, 59, 60, 61, 62, 63, 64, 65, 66, 67, 68, 69, 70, 71, 72, 73, 74, 75, 76, 77, 78, 79, 80, 81, 82, 83, 84, 85, 86, 87, 88, 89, 90, 91, 92, 93, 94, 95, 96, 97, 98, 99, 100, 101, 102, 103, 104, 105, 106, 107, 108, 109, 110, 111, 112, 113, 114, 115, 116, 117, 118, 119, 120, 121, 122, 123, 124, 125, 126, 127, 128, 129, 130, 131, 132, 133, 134, 135, 136, 137, 138, 139, 140, 141, 142, 143, 144, 145, 146, 147, 148, 149, 150, 151, 152, 153, 154, 155, 156, 157, 158, 159, 160, 161, 162, 163, 164, 165, 166, 167, 168, 169, 170, 171, 172, 173, 174, 175, 176, 177, 178, 179, 180, 181, 182, 183, 184, 185, 186, 187, 188, 189, 190],
      "WindowCenter": [4824.0, 4820.0, 4820.0, 4822.0, 4824.0, 4822.0, 4820.0, 4824.0, 4824.0, 4798.0, 4820.0, 4820.0, 4822.0, 4822.0, 4820.0, 4820.0, 4820.0, 4820.0, 4820.0, 4820.0, 4820.0, 4822.0, 4818.0, 4796.0, 4818.0, 4796.0, 4820.0, 4794.0, 4794.0, 4794.0, 4796.0, 4798.0, 4820.0, 4796.0, 4818.0, 4820.0, 4798.0, 4820.0, 4820.0, 4796.0, 4794.0, 4818.0, 4818.0, 4818.0, 4796.0, 4794.0, 4794.0, 4796.0, 4794.0, 4796.0, 4796.0, 4796.0, 4792.0, 4794.0, 4818.0, 4796.0, 4794.0, 4796.0, 4794.0, 4818.0, 4794.0, 4796.0, 4816.0, 4794.0, 4794.0, 4814.0, 4796.0, 4794.0, 4794.0, 4796.0, 4792.0, 4794.0, 4796.0, 4792.0, 4794.0, 4796.0, 4794.0, 4792.0, 4796.0, 4796.0, 4794.0, 4820.0, 4794.0, 4798.0, 4792.0, 4794.0, 4792.0, 4818.0, 4798.0, 4792.0, 4818.0, 4794.0, 4818.0, 4794.0, 4794.0, 4794.0, 4796.0, 4796.0, 4796.0, 4796.0, 4796.0, 4794.0, 4794.0, 4792.0, 4796.0, 4796.0, 4792.0, 4792.0, 4796.0, 4796.0, 4792.0, 4796.0, 4794.0, 4796.0, 4798.0, 4820.0, 4792.0, 4796.0, 4816.0, 4792.0, 4792.0, 4796.0, 4794.0, 4792.0, 4796.0, 4796.0, 4796.0, 4794.0, 4798.0, 4794.0, 4792.0, 4794.0, 4792.0, 4794.0, 4820.0, 4796.0, 4792.0, 4820.0, 4792.0, 4796.0, 4798.0, 4794.0, 4796.0, 4796.0, 4796.0, 4794.0, 4792.0, 4794.0, 4796.0, 4796.0, 4820.0, 4796.0, 4794.0, 4794.0, 4796.0, 4796.0, 4788.0, 4796.0, 4792.0, 4796.0, 4792.0, 4794.0, 4794.0, 4794.0, 4792.0, 4792.0, 4794.0, 4790.0, 4796.0, 4794.0, 4792.0, 4794.0, 4794.0, 4796.0, 4788.0, 4794.0, 4794.0, 4790.0, 4792.0, 4796.0, 4792.0, 4796.0, 4794.0, 4794.0, 4796.0, 4796.0, 4796.0, 4792.0, 4794.0, 4788.0],
      "WindowWidth": [18590.0, 18580.0, 18576.0, 18594.0, 18606.0, 18600.0, 18592.0, 18600.0, 18592.0, 18558.0, 18584.0, 18598.0, 18594.0, 18592.0, 18588.0, 18590.0, 18590.0, 18596.0, 18600.0, 18592.0, 18592.0, 18602.0, 18594.0, 18558.0, 18594.0, 18562.0, 18588.0, 18554.0, 18568.0, 18570.0, 18564.0, 18570.0, 18596.0, 18558.0, 18590.0, 18600.0, 18558.0, 18590.0, 18596.0, 18568.0, 18558.0, 18596.0, 18602.0, 18602.0, 18562.0, 18566.0, 18568.0, 18560.0, 18562.0, 18564.0, 18560.0, 18556.0, 18562.0, 18566.0, 18598.0, 18570.0, 18566.0, 18562.0, 18560.0, 18596.0, 18564.0, 18566.0, 18600.0, 18564.0, 18566.0, 18594.0, 18562.0, 18562.0, 18566.0, 18566.0, 18558.0, 18566.0, 18566.0, 18562.0, 18566.0, 18566.0, 18554.0, 18562.0, 18570.0, 18568.0, 18566.0, 18602.0, 18566.0, 18562.0, 18562.0, 18568.0, 18560.0, 18602.0, 18562.0, 18562.0, 18604.0, 18556.0, 18594.0, 18568.0, 18564.0, 18568.0, 18568.0, 18562.0, 18564.0, 18572.0, 18564.0, 18566.0, 18566.0, 18558.0, 18560.0, 18572.0, 18558.0, 18562.0, 18566.0, 18560.0, 18562.0, 18564.0, 18556.0, 18560.0, 18572.0, 18598.0, 18564.0, 18566.0, 18602.0, 18562.0, 18562.0, 18562.0, 18554.0, 18558.0, 18568.0, 18564.0, 18572.0, 18572.0, 18568.0, 18566.0, 18570.0, 18558.0, 18562.0, 18572.0, 18598.0, 18568.0, 18568.0, 18594.0, 18566.0, 18570.0, 18568.0, 18562.0, 18568.0, 18564.0, 18568.0, 18568.0, 18566.0, 18564.0, 18564.0, 18566.0, 18598.0, 18566.0, 18562.0, 18570.0, 18560.0, 18562.0, 18572.0, 18578.0, 18570.0, 18560.0, 18558.0, 18564.0, 18554.0, 18562.0, 18564.0, 18568.0, 18566.0, 18574.0, 18574.0, 18566.0, 18564.0, 18568.0, 18556.0, 18562.0, 18560.0, 18564.0, 18566.0, 18570.0, 18574.0, 18570.0, 18568.0, 18570.0, 18564.0, 18568.0, 18562.0, 18560.0, 18564.0, 18574.0, 18570.0, 18568.0]
    },
    "slices": {}
  }
}