{
  "AcquisitionMatrixPE": 104,
  "AcquisitionNumber": 1,
  "AcquisitionTime": "17:58:33.665000",
  "BandwidthPerPixelPhaseEncode": 17.17,
  "BaseResolution": 104,
  "BodyPartExamined": "BRAIN",
  "CoilCombinationMethod": "Sum of Squares",
  "ConsistencyInfo": "N4_VE11C_LATEST_20160120",
  "ConversionSoftware": "dcm2niix",
  "ConversionSoftwareVersion": "v1.0.20211006",
  "DerivedVendorReportedEchoSpacing": 0.000560011,
  "DeviceSerialNumber": "167006",
  "DwellTime": 2.1e-06,
  "EchoTime": 0.037,
  "EchoTime1": 0.037,
  "EchoTime2": 0.001,
  "EchoTrainLength": 104,
  "EffectiveEchoSpacing": 0.000560011,
  "FlipAngle": 52,
  "HeudiconvVersion": "0.10.0",
  "ImageComments": "Unaliased MB4/PE3/LB",
  "ImageOrientationPatientDICOM": [0.996729, 0.0681795, 0.0434, -0.0466558, 0.923868, -0.379856],
  "ImageOrientationText": "Tra>Cor(-22.2)>Sag(3.8)",
  "ImageType": [
    "ORIGINAL",
    "PRIMARY",
    "P",
    "MB",
    "ND",
    "MOSAIC",
    "PHASE"
],
  "ImagingFrequency": 123.259,
  "InPlanePhaseEncodingDirectionDICOM": "COL",
  "InstitutionAddress": "Chemin Queen-Mary 4565,Montreal,District,CA,H3W 1W5",
  "InstitutionName": "IUGM",
  "InstitutionalDepartmentName": "Department",
  "MRAcquisitionType": "2D",
  "MagneticFieldStrength": 3,
  "Manufacturer": "Siemens",
  "ManufacturersModelName": "Prisma_fit",
  "MatrixCoilMode": "SENSE",
  "Modality": "MR",
  "MultibandAccelerationFactor": 4,
  "PartialFourier": 1,
  "PatientPosition": "HFS",
  "PercentPhaseFOV": 100,
  "PercentSampling": 100,
  "PhaseEncodingDirection": "j",
  "PhaseEncodingSteps": 104,
  "PhaseResolution": 1,
  "PixelBandwidth": 2290,
  "ProcedureStepDescription": "memory^things",
  "ProtocolName": "func_task-things_run-4",
  "PulseSequenceDetails": "%CustomerSeq%\\cmrr_mbep2d_bold",
  "ReceiveCoilActiveElements": "HC1-7;NC1,2",
  "ReceiveCoilName": "HeadNeck_64",
  "ReconMatrixPE": 104,
  "RepetitionTime": 1.49,
  "SAR": 0.0337727,
  "ScanOptions": "FS",
  "ScanningSequence": "EP",
  "SequenceName": "epfid2d1_104",
  "SequenceVariant": "SK\\SS",
  "SeriesDescription": "func_task-things_run-4",
  "SeriesNumber": 20,
  "ShimSetting": [636, -7194, -8840, 645, 97, 5, -41, 24],
  "SliceThickness": 2,
  "SliceTiming": [0, 0.785, 0.1, 0.8825, 0.1975, 0.98, 0.295, 1.08, 0.3925, 1.1775, 0.49, 1.275, 0.59, 1.3725, 0.6875, 0, 0.785, 0.1, 0.8825, 0.1975, 0.98, 0.295, 1.08, 0.3925, 1.1775, 0.49, 1.275, 0.59, 1.3725, 0.6875, 0, 0.785, 0.1, 0.8825, 0.1975, 0.98, 0.295, 1.08, 0.3925, 1.1775, 0.49, 1.275, 0.59, 1.3725, 0.6875, 0, 0.785, 0.1, 0.8825, 0.1975, 0.98, 0.295, 1.08, 0.3925, 1.1775, 0.49, 1.275, 0.59, 1.3725, 0.6875],
  "SoftwareVersions": "syngo MR E11",
  "SpacingBetweenSlices": 2,
  "StationName": "MRC35049",
  "TaskName": "things",
  "TotalReadoutTime": 0.0576811,
  "TxRefAmp": 236.792,
  "WipMemBlock": "f2443b0d-511a-41a0-87bb-0cf6cb8331c8||Sequence: R016 ve11c/master r/e634e98; Dec 19 2017 11:00:25 by eja",
  "dcmmeta_affine": [
    [-1.993457317352295, -0.0933116152882576, 0.1319885104894638, 107.90227508544922],
    [-0.1363590806722641, 1.8477364778518677, -0.7531772255897522, -50.459110260009766],
    [0.08679990470409393, 0.7597122192382812, 1.8480538129806519, -70.88758850097656],
    [0.0, 0.0, 0.0, 1.0]
],
  "dcmmeta_reorient_transform": [
    [0.0, -1.0, 0.0, 103.0],
    [1.0, 0.0, 0.0, 0.0],
    [0.0, 0.0, 1.0, 0.0],
    [0.0, 0.0, 0.0, 1.0]
],
  "dcmmeta_shape": [104, 104, 60, 190],
  "dcmmeta_slice_dim": 2,
  "dcmmeta_version": 0.6,
  "global": {
    "const": {
      "AcquisitionMatrix": [104, 0, 0, 104],
      "AngioFlag": "N",
      "BitsAllocated": 16,
      "BitsStored": 16,
      "BodyPartExamined": "BRAIN",
      "Columns": 832,
      "EchoNumbers": 1,
      "EchoTime": 37.0,
      "EchoTrainLength": 104,
      "FlipAngle": 52.0,
      "HighBit": 15,
      "ImageOrientationPatient": [0.9967286461397, 0.068179543211, 0.04339995221274, -0.0466558065371, 0.92386826287272, -0.3798561156187],
      "ImagePositionPatient": [-789.94420543083, -862.06855478251, 252.30286012232],
      "ImageType": [
        "ORIGINAL",
        "PRIMARY",
        "P",
        "MB",
        "ND",
        "MOSAIC"
],
      "ImagedNucleus": "1H",
      "ImagingFrequency": 123.258974,
      "InPlanePhaseEncodingDirection": "COL",
      "LargestImagePixelValue": 4095,
      "MRAcquisitionType": "2D",
      "MagneticFieldStrength": 3.0,
      "Manufacturer": "SIEMENS",
      "ManufacturerModelName": "Prisma_fit",
      "Modality": "MR",
      "NumberOfAverages": 1.0,
      "NumberOfPhaseEncodingSteps": 104,
      "PercentPhaseFieldOfView": 100.0,
      "PercentSampling": 100.0,
      "PerformedProcedureStepStartTime": "165231.524000",
      "PhotometricInterpretation": "MONOCHROME2",
      "PixelBandwidth": 2290.0,
      "PixelRepresentation": 0,
      "PixelSpacing": [2.0, 2.0],
      "ProtocolName": "func_task-things_run-4",
      "RepetitionTime": 1490.0,
      "RescaleIntercept": -4096.0,
      "RescaleSlope": 2.0,
      "RescaleType": "US",
      "Rows": 832,
      "SAR": 0.0337726543884,
      "SamplesPerPixel": 1,
      "ScanOptions": "FS",
      "ScanningSequence": "EP",
      "SequenceName": "epfid2d1_104",
      "SequenceVariant": [
        "SK",
        "SS"
],
      "SeriesDescription": "func_task-things_run-4",
      "SeriesNumber": 20,
      "SeriesTime": "180002.782000",
      "SliceLocation": -39.378782912035,
      "SliceThickness": 2.0,
      "SmallestImagePixelValue": 0,
      "SoftwareVersions": "syngo MR E11",
      "SpacingBetweenSlices": 1.9999999711374,
      "SpecificCharacterSet": "ISO_IR 100",
      "StudyID": "1",
      "StudyTime": "165231.426000",
      "TransmitCoilName": "Body",
      "VariableFlipAngleFlag": "N",
      "WindowCenterWidthExplanation": "Algo1",
      "dBdt": 0.0},
    "slices": {}
  },
  "time": {
    "samples": {
      "AcquisitionNumber": [1, 2, 3, 4, 5, 6, 7, 8, 9, 10, 11, 12, 13, 14, 15, 16, 17, 18, 19, 20, 21, 22, 23, 24, 25, 26, 27, 28, 29, 30, 31, 32, 33, 34, 35, 36, 37, 38, 39, 40, 41, 42, 43, 44, 45, 46, 47, 48, 49, 50, 51, 52, 53, 54, 55, 56, 57, 58, 59, 60, 61, 62, 63, 64, 65, 66, 67, 68, 69, 70, 71, 72, 73, 74, 75, 76, 77, 78, 79, 80, 81, 82, 83, 84, 85, 86, 87, 88, 89, 90, 91, 92, 93, 94, 95, 96, 97, 98, 99, 100, 101, 102, 103, 104, 105, 106, 107, 108, 109, 110, 111, 112, 113, 114, 115, 116, 117, 118, 119, 120, 121, 122, 123, 124, 125, 126, 127, 128, 129, 130, 131, 132, 133, 134, 135, 136, 137, 138, 139, 140, 141, 142, 143, 144, 145, 146, 147, 148, 149, 150, 151, 152, 153, 154, 155, 156, 157, 158, 159, 160, 161, 162, 163, 164, 165, 166, 167, 168, 169, 170, 171, 172, 173, 174, 175, 176, 177, 178, 179, 180, 181, 182, 183, 184, 185, 186, 187, 188, 189, 190],
      "AcquisitionTime": ["175833.665000", "175835.155000", "175836.645000", "175838.135000", "175839.625000", "175841.115000", "175842.605000", "175844.095000", "175845.585000", "175847.075000", "175848.565000", "175850.055000", "175851.545000", "175853.035000", "175854.525000", "175856.015000", "175857.505000", "175858.995000", "175900.485000", "175901.975000", "175903.465000", "175904.955000", "175906.445000", "175907.935000", "175909.425000", "175910.915000", "175912.405000", "175913.895000", "175915.385000", "175916.875000", "175918.365000", "175919.855000", "175921.345000", "175922.835000", "175924.325000", "175925.815000", "175927.305000", "175928.795000", "175930.285000", "175931.775000", "175933.265000", "175934.755000", "175936.245000", "175937.735000", "175939.225000", "175940.715000", "175942.205000", "175943.695000", "175945.185000", "175946.675000", "175948.165000", "175949.655000", "175951.145000", "175952.635000", "175954.125000", "175955.615000", "175957.105000", "175958.595000", "180000.085000", "180001.575000", "180003.065000", "180004.555000", "180006.045000", "180007.535000", "180009.025000", "180010.515000", "180012.005000", "180013.495000", "180014.985000", "180016.475000", "180017.965000", "180019.455000", "180020.945000", "180022.435000", "180023.925000", "180025.415000", "180026.905000", "180028.395000", "180029.885000", "180031.375000", "180032.865000", "180034.355000", "180035.845000", "180037.335000", "180038.825000", "180040.315000", "180041.805000", "180043.295000", "180044.785000", "180046.275000", "180047.765000", "180049.255000", "180050.745000", "180052.235000", "180053.725000", "180055.215000", "180056.705000", "180058.195000", "180059.685000", "180101.175000", "180102.665000", "180104.155000", "180105.645000", "180107.135000", "180108.625000", "180110.115000", "180111.605000", "180113.095000", "180114.585000", "180116.075000", "180117.565000", "180119.055000", "180120.545000", "180122.035000", "180123.525000", "180125.015000", "180126.505000", "180127.995000", "180129.485000", "180130.975000", "180132.465000", "180133.955000", "180135.445000", "180136.935000", "180138.425000", "180139.915000", "180141.405000", "180142.895000", "180144.385000", "180145.875000", "180147.365000", "180148.855000", "180150.345000", "180151.835000", "180153.325000", "180154.815000", "180156.305000", "180157.795000", "180159.285000", "180200.775000", "180202.265000", "180203.755000", "180205.245000", "180206.735000", "180208.225000", "180209.715000", "180211.205000", "180212.695000", "180214.185000", "180215.675000", "180217.165000", "180218.655000", "180220.145000", "180221.635000", "180223.125000", "180224.615000", "180226.105000", "180227.595000", "180229.085000", "180230.575000", "180232.065000", "180233.555000", "180235.045000", "180236.535000", "180238.025000", "180239.515000", "180241.005000", "180242.495000", "180243.985000", "180245.475000", "180246.965000", "180248.455000", "180249.945000", "180251.435000", "180252.925000", "180254.415000", "180255.905000", "180257.395000", "180258.885000", "180300.375000", "180301.865000", "180303.355000", "180304.845000", "180306.335000", "180307.825000", "180309.315000", "180310.805000", "180312.295000", "180313.785000", "180315.275000"],
      "ContentTime": ["180002.785000", "180002.787000", "180002.790000", "180002.792000", "180002.795000", "180002.797000", "180002.800000", "180002.802000", "180002.805000", "180002.807000", "180002.810000", "180002.812000", "180002.815000", "180002.817000", "180002.820000", "180002.822000", "180002.825000", "180002.827000", "180002.830000", "180002.832000", "180002.835000", "180002.837000", "180002.839000", "180002.842000", "180002.844000", "180002.853000", "180002.856000", "180002.858000", "180002.861000", "180002.863000", "180002.865000", "180002.868000", "180002.870000", "180002.873000", "180002.875000", "180022.673000", "180022.676000", "180022.678000", "180022.681000", "180022.683000", "180022.686000", "180022.688000", "180022.691000", "180022.693000", "180022.696000", "180022.698000", "180022.701000", "180022.703000", "180022.705000", "180022.708000", "180022.710000", "180022.713000", "180022.715000", "180022.718000", "180022.728000", "180022.730000", "180042.695000", "180042.698000", "180042.700000", "180042.702000", "180042.705000", "180042.707000", "180042.710000", "180042.712000", "180042.715000", "180042.717000", "180042.720000", "180042.722000", "180042.725000", "180042.727000", "180042.730000", "180042.732000", "180042.735000", "180042.737000", "180042.740000", "180042.742000", "180102.666000", "180102.669000", "180102.672000", "180102.674000", "180102.677000", "180102.679000", "180102.682000", "180102.684000", "180102.687000", "180102.689000", "180102.692000", "180102.694000", "180102.697000", "180102.699000", "180102.702000", "180102.704000", "180102.707000", "180102.709000", "180102.711000", "180102.714000", "180142.726000", "180142.729000", "180142.731000", "180142.733000", "180142.736000", "180142.738000", "180142.741000", "180142.743000", "180142.746000", "180142.748000", "180142.751000", "180142.753000", "180142.755000", "180142.758000", "180142.760000", "180142.795000", "180142.798000", "180142.800000", "180142.802000", "180142.805000", "180142.807000", "180142.810000", "180142.812000", "180142.815000", "180142.817000", "180142.820000", "180142.822000", "180142.825000", "180142.827000", "180142.830000", "180222.718000", "180222.721000", "180222.723000", "180222.726000", "180222.728000", "180222.731000", "180222.733000", "180222.736000", "180222.738000", "180222.741000", "180222.743000", "180222.746000", "180222.748000", "180222.751000", "180222.753000", "180222.755000", "180222.758000", "180222.760000", "180222.763000", "180222.765000", "180222.768000", "180222.770000", "180222.773000", "180222.775000", "180222.778000", "180222.781000", "180222.783000", "180302.712000", "180302.715000", "180302.717000", "180302.720000", "180302.722000", "180302.725000", "180302.727000", "180302.730000", "180302.732000", "180302.735000", "180302.737000", "180302.739000", "180302.745000", "180302.748000", "180302.750000", "180302.753000", "180302.755000", "180302.758000", "180302.760000", "180302.763000", "180302.766000", "180302.768000", "180302.771000", "180302.773000", "180302.776000", "180302.778000", "180302.781000", "180317.451000", "180317.454000", "180317.456000", "180317.466000", "180317.468000", "180317.471000", "180317.473000", "180317.476000", "180317.478000", "180317.481000"],
      "InstanceCreationTime": ["180002.785000", "180002.787000", "180002.790000", "180002.792000", "180002.795000", "180002.797000", "180002.800000", "180002.802000", "180002.805000", "180002.807000", "180002.810000", "180002.812000", "180002.815000", "180002.817000", "180002.820000", "180002.822000", "180002.825000", "180002.827000", "180002.830000", "180002.832000", "180002.835000", "180002.837000", "180002.839000", "180002.842000", "180002.844000", "180002.853000", "180002.856000", "180002.858000", "180002.861000", "180002.863000", "180002.865000", "180002.868000", "180002.870000", "180002.873000", "180002.875000", "180022.673000", "180022.676000", "180022.678000", "180022.681000", "180022.683000", "180022.686000", "180022.688000", "180022.691000", "180022.693000", "180022.696000", "180022.698000", "180022.701000", "180022.703000", "180022.705000", "180022.708000", "180022.710000", "180022.713000", "180022.715000", "180022.718000", "180022.728000", "180022.730000", "180042.695000", "180042.698000", "180042.700000", "180042.702000", "180042.705000", "180042.707000", "180042.710000", "180042.712000", "180042.715000", "180042.717000", "180042.720000", "180042.722000", "180042.725000", "180042.727000", "180042.730000", "180042.732000", "180042.735000", "180042.737000", "180042.740000", "180042.742000", "180102.666000", "180102.669000", "180102.672000", "180102.674000", "180102.677000", "180102.679000", "180102.682000", "180102.684000", "180102.687000", "180102.689000", "180102.692000", "180102.694000", "180102.697000", "180102.699000", "180102.702000", "180102.704000", "180102.707000", "180102.709000", "180102.711000", "180102.714000", "180142.726000", "180142.729000", "180142.731000", "180142.733000", "180142.736000", "180142.738000", "180142.741000", "180142.743000", "180142.746000", "180142.748000", "180142.751000", "180142.753000", "180142.755000", "180142.758000", "180142.760000", "180142.795000", "180142.798000", "180142.800000", "180142.802000", "180142.805000", "180142.807000", "180142.810000", "180142.812000", "180142.815000", "180142.817000", "180142.820000", "180142.822000", "180142.825000", "180142.827000", "180142.830000", "180222.718000", "180222.721000", "180222.723000", "180222.726000", "180222.728000", "180222.731000", "180222.733000", "180222.736000", "180222.738000", "180222.741000", "180222.743000", "180222.746000", "180222.748000", "180222.751000", "180222.753000", "180222.755000", "180222.758000", "180222.760000", "180222.763000", "180222.765000", "180222.768000", "180222.770000", "180222.773000", "180222.775000", "180222.778000", "180222.781000", "180222.783000", "180302.712000", "180302.715000", "180302.717000", "180302.720000", "180302.722000", "180302.725000", "180302.727000", "180302.730000", "180302.732000", "180302.735000", "180302.737000", "180302.739000", "180302.745000", "180302.748000", "180302.750000", "180302.753000", "180302.755000", "180302.758000", "180302.760000", "180302.763000", "180302.766000", "180302.768000", "180302.771000", "180302.773000", "180302.776000", "180302.778000", "180302.781000", "180317.451000", "180317.454000", "180317.456000", "180317.466000", "180317.468000", "180317.471000", "180317.473000", "180317.476000", "180317.478000", "180317.481000"],
      "InstanceNumber": [1, 2, 3, 4, 5, 6, 7, 8, 9, 10, 11, 12, 13, 14, 15, 16, 17, 18, 19, 20, 21, 22, 23, 24, 25, 26, 27, 28, 29, 30, 31, 32, 33, 34, 35, 36, 37, 38, 39, 40, 41, 42, 43, 44, 45, 46, 47, 48, 49, 50, 51, 52, 53, 54, 55, 56, 57, 58, 59, 60, 61, 62, 63, 64, 65, 66, 67, 68, 69, 70, 71, 72, 73, 74, 75, 76, 77, 78, 79, 80, 81, 82, 83, 84, 85, 86, 87, 88, 89, 90, 91, 92, 93, 94, 95, 96, 97, 98, 99, 100, 101, 102, 103, 104, 105, 106, 107, 108, 109, 110, 111, 112, 113, 114, 115, 116, 117, 118, 119, 120, 121, 122, 123, 124, 125, 126, 127, 128, 129, 130, 131, 132, 133, 134, 135, 136, 137, 138, 139, 140, 141, 142, 143, 144, 145, 146, 147, 148, 149, 150, 151, 152, 153, 154, 155, 156, 157, 158, 159, 160, 161, 162, 163, 164, 165, 166, 167, 168, 169, 170, 171, 172, 173, 174, 175, 176, 177, 178, 179, 180, 181, 182, 183, 184, 185, 186, 187, 188, 189, 190],
      "WindowCenter": [4800.0, 4800.0, 4804.0, 4804.0, 4802.0, 4800.0, 4802.0, 4802.0, 4804.0, 4800.0, 4804.0, 4806.0, 4802.0, 4802.0, 4778.0, 4778.0, 4804.0, 4840.0, 4868.0, 4866.0, 4830.0, 4804.0, 4806.0, 4804.0, 4802.0, 4800.0, 4778.0, 4778.0, 4802.0, 4834.0, 4880.0, 4876.0, 4838.0, 4778.0, 4782.0, 4782.0, 4800.0, 4800.0, 4828.0, 4840.0, 4834.0, 4796.0, 4798.0, 4802.0, 4800.0, 4806.0, 4802.0, 4798.0, 4800.0, 4804.0, 4800.0, 4802.0, 4804.0, 4832.0, 4806.0, 4804.0, 4802.0, 4802.0, 4804.0, 4778.0, 4804.0, 4800.0, 4800.0, 4806.0, 4798.0, 4802.0, 4830.0, 4802.0, 4798.0, 4804.0, 4804.0, 4802.0, 4806.0, 4798.0, 4802.0, 4804.0, 4804.0, 4800.0, 4804.0, 4806.0, 4804.0, 4808.0, 4804.0, 4800.0, 4804.0, 4804.0, 4802.0, 4804.0, 4798.0, 4804.0, 4804.0, 4802.0, 4800.0, 4802.0, 4802.0, 4800.0, 4804.0, 4798.0, 4802.0, 4802.0, 4804.0, 4804.0, 4806.0, 4798.0, 4802.0, 4800.0, 4804.0, 4802.0, 4806.0, 4802.0, 4798.0, 4800.0, 4804.0, 4800.0, 4796.0, 4802.0, 4802.0, 4802.0, 4798.0, 4798.0, 4798.0, 4800.0, 4800.0, 4802.0, 4798.0, 4804.0, 4802.0, 4796.0, 4800.0, 4800.0, 4804.0, 4800.0, 4802.0, 4800.0, 4802.0, 4804.0, 4802.0, 4802.0, 4804.0, 4800.0, 4802.0, 4804.0, 4806.0, 4804.0, 4804.0, 4804.0, 4804.0, 4808.0, 4808.0, 4804.0, 4800.0, 4804.0, 4802.0, 4804.0, 4802.0, 4804.0, 4802.0, 4802.0, 4806.0, 4804.0, 4804.0, 4806.0, 4800.0, 4802.0, 4802.0, 4804.0, 4802.0, 4804.0, 4796.0, 4804.0, 4798.0, 4800.0, 4800.0, 4798.0, 4804.0, 4798.0, 4802.0, 4806.0, 4804.0, 4806.0, 4806.0, 4802.0, 4804.0, 4802.0, 4802.0, 4802.0, 4808.0, 4808.0, 4806.0, 4806.0],
      "WindowWidth": [18606.0, 18598.0, 18608.0, 18604.0, 18598.0, 18598.0, 18596.0, 18596.0, 18600.0, 18604.0, 18604.0, 18606.0, 18596.0, 18604.0, 18572.0, 18570.0, 18606.0, 18640.0, 18678.0, 18678.0, 18636.0, 18602.0, 18608.0, 18610.0, 18600.0, 18602.0, 18568.0, 18574.0, 18606.0, 18642.0, 18678.0, 18684.0, 18640.0, 18566.0, 18574.0, 18576.0, 18602.0, 18602.0, 18632.0, 18642.0, 18638.0, 18594.0, 18598.0, 18604.0, 18602.0, 18600.0, 18594.0, 18594.0, 18602.0, 18602.0, 18598.0, 18608.0, 18602.0, 18636.0, 18602.0, 18602.0, 18598.0, 18604.0, 18606.0, 18568.0, 18600.0, 18600.0, 18602.0, 18602.0, 18598.0, 18606.0, 18636.0, 18602.0, 18600.0, 18600.0, 18604.0, 18596.0, 18602.0, 18590.0, 18598.0, 18600.0, 18600.0, 18594.0, 18598.0, 18600.0, 18598.0, 18600.0, 18600.0, 18590.0, 18598.0, 18602.0, 18598.0, 18598.0, 18598.0, 18600.0, 18596.0, 18602.0, 18600.0, 18598.0, 18598.0, 18598.0, 18598.0, 18594.0, 18598.0, 18602.0, 18602.0, 18600.0, 18600.0, 18596.0, 18596.0, 18594.0, 18600.0, 18596.0, 18594.0, 18596.0, 18592.0, 18598.0, 18600.0, 18596.0, 18596.0, 18602.0, 18598.0, 18602.0, 18600.0, 18596.0, 18600.0, 18598.0, 18600.0, 18598.0, 18598.0, 18602.0, 18596.0, 18594.0, 18594.0, 18596.0, 18602.0, 18596.0, 18596.0, 18596.0, 18598.0, 18594.0, 18598.0, 18598.0, 18598.0, 18594.0, 18598.0, 18596.0, 18598.0, 18590.0, 18594.0, 18598.0, 18596.0, 18596.0, 18598.0, 18592.0, 18596.0, 18596.0, 18598.0, 18594.0, 18590.0, 18600.0, 18590.0, 18594.0, 18600.0, 18596.0, 18594.0, 18594.0, 18598.0, 18596.0, 18590.0, 18598.0, 18596.0, 18592.0, 18594.0, 18600.0, 18588.0, 18594.0, 18594.0, 18592.0, 18600.0, 18592.0, 18594.0, 18600.0, 18586.0, 18596.0, 18592.0, 18594.0, 18594.0, 18592.0, 18592.0, 18586.0, 18596.0, 18594.0, 18594.0, 18592.0]
    },
    "slices": {}
  }
}