{
  "AcquisitionMatrixPE": 104,
  "AcquisitionNumber": 1,
  "AcquisitionTime": "18:09:43.455000",
  "BandwidthPerPixelPhaseEncode": 17.17,
  "BaseResolution": 104,
  "BodyPartExamined": "BRAIN",
  "CoilCombinationMethod": "Sum of Squares",
  "ConsistencyInfo": "N4_VE11C_LATEST_20160120",
  "ConversionSoftware": "dcm2niix",
  "ConversionSoftwareVersion": "v1.0.20211006",
  "DerivedVendorReportedEchoSpacing": 0.000560011,
  "DeviceSerialNumber": "167006",
  "DwellTime": 2.1e-06,
  "EchoTime": 0.037,
  "EchoTrainLength": 104,
  "EffectiveEchoSpacing": 0.000560011,
  "FlipAngle": 52,
  "HeudiconvVersion": "0.10.0",
  "ImageComments": "Unaliased MB4/PE3/LB",
  "ImageOrientationPatientDICOM": [0.996729, 0.0681795, 0.0434, -0.0466558, 0.923868, -0.379856],
  "ImageOrientationText": "Tra>Cor(-22.2)>Sag(3.8)",
  "ImageType": [
    "ORIGINAL",
    "PRIMARY",
    "M",
    "MB",
    "ND",
    "MOSAIC"
],
  "ImagingFrequency": 123.259,
  "InPlanePhaseEncodingDirectionDICOM": "COL",
  "InstitutionAddress": "Chemin Queen-Mary 4565,Montreal,District,CA,H3W 1W5",
  "InstitutionName": "IUGM",
  "InstitutionalDepartmentName": "Department",
  "MRAcquisitionType": "2D",
  "MagneticFieldStrength": 3,
  "Manufacturer": "Siemens",
  "ManufacturersModelName": "Prisma_fit",
  "MatrixCoilMode": "SENSE",
  "Modality": "MR",
  "MultibandAccelerationFactor": 4,
  "PartialFourier": 1,
  "PatientPosition": "HFS",
  "PercentPhaseFOV": 100,
  "PercentSampling": 100,
  "PhaseEncodingDirection": "j",
  "PhaseEncodingSteps": 104,
  "PhaseResolution": 1,
  "PixelBandwidth": 2290,
  "ProcedureStepDescription": "memory^things",
  "ProtocolName": "func_task-things_run-6",
  "PulseSequenceDetails": "%CustomerSeq%\\cmrr_mbep2d_bold",
  "ReceiveCoilActiveElements": "HC1-7;NC1,2",
  "ReceiveCoilName": "HeadNeck_64",
  "ReconMatrixPE": 104,
  "RepetitionTime": 1.49,
  "SAR": 0.0337727,
  "ScanOptions": "FS",
  "ScanningSequence": "EP",
  "SequenceName": "epfid2d1_104",
  "SequenceVariant": "SK\\SS",
  "SeriesDescription": "func_task-things_run-6",
  "SeriesNumber": 25,
  "ShimSetting": [636, -7194, -8840, 645, 97, 5, -41, 24],
  "SliceThickness": 2,
  "SliceTiming": [0, 0.785, 0.0975, 0.8825, 0.195, 0.98, 0.295, 1.0775, 0.3925, 1.175, 0.49, 1.275, 0.5875, 1.3725, 0.685, 0, 0.785, 0.0975, 0.8825, 0.195, 0.98, 0.295, 1.0775, 0.3925, 1.175, 0.49, 1.275, 0.5875, 1.3725, 0.685, 0, 0.785, 0.0975, 0.8825, 0.195, 0.98, 0.295, 1.0775, 0.3925, 1.175, 0.49, 1.275, 0.5875, 1.3725, 0.685, 0, 0.785, 0.0975, 0.8825, 0.195, 0.98, 0.295, 1.0775, 0.3925, 1.175, 0.49, 1.275, 0.5875, 1.3725, 0.685],
  "SoftwareVersions": "syngo MR E11",
  "SpacingBetweenSlices": 2,
  "StationName": "MRC35049",
  "TaskName": "things",
  "TotalReadoutTime": 0.0576811,
  "TxRefAmp": 236.792,
  "WipMemBlock": "7fd882c5-9d95-40c5-b5d5-4516db5df1f2||Sequence: R016 ve11c/master r/e634e98; Dec 19 2017 11:00:25 by eja",
  "dcmmeta_affine": [
    [-1.993457317352295, -0.0933116152882576, 0.1319885104894638, 107.90227508544922],
    [-0.1363590806722641, 1.8477364778518677, -0.7531772255897522, -50.459110260009766],
    [0.08679990470409393, 0.7597122192382812, 1.8480538129806519, -70.88758850097656],
    [0.0, 0.0, 0.0, 1.0]
],
  "dcmmeta_reorient_transform": [
    [0.0, -1.0, 0.0, 103.0],
    [1.0, 0.0, 0.0, 0.0],
    [0.0, 0.0, 1.0, 0.0],
    [0.0, 0.0, 0.0, 1.0]
],
  "dcmmeta_shape": [104, 104, 60, 190],
  "dcmmeta_slice_dim": 2,
  "dcmmeta_version": 0.6,
  "global": {
    "const": {
      "AcquisitionMatrix": [104, 0, 0, 104],
      "AngioFlag": "N",
      "BitsAllocated": 16,
      "BitsStored": 16,
      "BodyPartExamined": "BRAIN",
      "Columns": 832,
      "EchoNumbers": 1,
      "EchoTime": 37.0,
      "EchoTrainLength": 104,
      "FlipAngle": 52.0,
      "HighBit": 15,
      "ImageOrientationPatient": [0.9967286461397, 0.068179543211, 0.04339995221274, -0.0466558065371, 0.92386826287272, -0.3798561156187],
      "ImagePositionPatient": [-789.94420543083, -862.06855478251, 252.30286012232],
      "ImageType": [
        "ORIGINAL",
        "PRIMARY",
        "M",
        "MB",
        "ND",
        "MOSAIC"
],
      "ImagedNucleus": "1H",
      "ImagingFrequency": 123.258979,
      "InPlanePhaseEncodingDirection": "COL",
      "MRAcquisitionType": "2D",
      "MagneticFieldStrength": 3.0,
      "Manufacturer": "SIEMENS",
      "ManufacturerModelName": "Prisma_fit",
      "Modality": "MR",
      "NumberOfAverages": 1.0,
      "NumberOfPhaseEncodingSteps": 104,
      "PercentPhaseFieldOfView": 100.0,
      "PercentSampling": 100.0,
      "PerformedProcedureStepStartTime": "165231.524000",
      "PhotometricInterpretation": "MONOCHROME2",
      "PixelBandwidth": 2290.0,
      "PixelRepresentation": 0,
      "PixelSpacing": [2.0, 2.0],
      "ProtocolName": "func_task-things_run-6",
      "RepetitionTime": 1490.0,
      "Rows": 832,
      "SAR": 0.0337726543884,
      "SamplesPerPixel": 1,
      "ScanOptions": "FS",
      "ScanningSequence": "EP",
      "SequenceName": "epfid2d1_104",
      "SequenceVariant": [
        "SK",
        "SS"
],
      "SeriesDescription": "func_task-things_run-6",
      "SeriesNumber": 25,
      "SeriesTime": "181115.108000",
      "SliceLocation": -39.378782912035,
      "SliceThickness": 2.0,
      "SmallestImagePixelValue": 0,
      "SoftwareVersions": "syngo MR E11",
      "SpacingBetweenSlices": 1.9999999711374,
      "SpecificCharacterSet": "ISO_IR 100",
      "StudyID": "1",
      "StudyTime": "165231.426000",
      "TransmitCoilName": "Body",
      "VariableFlipAngleFlag": "N",
      "WindowCenterWidthExplanation": "Algo1",
      "dBdt": 0.0},
    "slices": {}
  },
  "time": {
    "samples": {
      "AcquisitionNumber": [1, 2, 3, 4, 5, 6, 7, 8, 9, 10, 11, 12, 13, 14, 15, 16, 17, 18, 19, 20, 21, 22, 23, 24, 25, 26, 27, 28, 29, 30, 31, 32, 33, 34, 35, 36, 37, 38, 39, 40, 41, 42, 43, 44, 45, 46, 47, 48, 49, 50, 51, 52, 53, 54, 55, 56, 57, 58, 59, 60, 61, 62, 63, 64, 65, 66, 67, 68, 69, 70, 71, 72, 73, 74, 75, 76, 77, 78, 79, 80, 81, 82, 83, 84, 85, 86, 87, 88, 89, 90, 91, 92, 93, 94, 95, 96, 97, 98, 99, 100, 101, 102, 103, 104, 105, 106, 107, 108, 109, 110, 111, 112, 113, 114, 115, 116, 117, 118, 119, 120, 121, 122, 123, 124, 125, 126, 127, 128, 129, 130, 131, 132, 133, 134, 135, 136, 137, 138, 139, 140, 141, 142, 143, 144, 145, 146, 147, 148, 149, 150, 151, 152, 153, 154, 155, 156, 157, 158, 159, 160, 161, 162, 163, 164, 165, 166, 167, 168, 169, 170, 171, 172, 173, 174, 175, 176, 177, 178, 179, 180, 181, 182, 183, 184, 185, 186, 187, 188, 189, 190],
      "AcquisitionTime": ["180943.455000", "180944.945000", "180946.435000", "180947.925000", "180949.415000", "180950.905000", "180952.395000", "180953.885000", "180955.375000", "180956.865000", "180958.355000", "180959.845000", "181001.335000", "181002.825000", "181004.315000", "181005.805000", "181007.295000", "181008.785000", "181010.275000", "181011.765000", "181013.255000", "181014.745000", "181016.235000", "181017.725000", "181019.215000", "181020.705000", "181022.195000", "181023.685000", "181025.175000", "181026.665000", "181028.155000", "181029.645000", "181031.135000", "181032.625000", "181034.115000", "181035.605000", "181037.095000", "181038.585000", "181040.075000", "181041.565000", "181043.055000", "181044.545000", "181046.035000", "181047.525000", "181049.015000", "181050.505000", "181051.995000", "181053.485000", "181054.975000", "181056.465000", "181057.955000", "181059.445000", "181100.935000", "181102.425000", "181103.915000", "181105.405000", "181106.895000", "181108.385000", "181109.875000", "181111.365000", "181112.855000", "181114.345000", "181115.835000", "181117.325000", "181118.815000", "181120.305000", "181121.795000", "181123.285000", "181124.775000", "181126.265000", "181127.755000", "181129.245000", "181130.735000", "181132.225000", "181133.715000", "181135.205000", "181136.695000", "181138.185000", "181139.675000", "181141.165000", "181142.655000", "181144.145000", "181145.635000", "181147.125000", "181148.615000", "181150.105000", "181151.595000", "181153.085000", "181154.575000", "181156.065000", "181157.555000", "181159.045000", "181200.535000", "181202.025000", "181203.515000", "181205.005000", "181206.495000", "181207.985000", "181209.475000", "181210.965000", "181212.455000", "181213.945000", "181215.435000", "181216.925000", "181218.415000", "181219.905000", "181221.395000", "181222.885000", "181224.375000", "181225.865000", "181227.355000", "181228.845000", "181230.335000", "181231.825000", "181233.315000", "181234.805000", "181236.295000", "181237.785000", "181239.275000", "181240.765000", "181242.255000", "181243.745000", "181245.235000", "181246.725000", "181248.215000", "181249.705000", "181251.195000", "181252.685000", "181254.175000", "181255.665000", "181257.155000", "181258.645000", "181300.135000", "181301.625000", "181303.115000", "181304.605000", "181306.095000", "181307.585000", "181309.075000", "181310.565000", "181312.055000", "181313.545000", "181315.035000", "181316.525000", "181318.015000", "181319.505000", "181320.995000", "181322.485000", "181323.975000", "181325.465000", "181326.955000", "181328.445000", "181329.935000", "181331.425000", "181332.915000", "181334.405000", "181335.895000", "181337.385000", "181338.875000", "181340.365000", "181341.855000", "181343.345000", "181344.835000", "181346.325000", "181347.815000", "181349.305000", "181350.795000", "181352.285000", "181353.775000", "181355.265000", "181356.755000", "181358.245000", "181359.735000", "181401.225000", "181402.715000", "181404.205000", "181405.695000", "181407.185000", "181408.675000", "181410.165000", "181411.655000", "181413.145000", "181414.635000", "181416.125000", "181417.615000", "181419.105000", "181420.595000", "181422.085000", "181423.575000", "181425.065000"],
      "ContentTime": ["181115.111000", "181115.115000", "181115.118000", "181115.121000", "181115.125000", "181115.128000", "181115.132000", "181115.135000", "181115.138000", "181115.142000", "181115.145000", "181115.148000", "181115.151000", "181115.155000", "181115.158000", "181115.161000", "181115.165000", "181115.168000", "181115.171000", "181115.174000", "181115.178000", "181115.181000", "181115.184000", "181115.192000", "181115.196000", "181115.199000", "181115.202000", "181115.205000", "181115.209000", "181115.212000", "181115.215000", "181115.219000", "181115.222000", "181115.225000", "181115.228000", "181115.232000", "181115.235000", "181115.238000", "181115.242000", "181135.075000", "181135.079000", "181135.082000", "181135.085000", "181135.089000", "181135.092000", "181135.095000", "181135.099000", "181135.102000", "181135.105000", "181135.109000", "181135.112000", "181135.115000", "181135.118000", "181135.122000", "181135.125000", "181135.128000", "181135.132000", "181135.135000", "181135.138000", "181155.076000", "181155.080000", "181155.083000", "181155.086000", "181155.089000", "181155.093000", "181155.096000", "181155.099000", "181155.103000", "181155.106000", "181155.109000", "181155.113000", "181155.116000", "181155.119000", "181155.122000", "181155.126000", "181155.129000", "181155.132000", "181155.135000", "181155.139000", "181215.076000", "181215.079000", "181215.083000", "181215.093000", "181215.096000", "181215.100000", "181215.103000", "181215.123000", "181215.126000", "181215.129000", "181215.132000", "181215.145000", "181215.148000", "181215.152000", "181215.155000", "181215.158000", "181215.162000", "181215.165000", "181215.168000", "181215.171000", "181215.175000", "181235.076000", "181235.080000", "181235.083000", "181235.086000", "181235.090000", "181235.093000", "181235.096000", "181235.099000", "181235.103000", "181235.106000", "181235.109000", "181235.112000", "181235.116000", "181235.119000", "181315.075000", "181315.079000", "181315.082000", "181315.085000", "181315.089000", "181315.092000", "181315.095000", "181315.099000", "181315.102000", "181315.105000", "181315.109000", "181315.112000", "181315.115000", "181315.119000", "181315.122000", "181315.125000", "181315.128000", "181315.132000", "181315.135000", "181315.138000", "181315.142000", "181315.145000", "181315.148000", "181315.151000", "181315.155000", "181315.158000", "181315.161000", "181355.075000", "181355.079000", "181355.082000", "181355.086000", "181355.089000", "181355.092000", "181355.095000", "181355.099000", "181355.102000", "181355.105000", "181355.109000", "181355.113000", "181355.116000", "181355.119000", "181355.122000", "181355.126000", "181355.129000", "181355.132000", "181355.136000", "181355.139000", "181355.142000", "181355.145000", "181355.149000", "181355.152000", "181355.155000", "181355.158000", "181355.161000", "181426.927000", "181426.931000", "181426.934000", "181426.937000", "181426.940000", "181426.944000", "181426.947000", "181426.950000", "181426.954000", "181426.957000", "181426.960000", "181426.963000", "181426.967000", "181426.970000", "181426.973000", "181426.976000", "181426.980000", "181426.983000", "181426.986000", "181426.989000", "181427.019000", "181427.023000"],
      "InstanceCreationTime": ["181115.111000", "181115.115000", "181115.118000", "181115.121000", "181115.125000", "181115.128000", "181115.132000", "181115.135000", "181115.138000", "181115.142000", "181115.145000", "181115.148000", "181115.151000", "181115.155000", "181115.158000", "181115.161000", "181115.165000", "181115.168000", "181115.171000", "181115.174000", "181115.178000", "181115.181000", "181115.184000", "181115.192000", "181115.196000", "181115.199000", "181115.202000", "181115.205000", "181115.209000", "181115.212000", "181115.215000", "181115.219000", "181115.222000", "181115.225000", "181115.228000", "181115.232000", "181115.235000", "181115.238000", "181115.242000", "181135.075000", "181135.079000", "181135.082000", "181135.085000", "181135.089000", "181135.092000", "181135.095000", "181135.099000", "181135.102000", "181135.105000", "181135.109000", "181135.112000", "181135.115000", "181135.118000", "181135.122000", "181135.125000", "181135.128000", "181135.132000", "181135.135000", "181135.138000", "181155.076000", "181155.080000", "181155.083000", "181155.086000", "181155.089000", "181155.093000", "181155.096000", "181155.099000", "181155.103000", "181155.106000", "181155.109000", "181155.113000", "181155.116000", "181155.119000", "181155.122000", "181155.126000", "181155.129000", "181155.132000", "181155.135000", "181155.139000", "181215.076000", "181215.079000", "181215.083000", "181215.093000", "181215.096000", "181215.100000", "181215.103000", "181215.123000", "181215.126000", "181215.129000", "181215.132000", "181215.145000", "181215.148000", "181215.152000", "181215.155000", "181215.158000", "181215.162000", "181215.165000", "181215.168000", "181215.171000", "181215.175000", "181235.076000", "181235.080000", "181235.083000", "181235.086000", "181235.090000", "181235.093000", "181235.096000", "181235.099000", "181235.103000", "181235.106000", "181235.109000", "181235.112000", "181235.116000", "181235.119000", "181315.075000", "181315.079000", "181315.082000", "181315.085000", "181315.089000", "181315.092000", "181315.095000", "181315.099000", "181315.102000", "181315.105000", "181315.109000", "181315.112000", "181315.115000", "181315.119000", "181315.122000", "181315.125000", "181315.128000", "181315.132000", "181315.135000", "181315.138000", "181315.142000", "181315.145000", "181315.148000", "181315.151000", "181315.155000", "181315.158000", "181315.161000", "181355.075000", "181355.079000", "181355.082000", "181355.086000", "181355.089000", "181355.092000", "181355.095000", "181355.099000", "181355.102000", "181355.105000", "181355.109000", "181355.113000", "181355.116000", "181355.119000", "181355.122000", "181355.126000", "181355.129000", "181355.132000", "181355.136000", "181355.139000", "181355.142000", "181355.145000", "181355.149000", "181355.152000", "181355.155000", "181355.158000", "181355.161000", "181426.927000", "181426.931000", "181426.934000", "181426.937000", "181426.940000", "181426.944000", "181426.947000", "181426.950000", "181426.954000", "181426.957000", "181426.960000", "181426.963000", "181426.967000", "181426.970000", "181426.973000", "181426.976000", "181426.980000", "181426.983000", "181426.986000", "181426.989000", "181427.019000", "181427.023000"],
      "InstanceNumber": [1, 2, 3, 4, 5, 6, 7, 8, 9, 10, 11, 12, 13, 14, 15, 16, 17, 18, 19, 20, 21, 22, 23, 24, 25, 26, 27, 28, 29, 30, 31, 32, 33, 34, 35, 36, 37, 38, 39, 40, 41, 42, 43, 44, 45, 46, 47, 48, 49, 50, 51, 52, 53, 54, 55, 56, 57, 58, 59, 60, 61, 62, 63, 64, 65, 66, 67, 68, 69, 70, 71, 72, 73, 74, 75, 76, 77, 78, 79, 80, 81, 82, 83, 84, 85, 86, 87, 88, 89, 90, 91, 92, 93, 94, 95, 96, 97, 98, 99, 100, 101, 102, 103, 104, 105, 106, 107, 108, 109, 110, 111, 112, 113, 114, 115, 116, 117, 118, 119, 120, 121, 122, 123, 124, 125, 126, 127, 128, 129, 130, 131, 132, 133, 134, 135, 136, 137, 138, 139, 140, 141, 142, 143, 144, 145, 146, 147, 148, 149, 150, 151, 152, 153, 154, 155, 156, 157, 158, 159, 160, 161, 162, 163, 164, 165, 166, 167, 168, 169, 170, 171, 172, 173, 174, 175, 176, 177, 178, 179, 180, 181, 182, 183, 184, 185, 186, 187, 188, 189, 190],
      "LargestImagePixelValue": [41289, 43788, 40455, 41843, 39847, 39960, 39468, 39838, 39954, 42752, 42678, 42344, 41495, 42711, 39745, 39539, 39884, 40089, 39723, 40586, 40267, 39484, 40095, 40083, 39269, 40710, 41073, 40862, 41453, 41093, 41334, 42558, 42130, 42476, 41612, 40800, 42201, 42210, 42555, 42640, 42356, 42311, 41557, 42397, 42431, 42802, 41605, 42249, 42392, 42259, 42155, 42475, 42354, 42137, 41379, 42492, 41793, 42454, 43735, 43074, 42626, 42676, 42098, 41942, 42214, 42344, 42286, 42706, 43743, 42444, 42534, 42560, 42489, 42109, 42498, 42096, 41951, 42886, 42781, 44107, 43447, 43055, 43043, 43627, 43158, 42726, 42173, 42649, 42336, 42412, 42899, 42080, 40133, 41473, 40463, 41548, 41019, 40616, 41102, 41068, 38746, 39159, 40004, 41102, 39882, 39524, 40370, 40310, 40334, 40290, 39980, 40101, 43793, 40733, 40563, 39289, 42140, 43791, 42057, 39021, 43716, 38936, 40142, 40081, 39961, 40616, 39944, 39147, 40396, 40949, 41453, 41452, 39757, 41601, 41498, 47401, 39856, 39334, 40352, 40662, 39356, 39528, 39782, 39488, 40300, 39668, 39788, 39888, 38802, 39188, 41155, 44163, 40223, 41552, 40097, 39911, 39843, 40724, 41117, 39788, 40264, 40124, 41133, 39611, 40574, 40015, 39968, 39302, 42619, 39586, 39983, 43075, 40306, 39047, 42731, 40920, 39644, 40435, 38876, 39699, 40182, 40761, 40389, 40744, 42156, 40141, 39779, 39218, 41494, 43955],
      "WindowCenter": [10433.0, 10428.0, 10383.0, 10410.0, 10421.0, 10439.0, 10429.0, 10416.0, 10414.0, 10435.0, 10436.0, 10429.0, 10398.0, 10393.0, 10368.0, 10377.0, 10409.0, 10429.0, 10424.0, 10427.0, 10417.0, 10422.0, 10421.0, 10409.0, 10408.0, 10447.0, 10441.0, 10424.0, 10420.0, 10412.0, 10426.0, 10454.0, 10434.0, 10438.0, 10441.0, 10447.0, 10452.0, 10432.0, 10428.0, 10435.0, 10445.0, 10456.0, 10454.0, 10467.0, 10467.0, 10466.0, 10447.0, 10468.0, 10461.0, 10462.0, 10465.0, 10457.0, 10457.0, 10455.0, 10456.0, 10466.0, 10453.0, 10454.0, 10468.0, 10469.0, 10467.0, 10458.0, 10446.0, 10444.0, 10440.0, 10438.0, 10456.0, 10456.0, 10481.0, 10463.0, 10455.0, 10455.0, 10448.0, 10438.0, 10438.0, 10434.0, 10428.0, 10428.0, 10435.0, 10459.0, 10467.0, 10479.0, 10478.0, 10469.0, 10469.0, 10463.0, 10440.0, 10438.0, 10432.0, 10445.0, 10450.0, 10437.0, 10418.0, 10426.0, 10415.0, 10439.0, 10428.0, 10427.0, 10427.0, 10419.0, 10389.0, 10389.0, 10399.0, 10405.0, 10396.0, 10416.0, 10441.0, 10453.0, 10438.0, 10419.0, 10399.0, 10375.0, 10417.0, 10397.0, 10402.0, 10391.0, 10472.0, 10472.0, 10444.0, 10404.0, 10427.0, 10374.0, 10375.0, 10393.0, 10431.0, 10463.0, 10446.0, 10419.0, 10403.0, 10376.0, 10384.0, 10392.0, 10390.0, 10418.0, 10427.0, 10495.0, 10444.0, 10419.0, 10408.0, 10402.0, 10379.0, 10379.0, 10377.0, 10377.0, 10406.0, 10412.0, 10415.0, 10423.0, 10400.0, 10378.0, 10331.0, 10397.0, 10371.0, 10402.0, 10426.0, 10420.0, 10406.0, 10392.0, 10379.0, 10366.0, 10380.0, 10392.0, 10415.0, 10407.0, 10404.0, 10387.0, 10371.0, 10369.0, 10387.0, 10370.0, 10373.0, 10399.0, 10383.0, 10392.0, 10450.0, 10427.0, 10386.0, 10381.0, 10345.0, 10351.0, 10356.0, 10362.0, 10374.0, 10400.0, 10425.0, 10409.0, 10388.0, 10362.0, 10369.0, 10381.0],
      "WindowWidth": [22172.0, 22141.0, 22038.0, 22085.0, 22118.0, 22160.0, 22141.0, 22107.0, 22097.0, 22132.0, 22133.0, 22114.0, 22042.0, 22037.0, 21987.0, 22013.0, 22084.0, 22131.0, 22122.0, 22128.0, 22102.0, 22121.0, 22115.0, 22082.0, 22091.0, 22179.0, 22156.0, 22118.0, 22110.0, 22089.0, 22121.0, 22185.0, 22136.0, 22141.0, 22153.0, 22171.0, 22185.0, 22126.0, 22115.0, 22143.0, 22167.0, 22188.0, 22190.0, 22223.0, 22218.0, 22210.0, 22172.0, 22226.0, 22200.0, 22213.0, 22213.0, 22190.0, 22189.0, 22183.0, 22193.0, 22209.0, 22187.0, 22177.0, 22212.0, 22218.0, 22221.0, 22190.0, 22158.0, 22168.0, 22152.0, 22146.0, 22189.0, 22183.0, 22236.0, 22199.0, 22178.0, 22179.0, 22163.0, 22142.0, 22143.0, 22128.0, 22118.0, 22114.0, 22137.0, 22178.0, 22204.0, 22248.0, 22228.0, 22210.0, 22212.0, 22201.0, 22154.0, 22138.0, 22129.0, 22159.0, 22164.0, 22137.0, 22104.0, 22112.0, 22103.0, 22146.0, 22121.0, 22120.0, 22121.0, 22099.0, 22041.0, 22051.0, 22067.0, 22072.0, 22051.0, 22098.0, 22152.0, 22182.0, 22147.0, 22099.0, 22056.0, 22003.0, 22097.0, 22047.0, 22065.0, 22060.0, 22225.0, 22215.0, 22164.0, 22081.0, 22116.0, 22012.0, 22009.0, 22045.0, 22135.0, 22201.0, 22165.0, 22109.0, 22059.0, 21993.0, 22011.0, 22044.0, 22051.0, 22094.0, 22117.0, 22261.0, 22168.0, 22109.0, 22078.0, 22059.0, 22011.0, 22019.0, 22013.0, 22010.0, 22066.0, 22084.0, 22091.0, 22105.0, 22065.0, 22014.0, 21892.0, 22034.0, 21983.0, 22053.0, 22117.0, 22097.0, 22075.0, 22036.0, 21999.0, 21978.0, 22017.0, 22042.0, 22091.0, 22079.0, 22069.0, 22028.0, 21989.0, 21993.0, 22023.0, 21998.0, 21992.0, 22037.0, 22015.0, 22039.0, 22163.0, 22112.0, 22012.0, 22004.0, 21923.0, 21933.0, 21953.0, 21974.0, 21993.0, 22056.0, 22107.0, 22084.0, 22039.0, 21983.0, 21981.0, 21995.0]
    },
    "slices": {}
  }
}