{
  "AcquisitionMatrixPE": 104,
  "AcquisitionNumber": 1,
  "AcquisitionTime": "17:53:28.452500",
  "BandwidthPerPixelPhaseEncode": 17.17,
  "BaseResolution": 104,
  "BodyPartExamined": "BRAIN",
  "CoilCombinationMethod": "Sum of Squares",
  "ConsistencyInfo": "N4_VE11C_LATEST_20160120",
  "ConversionSoftware": "dcm2niix",
  "ConversionSoftwareVersion": "v1.0.20211006",
  "DerivedVendorReportedEchoSpacing": 0.000560011,
  "DeviceSerialNumber": "167006",
  "DwellTime": 2.1e-06,
  "EchoTime": 0.037,
  "EchoTrainLength": 104,
  "EffectiveEchoSpacing": 0.000560011,
  "FlipAngle": 52,
  "HeudiconvVersion": "0.10.0",
  "ImageComments": "Unaliased MB4/PE3/LB",
  "ImageOrientationPatientDICOM": [0.996729, 0.0681795, 0.0434, -0.0466558, 0.923868, -0.379856],
  "ImageOrientationText": "Tra>Cor(-22.2)>Sag(3.8)",
  "ImageType": [
    "ORIGINAL",
    "PRIMARY",
    "M",
    "MB",
    "ND",
    "MOSAIC"
],
  "ImagingFrequency": 123.259,
  "InPlanePhaseEncodingDirectionDICOM": "COL",
  "InstitutionAddress": "Chemin Queen-Mary 4565,Montreal,District,CA,H3W 1W5",
  "InstitutionName": "IUGM",
  "InstitutionalDepartmentName": "Department",
  "MRAcquisitionType": "2D",
  "MagneticFieldStrength": 3,
  "Manufacturer": "Siemens",
  "ManufacturersModelName": "Prisma_fit",
  "MatrixCoilMode": "SENSE",
  "Modality": "MR",
  "MultibandAccelerationFactor": 4,
  "PartialFourier": 1,
  "PatientPosition": "HFS",
  "PercentPhaseFOV": 100,
  "PercentSampling": 100,
  "PhaseEncodingDirection": "j",
  "PhaseEncodingSteps": 104,
  "PhaseResolution": 1,
  "PixelBandwidth": 2290,
  "ProcedureStepDescription": "memory^things",
  "ProtocolName": "func_task-things_run-3",
  "PulseSequenceDetails": "%CustomerSeq%\\cmrr_mbep2d_bold",
  "ReceiveCoilActiveElements": "HC1-7;NC1,2",
  "ReceiveCoilName": "HeadNeck_64",
  "ReconMatrixPE": 104,
  "RepetitionTime": 1.49,
  "SAR": 0.0337727,
  "ScanOptions": "FS",
  "ScanningSequence": "EP",
  "SequenceName": "epfid2d1_104",
  "SequenceVariant": "SK\\SS",
  "SeriesDescription": "func_task-things_run-3",
  "SeriesNumber": 16,
  "ShimSetting": [636, -7194, -8840, 645, 97, 5, -41, 24],
  "SliceThickness": 2,
  "SliceTiming": [0, 0.785, 0.0975, 0.8825, 0.1975, 0.98, 0.295, 1.0775, 0.3925, 1.1775, 0.49, 1.275, 0.5875, 1.3725, 0.6875, 0, 0.785, 0.0975, 0.8825, 0.1975, 0.98, 0.295, 1.0775, 0.3925, 1.1775, 0.49, 1.275, 0.5875, 1.3725, 0.6875, 0, 0.785, 0.0975, 0.8825, 0.1975, 0.98, 0.295, 1.0775, 0.3925, 1.1775, 0.49, 1.275, 0.5875, 1.3725, 0.6875, 0, 0.785, 0.0975, 0.8825, 0.1975, 0.98, 0.295, 1.0775, 0.3925, 1.1775, 0.49, 1.275, 0.5875, 1.3725, 0.6875],
  "SoftwareVersions": "syngo MR E11",
  "SpacingBetweenSlices": 2,
  "StationName": "MRC35049",
  "TaskName": "things",
  "TotalReadoutTime": 0.0576811,
  "TxRefAmp": 236.792,
  "WipMemBlock": "c0666d57-0bbf-44d0-8070-7637d2c3c23b||Sequence: R016 ve11c/master r/e634e98; Dec 19 2017 11:00:25 by eja",
  "dcmmeta_affine": [
    [-1.993457317352295, -0.0933116152882576, 0.1319885104894638, 107.90227508544922],
    [-0.1363590806722641, 1.8477364778518677, -0.7531772255897522, -50.459110260009766],
    [0.08679990470409393, 0.7597122192382812, 1.8480538129806519, -70.88758850097656],
    [0.0, 0.0, 0.0, 1.0]
],
  "dcmmeta_reorient_transform": [
    [0.0, -1.0, 0.0, 103.0],
    [1.0, 0.0, 0.0, 0.0],
    [0.0, 0.0, 1.0, 0.0],
    [0.0, 0.0, 0.0, 1.0]
],
  "dcmmeta_shape": [104, 104, 60, 190],
  "dcmmeta_slice_dim": 2,
  "dcmmeta_version": 0.6,
  "global": {
    "const": {
      "AcquisitionMatrix": [104, 0, 0, 104],
      "AngioFlag": "N",
      "BitsAllocated": 16,
      "BitsStored": 16,
      "BodyPartExamined": "BRAIN",
      "Columns": 832,
      "EchoNumbers": 1,
      "EchoTime": 37.0,
      "EchoTrainLength": 104,
      "FlipAngle": 52.0,
      "HighBit": 15,
      "ImageOrientationPatient": [0.9967286461397, 0.068179543211, 0.04339995221274, -0.0466558065371, 0.92386826287272, -0.3798561156187],
      "ImagePositionPatient": [-789.94420543083, -862.06855478251, 252.30286012232],
      "ImageType": [
        "ORIGINAL",
        "PRIMARY",
        "M",
        "MB",
        "ND",
        "MOSAIC"
],
      "ImagedNucleus": "1H",
      "ImagingFrequency": 123.25897,
      "InPlanePhaseEncodingDirection": "COL",
      "MRAcquisitionType": "2D",
      "MagneticFieldStrength": 3.0,
      "Manufacturer": "SIEMENS",
      "ManufacturerModelName": "Prisma_fit",
      "Modality": "MR",
      "NumberOfAverages": 1.0,
      "NumberOfPhaseEncodingSteps": 104,
      "PercentPhaseFieldOfView": 100.0,
      "PercentSampling": 100.0,
      "PerformedProcedureStepStartTime": "165231.524000",
      "PhotometricInterpretation": "MONOCHROME2",
      "PixelBandwidth": 2290.0,
      "PixelRepresentation": 0,
      "PixelSpacing": [2.0, 2.0],
      "ProtocolName": "func_task-things_run-3",
      "RepetitionTime": 1490.0,
      "Rows": 832,
      "SAR": 0.0337726543884,
      "SamplesPerPixel": 1,
      "ScanOptions": "FS",
      "ScanningSequence": "EP",
      "SequenceName": "epfid2d1_104",
      "SequenceVariant": [
        "SK",
        "SS"
],
      "SeriesDescription": "func_task-things_run-3",
      "SeriesNumber": 16,
      "SeriesTime": "175455.119000",
      "SliceLocation": -39.378782912035,
      "SliceThickness": 2.0,
      "SmallestImagePixelValue": 0,
      "SoftwareVersions": "syngo MR E11",
      "SpacingBetweenSlices": 1.9999999711374,
      "SpecificCharacterSet": "ISO_IR 100",
      "StudyID": "1",
      "StudyTime": "165231.426000",
      "TransmitCoilName": "Body",
      "VariableFlipAngleFlag": "N",
      "WindowCenterWidthExplanation": "Algo1",
      "dBdt": 0.0},
    "slices": {}
  },
  "time": {
    "samples": {
      "AcquisitionNumber": [1, 2, 3, 4, 5, 6, 7, 8, 9, 10, 11, 12, 13, 14, 15, 16, 17, 18, 19, 20, 21, 22, 23, 24, 25, 26, 27, 28, 29, 30, 31, 32, 33, 34, 35, 36, 37, 38, 39, 40, 41, 42, 43, 44, 45, 46, 47, 48, 49, 50, 51, 52, 53, 54, 55, 56, 57, 58, 59, 60, 61, 62, 63, 64, 65, 66, 67, 68, 69, 70, 71, 72, 73, 74, 75, 76, 77, 78, 79, 80, 81, 82, 83, 84, 85, 86, 87, 88, 89, 90, 91, 92, 93, 94, 95, 96, 97, 98, 99, 100, 101, 102, 103, 104, 105, 106, 107, 108, 109, 110, 111, 112, 113, 114, 115, 116, 117, 118, 119, 120, 121, 122, 123, 124, 125, 126, 127, 128, 129, 130, 131, 132, 133, 134, 135, 136, 137, 138, 139, 140, 141, 142, 143, 144, 145, 146, 147, 148, 149, 150, 151, 152, 153, 154, 155, 156, 157, 158, 159, 160, 161, 162, 163, 164, 165, 166, 167, 168, 169, 170, 171, 172, 173, 174, 175, 176, 177, 178, 179, 180, 181, 182, 183, 184, 185, 186, 187, 188, 189, 190],
      "AcquisitionTime": ["175328.452500", "175329.942500", "175331.432500", "175332.922500", "175334.412500", "175335.902500", "175337.392500", "175338.882500", "175340.372500", "175341.862500", "175343.352500", "175344.842500", "175346.332500", "175347.822500", "175349.312500", "175350.802500", "175352.292500", "175353.782500", "175355.272500", "175356.762500", "175358.252500", "175359.742500", "175401.232500", "175402.722500", "175404.212500", "175405.702500", "175407.192500", "175408.682500", "175410.172500", "175411.662500", "175413.152500", "175414.642500", "175416.132500", "175417.622500", "175419.112500", "175420.602500", "175422.092500", "175423.582500", "175425.072500", "175426.562500", "175428.052500", "175429.542500", "175431.032500", "175432.522500", "175434.012500", "175435.502500", "175436.992500", "175438.482500", "175439.972500", "175441.462500", "175442.952500", "175444.442500", "175445.932500", "175447.422500", "175448.912500", "175450.402500", "175451.892500", "175453.382500", "175454.872500", "175456.362500", "175457.852500", "175459.342500", "175500.832500", "175502.322500", "175503.812500", "175505.302500", "175506.792500", "175508.282500", "175509.772500", "175511.262500", "175512.752500", "175514.242500", "175515.732500", "175517.222500", "175518.712500", "175520.202500", "175521.692500", "175523.182500", "175524.672500", "175526.162500", "175527.652500", "175529.142500", "175530.632500", "175532.122500", "175533.612500", "175535.102500", "175536.592500", "175538.082500", "175539.572500", "175541.062500", "175542.552500", "175544.042500", "175545.532500", "175547.022500", "175548.512500", "175550.002500", "175551.492500", "175552.982500", "175554.472500", "175555.962500", "175557.452500", "175558.942500", "175600.432500", "175601.922500", "175603.412500", "175604.902500", "175606.392500", "175607.882500", "175609.372500", "175610.862500", "175612.352500", "175613.842500", "175615.332500", "175616.822500", "175618.312500", "175619.802500", "175621.292500", "175622.782500", "175624.272500", "175625.762500", "175627.252500", "175628.742500", "175630.232500", "175631.722500", "175633.212500", "175634.702500", "175636.192500", "175637.682500", "175639.172500", "175640.662500", "175642.152500", "175643.642500", "175645.132500", "175646.622500", "175648.112500", "175649.602500", "175651.092500", "175652.582500", "175654.072500", "175655.562500", "175657.052500", "175658.542500", "175700.032500", "175701.522500", "175703.012500", "175704.502500", "175705.992500", "175707.482500", "175708.972500", "175710.462500", "175711.952500", "175713.442500", "175714.932500", "175716.422500", "175717.912500", "175719.402500", "175720.892500", "175722.382500", "175723.872500", "175725.362500", "175726.852500", "175728.342500", "175729.832500", "175731.322500", "175732.812500", "175734.302500", "175735.792500", "175737.282500", "175738.772500", "175740.262500", "175741.752500", "175743.242500", "175744.732500", "175746.222500", "175747.712500", "175749.202500", "175750.692500", "175752.182500", "175753.672500", "175755.162500", "175756.652500", "175758.142500", "175759.632500", "175801.122500", "175802.612500", "175804.102500", "175805.592500", "175807.082500", "175808.572500", "175810.062500"],
      "ContentTime": ["175455.122000", "175455.125000", "175455.129000", "175455.132000", "175455.135000", "175455.138000", "175455.142000", "175455.145000", "175455.148000", "175455.151000", "175455.155000", "175455.158000", "175455.161000", "175455.164000", "175455.167000", "175455.171000", "175455.174000", "175455.177000", "175455.180000", "175455.183000", "175455.187000", "175455.190000", "175455.193000", "175455.197000", "175455.200000", "175455.203000", "175455.207000", "175455.210000", "175455.214000", "175455.217000", "175455.220000", "175455.223000", "175455.227000", "175455.230000", "175515.075000", "175515.079000", "175515.082000", "175515.085000", "175515.088000", "175515.092000", "175515.095000", "175515.098000", "175515.101000", "175515.105000", "175515.108000", "175515.111000", "175515.114000", "175515.118000", "175515.121000", "175515.124000", "175515.127000", "175515.131000", "175515.134000", "175515.137000", "175515.140000", "175535.076000", "175535.083000", "175535.086000", "175535.090000", "175535.093000", "175535.096000", "175535.099000", "175535.103000", "175535.106000", "175535.109000", "175535.112000", "175535.116000", "175535.124000", "175535.128000", "175535.131000", "175535.134000", "175535.138000", "175535.141000", "175535.144000", "175535.147000", "175555.076000", "175555.080000", "175555.083000", "175555.086000", "175555.090000", "175555.093000", "175555.096000", "175555.099000", "175555.103000", "175555.106000", "175555.109000", "175555.112000", "175555.116000", "175555.119000", "175555.122000", "175555.125000", "175555.129000", "175555.132000", "175555.135000", "175555.139000", "175635.076000", "175635.080000", "175635.083000", "175635.086000", "175635.090000", "175635.093000", "175635.096000", "175635.100000", "175635.103000", "175635.106000", "175635.109000", "175635.112000", "175635.116000", "175635.119000", "175635.122000", "175635.126000", "175635.129000", "175635.132000", "175635.135000", "175635.139000", "175635.142000", "175635.145000", "175635.148000", "175635.152000", "175635.155000", "175635.158000", "175635.161000", "175635.165000", "175635.170000", "175715.075000", "175715.079000", "175715.082000", "175715.085000", "175715.089000", "175715.092000", "175715.095000", "175715.098000", "175715.102000", "175715.105000", "175715.108000", "175715.111000", "175715.115000", "175715.118000", "175715.121000", "175715.124000", "175715.128000", "175715.131000", "175715.134000", "175715.137000", "175715.141000", "175715.144000", "175715.147000", "175715.151000", "175715.154000", "175715.157000", "175715.160000", "175755.076000", "175755.080000", "175755.083000", "175755.087000", "175755.090000", "175755.093000", "175755.096000", "175755.099000", "175755.103000", "175755.106000", "175755.109000", "175755.112000", "175755.116000", "175755.119000", "175755.122000", "175755.125000", "175755.143000", "175755.147000", "175755.150000", "175755.153000", "175755.156000", "175755.160000", "175755.163000", "175755.166000", "175755.169000", "175755.173000", "175755.176000", "175812.079000", "175812.083000", "175812.086000", "175812.089000", "175812.093000", "175812.096000", "175812.099000", "175812.102000", "175812.106000", "175812.109000", "175812.112000", "175812.115000"],
      "InstanceCreationTime": ["175455.122000", "175455.125000", "175455.129000", "175455.132000", "175455.135000", "175455.138000", "175455.142000", "175455.145000", "175455.148000", "175455.151000", "175455.155000", "175455.158000", "175455.161000", "175455.164000", "175455.167000", "175455.171000", "175455.174000", "175455.177000", "175455.180000", "175455.183000", "175455.187000", "175455.190000", "175455.193000", "175455.197000", "175455.200000", "175455.203000", "175455.207000", "175455.210000", "175455.214000", "175455.217000", "175455.220000", "175455.223000", "175455.227000", "175455.230000", "175515.075000", "175515.079000", "175515.082000", "175515.085000", "175515.088000", "175515.092000", "175515.095000", "175515.098000", "175515.101000", "175515.105000", "175515.108000", "175515.111000", "175515.114000", "175515.118000", "175515.121000", "175515.124000", "175515.127000", "175515.131000", "175515.134000", "175515.137000", "175515.140000", "175535.076000", "175535.083000", "175535.086000", "175535.090000", "175535.093000", "175535.096000", "175535.099000", "175535.103000", "175535.106000", "175535.109000", "175535.112000", "175535.116000", "175535.124000", "175535.128000", "175535.131000", "175535.134000", "175535.138000", "175535.141000", "175535.144000", "175535.147000", "175555.076000", "175555.080000", "175555.083000", "175555.086000", "175555.090000", "175555.093000", "175555.096000", "175555.099000", "175555.103000", "175555.106000", "175555.109000", "175555.112000", "175555.116000", "175555.119000", "175555.122000", "175555.125000", "175555.129000", "175555.132000", "175555.135000", "175555.139000", "175635.076000", "175635.080000", "175635.083000", "175635.086000", "175635.090000", "175635.093000", "175635.096000", "175635.100000", "175635.103000", "175635.106000", "175635.109000", "175635.112000", "175635.116000", "175635.119000", "175635.122000", "175635.126000", "175635.129000", "175635.132000", "175635.135000", "175635.139000", "175635.142000", "175635.145000", "175635.148000", "175635.152000", "175635.155000", "175635.158000", "175635.161000", "175635.165000", "175635.170000", "175715.075000", "175715.079000", "175715.082000", "175715.085000", "175715.089000", "175715.092000", "175715.095000", "175715.098000", "175715.102000", "175715.105000", "175715.108000", "175715.111000", "175715.115000", "175715.118000", "175715.121000", "175715.124000", "175715.128000", "175715.131000", "175715.134000", "175715.137000", "175715.141000", "175715.144000", "175715.147000", "175715.151000", "175715.154000", "175715.157000", "175715.160000", "175755.076000", "175755.080000", "175755.083000", "175755.087000", "175755.090000", "175755.093000", "175755.096000", "175755.099000", "175755.103000", "175755.106000", "175755.109000", "175755.112000", "175755.116000", "175755.119000", "175755.122000", "175755.125000", "175755.143000", "175755.147000", "175755.150000", "175755.153000", "175755.156000", "175755.160000", "175755.163000", "175755.166000", "175755.169000", "175755.173000", "175755.176000", "175812.079000", "175812.083000", "175812.086000", "175812.089000", "175812.093000", "175812.096000", "175812.099000", "175812.102000", "175812.106000", "175812.109000", "175812.112000", "175812.115000"],
      "InstanceNumber": [1, 2, 3, 4, 5, 6, 7, 8, 9, 10, 11, 12, 13, 14, 15, 16, 17, 18, 19, 20, 21, 22, 23, 24, 25, 26, 27, 28, 29, 30, 31, 32, 33, 34, 35, 36, 37, 38, 39, 40, 41, 42, 43, 44, 45, 46, 47, 48, 49, 50, 51, 52, 53, 54, 55, 56, 57, 58, 59, 60, 61, 62, 63, 64, 65, 66, 67, 68, 69, 70, 71, 72, 73, 74, 75, 76, 77, 78, 79, 80, 81, 82, 83, 84, 85, 86, 87, 88, 89, 90, 91, 92, 93, 94, 95, 96, 97, 98, 99, 100, 101, 102, 103, 104, 105, 106, 107, 108, 109, 110, 111, 112, 113, 114, 115, 116, 117, 118, 119, 120, 121, 122, 123, 124, 125, 126, 127, 128, 129, 130, 131, 132, 133, 134, 135, 136, 137, 138, 139, 140, 141, 142, 143, 144, 145, 146, 147, 148, 149, 150, 151, 152, 153, 154, 155, 156, 157, 158, 159, 160, 161, 162, 163, 164, 165, 166, 167, 168, 169, 170, 171, 172, 173, 174, 175, 176, 177, 178, 179, 180, 181, 182, 183, 184, 185, 186, 187, 188, 189, 190],
      "LargestImagePixelValue": [42566, 42122, 41334, 40786, 40287, 39989, 41013, 40971, 40934, 42680, 41870, 42331, 41952, 42529, 41885, 42449, 42778, 42516, 41859, 42041, 42560, 42573, 42247, 42948, 42383, 43226, 43218, 42516, 42384, 42699, 42332, 42456, 43216, 42211, 42955, 44021, 42863, 42237, 43784, 43624, 42634, 42652, 44073, 43067, 42442, 42998, 43009, 42346, 42063, 42654, 41606, 41869, 42626, 42531, 41603, 43098, 42206, 41805, 42139, 42136, 42597, 42548, 41996, 42810, 41990, 42265, 42239, 42152, 42684, 42827, 42606, 41852, 41233, 41919, 42733, 42987, 44626, 44734, 43040, 42798, 42234, 40911, 41462, 42096, 42457, 43969, 42535, 43330, 43754, 43589, 41499, 43290, 42755, 42588, 42147, 43497, 44089, 42938, 43274, 44666, 45042, 45582, 43661, 44346, 44016, 44836, 45595, 44709, 45127, 45283, 43971, 45018, 45455, 45153, 45672, 45372, 44206, 45132, 44887, 44289, 44820, 46344, 45160, 45197, 44855, 44788, 45264, 45357, 44941, 45799, 45019, 44626, 45579, 45239, 44982, 45227, 44343, 44749, 43868, 45153, 45139, 44596, 45177, 45032, 43772, 42702, 43639, 43974, 42922, 43136, 43612, 43521, 44635, 44336, 43676, 44773, 45191, 44377, 44154, 43978, 42940, 43914, 44693, 43132, 43447, 43325, 42195, 42579, 42492, 42520, 42735, 43543, 42705, 43844, 44684, 43369, 43401, 43183, 43048, 42676, 41296, 41539, 43604, 42669, 40982, 41245, 40412, 45668, 41535, 42235],
      "WindowCenter": [10516.0, 10519.0, 10510.0, 10486.0, 10459.0, 10437.0, 10466.0, 10476.0, 10469.0, 10480.0, 10472.0, 10478.0, 10481.0, 10482.0, 10461.0, 10481.0, 10490.0, 10484.0, 10477.0, 10488.0, 10495.0, 10485.0, 10477.0, 10490.0, 10476.0, 10495.0, 10497.0, 10482.0, 10481.0, 10481.0, 10481.0, 10507.0, 10521.0, 10501.0, 10497.0, 10490.0, 10477.0, 10497.0, 10529.0, 10530.0, 10529.0, 10514.0, 10510.0, 10479.0, 10472.0, 10482.0, 10482.0, 10494.0, 10498.0, 10493.0, 10478.0, 10484.0, 10487.0, 10470.0, 10450.0, 10469.0, 10470.0, 10475.0, 10502.0, 10509.0, 10500.0, 10494.0, 10476.0, 10480.0, 10492.0, 10500.0, 10511.0, 10515.0, 10503.0, 10498.0, 10489.0, 10467.0, 10470.0, 10482.0, 10506.0, 10502.0, 10501.0, 10488.0, 10477.0, 10480.0, 10481.0, 10466.0, 10476.0, 10477.0, 10488.0, 10500.0, 10498.0, 10490.0, 10485.0, 10484.0, 10488.0, 10523.0, 10519.0, 10497.0, 10494.0, 10513.0, 10512.0, 10483.0, 10506.0, 10542.0, 10518.0, 10491.0, 10457.0, 10465.0, 10484.0, 10493.0, 10494.0, 10487.0, 10484.0, 10490.0, 10480.0, 10506.0, 10515.0, 10511.0, 10513.0, 10507.0, 10488.0, 10490.0, 10510.0, 10518.0, 10524.0, 10540.0, 10516.0, 10502.0, 10496.0, 10495.0, 10500.0, 10517.0, 10519.0, 10525.0, 10514.0, 10495.0, 10507.0, 10511.0, 10511.0, 10510.0, 10495.0, 10492.0, 10497.0, 10508.0, 10523.0, 10516.0, 10512.0, 10510.0, 10491.0, 10478.0, 10482.0, 10488.0, 10470.0, 10467.0, 10483.0, 10491.0, 10493.0, 10495.0, 10483.0, 10491.0, 10501.0, 10502.0, 10500.0, 10503.0, 10500.0, 10503.0, 10508.0, 10488.0, 10475.0, 10468.0, 10459.0, 10469.0, 10477.0, 10481.0, 10482.0, 10494.0, 10477.0, 10468.0, 10474.0, 10466.0, 10465.0, 10475.0, 10486.0, 10474.0, 10456.0, 10460.0, 10482.0, 10481.0, 10459.0, 10455.0, 10436.0, 10482.0, 10451.0, 10468.0],
      "WindowWidth": [22370.0, 22361.0, 22339.0, 22279.0, 22210.0, 22156.0, 22217.0, 22241.0, 22226.0, 22246.0, 22226.0, 22241.0, 22251.0, 22245.0, 22202.0, 22250.0, 22271.0, 22258.0, 22244.0, 22271.0, 22283.0, 22256.0, 22243.0, 22267.0, 22240.0, 22280.0, 22286.0, 22250.0, 22248.0, 22248.0, 22246.0, 22309.0, 22336.0, 22293.0, 22282.0, 22262.0, 22237.0, 22288.0, 22357.0, 22358.0, 22361.0, 22326.0, 22307.0, 22235.0, 22226.0, 22250.0, 22251.0, 22282.0, 22300.0, 22275.0, 22242.0, 22257.0, 22257.0, 22216.0, 22179.0, 22218.0, 22222.0, 22238.0, 22301.0, 22315.0, 22293.0, 22284.0, 22239.0, 22244.0, 22275.0, 22289.0, 22318.0, 22328.0, 22297.0, 22279.0, 22258.0, 22209.0, 22219.0, 22248.0, 22298.0, 22292.0, 22280.0, 22248.0, 22228.0, 22242.0, 22245.0, 22216.0, 22237.0, 22242.0, 22262.0, 22280.0, 22280.0, 22264.0, 22247.0, 22240.0, 22264.0, 22342.0, 22332.0, 22283.0, 22276.0, 22317.0, 22319.0, 22247.0, 22299.0, 22383.0, 22324.0, 22255.0, 22183.0, 22196.0, 22245.0, 22263.0, 22268.0, 22250.0, 22240.0, 22252.0, 22235.0, 22294.0, 22313.0, 22303.0, 22307.0, 22293.0, 22249.0, 22250.0, 22304.0, 22327.0, 22338.0, 22373.0, 22322.0, 22285.0, 22273.0, 22277.0, 22282.0, 22320.0, 22323.0, 22335.0, 22314.0, 22265.0, 22292.0, 22304.0, 22305.0, 22301.0, 22264.0, 22258.0, 22277.0, 22297.0, 22331.0, 22319.0, 22308.0, 22298.0, 22259.0, 22229.0, 22237.0, 22251.0, 22214.0, 22205.0, 22244.0, 22266.0, 22265.0, 22270.0, 22243.0, 22259.0, 22283.0, 22286.0, 22290.0, 22292.0, 22285.0, 22287.0, 22297.0, 22253.0, 22220.0, 22206.0, 22193.0, 22211.0, 22228.0, 22237.0, 22239.0, 22265.0, 22233.0, 22204.0, 22215.0, 22201.0, 22197.0, 22224.0, 22250.0, 22223.0, 22187.0, 22192.0, 22237.0, 22241.0, 22197.0, 22183.0, 22139.0, 22233.0, 22171.0, 22208.0]
    },
    "slices": {}
  }
}