{
  "AcquisitionMatrixPE": 104,
  "AcquisitionNumber": 1,
  "AcquisitionTime": "18:04:17.792500",
  "BandwidthPerPixelPhaseEncode": 17.17,
  "BaseResolution": 104,
  "BodyPartExamined": "BRAIN",
  "CoilCombinationMethod": "Sum of Squares",
  "ConsistencyInfo": "N4_VE11C_LATEST_20160120",
  "ConversionSoftware": "dcm2niix",
  "ConversionSoftwareVersion": "v1.0.20211006",
  "DerivedVendorReportedEchoSpacing": 0.000560011,
  "DeviceSerialNumber": "167006",
  "DwellTime": 2.1e-06,
  "EchoTime": 0.037,
  "EchoTrainLength": 104,
  "EffectiveEchoSpacing": 0.000560011,
  "FlipAngle": 52,
  "HeudiconvVersion": "0.10.0",
  "ImageComments": "Unaliased MB4/PE3/LB",
  "ImageOrientationPatientDICOM": [0.996729, 0.0681795, 0.0434, -0.0466558, 0.923868, -0.379856],
  "ImageOrientationText": "Tra>Cor(-22.2)>Sag(3.8)",
  "ImageType": [
    "ORIGINAL",
    "PRIMARY",
    "M",
    "MB",
    "ND",
    "MOSAIC"
],
  "ImagingFrequency": 123.259,
  "InPlanePhaseEncodingDirectionDICOM": "COL",
  "InstitutionAddress": "Chemin Queen-Mary 4565,Montreal,District,CA,H3W 1W5",
  "InstitutionName": "IUGM",
  "InstitutionalDepartmentName": "Department",
  "MRAcquisitionType": "2D",
  "MagneticFieldStrength": 3,
  "Manufacturer": "Siemens",
  "ManufacturersModelName": "Prisma_fit",
  "MatrixCoilMode": "SENSE",
  "Modality": "MR",
  "MultibandAccelerationFactor": 4,
  "PartialFourier": 1,
  "PatientPosition": "HFS",
  "PercentPhaseFOV": 100,
  "PercentSampling": 100,
  "PhaseEncodingDirection": "j",
  "PhaseEncodingSteps": 104,
  "PhaseResolution": 1,
  "PixelBandwidth": 2290,
  "ProcedureStepDescription": "memory^things",
  "ProtocolName": "func_task-things_run-5",
  "PulseSequenceDetails": "%CustomerSeq%\\cmrr_mbep2d_bold",
  "ReceiveCoilActiveElements": "HC1-7;NC1,2",
  "ReceiveCoilName": "HeadNeck_64",
  "ReconMatrixPE": 104,
  "RepetitionTime": 1.49,
  "SAR": 0.0337727,
  "ScanOptions": "FS",
  "ScanningSequence": "EP",
  "SequenceName": "epfid2d1_104",
  "SequenceVariant": "SK\\SS",
  "SeriesDescription": "func_task-things_run-5",
  "SeriesNumber": 22,
  "ShimSetting": [636, -7194, -8840, 645, 97, 5, -41, 24],
  "SliceThickness": 2,
  "SliceTiming": [0, 0.7825, 0.0975, 0.8825, 0.195, 0.98, 0.2925, 1.0775, 0.3925, 1.175, 0.49, 1.2725, 0.5875, 1.37, 0.685, 0, 0.7825, 0.0975, 0.8825, 0.195, 0.98, 0.2925, 1.0775, 0.3925, 1.175, 0.49, 1.2725, 0.5875, 1.37, 0.685, 0, 0.7825, 0.0975, 0.8825, 0.195, 0.98, 0.2925, 1.0775, 0.3925, 1.175, 0.49, 1.2725, 0.5875, 1.37, 0.685, 0, 0.7825, 0.0975, 0.8825, 0.195, 0.98, 0.2925, 1.0775, 0.3925, 1.175, 0.49, 1.2725, 0.5875, 1.37, 0.685],
  "SoftwareVersions": "syngo MR E11",
  "SpacingBetweenSlices": 2,
  "StationName": "MRC35049",
  "TaskName": "things",
  "TotalReadoutTime": 0.0576811,
  "TxRefAmp": 236.792,
  "WipMemBlock": "a475f6cc-1140-4cba-bbb7-295bcb1953c9||Sequence: R016 ve11c/master r/e634e98; Dec 19 2017 11:00:25 by eja",
  "dcmmeta_affine": [
    [-1.993457317352295, -0.0933116152882576, 0.1319885104894638, 107.90227508544922],
    [-0.1363590806722641, 1.8477364778518677, -0.7531772255897522, -50.459110260009766],
    [0.08679990470409393, 0.7597122192382812, 1.8480538129806519, -70.88758850097656],
    [0.0, 0.0, 0.0, 1.0]
],
  "dcmmeta_reorient_transform": [
    [0.0, -1.0, 0.0, 103.0],
    [1.0, 0.0, 0.0, 0.0],
    [0.0, 0.0, 1.0, 0.0],
    [0.0, 0.0, 0.0, 1.0]
],
  "dcmmeta_shape": [104, 104, 60, 190],
  "dcmmeta_slice_dim": 2,
  "dcmmeta_version": 0.6,
  "global": {
    "const": {
      "AcquisitionMatrix": [104, 0, 0, 104],
      "AngioFlag": "N",
      "BitsAllocated": 16,
      "BitsStored": 16,
      "BodyPartExamined": "BRAIN",
      "Columns": 832,
      "EchoNumbers": 1,
      "EchoTime": 37.0,
      "EchoTrainLength": 104,
      "FlipAngle": 52.0,
      "HighBit": 15,
      "ImageOrientationPatient": [0.9967286461397, 0.068179543211, 0.04339995221274, -0.0466558065371, 0.92386826287272, -0.3798561156187],
      "ImagePositionPatient": [-789.94420543083, -862.06855478251, 252.30286012232],
      "ImageType": [
        "ORIGINAL",
        "PRIMARY",
        "M",
        "MB",
        "ND",
        "MOSAIC"
],
      "ImagedNucleus": "1H",
      "ImagingFrequency": 123.258975,
      "InPlanePhaseEncodingDirection": "COL",
      "MRAcquisitionType": "2D",
      "MagneticFieldStrength": 3.0,
      "Manufacturer": "SIEMENS",
      "ManufacturerModelName": "Prisma_fit",
      "Modality": "MR",
      "NumberOfAverages": 1.0,
      "NumberOfPhaseEncodingSteps": 104,
      "PercentPhaseFieldOfView": 100.0,
      "PercentSampling": 100.0,
      "PerformedProcedureStepStartTime": "165231.524000",
      "PhotometricInterpretation": "MONOCHROME2",
      "PixelBandwidth": 2290.0,
      "PixelRepresentation": 0,
      "PixelSpacing": [2.0, 2.0],
      "ProtocolName": "func_task-things_run-5",
      "RepetitionTime": 1490.0,
      "Rows": 832,
      "SAR": 0.0337726543884,
      "SamplesPerPixel": 1,
      "ScanOptions": "FS",
      "ScanningSequence": "EP",
      "SequenceName": "epfid2d1_104",
      "SequenceVariant": [
        "SK",
        "SS"
],
      "SeriesDescription": "func_task-things_run-5",
      "SeriesNumber": 22,
      "SeriesTime": "180545.145000",
      "SliceLocation": -39.378782912035,
      "SliceThickness": 2.0,
      "SmallestImagePixelValue": 0,
      "SoftwareVersions": "syngo MR E11",
      "SpacingBetweenSlices": 1.9999999711374,
      "SpecificCharacterSet": "ISO_IR 100",
      "StudyID": "1",
      "StudyTime": "165231.426000",
      "TransmitCoilName": "Body",
      "VariableFlipAngleFlag": "N",
      "WindowCenterWidthExplanation": "Algo1",
      "dBdt": 0.0},
    "slices": {}
  },
  "time": {
    "samples": {
      "AcquisitionNumber": [1, 2, 3, 4, 5, 6, 7, 8, 9, 10, 11, 12, 13, 14, 15, 16, 17, 18, 19, 20, 21, 22, 23, 24, 25, 26, 27, 28, 29, 30, 31, 32, 33, 34, 35, 36, 37, 38, 39, 40, 41, 42, 43, 44, 45, 46, 47, 48, 49, 50, 51, 52, 53, 54, 55, 56, 57, 58, 59, 60, 61, 62, 63, 64, 65, 66, 67, 68, 69, 70, 71, 72, 73, 74, 75, 76, 77, 78, 79, 80, 81, 82, 83, 84, 85, 86, 87, 88, 89, 90, 91, 92, 93, 94, 95, 96, 97, 98, 99, 100, 101, 102, 103, 104, 105, 106, 107, 108, 109, 110, 111, 112, 113, 114, 115, 116, 117, 118, 119, 120, 121, 122, 123, 124, 125, 126, 127, 128, 129, 130, 131, 132, 133, 134, 135, 136, 137, 138, 139, 140, 141, 142, 143, 144, 145, 146, 147, 148, 149, 150, 151, 152, 153, 154, 155, 156, 157, 158, 159, 160, 161, 162, 163, 164, 165, 166, 167, 168, 169, 170, 171, 172, 173, 174, 175, 176, 177, 178, 179, 180, 181, 182, 183, 184, 185, 186, 187, 188, 189, 190],
      "AcquisitionTime": ["180417.792500", "180419.282500", "180420.772500", "180422.262500", "180423.752500", "180425.242500", "180426.732500", "180428.222500", "180429.712500", "180431.202500", "180432.692500", "180434.182500", "180435.672500", "180437.162500", "180438.652500", "180440.142500", "180441.632500", "180443.122500", "180444.612500", "180446.102500", "180447.592500", "180449.082500", "180450.572500", "180452.062500", "180453.552500", "180455.042500", "180456.532500", "180458.022500", "180459.512500", "180501.002500", "180502.492500", "180503.982500", "180505.472500", "180506.962500", "180508.452500", "180509.942500", "180511.432500", "180512.922500", "180514.412500", "180515.902500", "180517.392500", "180518.882500", "180520.372500", "180521.862500", "180523.352500", "180524.842500", "180526.332500", "180527.822500", "180529.312500", "180530.802500", "180532.292500", "180533.782500", "180535.272500", "180536.762500", "180538.252500", "180539.742500", "180541.232500", "180542.722500", "180544.212500", "180545.702500", "180547.192500", "180548.682500", "180550.172500", "180551.662500", "180553.152500", "180554.642500", "180556.132500", "180557.622500", "180559.112500", "180600.602500", "180602.092500", "180603.582500", "180605.072500", "180606.562500", "180608.052500", "180609.542500", "180611.032500", "180612.522500", "180614.012500", "180615.502500", "180616.992500", "180618.482500", "180619.972500", "180621.462500", "180622.952500", "180624.442500", "180625.932500", "180627.422500", "180628.912500", "180630.402500", "180631.892500", "180633.382500", "180634.872500", "180636.362500", "180637.852500", "180639.342500", "180640.832500", "180642.322500", "180643.812500", "180645.302500", "180646.792500", "180648.282500", "180649.772500", "180651.262500", "180652.752500", "180654.242500", "180655.732500", "180657.222500", "180658.712500", "180700.202500", "180701.692500", "180703.182500", "180704.672500", "180706.162500", "180707.652500", "180709.142500", "180710.632500", "180712.122500", "180713.612500", "180715.102500", "180716.592500", "180718.082500", "180719.572500", "180721.062500", "180722.552500", "180724.042500", "180725.532500", "180727.022500", "180728.512500", "180730.002500", "180731.492500", "180732.982500", "180734.472500", "180735.962500", "180737.452500", "180738.942500", "180740.432500", "180741.922500", "180743.412500", "180744.902500", "180746.392500", "180747.882500", "180749.372500", "180750.862500", "180752.352500", "180753.842500", "180755.332500", "180756.822500", "180758.312500", "180759.802500", "180801.292500", "180802.782500", "180804.272500", "180805.762500", "180807.252500", "180808.742500", "180810.232500", "180811.722500", "180813.212500", "180814.702500", "180816.192500", "180817.682500", "180819.172500", "180820.662500", "180822.152500", "180823.642500", "180825.132500", "180826.622500", "180828.112500", "180829.602500", "180831.092500", "180832.582500", "180834.072500", "180835.562500", "180837.052500", "180838.542500", "180840.032500", "180841.522500", "180843.012500", "180844.502500", "180845.992500", "180847.482500", "180848.972500", "180850.462500", "180851.952500", "180853.442500", "180854.932500", "180856.422500", "180857.912500", "180859.402500"],
      "ContentTime": ["180545.149000", "180545.163000", "180545.167000", "180545.170000", "180545.173000", "180545.176000", "180545.180000", "180545.183000", "180545.186000", "180545.190000", "180545.193000", "180545.196000", "180545.199000", "180545.203000", "180545.206000", "180545.209000", "180545.213000", "180545.216000", "180545.219000", "180545.222000", "180545.226000", "180545.229000", "180545.232000", "180545.236000", "180545.239000", "180545.242000", "180545.245000", "180545.249000", "180545.252000", "180545.256000", "180545.259000", "180545.262000", "180605.103000", "180605.107000", "180605.110000", "180605.113000", "180605.117000", "180605.120000", "180605.123000", "180605.126000", "180605.130000", "180605.133000", "180605.136000", "180605.139000", "180605.143000", "180605.147000", "180605.150000", "180605.154000", "180605.157000", "180605.160000", "180605.163000", "180605.167000", "180625.103000", "180625.107000", "180625.110000", "180625.113000", "180625.116000", "180625.120000", "180625.123000", "180625.126000", "180625.130000", "180625.133000", "180625.136000", "180625.139000", "180625.149000", "180625.152000", "180625.156000", "180625.159000", "180625.162000", "180625.166000", "180625.169000", "180625.172000", "180625.175000", "180645.103000", "180645.107000", "180645.110000", "180645.113000", "180645.116000", "180645.120000", "180645.135000", "180645.138000", "180645.141000", "180645.145000", "180645.148000", "180645.151000", "180645.154000", "180645.158000", "180645.161000", "180645.164000", "180645.167000", "180645.171000", "180645.174000", "180645.177000", "180725.102000", "180725.106000", "180725.109000", "180725.112000", "180725.115000", "180725.119000", "180725.122000", "180725.126000", "180725.129000", "180725.132000", "180725.135000", "180725.139000", "180725.142000", "180725.145000", "180725.149000", "180725.152000", "180725.155000", "180725.159000", "180725.162000", "180725.165000", "180725.168000", "180725.172000", "180725.175000", "180725.178000", "180725.181000", "180725.185000", "180725.188000", "180725.191000", "180725.194000", "180725.198000", "180725.201000", "180725.204000", "180805.102000", "180805.106000", "180805.109000", "180805.112000", "180805.116000", "180805.119000", "180805.122000", "180805.126000", "180805.130000", "180805.133000", "180805.137000", "180805.140000", "180805.143000", "180805.146000", "180805.150000", "180805.153000", "180805.156000", "180805.160000", "180805.163000", "180805.166000", "180805.169000", "180805.173000", "180805.176000", "180805.179000", "180805.182000", "180805.186000", "180845.103000", "180845.107000", "180845.110000", "180845.114000", "180845.117000", "180845.120000", "180845.124000", "180845.127000", "180845.130000", "180845.134000", "180845.137000", "180845.140000", "180845.143000", "180845.147000", "180845.150000", "180845.154000", "180845.157000", "180845.160000", "180845.163000", "180845.167000", "180845.170000", "180845.174000", "180845.177000", "180845.180000", "180845.183000", "180845.187000", "180845.190000", "180902.036000", "180902.055000", "180902.059000", "180902.070000", "180902.073000", "180902.076000", "180902.079000", "180902.083000", "180902.086000", "180902.090000", "180902.093000", "180902.096000"],
      "InstanceCreationTime": ["180545.149000", "180545.163000", "180545.167000", "180545.170000", "180545.173000", "180545.176000", "180545.180000", "180545.183000", "180545.186000", "180545.190000", "180545.193000", "180545.196000", "180545.199000", "180545.203000", "180545.206000", "180545.209000", "180545.213000", "180545.216000", "180545.219000", "180545.222000", "180545.226000", "180545.229000", "180545.232000", "180545.236000", "180545.239000", "180545.242000", "180545.245000", "180545.249000", "180545.252000", "180545.256000", "180545.259000", "180545.262000", "180605.103000", "180605.107000", "180605.110000", "180605.113000", "180605.117000", "180605.120000", "180605.123000", "180605.126000", "180605.130000", "180605.133000", "180605.136000", "180605.139000", "180605.143000", "180605.147000", "180605.150000", "180605.154000", "180605.157000", "180605.160000", "180605.163000", "180605.167000", "180625.103000", "180625.107000", "180625.110000", "180625.113000", "180625.116000", "180625.120000", "180625.123000", "180625.126000", "180625.130000", "180625.133000", "180625.136000", "180625.139000", "180625.149000", "180625.152000", "180625.156000", "180625.159000", "180625.162000", "180625.166000", "180625.169000", "180625.172000", "180625.175000", "180645.103000", "180645.107000", "180645.110000", "180645.113000", "180645.116000", "180645.120000", "180645.135000", "180645.138000", "180645.141000", "180645.145000", "180645.148000", "180645.151000", "180645.154000", "180645.158000", "180645.161000", "180645.164000", "180645.167000", "180645.171000", "180645.174000", "180645.177000", "180725.102000", "180725.106000", "180725.109000", "180725.112000", "180725.115000", "180725.119000", "180725.122000", "180725.126000", "180725.129000", "180725.132000", "180725.135000", "180725.139000", "180725.142000", "180725.145000", "180725.149000", "180725.152000", "180725.155000", "180725.159000", "180725.162000", "180725.165000", "180725.168000", "180725.172000", "180725.175000", "180725.178000", "180725.181000", "180725.185000", "180725.188000", "180725.191000", "180725.194000", "180725.198000", "180725.201000", "180725.204000", "180805.102000", "180805.106000", "180805.109000", "180805.112000", "180805.116000", "180805.119000", "180805.122000", "180805.126000", "180805.130000", "180805.133000", "180805.137000", "180805.140000", "180805.143000", "180805.146000", "180805.150000", "180805.153000", "180805.156000", "180805.160000", "180805.163000", "180805.166000", "180805.169000", "180805.173000", "180805.176000", "180805.179000", "180805.182000", "180805.186000", "180845.103000", "180845.107000", "180845.110000", "180845.114000", "180845.117000", "180845.120000", "180845.124000", "180845.127000", "180845.130000", "180845.134000", "180845.137000", "180845.140000", "180845.143000", "180845.147000", "180845.150000", "180845.154000", "180845.157000", "180845.160000", "180845.163000", "180845.167000", "180845.170000", "180845.174000", "180845.177000", "180845.180000", "180845.183000", "180845.187000", "180845.190000", "180902.036000", "180902.055000", "180902.059000", "180902.070000", "180902.073000", "180902.076000", "180902.079000", "180902.083000", "180902.086000", "180902.090000", "180902.093000", "180902.096000"],
      "InstanceNumber": [1, 2, 3, 4, 5, 6, 7, 8, 9, 10, 11, 12, 13, 14, 15, 16, 17, 18, 19, 20, 21, 22, 23, 24, 25, 26, 27, 28, 29, 30, 31, 32, 33, 34, 35, 36, 37, 38, 39, 40, 41, 42, 43, 44, 45, 46, 47, 48, 49, 50, 51, 52, 53, 54, 55, 56, 57, 58, 59, 60, 61, 62, 63, 64, 65, 66, 67, 68, 69, 70, 71, 72, 73, 74, 75, 76, 77, 78, 79, 80, 81, 82, 83, 84, 85, 86, 87, 88, 89, 90, 91, 92, 93, 94, 95, 96, 97, 98, 99, 100, 101, 102, 103, 104, 105, 106, 107, 108, 109, 110, 111, 112, 113, 114, 115, 116, 117, 118, 119, 120, 121, 122, 123, 124, 125, 126, 127, 128, 129, 130, 131, 132, 133, 134, 135, 136, 137, 138, 139, 140, 141, 142, 143, 144, 145, 146, 147, 148, 149, 150, 151, 152, 153, 154, 155, 156, 157, 158, 159, 160, 161, 162, 163, 164, 165, 166, 167, 168, 169, 170, 171, 172, 173, 174, 175, 176, 177, 178, 179, 180, 181, 182, 183, 184, 185, 186, 187, 188, 189, 190],
      "LargestImagePixelValue": [46643, 46103, 45807, 45160, 44469, 44705, 43950, 44192, 45730, 46182, 45285, 44378, 44861, 45484, 45696, 46013, 45908, 45276, 45625, 46312, 45846, 45161, 45466, 46462, 46604, 46319, 46241, 46036, 45993, 46182, 45650, 45652, 45603, 44989, 44987, 45035, 44432, 44800, 43919, 44685, 44947, 44912, 45112, 43881, 44316, 44290, 44247, 44170, 44347, 44491, 44399, 43966, 43915, 43640, 44029, 44436, 42988, 44133, 44116, 43643, 43782, 43687, 43667, 44503, 43973, 44221, 49690, 44607, 44527, 43967, 43477, 43769, 43221, 43844, 43881, 43056, 43932, 44001, 44091, 45677, 45242, 44982, 45700, 45160, 44579, 44958, 44865, 43734, 43771, 44447, 43945, 43831, 42420, 43100, 42549, 42957, 43062, 42806, 42525, 43545, 43843, 43340, 43888, 42964, 42101, 42455, 42861, 45937, 41818, 42610, 40748, 40959, 41095, 40815, 42191, 42333, 41821, 43460, 42748, 42012, 41725, 42532, 42252, 41769, 42258, 41244, 43362, 41633, 41200, 40949, 42054, 42157, 49702, 39086, 39187, 45787, 39392, 40233, 41843, 46336, 43034, 43458, 43085, 42485, 41643, 41601, 42979, 48043, 42777, 43625, 43348, 43192, 42492, 42671, 42459, 42554, 42924, 42530, 40509, 41331, 41291, 41643, 42040, 42156, 42479, 42789, 41891, 41197, 42422, 42033, 41837, 42342, 42329, 42117, 41950, 40586, 42283, 41675, 43177, 42236, 43237, 42885, 42498, 42034, 42845, 42653, 41532, 42560, 44763, 42203],
      "WindowCenter": [10589.0, 10544.0, 10526.0, 10531.0, 10519.0, 10506.0, 10479.0, 10489.0, 10498.0, 10508.0, 10519.0, 10528.0, 10512.0, 10496.0, 10481.0, 10486.0, 10499.0, 10488.0, 10468.0, 10460.0, 10450.0, 10470.0, 10486.0, 10482.0, 10478.0, 10471.0, 10478.0, 10479.0, 10474.0, 10473.0, 10460.0, 10476.0, 10495.0, 10488.0, 10489.0, 10482.0, 10473.0, 10480.0, 10476.0, 10489.0, 10500.0, 10510.0, 10526.0, 10508.0, 10491.0, 10477.0, 10474.0, 10476.0, 10488.0, 10499.0, 10502.0, 10486.0, 10477.0, 10478.0, 10481.0, 10481.0, 10468.0, 10474.0, 10490.0, 10494.0, 10503.0, 10490.0, 10483.0, 10484.0, 10487.0, 10490.0, 10551.0, 10502.0, 10517.0, 10507.0, 10476.0, 10473.0, 10458.0, 10469.0, 10478.0, 10458.0, 10436.0, 10438.0, 10476.0, 10531.0, 10532.0, 10498.0, 10463.0, 10436.0, 10424.0, 10433.0, 10460.0, 10448.0, 10435.0, 10445.0, 10443.0, 10438.0, 10444.0, 10460.0, 10459.0, 10457.0, 10452.0, 10454.0, 10450.0, 10465.0, 10477.0, 10474.0, 10487.0, 10481.0, 10475.0, 10461.0, 10456.0, 10482.0, 10444.0, 10460.0, 10464.0, 10465.0, 10462.0, 10455.0, 10444.0, 10433.0, 10445.0, 10443.0, 10468.0, 10475.0, 10460.0, 10462.0, 10445.0, 10436.0, 10441.0, 10438.0, 10460.0, 10464.0, 10468.0, 10465.0, 10466.0, 10436.0, 10488.0, 10398.0, 10419.0, 10477.0, 10392.0, 10391.0, 10402.0, 10461.0, 10445.0, 10460.0, 10455.0, 10433.0, 10402.0, 10392.0, 10398.0, 10454.0, 10426.0, 10458.0, 10473.0, 10475.0, 10458.0, 10433.0, 10425.0, 10414.0, 10433.0, 10457.0, 10458.0, 10457.0, 10450.0, 10439.0, 10434.0, 10442.0, 10460.0, 10470.0, 10462.0, 10451.0, 10460.0, 10452.0, 10446.0, 10434.0, 10440.0, 10440.0, 10443.0, 10448.0, 10478.0, 10455.0, 10471.0, 10466.0, 10466.0, 10459.0, 10444.0, 10418.0, 10416.0, 10425.0, 10419.0, 10432.0, 10468.0, 10441.0],
      "WindowWidth": [22536.0, 22412.0, 22360.0, 22374.0, 22339.0, 22301.0, 22242.0, 22265.0, 22277.0, 22298.0, 22331.0, 22359.0, 22323.0, 22282.0, 22238.0, 22245.0, 22274.0, 22253.0, 22207.0, 22178.0, 22162.0, 22218.0, 22256.0, 22243.0, 22233.0, 22213.0, 22226.0, 22226.0, 22219.0, 22214.0, 22189.0, 22230.0, 22280.0, 22259.0, 22262.0, 22244.0, 22220.0, 22238.0, 22232.0, 22257.0, 22278.0, 22301.0, 22341.0, 22308.0, 22264.0, 22230.0, 22224.0, 22231.0, 22256.0, 22288.0, 22291.0, 22252.0, 22234.0, 22237.0, 22239.0, 22240.0, 22224.0, 22228.0, 22267.0, 22275.0, 22300.0, 22269.0, 22258.0, 22250.0, 22261.0, 22266.0, 22407.0, 22294.0, 22326.0, 22311.0, 22237.0, 22222.0, 22188.0, 22212.0, 22238.0, 22194.0, 22142.0, 22145.0, 22232.0, 22353.0, 22357.0, 22274.0, 22186.0, 22125.0, 22113.0, 22124.0, 22189.0, 22163.0, 22135.0, 22153.0, 22153.0, 22136.0, 22160.0, 22191.0, 22194.0, 22192.0, 22172.0, 22180.0, 22180.0, 22207.0, 22235.0, 22233.0, 22259.0, 22247.0, 22244.0, 22197.0, 22186.0, 22243.0, 22162.0, 22204.0, 22215.0, 22213.0, 22205.0, 22191.0, 22167.0, 22134.0, 22170.0, 22160.0, 22217.0, 22233.0, 22199.0, 22198.0, 22158.0, 22137.0, 22152.0, 22151.0, 22195.0, 22209.0, 22214.0, 22215.0, 22210.0, 22139.0, 22246.0, 22070.0, 22124.0, 22238.0, 22058.0, 22049.0, 22065.0, 22185.0, 22159.0, 22189.0, 22179.0, 22129.0, 22060.0, 22039.0, 22042.0, 22164.0, 22113.0, 22188.0, 22224.0, 22228.0, 22187.0, 22128.0, 22121.0, 22085.0, 22128.0, 22187.0, 22197.0, 22185.0, 22170.0, 22140.0, 22132.0, 22153.0, 22193.0, 22220.0, 22194.0, 22176.0, 22191.0, 22173.0, 22160.0, 22136.0, 22143.0, 22145.0, 22160.0, 22174.0, 22249.0, 22183.0, 22214.0, 22203.0, 22199.0, 22185.0, 22159.0, 22089.0, 22086.0, 22112.0, 22108.0, 22131.0, 22209.0, 22143.0]
    },
    "slices": {}
  }
}