{
  "AcquisitionMatrixPE": 104,
  "AcquisitionNumber": 1,
  "AcquisitionTime": "18:09:43.455000",
  "BandwidthPerPixelPhaseEncode": 17.17,
  "BaseResolution": 104,
  "BodyPartExamined": "BRAIN",
  "CoilCombinationMethod": "Sum of Squares",
  "ConsistencyInfo": "N4_VE11C_LATEST_20160120",
  "ConversionSoftware": "dcm2niix",
  "ConversionSoftwareVersion": "v1.0.20211006",
  "DerivedVendorReportedEchoSpacing": 0.000560011,
  "DeviceSerialNumber": "167006",
  "DwellTime": 2.1e-06,
  "EchoTime": 0.037,
  "EchoTime1": 0.037,
  "EchoTime2": 0.001,
  "EchoTrainLength": 104,
  "EffectiveEchoSpacing": 0.000560011,
  "FlipAngle": 52,
  "HeudiconvVersion": "0.10.0",
  "ImageComments": "Unaliased MB4/PE3/LB",
  "ImageOrientationPatientDICOM": [0.996729, 0.0681795, 0.0434, -0.0466558, 0.923868, -0.379856],
  "ImageOrientationText": "Tra>Cor(-22.2)>Sag(3.8)",
  "ImageType": [
    "ORIGINAL",
    "PRIMARY",
    "P",
    "MB",
    "ND",
    "MOSAIC",
    "PHASE"
],
  "ImagingFrequency": 123.259,
  "InPlanePhaseEncodingDirectionDICOM": "COL",
  "InstitutionAddress": "Chemin Queen-Mary 4565,Montreal,District,CA,H3W 1W5",
  "InstitutionName": "IUGM",
  "InstitutionalDepartmentName": "Department",
  "MRAcquisitionType": "2D",
  "MagneticFieldStrength": 3,
  "Manufacturer": "Siemens",
  "ManufacturersModelName": "Prisma_fit",
  "MatrixCoilMode": "SENSE",
  "Modality": "MR",
  "MultibandAccelerationFactor": 4,
  "PartialFourier": 1,
  "PatientPosition": "HFS",
  "PercentPhaseFOV": 100,
  "PercentSampling": 100,
  "PhaseEncodingDirection": "j",
  "PhaseEncodingSteps": 104,
  "PhaseResolution": 1,
  "PixelBandwidth": 2290,
  "ProcedureStepDescription": "memory^things",
  "ProtocolName": "func_task-things_run-6",
  "PulseSequenceDetails": "%CustomerSeq%\\cmrr_mbep2d_bold",
  "ReceiveCoilActiveElements": "HC1-7;NC1,2",
  "ReceiveCoilName": "HeadNeck_64",
  "ReconMatrixPE": 104,
  "RepetitionTime": 1.49,
  "SAR": 0.0337727,
  "ScanOptions": "FS",
  "ScanningSequence": "EP",
  "SequenceName": "epfid2d1_104",
  "SequenceVariant": "SK\\SS",
  "SeriesDescription": "func_task-things_run-6",
  "SeriesNumber": 26,
  "ShimSetting": [636, -7194, -8840, 645, 97, 5, -41, 24],
  "SliceThickness": 2,
  "SliceTiming": [0, 0.785, 0.0975, 0.8825, 0.195, 0.98, 0.295, 1.0775, 0.3925, 1.175, 0.49, 1.275, 0.5875, 1.3725, 0.685, 0, 0.785, 0.0975, 0.8825, 0.195, 0.98, 0.295, 1.0775, 0.3925, 1.175, 0.49, 1.275, 0.5875, 1.3725, 0.685, 0, 0.785, 0.0975, 0.8825, 0.195, 0.98, 0.295, 1.0775, 0.3925, 1.175, 0.49, 1.275, 0.5875, 1.3725, 0.685, 0, 0.785, 0.0975, 0.8825, 0.195, 0.98, 0.295, 1.0775, 0.3925, 1.175, 0.49, 1.275, 0.5875, 1.3725, 0.685],
  "SoftwareVersions": "syngo MR E11",
  "SpacingBetweenSlices": 2,
  "StationName": "MRC35049",
  "TaskName": "things",
  "TotalReadoutTime": 0.0576811,
  "TxRefAmp": 236.792,
  "WipMemBlock": "7fd882c5-9d95-40c5-b5d5-4516db5df1f2||Sequence: R016 ve11c/master r/e634e98; Dec 19 2017 11:00:25 by eja",
  "dcmmeta_affine": [
    [-1.993457317352295, -0.0933116152882576, 0.1319885104894638, 107.90227508544922],
    [-0.1363590806722641, 1.8477364778518677, -0.7531772255897522, -50.459110260009766],
    [0.08679990470409393, 0.7597122192382812, 1.8480538129806519, -70.88758850097656],
    [0.0, 0.0, 0.0, 1.0]
],
  "dcmmeta_reorient_transform": [
    [0.0, -1.0, 0.0, 103.0],
    [1.0, 0.0, 0.0, 0.0],
    [0.0, 0.0, 1.0, 0.0],
    [0.0, 0.0, 0.0, 1.0]
],
  "dcmmeta_shape": [104, 104, 60, 190],
  "dcmmeta_slice_dim": 2,
  "dcmmeta_version": 0.6,
  "global": {
    "const": {
      "AcquisitionMatrix": [104, 0, 0, 104],
      "AngioFlag": "N",
      "BitsAllocated": 16,
      "BitsStored": 16,
      "BodyPartExamined": "BRAIN",
      "Columns": 832,
      "EchoNumbers": 1,
      "EchoTime": 37.0,
      "EchoTrainLength": 104,
      "FlipAngle": 52.0,
      "HighBit": 15,
      "ImageOrientationPatient": [0.9967286461397, 0.068179543211, 0.04339995221274, -0.0466558065371, 0.92386826287272, -0.3798561156187],
      "ImagePositionPatient": [-789.94420543083, -862.06855478251, 252.30286012232],
      "ImageType": [
        "ORIGINAL",
        "PRIMARY",
        "P",
        "MB",
        "ND",
        "MOSAIC"
],
      "ImagedNucleus": "1H",
      "ImagingFrequency": 123.258979,
      "InPlanePhaseEncodingDirection": "COL",
      "LargestImagePixelValue": 4095,
      "MRAcquisitionType": "2D",
      "MagneticFieldStrength": 3.0,
      "Manufacturer": "SIEMENS",
      "ManufacturerModelName": "Prisma_fit",
      "Modality": "MR",
      "NumberOfAverages": 1.0,
      "NumberOfPhaseEncodingSteps": 104,
      "PercentPhaseFieldOfView": 100.0,
      "PercentSampling": 100.0,
      "PerformedProcedureStepStartTime": "165231.524000",
      "PhotometricInterpretation": "MONOCHROME2",
      "PixelBandwidth": 2290.0,
      "PixelRepresentation": 0,
      "PixelSpacing": [2.0, 2.0],
      "ProtocolName": "func_task-things_run-6",
      "RepetitionTime": 1490.0,
      "RescaleIntercept": -4096.0,
      "RescaleSlope": 2.0,
      "RescaleType": "US",
      "Rows": 832,
      "SAR": 0.0337726543884,
      "SamplesPerPixel": 1,
      "ScanOptions": "FS",
      "ScanningSequence": "EP",
      "SequenceName": "epfid2d1_104",
      "SequenceVariant": [
        "SK",
        "SS"
],
      "SeriesDescription": "func_task-things_run-6",
      "SeriesNumber": 26,
      "SeriesTime": "181115.291000",
      "SliceLocation": -39.378782912035,
      "SliceThickness": 2.0,
      "SmallestImagePixelValue": 0,
      "SoftwareVersions": "syngo MR E11",
      "SpacingBetweenSlices": 1.9999999711374,
      "SpecificCharacterSet": "ISO_IR 100",
      "StudyID": "1",
      "StudyTime": "165231.426000",
      "TransmitCoilName": "Body",
      "VariableFlipAngleFlag": "N",
      "WindowCenterWidthExplanation": "Algo1",
      "dBdt": 0.0},
    "slices": {}
  },
  "time": {
    "samples": {
      "AcquisitionNumber": [1, 2, 3, 4, 5, 6, 7, 8, 9, 10, 11, 12, 13, 14, 15, 16, 17, 18, 19, 20, 21, 22, 23, 24, 25, 26, 27, 28, 29, 30, 31, 32, 33, 34, 35, 36, 37, 38, 39, 40, 41, 42, 43, 44, 45, 46, 47, 48, 49, 50, 51, 52, 53, 54, 55, 56, 57, 58, 59, 60, 61, 62, 63, 64, 65, 66, 67, 68, 69, 70, 71, 72, 73, 74, 75, 76, 77, 78, 79, 80, 81, 82, 83, 84, 85, 86, 87, 88, 89, 90, 91, 92, 93, 94, 95, 96, 97, 98, 99, 100, 101, 102, 103, 104, 105, 106, 107, 108, 109, 110, 111, 112, 113, 114, 115, 116, 117, 118, 119, 120, 121, 122, 123, 124, 125, 126, 127, 128, 129, 130, 131, 132, 133, 134, 135, 136, 137, 138, 139, 140, 141, 142, 143, 144, 145, 146, 147, 148, 149, 150, 151, 152, 153, 154, 155, 156, 157, 158, 159, 160, 161, 162, 163, 164, 165, 166, 167, 168, 169, 170, 171, 172, 173, 174, 175, 176, 177, 178, 179, 180, 181, 182, 183, 184, 185, 186, 187, 188, 189, 190],
      "AcquisitionTime": ["180943.455000", "180944.945000", "180946.435000", "180947.925000", "180949.415000", "180950.905000", "180952.395000", "180953.885000", "180955.375000", "180956.865000", "180958.355000", "180959.845000", "181001.335000", "181002.825000", "181004.315000", "181005.805000", "181007.295000", "181008.785000", "181010.275000", "181011.765000", "181013.255000", "181014.745000", "181016.235000", "181017.725000", "181019.215000", "181020.705000", "181022.195000", "181023.685000", "181025.175000", "181026.665000", "181028.155000", "181029.645000", "181031.135000", "181032.625000", "181034.115000", "181035.605000", "181037.095000", "181038.585000", "181040.075000", "181041.565000", "181043.055000", "181044.545000", "181046.035000", "181047.525000", "181049.015000", "181050.505000", "181051.995000", "181053.485000", "181054.975000", "181056.465000", "181057.955000", "181059.445000", "181100.935000", "181102.425000", "181103.915000", "181105.405000", "181106.895000", "181108.385000", "181109.875000", "181111.365000", "181112.855000", "181114.345000", "181115.835000", "181117.325000", "181118.815000", "181120.305000", "181121.795000", "181123.285000", "181124.775000", "181126.265000", "181127.755000", "181129.245000", "181130.735000", "181132.225000", "181133.715000", "181135.205000", "181136.695000", "181138.185000", "181139.675000", "181141.165000", "181142.655000", "181144.145000", "181145.635000", "181147.125000", "181148.615000", "181150.105000", "181151.595000", "181153.085000", "181154.575000", "181156.065000", "181157.555000", "181159.045000", "181200.535000", "181202.025000", "181203.515000", "181205.005000", "181206.495000", "181207.985000", "181209.475000", "181210.965000", "181212.455000", "181213.945000", "181215.435000", "181216.925000", "181218.415000", "181219.905000", "181221.395000", "181222.885000", "181224.375000", "181225.865000", "181227.355000", "181228.845000", "181230.335000", "181231.825000", "181233.315000", "181234.805000", "181236.295000", "181237.785000", "181239.275000", "181240.765000", "181242.255000", "181243.745000", "181245.235000", "181246.725000", "181248.215000", "181249.705000", "181251.195000", "181252.685000", "181254.175000", "181255.665000", "181257.155000", "181258.645000", "181300.135000", "181301.625000", "181303.115000", "181304.605000", "181306.095000", "181307.585000", "181309.075000", "181310.565000", "181312.055000", "181313.545000", "181315.035000", "181316.525000", "181318.015000", "181319.505000", "181320.995000", "181322.485000", "181323.975000", "181325.465000", "181326.955000", "181328.445000", "181329.935000", "181331.425000", "181332.915000", "181334.405000", "181335.895000", "181337.385000", "181338.875000", "181340.365000", "181341.855000", "181343.345000", "181344.835000", "181346.325000", "181347.815000", "181349.305000", "181350.795000", "181352.285000", "181353.775000", "181355.265000", "181356.755000", "181358.245000", "181359.735000", "181401.225000", "181402.715000", "181404.205000", "181405.695000", "181407.185000", "181408.675000", "181410.165000", "181411.655000", "181413.145000", "181414.635000", "181416.125000", "181417.615000", "181419.105000", "181420.595000", "181422.085000", "181423.575000", "181425.065000"],
      "ContentTime": ["181115.293000", "181115.295000", "181115.298000", "181115.301000", "181115.303000", "181115.306000", "181115.308000", "181115.311000", "181115.313000", "181115.316000", "181115.318000", "181115.321000", "181115.323000", "181115.326000", "181115.328000", "181115.331000", "181115.333000", "181115.335000", "181115.338000", "181115.341000", "181115.343000", "181115.345000", "181115.348000", "181115.351000", "181115.353000", "181115.355000", "181115.358000", "181115.361000", "181115.363000", "181115.365000", "181115.368000", "181115.370000", "181115.373000", "181115.375000", "181115.378000", "181115.380000", "181115.383000", "181115.385000", "181115.388000", "181135.181000", "181135.184000", "181135.186000", "181135.196000", "181135.198000", "181135.201000", "181135.203000", "181135.206000", "181135.208000", "181135.211000", "181135.213000", "181135.216000", "181135.218000", "181135.221000", "181135.223000", "181135.226000", "181135.228000", "181135.231000", "181135.233000", "181135.236000", "181155.175000", "181155.178000", "181155.180000", "181155.183000", "181155.185000", "181155.188000", "181155.190000", "181155.193000", "181155.195000", "181155.198000", "181155.200000", "181155.203000", "181155.205000", "181155.208000", "181155.210000", "181155.213000", "181155.215000", "181155.218000", "181155.220000", "181155.223000", "181215.220000", "181215.223000", "181215.225000", "181215.228000", "181215.230000", "181215.233000", "181215.241000", "181215.243000", "181215.246000", "181215.248000", "181215.251000", "181215.253000", "181215.256000", "181215.258000", "181215.261000", "181215.263000", "181215.266000", "181215.268000", "181215.271000", "181215.273000", "181215.276000", "181235.155000", "181235.158000", "181235.160000", "181235.163000", "181235.166000", "181235.168000", "181235.170000", "181235.173000", "181235.176000", "181235.178000", "181235.180000", "181235.183000", "181235.186000", "181235.188000", "181315.214000", "181315.217000", "181315.220000", "181315.222000", "181315.225000", "181315.228000", "181315.230000", "181315.233000", "181315.235000", "181315.238000", "181315.240000", "181315.243000", "181315.245000", "181315.248000", "181315.250000", "181315.253000", "181315.255000", "181315.258000", "181315.260000", "181315.262000", "181315.265000", "181315.267000", "181315.270000", "181315.272000", "181315.275000", "181315.277000", "181315.280000", "181355.227000", "181355.230000", "181355.233000", "181355.235000", "181355.237000", "181355.240000", "181355.242000", "181355.245000", "181355.247000", "181355.250000", "181355.252000", "181355.255000", "181355.257000", "181355.260000", "181355.262000", "181355.265000", "181355.267000", "181355.270000", "181355.272000", "181355.275000", "181355.277000", "181355.284000", "181355.286000", "181355.289000", "181355.292000", "181355.294000", "181355.297000", "181427.079000", "181427.081000", "181427.084000", "181427.086000", "181427.089000", "181427.091000", "181427.094000", "181427.096000", "181427.099000", "181427.101000", "181427.104000", "181427.106000", "181427.109000", "181427.111000", "181427.114000", "181427.116000", "181427.119000", "181427.121000", "181427.123000", "181427.126000", "181427.128000", "181427.131000"],
      "InstanceCreationTime": ["181115.293000", "181115.295000", "181115.298000", "181115.301000", "181115.303000", "181115.306000", "181115.308000", "181115.311000", "181115.313000", "181115.316000", "181115.318000", "181115.321000", "181115.323000", "181115.326000", "181115.328000", "181115.331000", "181115.333000", "181115.335000", "181115.338000", "181115.341000", "181115.343000", "181115.345000", "181115.348000", "181115.351000", "181115.353000", "181115.355000", "181115.358000", "181115.361000", "181115.363000", "181115.365000", "181115.368000", "181115.370000", "181115.373000", "181115.375000", "181115.378000", "181115.380000", "181115.383000", "181115.385000", "181115.388000", "181135.181000", "181135.184000", "181135.186000", "181135.196000", "181135.198000", "181135.201000", "181135.203000", "181135.206000", "181135.208000", "181135.211000", "181135.213000", "181135.216000", "181135.218000", "181135.221000", "181135.223000", "181135.226000", "181135.228000", "181135.231000", "181135.233000", "181135.236000", "181155.175000", "181155.178000", "181155.180000", "181155.183000", "181155.185000", "181155.188000", "181155.190000", "181155.193000", "181155.195000", "181155.198000", "181155.200000", "181155.203000", "181155.205000", "181155.208000", "181155.210000", "181155.213000", "181155.215000", "181155.218000", "181155.220000", "181155.223000", "181215.220000", "181215.223000", "181215.225000", "181215.228000", "181215.230000", "181215.233000", "181215.241000", "181215.243000", "181215.246000", "181215.248000", "181215.251000", "181215.253000", "181215.256000", "181215.258000", "181215.261000", "181215.263000", "181215.266000", "181215.268000", "181215.271000", "181215.273000", "181215.276000", "181235.155000", "181235.158000", "181235.160000", "181235.163000", "181235.166000", "181235.168000", "181235.170000", "181235.173000", "181235.176000", "181235.178000", "181235.180000", "181235.183000", "181235.186000", "181235.188000", "181315.214000", "181315.217000", "181315.220000", "181315.222000", "181315.225000", "181315.228000", "181315.230000", "181315.233000", "181315.235000", "181315.238000", "181315.240000", "181315.243000", "181315.245000", "181315.248000", "181315.250000", "181315.253000", "181315.255000", "181315.258000", "181315.260000", "181315.262000", "181315.265000", "181315.267000", "181315.270000", "181315.272000", "181315.275000", "181315.277000", "181315.280000", "181355.227000", "181355.230000", "181355.233000", "181355.235000", "181355.237000", "181355.240000", "181355.242000", "181355.245000", "181355.247000", "181355.250000", "181355.252000", "181355.255000", "181355.257000", "181355.260000", "181355.262000", "181355.265000", "181355.267000", "181355.270000", "181355.272000", "181355.275000", "181355.277000", "181355.284000", "181355.286000", "181355.289000", "181355.292000", "181355.294000", "181355.297000", "181427.079000", "181427.081000", "181427.084000", "181427.086000", "181427.089000", "181427.091000", "181427.094000", "181427.096000", "181427.099000", "181427.101000", "181427.104000", "181427.106000", "181427.109000", "181427.111000", "181427.114000", "181427.116000", "181427.119000", "181427.121000", "181427.123000", "181427.126000", "181427.128000", "181427.131000"],
      "InstanceNumber": [1, 2, 3, 4, 5, 6, 7, 8, 9, 10, 11, 12, 13, 14, 15, 16, 17, 18, 19, 20, 21, 22, 23, 24, 25, 26, 27, 28, 29, 30, 31, 32, 33, 34, 35, 36, 37, 38, 39, 40, 41, 42, 43, 44, 45, 46, 47, 48, 49, 50, 51, 52, 53, 54, 55, 56, 57, 58, 59, 60, 61, 62, 63, 64, 65, 66, 67, 68, 69, 70, 71, 72, 73, 74, 75, 76, 77, 78, 79, 80, 81, 82, 83, 84, 85, 86, 87, 88, 89, 90, 91, 92, 93, 94, 95, 96, 97, 98, 99, 100, 101, 102, 103, 104, 105, 106, 107, 108, 109, 110, 111, 112, 113, 114, 115, 116, 117, 118, 119, 120, 121, 122, 123, 124, 125, 126, 127, 128, 129, 130, 131, 132, 133, 134, 135, 136, 137, 138, 139, 140, 141, 142, 143, 144, 145, 146, 147, 148, 149, 150, 151, 152, 153, 154, 155, 156, 157, 158, 159, 160, 161, 162, 163, 164, 165, 166, 167, 168, 169, 170, 171, 172, 173, 174, 175, 176, 177, 178, 179, 180, 181, 182, 183, 184, 185, 186, 187, 188, 189, 190],
      "WindowCenter": [4800.0, 4796.0, 4776.0, 4782.0, 4782.0, 4800.0, 4804.0, 4840.0, 4828.0, 4800.0, 4804.0, 4802.0, 4800.0, 4800.0, 4778.0, 4776.0, 4798.0, 4802.0, 4828.0, 4802.0, 4804.0, 4828.0, 4804.0, 4802.0, 4778.0, 4800.0, 4806.0, 4804.0, 4802.0, 4802.0, 4828.0, 4806.0, 4806.0, 4800.0, 4804.0, 4802.0, 4802.0, 4802.0, 4800.0, 4804.0, 4830.0, 4802.0, 4806.0, 4804.0, 4806.0, 4800.0, 4800.0, 4798.0, 4800.0, 4800.0, 4808.0, 4808.0, 4804.0, 4802.0, 4804.0, 4800.0, 4804.0, 4804.0, 4800.0, 4800.0, 4802.0, 4800.0, 4804.0, 4802.0, 4802.0, 4804.0, 4802.0, 4802.0, 4804.0, 4798.0, 4802.0, 4804.0, 4800.0, 4804.0, 4800.0, 4802.0, 4808.0, 4800.0, 4804.0, 4806.0, 4800.0, 4800.0, 4798.0, 4808.0, 4800.0, 4798.0, 4806.0, 4802.0, 4806.0, 4806.0, 4802.0, 4800.0, 4802.0, 4798.0, 4804.0, 4804.0, 4804.0, 4800.0, 4804.0, 4800.0, 4800.0, 4808.0, 4804.0, 4804.0, 4802.0, 4802.0, 4802.0, 4804.0, 4776.0, 4802.0, 4804.0, 4800.0, 4830.0, 4806.0, 4800.0, 4800.0, 4780.0, 4778.0, 4798.0, 4800.0, 4800.0, 4806.0, 4802.0, 4806.0, 4802.0, 4778.0, 4800.0, 4804.0, 4804.0, 4802.0, 4802.0, 4800.0, 4802.0, 4800.0, 4778.0, 4800.0, 4800.0, 4800.0, 4804.0, 4800.0, 4800.0, 4776.0, 4804.0, 4806.0, 4778.0, 4806.0, 4800.0, 4798.0, 4802.0, 4802.0, 4780.0, 4780.0, 4778.0, 4782.0, 4802.0, 4802.0, 4804.0, 4806.0, 4802.0, 4800.0, 4802.0, 4806.0, 4804.0, 4778.0, 4802.0, 4800.0, 4804.0, 4806.0, 4804.0, 4806.0, 4804.0, 4802.0, 4802.0, 4780.0, 4802.0, 4800.0, 4806.0, 4810.0, 4810.0, 4808.0, 4812.0, 4804.0, 4806.0, 4802.0, 4804.0, 4800.0, 4804.0, 4804.0, 4808.0, 4808.0],
      "WindowWidth": [18602.0, 18598.0, 18574.0, 18576.0, 18574.0, 18612.0, 18608.0, 18650.0, 18644.0, 18612.0, 18610.0, 18610.0, 18608.0, 18604.0, 18576.0, 18578.0, 18602.0, 18606.0, 18640.0, 18606.0, 18604.0, 18638.0, 18602.0, 18600.0, 18572.0, 18598.0, 18602.0, 18600.0, 18600.0, 18598.0, 18632.0, 18604.0, 18596.0, 18598.0, 18596.0, 18602.0, 18600.0, 18598.0, 18592.0, 18600.0, 18634.0, 18594.0, 18598.0, 18594.0, 18598.0, 18592.0, 18596.0, 18592.0, 18598.0, 18598.0, 18602.0, 18596.0, 18600.0, 18592.0, 18596.0, 18596.0, 18598.0, 18594.0, 18590.0, 18594.0, 18590.0, 18590.0, 18592.0, 18596.0, 18592.0, 18596.0, 18594.0, 18592.0, 18596.0, 18592.0, 18594.0, 18594.0, 18592.0, 18602.0, 18594.0, 18592.0, 18596.0, 18590.0, 18590.0, 18592.0, 18588.0, 18592.0, 18586.0, 18590.0, 18590.0, 18588.0, 18596.0, 18592.0, 18594.0, 18592.0, 18590.0, 18582.0, 18590.0, 18586.0, 18594.0, 18588.0, 18592.0, 18588.0, 18594.0, 18588.0, 18590.0, 18596.0, 18598.0, 18592.0, 18590.0, 18592.0, 18590.0, 18596.0, 18560.0, 18590.0, 18586.0, 18592.0, 18628.0, 18592.0, 18588.0, 18586.0, 18556.0, 18558.0, 18586.0, 18590.0, 18592.0, 18596.0, 18590.0, 18590.0, 18588.0, 18556.0, 18586.0, 18592.0, 18588.0, 18586.0, 18586.0, 18588.0, 18590.0, 18584.0, 18558.0, 18590.0, 18590.0, 18590.0, 18592.0, 18588.0, 18590.0, 18560.0, 18596.0, 18590.0, 18558.0, 18590.0, 18588.0, 18588.0, 18588.0, 18582.0, 18562.0, 18560.0, 18564.0, 18562.0, 18590.0, 18594.0, 18588.0, 18586.0, 18590.0, 18582.0, 18590.0, 18592.0, 18592.0, 18560.0, 18588.0, 18584.0, 18588.0, 18592.0, 18590.0, 18592.0, 18588.0, 18590.0, 18590.0, 18560.0, 18586.0, 18586.0, 18584.0, 18590.0, 18590.0, 18584.0, 18596.0, 18590.0, 18588.0, 18586.0, 18588.0, 18584.0, 18586.0, 18588.0, 18592.0, 18588.0]
    },
    "slices": {}
  }
}