{
  "AcquisitionMatrixPE": 104,
  "AcquisitionNumber": 1,
  "AcquisitionTime": "11:26:32.240000",
  "BandwidthPerPixelPhaseEncode": 17.17,
  "BaseResolution": 104,
  "BodyPartExamined": "BRAIN",
  "CoilString": "HC1-7;NC1_2",
  "ConsistencyInfo": "N4_VE11C_LATEST_20160120",
  "ConversionSoftware": "dcm2niix",
  "ConversionSoftwareVersion": "v1.0.20190902",
  "DerivedVendorReportedEchoSpacing": 0.000560011,
  "DeviceSerialNumber": "167006",
  "DwellTime": 2.1e-06,
  "EchoTime": 0.037,
  "EchoTrainLength": 104,
  "EffectiveEchoSpacing": 0.000560011,
  "FlipAngle": 52,
  "ImageComments": "Unaliased_MB4_PE3_LB",
  "ImageOrientationPatientDICOM": [0.996117, 0.054125, 0.0694414, -0.0226051, 0.919504, -0.392429],
  "ImageType": [
    "ORIGINAL",
    "PRIMARY",
    "M",
    "MB",
    "ND",
    "MOSAIC"
],
  "ImagingFrequency": 123.259,
  "InPlanePhaseEncodingDirectionDICOM": "COL",
  "InstitutionAddress": "Chemin_Queen-Mary_4565_Montreal_District_CA_H3W_1W5",
  "InstitutionName": "IUGM",
  "InstitutionalDepartmentName": "Department",
  "MRAcquisitionType": "2D",
  "MagneticFieldStrength": 3,
  "Manufacturer": "Siemens",
  "ManufacturersModelName": "Prisma_fit",
  "Modality": "MR",
  "MultibandAccelerationFactor": 4,
  "PartialFourier": 1,
  "PatientPosition": "HFS",
  "PercentPhaseFOV": 100,
  "PhaseEncodingDirection": "j",
  "PhaseEncodingSteps": 104,
  "PhaseResolution": 1,
  "PixelBandwidth": 2290,
  "ProcedureStepDescription": "memory_things",
  "ProtocolName": "func_task-things_run-3",
  "PulseSequenceDetails": "%CustomerSeq%_cmrr_mbep2d_bold",
  "ReceiveCoilActiveElements": "HC1-7;NC1,2",
  "ReceiveCoilName": "HeadNeck_64",
  "ReconMatrixPE": 104,
  "RepetitionTime": 1.49,
  "SAR": 0.0709817,
  "ScanOptions": "FS",
  "ScanningSequence": "EP",
  "SequenceName": "epfid2d1_104",
  "SequenceVariant": "SK_SS",
  "SeriesDescription": "func_task-things_run-3",
  "SeriesNumber": 16,
  "ShimSetting": [649, -7155, -8842, 602, 106, 135, -41, -10],
  "SliceThickness": 2,
  "SliceTiming": [0, 0.7825, 0.0975, 0.88, 0.195, 0.9775, 0.2925, 1.0775, 0.39, 1.175, 0.4875, 1.2725, 0.5875, 1.37, 0.685, 0, 0.7825, 0.0975, 0.88, 0.195, 0.9775, 0.2925, 1.0775, 0.39, 1.175, 0.4875, 1.2725, 0.5875, 1.37, 0.685, 0, 0.7825, 0.0975, 0.88, 0.195, 0.9775, 0.2925, 1.0775, 0.39, 1.175, 0.4875, 1.2725, 0.5875, 1.37, 0.685, 0, 0.7825, 0.0975, 0.88, 0.195, 0.9775, 0.2925, 1.0775, 0.39, 1.175, 0.4875, 1.2725, 0.5875, 1.37, 0.685],
  "SoftwareVersions": "syngo_MR_E11",
  "SpacingBetweenSlices": 2,
  "StationName": "MRC35049",
  "TaskName": "things",
  "TotalReadoutTime": 0.0576811,
  "TxRefAmp": 320.253,
  "WipMemBlock": "dd891201-5780-45c6-a5dc-c2a3688eee8f||Sequence: R016 ve11c/master r/e634e98; Dec 19 2017 11:00:25 by eja",
  "dcmmeta_affine": [
    [-1.9922332763671875, -0.045210208743810654, 0.17018383741378784, 105.30936431884766],
    [-0.1082499623298645, 1.8390089273452759, -0.7786708474159241, -51.603633880615234],
    [0.1388828605413437, 0.7848581671714783, 1.8343143463134766, -75.4397201538086],
    [0.0, 0.0, 0.0, 1.0]
],
  "dcmmeta_reorient_transform": [
    [0.0, -1.0, 0.0, 103.0],
    [1.0, 0.0, 0.0, 0.0],
    [0.0, 0.0, 1.0, 0.0],
    [0.0, 0.0, 0.0, 1.0]
],
  "dcmmeta_shape": [104, 104, 60, 190],
  "dcmmeta_slice_dim": 2,
  "dcmmeta_version": 0.6,
  "global": {
    "const": {
      "AcquisitionMatrix": [104, 0, 0, 104],
      "AngioFlag": "N",
      "BitsAllocated": 16,
      "BitsStored": 16,
      "BodyPartExamined": "BRAIN",
      "Columns": 832,
      "EchoNumbers": 1,
      "EchoTime": 37.0,
      "EchoTrainLength": 104,
      "FlipAngle": 52.0,
      "HighBit": 15,
      "ImageOrientationPatient": [0.9961166468783, 0.05412497962384, 0.06944143138402, -0.0226051048197, 0.9195044407449, -0.3924290925588],
      "ImagePositionPatient": [-809.36911673043, -846.61649766257, 240.53569350902],
      "ImageType": [
        "ORIGINAL",
        "PRIMARY",
        "M",
        "MB",
        "ND",
        "MOSAIC"
],
      "ImagedNucleus": "1H",
      "ImagingFrequency": 123.258973,
      "InPlanePhaseEncodingDirection": "COL",
      "MRAcquisitionType": "2D",
      "MagneticFieldStrength": 3.0,
      "Manufacturer": "SIEMENS",
      "ManufacturerModelName": "Prisma_fit",
      "Modality": "MR",
      "NumberOfAverages": 1.0,
      "NumberOfPhaseEncodingSteps": 104,
      "PercentPhaseFieldOfView": 100.0,
      "PercentSampling": 100.0,
      "PerformedProcedureStepStartTime": "105157.808000",
      "PhotometricInterpretation": "MONOCHROME2",
      "PixelBandwidth": 2290.0,
      "PixelRepresentation": 0,
      "PixelSpacing": [2.0, 2.0],
      "ProtocolName": "func_task-things_run-3",
      "RepetitionTime": 1490.0,
      "Rows": 832,
      "SAR": 0.07098171906789,
      "SamplesPerPixel": 1,
      "ScanOptions": "FS",
      "ScanningSequence": "EP",
      "SequenceName": "epfid2d1_104",
      "SequenceVariant": [
        "SK",
        "SS"
],
      "SeriesDescription": "func_task-things_run-3",
      "SeriesNumber": 16,
      "SeriesTime": "112755.310000",
      "SliceLocation": -40.137978828316,
      "SliceThickness": 2.0,
      "SmallestImagePixelValue": 0,
      "SoftwareVersions": "syngo MR E11",
      "SpacingBetweenSlices": 2.0000000194979,
      "SpecificCharacterSet": "ISO_IR 100",
      "StudyID": "1",
      "StudyTime": "105157.760000",
      "TransmitCoilName": "Body",
      "VariableFlipAngleFlag": "N",
      "WindowCenterWidthExplanation": "Algo1",
      "dBdt": 0.0},
    "slices": {}
  },
  "time": {
    "samples": {
      "AcquisitionNumber": [1, 2, 3, 4, 5, 6, 7, 8, 9, 10, 11, 12, 13, 14, 15, 16, 17, 18, 19, 20, 21, 22, 23, 24, 25, 26, 27, 28, 29, 30, 31, 32, 33, 34, 35, 36, 37, 38, 39, 40, 41, 42, 43, 44, 45, 46, 47, 48, 49, 50, 51, 52, 53, 54, 55, 56, 57, 58, 59, 60, 61, 62, 63, 64, 65, 66, 67, 68, 69, 70, 71, 72, 73, 74, 75, 76, 77, 78, 79, 80, 81, 82, 83, 84, 85, 86, 87, 88, 89, 90, 91, 92, 93, 94, 95, 96, 97, 98, 99, 100, 101, 102, 103, 104, 105, 106, 107, 108, 109, 110, 111, 112, 113, 114, 115, 116, 117, 118, 119, 120, 121, 122, 123, 124, 125, 126, 127, 128, 129, 130, 131, 132, 133, 134, 135, 136, 137, 138, 139, 140, 141, 142, 143, 144, 145, 146, 147, 148, 149, 150, 151, 152, 153, 154, 155, 156, 157, 158, 159, 160, 161, 162, 163, 164, 165, 166, 167, 168, 169, 170, 171, 172, 173, 174, 175, 176, 177, 178, 179, 180, 181, 182, 183, 184, 185, 186, 187, 188, 189, 190],
      "AcquisitionTime": ["112632.240000", "112633.730000", "112635.220000", "112636.710000", "112638.200000", "112639.690000", "112641.180000", "112642.670000", "112644.160000", "112645.650000", "112647.140000", "112648.630000", "112650.120000", "112651.610000", "112653.100000", "112654.590000", "112656.080000", "112657.570000", "112659.060000", "112700.550000", "112702.040000", "112703.530000", "112705.020000", "112706.510000", "112708.000000", "112709.490000", "112710.980000", "112712.470000", "112713.960000", "112715.450000", "112716.940000", "112718.430000", "112719.920000", "112721.410000", "112722.900000", "112724.390000", "112725.880000", "112727.370000", "112728.860000", "112730.350000", "112731.840000", "112733.330000", "112734.820000", "112736.310000", "112737.800000", "112739.290000", "112740.780000", "112742.270000", "112743.760000", "112745.250000", "112746.740000", "112748.230000", "112749.720000", "112751.210000", "112752.700000", "112754.190000", "112755.680000", "112757.170000", "112758.660000", "112800.150000", "112801.640000", "112803.130000", "112804.620000", "112806.110000", "112807.600000", "112809.090000", "112810.580000", "112812.070000", "112813.560000", "112815.050000", "112816.540000", "112818.030000", "112819.520000", "112821.010000", "112822.500000", "112823.990000", "112825.480000", "112826.970000", "112828.460000", "112829.950000", "112831.440000", "112832.930000", "112834.420000", "112835.910000", "112837.400000", "112838.890000", "112840.380000", "112841.870000", "112843.360000", "112844.850000", "112846.340000", "112847.830000", "112849.320000", "112850.810000", "112852.300000", "112853.790000", "112855.280000", "112856.770000", "112858.260000", "112859.750000", "112901.240000", "112902.730000", "112904.220000", "112905.710000", "112907.200000", "112908.690000", "112910.180000", "112911.670000", "112913.160000", "112914.650000", "112916.140000", "112917.630000", "112919.120000", "112920.610000", "112922.100000", "112923.590000", "112925.080000", "112926.570000", "112928.060000", "112929.550000", "112931.040000", "112932.530000", "112934.020000", "112935.510000", "112937.000000", "112938.490000", "112939.980000", "112941.470000", "112942.960000", "112944.450000", "112945.940000", "112947.430000", "112948.920000", "112950.410000", "112951.900000", "112953.390000", "112954.880000", "112956.370000", "112957.860000", "112959.350000", "113000.840000", "113002.330000", "113003.820000", "113005.310000", "113006.800000", "113008.290000", "113009.780000", "113011.270000", "113012.760000", "113014.250000", "113015.740000", "113017.230000", "113018.720000", "113020.210000", "113021.700000", "113023.190000", "113024.680000", "113026.170000", "113027.660000", "113029.150000", "113030.640000", "113032.130000", "113033.620000", "113035.110000", "113036.600000", "113038.090000", "113039.580000", "113041.070000", "113042.560000", "113044.050000", "113045.540000", "113047.030000", "113048.520000", "113050.010000", "113051.500000", "113052.990000", "113054.480000", "113055.970000", "113057.460000", "113058.950000", "113100.440000", "113101.930000", "113103.420000", "113104.910000", "113106.400000", "113107.890000", "113109.380000", "113110.870000", "113112.360000", "113113.850000"],
      "ContentTime": ["112755.313000", "112755.317000", "112755.320000", "112755.323000", "112755.327000", "112755.330000", "112755.333000", "112755.337000", "112755.340000", "112755.344000", "112755.349000", "112755.353000", "112755.365000", "112755.369000", "112755.373000", "112755.377000", "112755.380000", "112755.383000", "112755.387000", "112755.390000", "112755.393000", "112755.397000", "112755.400000", "112755.403000", "112755.407000", "112755.410000", "112755.413000", "112755.416000", "112815.280000", "112815.290000", "112815.293000", "112815.296000", "112815.300000", "112815.309000", "112815.312000", "112815.315000", "112815.318000", "112815.322000", "112815.325000", "112815.328000", "112815.332000", "112815.335000", "112815.338000", "112815.341000", "112815.345000", "112815.348000", "112815.351000", "112815.355000", "112815.358000", "112835.280000", "112835.284000", "112835.287000", "112835.290000", "112835.294000", "112835.297000", "112835.300000", "112835.304000", "112835.307000", "112835.311000", "112835.314000", "112835.317000", "112835.321000", "112835.324000", "112835.327000", "112835.331000", "112835.334000", "112835.337000", "112835.341000", "112835.344000", "112855.279000", "112855.283000", "112855.286000", "112855.289000", "112855.293000", "112855.296000", "112855.299000", "112855.303000", "112855.306000", "112855.309000", "112855.318000", "112855.322000", "112855.325000", "112855.328000", "112855.331000", "112855.335000", "112855.338000", "112855.342000", "112855.345000", "112855.348000", "112935.279000", "112935.283000", "112935.286000", "112935.289000", "112935.293000", "112935.296000", "112935.299000", "112935.303000", "112935.306000", "112935.309000", "112935.313000", "112935.316000", "112935.319000", "112935.323000", "112935.326000", "112935.329000", "112935.333000", "112935.336000", "112935.339000", "112935.343000", "112935.346000", "112935.349000", "112935.352000", "112935.356000", "112935.359000", "112935.362000", "112935.366000", "112935.369000", "112935.372000", "112935.376000", "112935.379000", "112935.382000", "112935.386000", "113015.280000", "113015.284000", "113015.287000", "113015.290000", "113015.294000", "113015.297000", "113015.300000", "113015.304000", "113015.316000", "113015.319000", "113015.322000", "113015.326000", "113015.329000", "113015.332000", "113015.336000", "113015.339000", "113015.342000", "113015.346000", "113015.349000", "113015.352000", "113015.356000", "113015.359000", "113015.362000", "113015.366000", "113015.369000", "113015.372000", "113015.376000", "113055.280000", "113055.284000", "113055.287000", "113055.290000", "113055.294000", "113055.297000", "113055.300000", "113055.304000", "113055.307000", "113055.310000", "113055.314000", "113055.317000", "113055.320000", "113055.324000", "113055.327000", "113055.330000", "113055.334000", "113055.337000", "113055.340000", "113055.343000", "113055.347000", "113055.350000", "113055.353000", "113055.357000", "113055.360000", "113055.363000", "113055.367000", "113116.157000", "113116.161000", "113116.164000", "113116.168000", "113116.171000", "113116.175000", "113116.178000", "113116.182000", "113116.185000", "113116.189000", "113116.192000", "113116.195000", "113116.198000", "113116.202000"],
      "InstanceCreationTime": ["112755.313000", "112755.317000", "112755.320000", "112755.323000", "112755.327000", "112755.330000", "112755.333000", "112755.337000", "112755.340000", "112755.344000", "112755.349000", "112755.353000", "112755.365000", "112755.369000", "112755.373000", "112755.377000", "112755.380000", "112755.383000", "112755.387000", "112755.390000", "112755.393000", "112755.397000", "112755.400000", "112755.403000", "112755.407000", "112755.410000", "112755.413000", "112755.416000", "112815.280000", "112815.290000", "112815.293000", "112815.296000", "112815.300000", "112815.309000", "112815.312000", "112815.315000", "112815.318000", "112815.322000", "112815.325000", "112815.328000", "112815.332000", "112815.335000", "112815.338000", "112815.341000", "112815.345000", "112815.348000", "112815.351000", "112815.355000", "112815.358000", "112835.280000", "112835.284000", "112835.287000", "112835.290000", "112835.294000", "112835.297000", "112835.300000", "112835.304000", "112835.307000", "112835.311000", "112835.314000", "112835.317000", "112835.321000", "112835.324000", "112835.327000", "112835.331000", "112835.334000", "112835.337000", "112835.341000", "112835.344000", "112855.279000", "112855.283000", "112855.286000", "112855.289000", "112855.293000", "112855.296000", "112855.299000", "112855.303000", "112855.306000", "112855.309000", "112855.318000", "112855.322000", "112855.325000", "112855.328000", "112855.331000", "112855.335000", "112855.338000", "112855.342000", "112855.345000", "112855.348000", "112935.279000", "112935.283000", "112935.286000", "112935.289000", "112935.293000", "112935.296000", "112935.299000", "112935.303000", "112935.306000", "112935.309000", "112935.313000", "112935.316000", "112935.319000", "112935.323000", "112935.326000", "112935.329000", "112935.333000", "112935.336000", "112935.339000", "112935.343000", "112935.346000", "112935.349000", "112935.352000", "112935.356000", "112935.359000", "112935.362000", "112935.366000", "112935.369000", "112935.372000", "112935.376000", "112935.379000", "112935.382000", "112935.386000", "113015.280000", "113015.284000", "113015.287000", "113015.290000", "113015.294000", "113015.297000", "113015.300000", "113015.304000", "113015.316000", "113015.319000", "113015.322000", "113015.326000", "113015.329000", "113015.332000", "113015.336000", "113015.339000", "113015.342000", "113015.346000", "113015.349000", "113015.352000", "113015.356000", "113015.359000", "113015.362000", "113015.366000", "113015.369000", "113015.372000", "113015.376000", "113055.280000", "113055.284000", "113055.287000", "113055.290000", "113055.294000", "113055.297000", "113055.300000", "113055.304000", "113055.307000", "113055.310000", "113055.314000", "113055.317000", "113055.320000", "113055.324000", "113055.327000", "113055.330000", "113055.334000", "113055.337000", "113055.340000", "113055.343000", "113055.347000", "113055.350000", "113055.353000", "113055.357000", "113055.360000", "113055.363000", "113055.367000", "113116.157000", "113116.161000", "113116.164000", "113116.168000", "113116.171000", "113116.175000", "113116.178000", "113116.182000", "113116.185000", "113116.189000", "113116.192000", "113116.195000", "113116.198000", "113116.202000"],
      "InstanceNumber": [1, 2, 3, 4, 5, 6, 7, 8, 9, 10, 11, 12, 13, 14, 15, 16, 17, 18, 19, 20, 21, 22, 23, 24, 25, 26, 27, 28, 29, 30, 31, 32, 33, 34, 35, 36, 37, 38, 39, 40, 41, 42, 43, 44, 45, 46, 47, 48, 49, 50, 51, 52, 53, 54, 55, 56, 57, 58, 59, 60, 61, 62, 63, 64, 65, 66, 67, 68, 69, 70, 71, 72, 73, 74, 75, 76, 77, 78, 79, 80, 81, 82, 83, 84, 85, 86, 87, 88, 89, 90, 91, 92, 93, 94, 95, 96, 97, 98, 99, 100, 101, 102, 103, 104, 105, 106, 107, 108, 109, 110, 111, 112, 113, 114, 115, 116, 117, 118, 119, 120, 121, 122, 123, 124, 125, 126, 127, 128, 129, 130, 131, 132, 133, 134, 135, 136, 137, 138, 139, 140, 141, 142, 143, 144, 145, 146, 147, 148, 149, 150, 151, 152, 153, 154, 155, 156, 157, 158, 159, 160, 161, 162, 163, 164, 165, 166, 167, 168, 169, 170, 171, 172, 173, 174, 175, 176, 177, 178, 179, 180, 181, 182, 183, 184, 185, 186, 187, 188, 189, 190],
      "LargestImagePixelValue": [47378, 47475, 43925, 43340, 43789, 43234, 44589, 44616, 45951, 46211, 43531, 42232, 42702, 42589, 42709, 43534, 42597, 42290, 43005, 45360, 46875, 46647, 44553, 42543, 43209, 42439, 42404, 43446, 45122, 47583, 45827, 43943, 43501, 43014, 43393, 43265, 43651, 45148, 45927, 46768, 47230, 43455, 42716, 42940, 43078, 43584, 44417, 45167, 44928, 43271, 43559, 43535, 43791, 43375, 43689, 43577, 45965, 46924, 45466, 45534, 45062, 44681, 45031, 44364, 43208, 42803, 43682, 44128, 44119, 44866, 43903, 43636, 43712, 43476, 43540, 44189, 43812, 43514, 43157, 43710, 43589, 45653, 45251, 43684, 44793, 44071, 43387, 43937, 44618, 45144, 45920, 45340, 44401, 43306, 44895, 44421, 44597, 44885, 45642, 45160, 45037, 45350, 47086, 46635, 47080, 45596, 44672, 44295, 45524, 44828, 44081, 43564, 43747, 44413, 45650, 45268, 44151, 46643, 46977, 46575, 44482, 44776, 45211, 45458, 46280, 44288, 46753, 46612, 45219, 43346, 43411, 43821, 49937, 43836, 43865, 43667, 44044, 43803, 45634, 45374, 44912, 43881, 44245, 44069, 45464, 44539, 42703, 43327, 43581, 44322, 44880, 46652, 46375, 44228, 45117, 46013, 45891, 45350, 46254, 46170, 46549, 45914, 43662, 43826, 44708, 45600, 46589, 46255, 45847, 45314, 42189, 42601, 41675, 43553, 45652, 44356, 43389, 41997, 42448, 41711, 43312, 43340, 44312, 44133, 46663, 46234, 43992, 43864, 44658, 44815],
      "WindowCenter": [10594.0, 10569.0, 10539.0, 10535.0, 10529.0, 10493.0, 10492.0, 10502.0, 10520.0, 10504.0, 10466.0, 10461.0, 10493.0, 10496.0, 10497.0, 10498.0, 10486.0, 10497.0, 10494.0, 10503.0, 10522.0, 10545.0, 10547.0, 10528.0, 10504.0, 10470.0, 10462.0, 10475.0, 10486.0, 10528.0, 10550.0, 10544.0, 10538.0, 10506.0, 10469.0, 10440.0, 10442.0, 10466.0, 10496.0, 10515.0, 10522.0, 10502.0, 10482.0, 10474.0, 10465.0, 10471.0, 10483.0, 10497.0, 10518.0, 10509.0, 10489.0, 10469.0, 10459.0, 10450.0, 10473.0, 10501.0, 10533.0, 10504.0, 10473.0, 10463.0, 10467.0, 10475.0, 10499.0, 10507.0, 10478.0, 10430.0, 10413.0, 10417.0, 10432.0, 10442.0, 10457.0, 10480.0, 10488.0, 10483.0, 10473.0, 10484.0, 10481.0, 10494.0, 10484.0, 10485.0, 10472.0, 10505.0, 10503.0, 10523.0, 10546.0, 10514.0, 10488.0, 10477.0, 10473.0, 10478.0, 10489.0, 10507.0, 10509.0, 10496.0, 10487.0, 10458.0, 10447.0, 10450.0, 10463.0, 10474.0, 10467.0, 10493.0, 10519.0, 10497.0, 10490.0, 10473.0, 10468.0, 10488.0, 10509.0, 10502.0, 10472.0, 10451.0, 10449.0, 10465.0, 10502.0, 10522.0, 10520.0, 10501.0, 10468.0, 10451.0, 10442.0, 10450.0, 10459.0, 10477.0, 10501.0, 10472.0, 10487.0, 10487.0, 10466.0, 10451.0, 10466.0, 10500.0, 10560.0, 10490.0, 10477.0, 10468.0, 10472.0, 10484.0, 10515.0, 10493.0, 10462.0, 10443.0, 10447.0, 10455.0, 10472.0, 10458.0, 10430.0, 10435.0, 10452.0, 10487.0, 10514.0, 10520.0, 10504.0, 10469.0, 10451.0, 10443.0, 10432.0, 10431.0, 10456.0, 10487.0, 10493.0, 10503.0, 10485.0, 10468.0, 10473.0, 10476.0, 10488.0, 10499.0, 10500.0, 10500.0, 10476.0, 10466.0, 10442.0, 10456.0, 10475.0, 10482.0, 10499.0, 10477.0, 10447.0, 10424.0, 10446.0, 10443.0, 10465.0, 10475.0, 10479.0, 10440.0, 10409.0, 10406.0, 10437.0, 10478.0],
      "WindowWidth": [22560.0, 22486.0, 22416.0, 22409.0, 22384.0, 22296.0, 22287.0, 22310.0, 22346.0, 22306.0, 22228.0, 22225.0, 22301.0, 22308.0, 22309.0, 22305.0, 22285.0, 22312.0, 22303.0, 22312.0, 22350.0, 22416.0, 22421.0, 22388.0, 22326.0, 22247.0, 22228.0, 22250.0, 22274.0, 22363.0, 22424.0, 22418.0, 22405.0, 22333.0, 22240.0, 22174.0, 22176.0, 22226.0, 22291.0, 22330.0, 22343.0, 22315.0, 22278.0, 22254.0, 22234.0, 22249.0, 22276.0, 22303.0, 22351.0, 22333.0, 22284.0, 22232.0, 22213.0, 22196.0, 22247.0, 22314.0, 22383.0, 22314.0, 22243.0, 22218.0, 22231.0, 22255.0, 22307.0, 22329.0, 22264.0, 22152.0, 22105.0, 22115.0, 22151.0, 22175.0, 22216.0, 22271.0, 22288.0, 22277.0, 22254.0, 22274.0, 22273.0, 22301.0, 22281.0, 22276.0, 22249.0, 22335.0, 22315.0, 22369.0, 22425.0, 22346.0, 22283.0, 22259.0, 22248.0, 22255.0, 22276.0, 22321.0, 22334.0, 22311.0, 22285.0, 22216.0, 22189.0, 22193.0, 22218.0, 22247.0, 22231.0, 22290.0, 22350.0, 22294.0, 22272.0, 22250.0, 22234.0, 22288.0, 22334.0, 22315.0, 22248.0, 22203.0, 22194.0, 22231.0, 22311.0, 22364.0, 22365.0, 22308.0, 22227.0, 22191.0, 22178.0, 22191.0, 22211.0, 22252.0, 22307.0, 22246.0, 22273.0, 22273.0, 22226.0, 22198.0, 22233.0, 22314.0, 22457.0, 22293.0, 22257.0, 22234.0, 22243.0, 22275.0, 22342.0, 22293.0, 22218.0, 22179.0, 22185.0, 22210.0, 22245.0, 22208.0, 22152.0, 22166.0, 22200.0, 22278.0, 22340.0, 22350.0, 22313.0, 22240.0, 22187.0, 22165.0, 22139.0, 22136.0, 22193.0, 22275.0, 22278.0, 22311.0, 22280.0, 22240.0, 22245.0, 22248.0, 22272.0, 22298.0, 22309.0, 22298.0, 22259.0, 22240.0, 22182.0, 22207.0, 22240.0, 22263.0, 22312.0, 22268.0, 22193.0, 22137.0, 22182.0, 22175.0, 22222.0, 22249.0, 22252.0, 22159.0, 22099.0, 22091.0, 22162.0, 22258.0]
    },
    "slices": {}
  }
}