{
  "AcquisitionMatrixPE": 104,
  "AcquisitionNumber": 1,
  "AcquisitionTime": "11:20:25.945000",
  "BandwidthPerPixelPhaseEncode": 17.17,
  "BaseResolution": 104,
  "BodyPartExamined": "BRAIN",
  "CoilString": "HC1-7;NC1_2",
  "ConsistencyInfo": "N4_VE11C_LATEST_20160120",
  "ConversionSoftware": "dcm2niix",
  "ConversionSoftwareVersion": "v1.0.20190902",
  "DerivedVendorReportedEchoSpacing": 0.000560011,
  "DeviceSerialNumber": "167006",
  "DwellTime": 2.1e-06,
  "EchoTime": 0.037,
  "EchoTrainLength": 104,
  "EffectiveEchoSpacing": 0.000560011,
  "FlipAngle": 52,
  "ImageComments": "Unaliased_MB4_PE3_LB",
  "ImageOrientationPatientDICOM": [0.996117, 0.054125, 0.0694414, -0.0226051, 0.919504, -0.392429],
  "ImageType": [
    "ORIGINAL",
    "PRIMARY",
    "P",
    "MB",
    "ND",
    "MOSAIC"
],
  "ImagingFrequency": 123.259,
  "InPlanePhaseEncodingDirectionDICOM": "COL",
  "InstitutionAddress": "Chemin_Queen-Mary_4565_Montreal_District_CA_H3W_1W5",
  "InstitutionName": "IUGM",
  "InstitutionalDepartmentName": "Department",
  "MRAcquisitionType": "2D",
  "MagneticFieldStrength": 3,
  "Manufacturer": "Siemens",
  "ManufacturersModelName": "Prisma_fit",
  "Modality": "MR",
  "MultibandAccelerationFactor": 4,
  "PartialFourier": 1,
  "PatientPosition": "HFS",
  "PercentPhaseFOV": 100,
  "PhaseEncodingDirection": "j",
  "PhaseEncodingSteps": 104,
  "PhaseResolution": 1,
  "PixelBandwidth": 2290,
  "ProcedureStepDescription": "memory_things",
  "ProtocolName": "func_task-things_run-2",
  "PulseSequenceDetails": "%CustomerSeq%_cmrr_mbep2d_bold",
  "ReceiveCoilActiveElements": "HC1-7;NC1,2",
  "ReceiveCoilName": "HeadNeck_64",
  "ReconMatrixPE": 104,
  "RepetitionTime": 1.49,
  "SAR": 0.0709817,
  "ScanOptions": "FS",
  "ScanningSequence": "EP",
  "SequenceName": "epfid2d1_104",
  "SequenceVariant": "SK_SS",
  "SeriesDescription": "func_task-things_run-2",
  "SeriesNumber": 14,
  "ShimSetting": [649, -7155, -8842, 602, 106, 135, -41, -10],
  "SliceThickness": 2,
  "SliceTiming": [0, 0.785, 0.0975, 0.8825, 0.195, 0.98, 0.295, 1.0775, 0.3925, 1.175, 0.49, 1.275, 0.5875, 1.3725, 0.685, 0, 0.785, 0.0975, 0.8825, 0.195, 0.98, 0.295, 1.0775, 0.3925, 1.175, 0.49, 1.275, 0.5875, 1.3725, 0.685, 0, 0.785, 0.0975, 0.8825, 0.195, 0.98, 0.295, 1.0775, 0.3925, 1.175, 0.49, 1.275, 0.5875, 1.3725, 0.685, 0, 0.785, 0.0975, 0.8825, 0.195, 0.98, 0.295, 1.0775, 0.3925, 1.175, 0.49, 1.275, 0.5875, 1.3725, 0.685],
  "SoftwareVersions": "syngo_MR_E11",
  "SpacingBetweenSlices": 2,
  "StationName": "MRC35049",
  "TaskName": "things",
  "TotalReadoutTime": 0.0576811,
  "TxRefAmp": 320.253,
  "WipMemBlock": "3cbe0255-4318-45ae-b494-6654f6c3e1dd||Sequence: R016 ve11c/master r/e634e98; Dec 19 2017 11:00:25 by eja",
  "dcmmeta_affine": [
    [-1.9922332763671875, -0.045210208743810654, 0.17018383741378784, 105.30936431884766],
    [-0.1082499623298645, 1.8390089273452759, -0.7786708474159241, -51.603633880615234],
    [0.1388828605413437, 0.7848581671714783, 1.8343143463134766, -75.4397201538086],
    [0.0, 0.0, 0.0, 1.0]
],
  "dcmmeta_reorient_transform": [
    [0.0, -1.0, 0.0, 103.0],
    [1.0, 0.0, 0.0, 0.0],
    [0.0, 0.0, 1.0, 0.0],
    [0.0, 0.0, 0.0, 1.0]
],
  "dcmmeta_shape": [104, 104, 60, 190],
  "dcmmeta_slice_dim": 2,
  "dcmmeta_version": 0.6,
  "global": {
    "const": {
      "AcquisitionMatrix": [104, 0, 0, 104],
      "AngioFlag": "N",
      "BitsAllocated": 16,
      "BitsStored": 16,
      "BodyPartExamined": "BRAIN",
      "Columns": 832,
      "EchoNumbers": 1,
      "EchoTime": 37.0,
      "EchoTrainLength": 104,
      "FlipAngle": 52.0,
      "HighBit": 15,
      "ImageOrientationPatient": [0.9961166468783, 0.05412497962384, 0.06944143138402, -0.0226051048197, 0.9195044407449, -0.3924290925588],
      "ImagePositionPatient": [-809.36911673043, -846.61649766257, 240.53569350902],
      "ImageType": [
        "ORIGINAL",
        "PRIMARY",
        "P",
        "MB",
        "ND",
        "MOSAIC"
],
      "ImagedNucleus": "1H",
      "ImagingFrequency": 123.258969,
      "InPlanePhaseEncodingDirection": "COL",
      "LargestImagePixelValue": 4095,
      "MRAcquisitionType": "2D",
      "MagneticFieldStrength": 3.0,
      "Manufacturer": "SIEMENS",
      "ManufacturerModelName": "Prisma_fit",
      "Modality": "MR",
      "NumberOfAverages": 1.0,
      "NumberOfPhaseEncodingSteps": 104,
      "PercentPhaseFieldOfView": 100.0,
      "PercentSampling": 100.0,
      "PerformedProcedureStepStartTime": "105157.808000",
      "PhotometricInterpretation": "MONOCHROME2",
      "PixelBandwidth": 2290.0,
      "PixelRepresentation": 0,
      "PixelSpacing": [2.0, 2.0],
      "ProtocolName": "func_task-things_run-2",
      "RepetitionTime": 1490.0,
      "RescaleIntercept": -4096.0,
      "RescaleSlope": 2.0,
      "RescaleType": "US",
      "Rows": 832,
      "SAR": 0.07098171906789,
      "SamplesPerPixel": 1,
      "ScanOptions": "FS",
      "ScanningSequence": "EP",
      "SequenceName": "epfid2d1_104",
      "SequenceVariant": [
        "SK",
        "SS"
],
      "SeriesDescription": "func_task-things_run-2",
      "SeriesNumber": 14,
      "SeriesTime": "112142.259000",
      "SliceLocation": -40.137978828316,
      "SliceThickness": 2.0,
      "SmallestImagePixelValue": 0,
      "SoftwareVersions": "syngo MR E11",
      "SpacingBetweenSlices": 2.0000000194979,
      "SpecificCharacterSet": "ISO_IR 100",
      "StudyID": "1",
      "StudyTime": "105157.760000",
      "TransmitCoilName": "Body",
      "VariableFlipAngleFlag": "N",
      "WindowCenterWidthExplanation": "Algo1",
      "dBdt": 0.0},
    "slices": {}
  },
  "time": {
    "samples": {
      "AcquisitionNumber": [1, 2, 3, 4, 5, 6, 7, 8, 9, 10, 11, 12, 13, 14, 15, 16, 17, 18, 19, 20, 21, 22, 23, 24, 25, 26, 27, 28, 29, 30, 31, 32, 33, 34, 35, 36, 37, 38, 39, 40, 41, 42, 43, 44, 45, 46, 47, 48, 49, 50, 51, 52, 53, 54, 55, 56, 57, 58, 59, 60, 61, 62, 63, 64, 65, 66, 67, 68, 69, 70, 71, 72, 73, 74, 75, 76, 77, 78, 79, 80, 81, 82, 83, 84, 85, 86, 87, 88, 89, 90, 91, 92, 93, 94, 95, 96, 97, 98, 99, 100, 101, 102, 103, 104, 105, 106, 107, 108, 109, 110, 111, 112, 113, 114, 115, 116, 117, 118, 119, 120, 121, 122, 123, 124, 125, 126, 127, 128, 129, 130, 131, 132, 133, 134, 135, 136, 137, 138, 139, 140, 141, 142, 143, 144, 145, 146, 147, 148, 149, 150, 151, 152, 153, 154, 155, 156, 157, 158, 159, 160, 161, 162, 163, 164, 165, 166, 167, 168, 169, 170, 171, 172, 173, 174, 175, 176, 177, 178, 179, 180, 181, 182, 183, 184, 185, 186, 187, 188, 189, 190],
      "AcquisitionTime": ["112025.945000", "112027.435000", "112028.925000", "112030.415000", "112031.905000", "112033.395000", "112034.885000", "112036.375000", "112037.865000", "112039.355000", "112040.845000", "112042.335000", "112043.825000", "112045.315000", "112046.805000", "112048.295000", "112049.785000", "112051.275000", "112052.765000", "112054.255000", "112055.745000", "112057.235000", "112058.725000", "112100.215000", "112101.705000", "112103.195000", "112104.685000", "112106.175000", "112107.665000", "112109.155000", "112110.645000", "112112.135000", "112113.625000", "112115.115000", "112116.605000", "112118.095000", "112119.585000", "112121.075000", "112122.565000", "112124.055000", "112125.545000", "112127.035000", "112128.525000", "112130.015000", "112131.505000", "112132.995000", "112134.485000", "112135.975000", "112137.465000", "112138.955000", "112140.445000", "112141.935000", "112143.425000", "112144.915000", "112146.405000", "112147.895000", "112149.385000", "112150.875000", "112152.365000", "112153.855000", "112155.345000", "112156.835000", "112158.325000", "112159.815000", "112201.305000", "112202.795000", "112204.285000", "112205.775000", "112207.265000", "112208.755000", "112210.245000", "112211.735000", "112213.225000", "112214.715000", "112216.205000", "112217.695000", "112219.185000", "112220.675000", "112222.165000", "112223.655000", "112225.145000", "112226.635000", "112228.125000", "112229.615000", "112231.105000", "112232.595000", "112234.085000", "112235.575000", "112237.065000", "112238.555000", "112240.045000", "112241.535000", "112243.025000", "112244.515000", "112246.005000", "112247.495000", "112248.985000", "112250.475000", "112251.965000", "112253.455000", "112254.945000", "112256.435000", "112257.925000", "112259.415000", "112300.905000", "112302.395000", "112303.885000", "112305.375000", "112306.865000", "112308.355000", "112309.845000", "112311.335000", "112312.825000", "112314.315000", "112315.805000", "112317.295000", "112318.785000", "112320.275000", "112321.765000", "112323.255000", "112324.745000", "112326.235000", "112327.725000", "112329.215000", "112330.705000", "112332.195000", "112333.685000", "112335.175000", "112336.665000", "112338.155000", "112339.645000", "112341.135000", "112342.625000", "112344.115000", "112345.605000", "112347.095000", "112348.585000", "112350.075000", "112351.565000", "112353.055000", "112354.545000", "112356.035000", "112357.525000", "112359.015000", "112400.505000", "112401.995000", "112403.485000", "112404.975000", "112406.465000", "112407.955000", "112409.445000", "112410.935000", "112412.425000", "112413.915000", "112415.405000", "112416.895000", "112418.385000", "112419.875000", "112421.365000", "112422.855000", "112424.345000", "112425.835000", "112427.325000", "112428.815000", "112430.305000", "112431.795000", "112433.285000", "112434.775000", "112436.265000", "112437.755000", "112439.245000", "112440.735000", "112442.225000", "112443.715000", "112445.205000", "112446.695000", "112448.185000", "112449.675000", "112451.165000", "112452.655000", "112454.145000", "112455.635000", "112457.125000", "112458.615000", "112500.105000", "112501.595000", "112503.085000", "112504.575000", "112506.065000", "112507.555000"],
      "ContentTime": ["112142.261000", "112142.264000", "112142.267000", "112142.269000", "112142.272000", "112142.274000", "112142.277000", "112142.279000", "112142.282000", "112142.284000", "112142.287000", "112142.289000", "112142.292000", "112142.294000", "112142.297000", "112142.299000", "112142.302000", "112142.304000", "112142.307000", "112142.309000", "112142.312000", "112142.314000", "112142.317000", "112202.219000", "112202.221000", "112202.224000", "112202.226000", "112202.229000", "112202.231000", "112202.234000", "112202.236000", "112202.239000", "112202.241000", "112202.244000", "112202.246000", "112202.249000", "112202.251000", "112202.254000", "112202.256000", "112202.259000", "112202.261000", "112202.264000", "112202.266000", "112222.202000", "112222.204000", "112222.207000", "112222.209000", "112222.212000", "112222.214000", "112222.217000", "112222.219000", "112222.222000", "112222.225000", "112222.233000", "112222.235000", "112222.238000", "112222.240000", "112222.243000", "112222.246000", "112222.248000", "112222.251000", "112222.253000", "112222.256000", "112242.275000", "112242.277000", "112242.280000", "112242.282000", "112242.285000", "112242.287000", "112242.290000", "112242.292000", "112242.295000", "112242.297000", "112242.300000", "112242.302000", "112242.305000", "112242.307000", "112242.310000", "112242.312000", "112242.315000", "112242.317000", "112242.320000", "112242.322000", "112302.200000", "112302.202000", "112302.205000", "112302.207000", "112302.217000", "112302.219000", "112302.222000", "112302.224000", "112302.227000", "112302.229000", "112302.232000", "112302.234000", "112302.237000", "112302.239000", "112302.242000", "112302.245000", "112302.247000", "112302.250000", "112302.252000", "112302.255000", "112302.257000", "112342.247000", "112342.250000", "112342.252000", "112342.255000", "112342.258000", "112342.260000", "112342.262000", "112342.265000", "112342.268000", "112342.270000", "112342.272000", "112342.275000", "112342.278000", "112342.280000", "112342.282000", "112342.285000", "112342.287000", "112342.290000", "112342.292000", "112342.295000", "112342.297000", "112342.300000", "112342.302000", "112342.305000", "112342.307000", "112342.310000", "112342.312000", "112422.237000", "112422.240000", "112422.249000", "112422.252000", "112422.254000", "112422.257000", "112422.259000", "112422.262000", "112422.264000", "112422.267000", "112422.269000", "112422.272000", "112422.274000", "112422.277000", "112422.279000", "112422.282000", "112422.284000", "112422.287000", "112422.289000", "112422.292000", "112422.294000", "112422.297000", "112422.299000", "112422.302000", "112422.304000", "112422.307000", "112502.212000", "112502.214000", "112502.221000", "112502.223000", "112502.226000", "112502.228000", "112502.231000", "112502.233000", "112502.236000", "112502.238000", "112502.241000", "112502.243000", "112502.246000", "112502.248000", "112502.251000", "112502.254000", "112502.256000", "112502.258000", "112502.261000", "112502.264000", "112502.266000", "112502.269000", "112502.271000", "112502.274000", "112502.276000", "112502.279000", "112502.281000", "112509.889000", "112509.892000", "112509.894000", "112509.897000", "112509.899000", "112509.902000"],
      "InstanceCreationTime": ["112142.261000", "112142.264000", "112142.267000", "112142.269000", "112142.272000", "112142.274000", "112142.277000", "112142.279000", "112142.282000", "112142.284000", "112142.287000", "112142.289000", "112142.292000", "112142.294000", "112142.297000", "112142.299000", "112142.302000", "112142.304000", "112142.307000", "112142.309000", "112142.312000", "112142.314000", "112142.317000", "112202.219000", "112202.221000", "112202.224000", "112202.226000", "112202.229000", "112202.231000", "112202.234000", "112202.236000", "112202.239000", "112202.241000", "112202.244000", "112202.246000", "112202.249000", "112202.251000", "112202.254000", "112202.256000", "112202.259000", "112202.261000", "112202.264000", "112202.266000", "112222.202000", "112222.204000", "112222.207000", "112222.209000", "112222.212000", "112222.214000", "112222.217000", "112222.219000", "112222.222000", "112222.225000", "112222.233000", "112222.235000", "112222.238000", "112222.240000", "112222.243000", "112222.246000", "112222.248000", "112222.251000", "112222.253000", "112222.256000", "112242.275000", "112242.277000", "112242.280000", "112242.282000", "112242.285000", "112242.287000", "112242.290000", "112242.292000", "112242.295000", "112242.297000", "112242.300000", "112242.302000", "112242.305000", "112242.307000", "112242.310000", "112242.312000", "112242.315000", "112242.317000", "112242.320000", "112242.322000", "112302.200000", "112302.202000", "112302.205000", "112302.207000", "112302.217000", "112302.219000", "112302.222000", "112302.224000", "112302.227000", "112302.229000", "112302.232000", "112302.234000", "112302.237000", "112302.239000", "112302.242000", "112302.245000", "112302.247000", "112302.250000", "112302.252000", "112302.255000", "112302.257000", "112342.247000", "112342.250000", "112342.252000", "112342.255000", "112342.258000", "112342.260000", "112342.262000", "112342.265000", "112342.268000", "112342.270000", "112342.272000", "112342.275000", "112342.278000", "112342.280000", "112342.282000", "112342.285000", "112342.287000", "112342.290000", "112342.292000", "112342.295000", "112342.297000", "112342.300000", "112342.302000", "112342.305000", "112342.307000", "112342.310000", "112342.312000", "112422.237000", "112422.240000", "112422.249000", "112422.252000", "112422.254000", "112422.257000", "112422.259000", "112422.262000", "112422.264000", "112422.267000", "112422.269000", "112422.272000", "112422.274000", "112422.277000", "112422.279000", "112422.282000", "112422.284000", "112422.287000", "112422.289000", "112422.292000", "112422.294000", "112422.297000", "112422.299000", "112422.302000", "112422.304000", "112422.307000", "112502.212000", "112502.214000", "112502.221000", "112502.223000", "112502.226000", "112502.228000", "112502.231000", "112502.233000", "112502.236000", "112502.238000", "112502.241000", "112502.243000", "112502.246000", "112502.248000", "112502.251000", "112502.254000", "112502.256000", "112502.258000", "112502.261000", "112502.264000", "112502.266000", "112502.269000", "112502.271000", "112502.274000", "112502.276000", "112502.279000", "112502.281000", "112509.889000", "112509.892000", "112509.894000", "112509.897000", "112509.899000", "112509.902000"],
      "InstanceNumber": [1, 2, 3, 4, 5, 6, 7, 8, 9, 10, 11, 12, 13, 14, 15, 16, 17, 18, 19, 20, 21, 22, 23, 24, 25, 26, 27, 28, 29, 30, 31, 32, 33, 34, 35, 36, 37, 38, 39, 40, 41, 42, 43, 44, 45, 46, 47, 48, 49, 50, 51, 52, 53, 54, 55, 56, 57, 58, 59, 60, 61, 62, 63, 64, 65, 66, 67, 68, 69, 70, 71, 72, 73, 74, 75, 76, 77, 78, 79, 80, 81, 82, 83, 84, 85, 86, 87, 88, 89, 90, 91, 92, 93, 94, 95, 96, 97, 98, 99, 100, 101, 102, 103, 104, 105, 106, 107, 108, 109, 110, 111, 112, 113, 114, 115, 116, 117, 118, 119, 120, 121, 122, 123, 124, 125, 126, 127, 128, 129, 130, 131, 132, 133, 134, 135, 136, 137, 138, 139, 140, 141, 142, 143, 144, 145, 146, 147, 148, 149, 150, 151, 152, 153, 154, 155, 156, 157, 158, 159, 160, 161, 162, 163, 164, 165, 166, 167, 168, 169, 170, 171, 172, 173, 174, 175, 176, 177, 178, 179, 180, 181, 182, 183, 184, 185, 186, 187, 188, 189, 190],
      "WindowCenter": [4826.0, 4824.0, 4822.0, 4824.0, 4818.0, 4822.0, 4822.0, 4820.0, 4822.0, 4824.0, 4824.0, 4822.0, 4822.0, 4824.0, 4820.0, 4818.0, 4822.0, 4818.0, 4820.0, 4822.0, 4826.0, 4828.0, 4822.0, 4824.0, 4822.0, 4820.0, 4816.0, 4818.0, 4820.0, 4824.0, 4826.0, 4824.0, 4826.0, 4822.0, 4826.0, 4822.0, 4822.0, 4820.0, 4820.0, 4822.0, 4822.0, 4822.0, 4824.0, 4822.0, 4824.0, 4822.0, 4824.0, 4822.0, 4822.0, 4820.0, 4818.0, 4820.0, 4824.0, 4822.0, 4824.0, 4824.0, 4822.0, 4826.0, 4826.0, 4824.0, 4822.0, 4824.0, 4816.0, 4818.0, 4818.0, 4816.0, 4818.0, 4818.0, 4822.0, 4820.0, 4822.0, 4824.0, 4824.0, 4822.0, 4822.0, 4820.0, 4818.0, 4792.0, 4820.0, 4820.0, 4818.0, 4820.0, 4824.0, 4820.0, 4830.0, 4822.0, 4820.0, 4822.0, 4826.0, 4824.0, 4820.0, 4822.0, 4826.0, 4820.0, 4822.0, 4820.0, 4820.0, 4822.0, 4822.0, 4820.0, 4820.0, 4820.0, 4814.0, 4818.0, 4822.0, 4822.0, 4824.0, 4822.0, 4850.0, 4822.0, 4824.0, 4820.0, 4820.0, 4820.0, 4818.0, 4818.0, 4818.0, 4816.0, 4822.0, 4824.0, 4824.0, 4824.0, 4822.0, 4822.0, 4822.0, 4816.0, 4816.0, 4820.0, 4818.0, 4818.0, 4824.0, 4822.0, 4822.0, 4822.0, 4824.0, 4820.0, 4822.0, 4826.0, 4826.0, 4826.0, 4822.0, 4818.0, 4820.0, 4818.0, 4818.0, 4818.0, 4818.0, 4818.0, 4824.0, 4822.0, 4820.0, 4818.0, 4820.0, 4820.0, 4820.0, 4816.0, 4820.0, 4820.0, 4822.0, 4818.0, 4820.0, 4824.0, 4824.0, 4822.0, 4820.0, 4820.0, 4816.0, 4816.0, 4820.0, 4820.0, 4818.0, 4816.0, 4814.0, 4820.0, 4822.0, 4820.0, 4822.0, 4820.0, 4828.0, 4822.0, 4820.0, 4820.0, 4822.0, 4816.0, 4818.0, 4816.0, 4820.0, 4818.0, 4822.0, 4822.0],
      "WindowWidth": [18600.0, 18598.0, 18598.0, 18598.0, 18600.0, 18590.0, 18580.0, 18578.0, 18592.0, 18602.0, 18604.0, 18604.0, 18608.0, 18600.0, 18588.0, 18578.0, 18582.0, 18584.0, 18592.0, 18586.0, 18594.0, 18604.0, 18604.0, 18606.0, 18600.0, 18588.0, 18578.0, 18574.0, 18584.0, 18596.0, 18604.0, 18606.0, 18602.0, 18590.0, 18596.0, 18598.0, 18596.0, 18590.0, 18588.0, 18578.0, 18582.0, 18596.0, 18606.0, 18600.0, 18592.0, 18590.0, 18600.0, 18602.0, 18594.0, 18592.0, 18578.0, 18578.0, 18592.0, 18594.0, 18590.0, 18588.0, 18586.0, 18600.0, 18604.0, 18608.0, 18606.0, 18598.0, 18582.0, 18576.0, 18576.0, 18582.0, 18584.0, 18594.0, 18594.0, 18586.0, 18586.0, 18592.0, 18600.0, 18606.0, 18604.0, 18600.0, 18596.0, 18548.0, 18582.0, 18584.0, 18576.0, 18588.0, 18608.0, 18604.0, 18600.0, 18590.0, 18582.0, 18588.0, 18594.0, 18600.0, 18588.0, 18580.0, 18584.0, 18576.0, 18606.0, 18608.0, 18606.0, 18610.0, 18596.0, 18586.0, 18582.0, 18578.0, 18582.0, 18592.0, 18598.0, 18590.0, 18582.0, 18586.0, 18634.0, 18604.0, 18608.0, 18606.0, 18596.0, 18586.0, 18578.0, 18576.0, 18578.0, 18582.0, 18598.0, 18600.0, 18594.0, 18602.0, 18600.0, 18602.0, 18604.0, 18582.0, 18584.0, 18578.0, 18578.0, 18580.0, 18602.0, 18612.0, 18602.0, 18586.0, 18584.0, 18578.0, 18584.0, 18598.0, 18610.0, 18610.0, 18602.0, 18588.0, 18588.0, 18578.0, 18580.0, 18578.0, 18578.0, 18590.0, 18604.0, 18604.0, 18606.0, 18596.0, 18586.0, 18582.0, 18578.0, 18574.0, 18590.0, 18596.0, 18586.0, 18580.0, 18582.0, 18598.0, 18604.0, 18604.0, 18596.0, 18594.0, 18582.0, 18582.0, 18580.0, 18580.0, 18574.0, 18578.0, 18592.0, 18584.0, 18576.0, 18582.0, 18594.0, 18600.0, 18614.0, 18606.0, 18592.0, 18582.0, 18586.0, 18580.0, 18586.0, 18592.0, 18594.0, 18582.0, 18588.0, 18586.0]
    },
    "slices": {}
  }
}