{
  "AcquisitionMatrixPE": 104,
  "AcquisitionNumber": 1,
  "AcquisitionTime": "11:41:2.367500",
  "BandwidthPerPixelPhaseEncode": 17.17,
  "BaseResolution": 104,
  "BodyPartExamined": "BRAIN",
  "CoilString": "HC1-7;NC1_2",
  "ConsistencyInfo": "N4_VE11C_LATEST_20160120",
  "ConversionSoftware": "dcm2niix",
  "ConversionSoftwareVersion": "v1.0.20190902",
  "DerivedVendorReportedEchoSpacing": 0.000560011,
  "DeviceSerialNumber": "167006",
  "DwellTime": 2.1e-06,
  "EchoTime": 0.037,
  "EchoTrainLength": 104,
  "EffectiveEchoSpacing": 0.000560011,
  "FlipAngle": 52,
  "ImageComments": "Unaliased_MB4_PE3_LB",
  "ImageOrientationPatientDICOM": [0.996117, 0.054125, 0.0694414, -0.0226051, 0.919504, -0.392429],
  "ImageType": [
    "ORIGINAL",
    "PRIMARY",
    "P",
    "MB",
    "ND",
    "MOSAIC"
],
  "ImagingFrequency": 123.259,
  "InPlanePhaseEncodingDirectionDICOM": "COL",
  "InstitutionAddress": "Chemin_Queen-Mary_4565_Montreal_District_CA_H3W_1W5",
  "InstitutionName": "IUGM",
  "InstitutionalDepartmentName": "Department",
  "MRAcquisitionType": "2D",
  "MagneticFieldStrength": 3,
  "Manufacturer": "Siemens",
  "ManufacturersModelName": "Prisma_fit",
  "Modality": "MR",
  "MultibandAccelerationFactor": 4,
  "PartialFourier": 1,
  "PatientPosition": "HFS",
  "PercentPhaseFOV": 100,
  "PhaseEncodingDirection": "j",
  "PhaseEncodingSteps": 104,
  "PhaseResolution": 1,
  "PixelBandwidth": 2290,
  "ProcedureStepDescription": "memory_things",
  "ProtocolName": "func_task-things_run-5",
  "PulseSequenceDetails": "%CustomerSeq%_cmrr_mbep2d_bold",
  "ReceiveCoilActiveElements": "HC1-7;NC1,2",
  "ReceiveCoilName": "HeadNeck_64",
  "ReconMatrixPE": 104,
  "RepetitionTime": 1.49,
  "SAR": 0.0709817,
  "ScanOptions": "FS",
  "ScanningSequence": "EP",
  "SequenceName": "epfid2d1_104",
  "SequenceVariant": "SK_SS",
  "SeriesDescription": "func_task-things_run-5",
  "SeriesNumber": 23,
  "ShimSetting": [649, -7155, -8842, 602, 106, 135, -41, -10],
  "SliceThickness": 2,
  "SliceTiming": [0, 0.7825, 0.0975, 0.88, 0.195, 0.98, 0.2925, 1.0775, 0.39, 1.175, 0.49, 1.2725, 0.5875, 1.37, 0.685, 0, 0.7825, 0.0975, 0.88, 0.195, 0.98, 0.2925, 1.0775, 0.39, 1.175, 0.49, 1.2725, 0.5875, 1.37, 0.685, 0, 0.7825, 0.0975, 0.88, 0.195, 0.98, 0.2925, 1.0775, 0.39, 1.175, 0.49, 1.2725, 0.5875, 1.37, 0.685, 0, 0.7825, 0.0975, 0.88, 0.195, 0.98, 0.2925, 1.0775, 0.39, 1.175, 0.49, 1.2725, 0.5875, 1.37, 0.685],
  "SoftwareVersions": "syngo_MR_E11",
  "SpacingBetweenSlices": 2,
  "StationName": "MRC35049",
  "TaskName": "things",
  "TotalReadoutTime": 0.0576811,
  "TxRefAmp": 320.253,
  "WipMemBlock": "5f423bfa-53d6-4caf-8b11-705eb6359ec6||Sequence: R016 ve11c/master r/e634e98; Dec 19 2017 11:00:25 by eja",
  "dcmmeta_affine": [
    [-1.9922332763671875, -0.045210208743810654, 0.17018383741378784, 105.30936431884766],
    [-0.1082499623298645, 1.8390089273452759, -0.7786708474159241, -51.603633880615234],
    [0.1388828605413437, 0.7848581671714783, 1.8343143463134766, -75.4397201538086],
    [0.0, 0.0, 0.0, 1.0]
],
  "dcmmeta_reorient_transform": [
    [0.0, -1.0, 0.0, 103.0],
    [1.0, 0.0, 0.0, 0.0],
    [0.0, 0.0, 1.0, 0.0],
    [0.0, 0.0, 0.0, 1.0]
],
  "dcmmeta_shape": [104, 104, 60, 190],
  "dcmmeta_slice_dim": 2,
  "dcmmeta_version": 0.6,
  "global": {
    "const": {
      "AcquisitionMatrix": [104, 0, 0, 104],
      "AngioFlag": "N",
      "BitsAllocated": 16,
      "BitsStored": 16,
      "BodyPartExamined": "BRAIN",
      "Columns": 832,
      "EchoNumbers": 1,
      "EchoTime": 37.0,
      "EchoTrainLength": 104,
      "FlipAngle": 52.0,
      "HighBit": 15,
      "ImageOrientationPatient": [0.9961166468783, 0.05412497962384, 0.06944143138402, -0.0226051048197, 0.9195044407449, -0.3924290925588],
      "ImagePositionPatient": [-809.36911673043, -846.61649766257, 240.53569350902],
      "ImageType": [
        "ORIGINAL",
        "PRIMARY",
        "P",
        "MB",
        "ND",
        "MOSAIC"
],
      "ImagedNucleus": "1H",
      "ImagingFrequency": 123.258976,
      "InPlanePhaseEncodingDirection": "COL",
      "LargestImagePixelValue": 4095,
      "MRAcquisitionType": "2D",
      "MagneticFieldStrength": 3.0,
      "Manufacturer": "SIEMENS",
      "ManufacturerModelName": "Prisma_fit",
      "Modality": "MR",
      "NumberOfAverages": 1.0,
      "NumberOfPhaseEncodingSteps": 104,
      "PercentPhaseFieldOfView": 100.0,
      "PercentSampling": 100.0,
      "PerformedProcedureStepStartTime": "105157.808000",
      "PhotometricInterpretation": "MONOCHROME2",
      "PixelBandwidth": 2290.0,
      "PixelRepresentation": 0,
      "PixelSpacing": [2.0, 2.0],
      "ProtocolName": "func_task-things_run-5",
      "RepetitionTime": 1490.0,
      "RescaleIntercept": -4096.0,
      "RescaleSlope": 2.0,
      "RescaleType": "US",
      "Rows": 832,
      "SAR": 0.07098171906789,
      "SamplesPerPixel": 1,
      "ScanOptions": "FS",
      "ScanningSequence": "EP",
      "SequenceName": "epfid2d1_104",
      "SequenceVariant": [
        "SK",
        "SS"
],
      "SeriesDescription": "func_task-things_run-5",
      "SeriesNumber": 23,
      "SeriesTime": "114202.205000",
      "SliceLocation": -40.137978828316,
      "SliceThickness": 2.0,
      "SmallestImagePixelValue": 0,
      "SoftwareVersions": "syngo MR E11",
      "SpacingBetweenSlices": 2.0000000194979,
      "SpecificCharacterSet": "ISO_IR 100",
      "StudyID": "1",
      "StudyTime": "105157.760000",
      "TransmitCoilName": "Body",
      "VariableFlipAngleFlag": "N",
      "WindowCenterWidthExplanation": "Algo1",
      "dBdt": 0.0},
    "slices": {}
  },
  "time": {
    "samples": {
      "AcquisitionNumber": [1, 2, 3, 4, 5, 6, 7, 8, 9, 10, 11, 12, 13, 14, 15, 16, 17, 18, 19, 20, 21, 22, 23, 24, 25, 26, 27, 28, 29, 30, 31, 32, 33, 34, 35, 36, 37, 38, 39, 40, 41, 42, 43, 44, 45, 46, 47, 48, 49, 50, 51, 52, 53, 54, 55, 56, 57, 58, 59, 60, 61, 62, 63, 64, 65, 66, 67, 68, 69, 70, 71, 72, 73, 74, 75, 76, 77, 78, 79, 80, 81, 82, 83, 84, 85, 86, 87, 88, 89, 90, 91, 92, 93, 94, 95, 96, 97, 98, 99, 100, 101, 102, 103, 104, 105, 106, 107, 108, 109, 110, 111, 112, 113, 114, 115, 116, 117, 118, 119, 120, 121, 122, 123, 124, 125, 126, 127, 128, 129, 130, 131, 132, 133, 134, 135, 136, 137, 138, 139, 140, 141, 142, 143, 144, 145, 146, 147, 148, 149, 150, 151, 152, 153, 154, 155, 156, 157, 158, 159, 160, 161, 162, 163, 164, 165, 166, 167, 168, 169, 170, 171, 172, 173, 174, 175, 176, 177, 178, 179, 180, 181, 182, 183, 184, 185, 186, 187, 188, 189, 190],
      "AcquisitionTime": ["114102.367500", "114103.857500", "114105.347500", "114106.837500", "114108.327500", "114109.817500", "114111.307500", "114112.797500", "114114.287500", "114115.777500", "114117.267500", "114118.757500", "114120.247500", "114121.737500", "114123.227500", "114124.717500", "114126.207500", "114127.697500", "114129.187500", "114130.677500", "114132.167500", "114133.657500", "114135.147500", "114136.637500", "114138.127500", "114139.617500", "114141.107500", "114142.597500", "114144.087500", "114145.577500", "114147.067500", "114148.557500", "114150.047500", "114151.537500", "114153.027500", "114154.517500", "114156.007500", "114157.497500", "114158.987500", "114200.477500", "114201.967500", "114203.457500", "114204.947500", "114206.437500", "114207.927500", "114209.417500", "114210.907500", "114212.397500", "114213.887500", "114215.377500", "114216.867500", "114218.357500", "114219.847500", "114221.337500", "114222.827500", "114224.317500", "114225.807500", "114227.297500", "114228.787500", "114230.277500", "114231.767500", "114233.257500", "114234.747500", "114236.237500", "114237.727500", "114239.217500", "114240.707500", "114242.197500", "114243.687500", "114245.177500", "114246.667500", "114248.157500", "114249.647500", "114251.137500", "114252.627500", "114254.117500", "114255.607500", "114257.097500", "114258.587500", "114300.077500", "114301.567500", "114303.057500", "114304.547500", "114306.037500", "114307.527500", "114309.017500", "114310.507500", "114311.997500", "114313.487500", "114314.977500", "114316.467500", "114317.957500", "114319.447500", "114320.937500", "114322.427500", "114323.917500", "114325.407500", "114326.897500", "114328.387500", "114329.877500", "114331.367500", "114332.857500", "114334.347500", "114335.837500", "114337.327500", "114338.817500", "114340.307500", "114341.797500", "114343.287500", "114344.777500", "114346.267500", "114347.757500", "114349.247500", "114350.737500", "114352.227500", "114353.717500", "114355.207500", "114356.697500", "114358.187500", "114359.677500", "114401.167500", "114402.657500", "114404.147500", "114405.637500", "114407.127500", "114408.617500", "114410.107500", "114411.597500", "114413.087500", "114414.577500", "114416.067500", "114417.557500", "114419.047500", "114420.537500", "114422.027500", "114423.517500", "114425.007500", "114426.497500", "114427.987500", "114429.477500", "114430.967500", "114432.457500", "114433.947500", "114435.437500", "114436.927500", "114438.417500", "114439.907500", "114441.397500", "114442.887500", "114444.377500", "114445.867500", "114447.357500", "114448.847500", "114450.337500", "114451.827500", "114453.317500", "114454.807500", "114456.297500", "114457.787500", "114459.277500", "114500.767500", "114502.257500", "114503.747500", "114505.237500", "114506.727500", "114508.217500", "114509.707500", "114511.197500", "114512.687500", "114514.177500", "114515.667500", "114517.157500", "114518.647500", "114520.137500", "114521.627500", "114523.117500", "114524.607500", "114526.097500", "114527.587500", "114529.077500", "114530.567500", "114532.057500", "114533.547500", "114535.037500", "114536.527500", "114538.017500", "114539.507500", "114540.997500", "114542.487500", "114543.977500"],
      "ContentTime": ["114202.207000", "114202.210000", "114202.212000", "114202.222000", "114202.225000", "114202.227000", "114222.211000", "114222.213000", "114222.216000", "114222.218000", "114222.221000", "114222.223000", "114222.226000", "114222.228000", "114222.231000", "114222.233000", "114222.236000", "114222.238000", "114222.241000", "114222.243000", "114222.246000", "114222.248000", "114222.251000", "114222.253000", "114222.256000", "114222.258000", "114242.198000", "114242.201000", "114242.203000", "114242.206000", "114242.213000", "114242.215000", "114242.218000", "114242.220000", "114242.223000", "114242.225000", "114242.228000", "114242.230000", "114242.233000", "114242.235000", "114242.238000", "114242.240000", "114242.243000", "114242.245000", "114242.248000", "114242.250000", "114302.220000", "114302.223000", "114302.225000", "114302.228000", "114302.230000", "114302.233000", "114302.235000", "114302.238000", "114302.240000", "114302.243000", "114302.245000", "114302.248000", "114302.250000", "114302.253000", "114302.255000", "114302.258000", "114302.260000", "114302.263000", "114302.265000", "114302.268000", "114322.203000", "114322.205000", "114322.208000", "114322.210000", "114322.213000", "114322.215000", "114322.218000", "114322.220000", "114322.223000", "114322.225000", "114322.228000", "114322.230000", "114322.233000", "114322.235000", "114322.238000", "114322.240000", "114322.243000", "114322.245000", "114322.248000", "114322.250000", "114342.231000", "114342.233000", "114342.236000", "114342.238000", "114342.241000", "114342.250000", "114342.252000", "114342.255000", "114342.257000", "114342.260000", "114342.263000", "114342.265000", "114342.268000", "114342.270000", "114342.273000", "114342.275000", "114342.278000", "114342.280000", "114342.283000", "114342.286000", "114422.255000", "114422.258000", "114422.260000", "114422.263000", "114422.265000", "114422.268000", "114422.271000", "114422.273000", "114422.275000", "114422.278000", "114422.281000", "114422.283000", "114422.285000", "114422.288000", "114422.291000", "114422.293000", "114422.295000", "114422.298000", "114422.301000", "114422.303000", "114422.306000", "114422.308000", "114422.311000", "114422.313000", "114422.316000", "114422.318000", "114422.321000", "114502.240000", "114502.242000", "114502.245000", "114502.247000", "114502.250000", "114502.253000", "114502.255000", "114502.258000", "114502.260000", "114502.263000", "114502.265000", "114502.268000", "114502.270000", "114502.273000", "114502.275000", "114502.278000", "114502.280000", "114502.283000", "114502.285000", "114502.288000", "114502.290000", "114502.293000", "114502.295000", "114502.298000", "114502.300000", "114502.303000", "114502.305000", "114542.231000", "114542.234000", "114542.237000", "114542.239000", "114542.241000", "114542.244000", "114542.247000", "114542.249000", "114542.252000", "114542.254000", "114542.257000", "114542.259000", "114542.262000", "114542.264000", "114542.267000", "114542.269000", "114542.272000", "114542.274000", "114542.277000", "114542.279000", "114542.282000", "114542.284000", "114542.287000", "114542.289000", "114542.292000", "114542.294000", "114542.297000", "114546.092000", "114546.095000", "114546.098000"],
      "InstanceCreationTime": ["114202.207000", "114202.210000", "114202.212000", "114202.222000", "114202.225000", "114202.227000", "114222.211000", "114222.213000", "114222.216000", "114222.218000", "114222.221000", "114222.223000", "114222.226000", "114222.228000", "114222.231000", "114222.233000", "114222.236000", "114222.238000", "114222.241000", "114222.243000", "114222.246000", "114222.248000", "114222.251000", "114222.253000", "114222.256000", "114222.258000", "114242.198000", "114242.201000", "114242.203000", "114242.206000", "114242.213000", "114242.215000", "114242.218000", "114242.220000", "114242.223000", "114242.225000", "114242.228000", "114242.230000", "114242.233000", "114242.235000", "114242.238000", "114242.240000", "114242.243000", "114242.245000", "114242.248000", "114242.250000", "114302.220000", "114302.223000", "114302.225000", "114302.228000", "114302.230000", "114302.233000", "114302.235000", "114302.238000", "114302.240000", "114302.243000", "114302.245000", "114302.248000", "114302.250000", "114302.253000", "114302.255000", "114302.258000", "114302.260000", "114302.263000", "114302.265000", "114302.268000", "114322.203000", "114322.205000", "114322.208000", "114322.210000", "114322.213000", "114322.215000", "114322.218000", "114322.220000", "114322.223000", "114322.225000", "114322.228000", "114322.230000", "114322.233000", "114322.235000", "114322.238000", "114322.240000", "114322.243000", "114322.245000", "114322.248000", "114322.250000", "114342.231000", "114342.233000", "114342.236000", "114342.238000", "114342.241000", "114342.250000", "114342.252000", "114342.255000", "114342.257000", "114342.260000", "114342.263000", "114342.265000", "114342.268000", "114342.270000", "114342.273000", "114342.275000", "114342.278000", "114342.280000", "114342.283000", "114342.286000", "114422.255000", "114422.258000", "114422.260000", "114422.263000", "114422.265000", "114422.268000", "114422.271000", "114422.273000", "114422.275000", "114422.278000", "114422.281000", "114422.283000", "114422.285000", "114422.288000", "114422.291000", "114422.293000", "114422.295000", "114422.298000", "114422.301000", "114422.303000", "114422.306000", "114422.308000", "114422.311000", "114422.313000", "114422.316000", "114422.318000", "114422.321000", "114502.240000", "114502.242000", "114502.245000", "114502.247000", "114502.250000", "114502.253000", "114502.255000", "114502.258000", "114502.260000", "114502.263000", "114502.265000", "114502.268000", "114502.270000", "114502.273000", "114502.275000", "114502.278000", "114502.280000", "114502.283000", "114502.285000", "114502.288000", "114502.290000", "114502.293000", "114502.295000", "114502.298000", "114502.300000", "114502.303000", "114502.305000", "114542.231000", "114542.234000", "114542.237000", "114542.239000", "114542.241000", "114542.244000", "114542.247000", "114542.249000", "114542.252000", "114542.254000", "114542.257000", "114542.259000", "114542.262000", "114542.264000", "114542.267000", "114542.269000", "114542.272000", "114542.274000", "114542.277000", "114542.279000", "114542.282000", "114542.284000", "114542.287000", "114542.289000", "114542.292000", "114542.294000", "114542.297000", "114546.092000", "114546.095000", "114546.098000"],
      "InstanceNumber": [1, 2, 3, 4, 5, 6, 7, 8, 9, 10, 11, 12, 13, 14, 15, 16, 17, 18, 19, 20, 21, 22, 23, 24, 25, 26, 27, 28, 29, 30, 31, 32, 33, 34, 35, 36, 37, 38, 39, 40, 41, 42, 43, 44, 45, 46, 47, 48, 49, 50, 51, 52, 53, 54, 55, 56, 57, 58, 59, 60, 61, 62, 63, 64, 65, 66, 67, 68, 69, 70, 71, 72, 73, 74, 75, 76, 77, 78, 79, 80, 81, 82, 83, 84, 85, 86, 87, 88, 89, 90, 91, 92, 93, 94, 95, 96, 97, 98, 99, 100, 101, 102, 103, 104, 105, 106, 107, 108, 109, 110, 111, 112, 113, 114, 115, 116, 117, 118, 119, 120, 121, 122, 123, 124, 125, 126, 127, 128, 129, 130, 131, 132, 133, 134, 135, 136, 137, 138, 139, 140, 141, 142, 143, 144, 145, 146, 147, 148, 149, 150, 151, 152, 153, 154, 155, 156, 157, 158, 159, 160, 161, 162, 163, 164, 165, 166, 167, 168, 169, 170, 171, 172, 173, 174, 175, 176, 177, 178, 179, 180, 181, 182, 183, 184, 185, 186, 187, 188, 189, 190],
      "WindowCenter": [4818.0, 4816.0, 4812.0, 4810.0, 4814.0, 4786.0, 4788.0, 4794.0, 4822.0, 4852.0, 4826.0, 4820.0, 4790.0, 4786.0, 4788.0, 4816.0, 4816.0, 4820.0, 4796.0, 4798.0, 4822.0, 4824.0, 4824.0, 4824.0, 4820.0, 4794.0, 4794.0, 4822.0, 4826.0, 4824.0, 4818.0, 4822.0, 4822.0, 4822.0, 4820.0, 4822.0, 4822.0, 4822.0, 4822.0, 4820.0, 4826.0, 4826.0, 4848.0, 4850.0, 4826.0, 4822.0, 4822.0, 4826.0, 4824.0, 4826.0, 4822.0, 4828.0, 4850.0, 4824.0, 4822.0, 4822.0, 4824.0, 4828.0, 4826.0, 4822.0, 4820.0, 4820.0, 4820.0, 4826.0, 4824.0, 4824.0, 4850.0, 4850.0, 4848.0, 4826.0, 4824.0, 4826.0, 4850.0, 4850.0, 4848.0, 4824.0, 4822.0, 4824.0, 4824.0, 4824.0, 4824.0, 4848.0, 4822.0, 4824.0, 4848.0, 4850.0, 4850.0, 4824.0, 4822.0, 4822.0, 4828.0, 4850.0, 4846.0, 4826.0, 4846.0, 4850.0, 4822.0, 4826.0, 4824.0, 4826.0, 4824.0, 4824.0, 4848.0, 4850.0, 4828.0, 4848.0, 4826.0, 4826.0, 4848.0, 4828.0, 4850.0, 4848.0, 4852.0, 4850.0, 4824.0, 4828.0, 4850.0, 4852.0, 4850.0, 4826.0, 4824.0, 4826.0, 4824.0, 4850.0, 4852.0, 4852.0, 4880.0, 4850.0, 4828.0, 4824.0, 4826.0, 4826.0, 4826.0, 4828.0, 4824.0, 4848.0, 4850.0, 4852.0, 4848.0, 4828.0, 4828.0, 4826.0, 4826.0, 4852.0, 4852.0, 4854.0, 4852.0, 4848.0, 4852.0, 4826.0, 4848.0, 4850.0, 4828.0, 4826.0, 4850.0, 4850.0, 4852.0, 4856.0, 4850.0, 4850.0, 4850.0, 4850.0, 4854.0, 4826.0, 4850.0, 4852.0, 4852.0, 4850.0, 4850.0, 4850.0, 4850.0, 4850.0, 4872.0, 4852.0, 4850.0, 4848.0, 4852.0, 4850.0, 4852.0, 4856.0, 4852.0, 4854.0, 4850.0, 4852.0, 4852.0, 4880.0, 4876.0, 4852.0, 4852.0, 4852.0],
      "WindowWidth": [18582.0, 18582.0, 18584.0, 18592.0, 18608.0, 18560.0, 18554.0, 18554.0, 18586.0, 18626.0, 18596.0, 18584.0, 18554.0, 18558.0, 18556.0, 18576.0, 18580.0, 18578.0, 18546.0, 18550.0, 18578.0, 18586.0, 18584.0, 18580.0, 18582.0, 18554.0, 18550.0, 18584.0, 18584.0, 18582.0, 18574.0, 18582.0, 18582.0, 18580.0, 18576.0, 18580.0, 18574.0, 18580.0, 18582.0, 18574.0, 18582.0, 18582.0, 18618.0, 18620.0, 18578.0, 18578.0, 18578.0, 18582.0, 18580.0, 18578.0, 18578.0, 18584.0, 18616.0, 18580.0, 18576.0, 18576.0, 18580.0, 18582.0, 18582.0, 18578.0, 18578.0, 18580.0, 18576.0, 18578.0, 18582.0, 18584.0, 18616.0, 18622.0, 18612.0, 18582.0, 18584.0, 18584.0, 18618.0, 18620.0, 18606.0, 18580.0, 18582.0, 18580.0, 18580.0, 18578.0, 18578.0, 18614.0, 18580.0, 18580.0, 18616.0, 18618.0, 18610.0, 18584.0, 18578.0, 18576.0, 18584.0, 18614.0, 18612.0, 18584.0, 18614.0, 18608.0, 18580.0, 18588.0, 18580.0, 18584.0, 18588.0, 18582.0, 18622.0, 18626.0, 18582.0, 18614.0, 18582.0, 18586.0, 18614.0, 18584.0, 18616.0, 18614.0, 18614.0, 18614.0, 18580.0, 18590.0, 18622.0, 18626.0, 18618.0, 18578.0, 18582.0, 18586.0, 18582.0, 18616.0, 18620.0, 18630.0, 18666.0, 18614.0, 18584.0, 18578.0, 18584.0, 18580.0, 18582.0, 18588.0, 18586.0, 18614.0, 18618.0, 18618.0, 18614.0, 18582.0, 18586.0, 18584.0, 18580.0, 18614.0, 18620.0, 18632.0, 18624.0, 18614.0, 18618.0, 18584.0, 18620.0, 18616.0, 18586.0, 18586.0, 18616.0, 18620.0, 18620.0, 18628.0, 18624.0, 18622.0, 18618.0, 18620.0, 18618.0, 18578.0, 18618.0, 18618.0, 18622.0, 18620.0, 18616.0, 18616.0, 18618.0, 18618.0, 18656.0, 18618.0, 18614.0, 18614.0, 18614.0, 18616.0, 18622.0, 18624.0, 18622.0, 18620.0, 18622.0, 18620.0, 18622.0, 18668.0, 18658.0, 18626.0, 18622.0, 18622.0]
    },
    "slices": {}
  }
}