{
  "AcquisitionMatrixPE": 104,
  "AcquisitionNumber": 1,
  "AcquisitionTime": "11:41:2.367500",
  "BandwidthPerPixelPhaseEncode": 17.17,
  "BaseResolution": 104,
  "BodyPartExamined": "BRAIN",
  "CoilString": "HC1-7;NC1_2",
  "ConsistencyInfo": "N4_VE11C_LATEST_20160120",
  "ConversionSoftware": "dcm2niix",
  "ConversionSoftwareVersion": "v1.0.20190902",
  "DerivedVendorReportedEchoSpacing": 0.000560011,
  "DeviceSerialNumber": "167006",
  "DwellTime": 2.1e-06,
  "EchoTime": 0.037,
  "EchoTrainLength": 104,
  "EffectiveEchoSpacing": 0.000560011,
  "FlipAngle": 52,
  "ImageComments": "Unaliased_MB4_PE3_LB",
  "ImageOrientationPatientDICOM": [0.996117, 0.054125, 0.0694414, -0.0226051, 0.919504, -0.392429],
  "ImageType": [
    "ORIGINAL",
    "PRIMARY",
    "M",
    "MB",
    "ND",
    "MOSAIC"
],
  "ImagingFrequency": 123.259,
  "InPlanePhaseEncodingDirectionDICOM": "COL",
  "InstitutionAddress": "Chemin_Queen-Mary_4565_Montreal_District_CA_H3W_1W5",
  "InstitutionName": "IUGM",
  "InstitutionalDepartmentName": "Department",
  "MRAcquisitionType": "2D",
  "MagneticFieldStrength": 3,
  "Manufacturer": "Siemens",
  "ManufacturersModelName": "Prisma_fit",
  "Modality": "MR",
  "MultibandAccelerationFactor": 4,
  "PartialFourier": 1,
  "PatientPosition": "HFS",
  "PercentPhaseFOV": 100,
  "PhaseEncodingDirection": "j",
  "PhaseEncodingSteps": 104,
  "PhaseResolution": 1,
  "PixelBandwidth": 2290,
  "ProcedureStepDescription": "memory_things",
  "ProtocolName": "func_task-things_run-5",
  "PulseSequenceDetails": "%CustomerSeq%_cmrr_mbep2d_bold",
  "ReceiveCoilActiveElements": "HC1-7;NC1,2",
  "ReceiveCoilName": "HeadNeck_64",
  "ReconMatrixPE": 104,
  "RepetitionTime": 1.49,
  "SAR": 0.0709817,
  "ScanOptions": "FS",
  "ScanningSequence": "EP",
  "SequenceName": "epfid2d1_104",
  "SequenceVariant": "SK_SS",
  "SeriesDescription": "func_task-things_run-5",
  "SeriesNumber": 22,
  "ShimSetting": [649, -7155, -8842, 602, 106, 135, -41, -10],
  "SliceThickness": 2,
  "SliceTiming": [0, 0.7825, 0.0975, 0.88, 0.195, 0.98, 0.2925, 1.0775, 0.39, 1.175, 0.49, 1.2725, 0.5875, 1.37, 0.685, 0, 0.7825, 0.0975, 0.88, 0.195, 0.98, 0.2925, 1.0775, 0.39, 1.175, 0.49, 1.2725, 0.5875, 1.37, 0.685, 0, 0.7825, 0.0975, 0.88, 0.195, 0.98, 0.2925, 1.0775, 0.39, 1.175, 0.49, 1.2725, 0.5875, 1.37, 0.685, 0, 0.7825, 0.0975, 0.88, 0.195, 0.98, 0.2925, 1.0775, 0.39, 1.175, 0.49, 1.2725, 0.5875, 1.37, 0.685],
  "SoftwareVersions": "syngo_MR_E11",
  "SpacingBetweenSlices": 2,
  "StationName": "MRC35049",
  "TaskName": "things",
  "TotalReadoutTime": 0.0576811,
  "TxRefAmp": 320.253,
  "WipMemBlock": "5f423bfa-53d6-4caf-8b11-705eb6359ec6||Sequence: R016 ve11c/master r/e634e98; Dec 19 2017 11:00:25 by eja",
  "dcmmeta_affine": [
    [-1.9922332763671875, -0.045210208743810654, 0.17018383741378784, 105.30936431884766],
    [-0.1082499623298645, 1.8390089273452759, -0.7786708474159241, -51.603633880615234],
    [0.1388828605413437, 0.7848581671714783, 1.8343143463134766, -75.4397201538086],
    [0.0, 0.0, 0.0, 1.0]
],
  "dcmmeta_reorient_transform": [
    [0.0, -1.0, 0.0, 103.0],
    [1.0, 0.0, 0.0, 0.0],
    [0.0, 0.0, 1.0, 0.0],
    [0.0, 0.0, 0.0, 1.0]
],
  "dcmmeta_shape": [104, 104, 60, 190],
  "dcmmeta_slice_dim": 2,
  "dcmmeta_version": 0.6,
  "global": {
    "const": {
      "AcquisitionMatrix": [104, 0, 0, 104],
      "AngioFlag": "N",
      "BitsAllocated": 16,
      "BitsStored": 16,
      "BodyPartExamined": "BRAIN",
      "Columns": 832,
      "EchoNumbers": 1,
      "EchoTime": 37.0,
      "EchoTrainLength": 104,
      "FlipAngle": 52.0,
      "HighBit": 15,
      "ImageOrientationPatient": [0.9961166468783, 0.05412497962384, 0.06944143138402, -0.0226051048197, 0.9195044407449, -0.3924290925588],
      "ImagePositionPatient": [-809.36911673043, -846.61649766257, 240.53569350902],
      "ImageType": [
        "ORIGINAL",
        "PRIMARY",
        "M",
        "MB",
        "ND",
        "MOSAIC"
],
      "ImagedNucleus": "1H",
      "ImagingFrequency": 123.258976,
      "InPlanePhaseEncodingDirection": "COL",
      "MRAcquisitionType": "2D",
      "MagneticFieldStrength": 3.0,
      "Manufacturer": "SIEMENS",
      "ManufacturerModelName": "Prisma_fit",
      "Modality": "MR",
      "NumberOfAverages": 1.0,
      "NumberOfPhaseEncodingSteps": 104,
      "PercentPhaseFieldOfView": 100.0,
      "PercentSampling": 100.0,
      "PerformedProcedureStepStartTime": "105157.808000",
      "PhotometricInterpretation": "MONOCHROME2",
      "PixelBandwidth": 2290.0,
      "PixelRepresentation": 0,
      "PixelSpacing": [2.0, 2.0],
      "ProtocolName": "func_task-things_run-5",
      "RepetitionTime": 1490.0,
      "Rows": 832,
      "SAR": 0.07098171906789,
      "SamplesPerPixel": 1,
      "ScanOptions": "FS",
      "ScanningSequence": "EP",
      "SequenceName": "epfid2d1_104",
      "SequenceVariant": [
        "SK",
        "SS"
],
      "SeriesDescription": "func_task-things_run-5",
      "SeriesNumber": 22,
      "SeriesTime": "114202.136000",
      "SliceLocation": -40.137978828316,
      "SliceThickness": 2.0,
      "SmallestImagePixelValue": 0,
      "SoftwareVersions": "syngo MR E11",
      "SpacingBetweenSlices": 2.0000000194979,
      "SpecificCharacterSet": "ISO_IR 100",
      "StudyID": "1",
      "StudyTime": "105157.760000",
      "TransmitCoilName": "Body",
      "VariableFlipAngleFlag": "N",
      "WindowCenterWidthExplanation": "Algo1",
      "dBdt": 0.0},
    "slices": {}
  },
  "time": {
    "samples": {
      "AcquisitionNumber": [1, 2, 3, 4, 5, 6, 7, 8, 9, 10, 11, 12, 13, 14, 15, 16, 17, 18, 19, 20, 21, 22, 23, 24, 25, 26, 27, 28, 29, 30, 31, 32, 33, 34, 35, 36, 37, 38, 39, 40, 41, 42, 43, 44, 45, 46, 47, 48, 49, 50, 51, 52, 53, 54, 55, 56, 57, 58, 59, 60, 61, 62, 63, 64, 65, 66, 67, 68, 69, 70, 71, 72, 73, 74, 75, 76, 77, 78, 79, 80, 81, 82, 83, 84, 85, 86, 87, 88, 89, 90, 91, 92, 93, 94, 95, 96, 97, 98, 99, 100, 101, 102, 103, 104, 105, 106, 107, 108, 109, 110, 111, 112, 113, 114, 115, 116, 117, 118, 119, 120, 121, 122, 123, 124, 125, 126, 127, 128, 129, 130, 131, 132, 133, 134, 135, 136, 137, 138, 139, 140, 141, 142, 143, 144, 145, 146, 147, 148, 149, 150, 151, 152, 153, 154, 155, 156, 157, 158, 159, 160, 161, 162, 163, 164, 165, 166, 167, 168, 169, 170, 171, 172, 173, 174, 175, 176, 177, 178, 179, 180, 181, 182, 183, 184, 185, 186, 187, 188, 189, 190],
      "AcquisitionTime": ["114102.367500", "114103.857500", "114105.347500", "114106.837500", "114108.327500", "114109.817500", "114111.307500", "114112.797500", "114114.287500", "114115.777500", "114117.267500", "114118.757500", "114120.247500", "114121.737500", "114123.227500", "114124.717500", "114126.207500", "114127.697500", "114129.187500", "114130.677500", "114132.167500", "114133.657500", "114135.147500", "114136.637500", "114138.127500", "114139.617500", "114141.107500", "114142.597500", "114144.087500", "114145.577500", "114147.067500", "114148.557500", "114150.047500", "114151.537500", "114153.027500", "114154.517500", "114156.007500", "114157.497500", "114158.987500", "114200.477500", "114201.967500", "114203.457500", "114204.947500", "114206.437500", "114207.927500", "114209.417500", "114210.907500", "114212.397500", "114213.887500", "114215.377500", "114216.867500", "114218.357500", "114219.847500", "114221.337500", "114222.827500", "114224.317500", "114225.807500", "114227.297500", "114228.787500", "114230.277500", "114231.767500", "114233.257500", "114234.747500", "114236.237500", "114237.727500", "114239.217500", "114240.707500", "114242.197500", "114243.687500", "114245.177500", "114246.667500", "114248.157500", "114249.647500", "114251.137500", "114252.627500", "114254.117500", "114255.607500", "114257.097500", "114258.587500", "114300.077500", "114301.567500", "114303.057500", "114304.547500", "114306.037500", "114307.527500", "114309.017500", "114310.507500", "114311.997500", "114313.487500", "114314.977500", "114316.467500", "114317.957500", "114319.447500", "114320.937500", "114322.427500", "114323.917500", "114325.407500", "114326.897500", "114328.387500", "114329.877500", "114331.367500", "114332.857500", "114334.347500", "114335.837500", "114337.327500", "114338.817500", "114340.307500", "114341.797500", "114343.287500", "114344.777500", "114346.267500", "114347.757500", "114349.247500", "114350.737500", "114352.227500", "114353.717500", "114355.207500", "114356.697500", "114358.187500", "114359.677500", "114401.167500", "114402.657500", "114404.147500", "114405.637500", "114407.127500", "114408.617500", "114410.107500", "114411.597500", "114413.087500", "114414.577500", "114416.067500", "114417.557500", "114419.047500", "114420.537500", "114422.027500", "114423.517500", "114425.007500", "114426.497500", "114427.987500", "114429.477500", "114430.967500", "114432.457500", "114433.947500", "114435.437500", "114436.927500", "114438.417500", "114439.907500", "114441.397500", "114442.887500", "114444.377500", "114445.867500", "114447.357500", "114448.847500", "114450.337500", "114451.827500", "114453.317500", "114454.807500", "114456.297500", "114457.787500", "114459.277500", "114500.767500", "114502.257500", "114503.747500", "114505.237500", "114506.727500", "114508.217500", "114509.707500", "114511.197500", "114512.687500", "114514.177500", "114515.667500", "114517.157500", "114518.647500", "114520.137500", "114521.627500", "114523.117500", "114524.607500", "114526.097500", "114527.587500", "114529.077500", "114530.567500", "114532.057500", "114533.547500", "114535.037500", "114536.527500", "114538.017500", "114539.507500", "114540.997500", "114542.487500", "114543.977500"],
      "ContentTime": ["114202.140000", "114202.144000", "114202.147000", "114202.160000", "114202.163000", "114202.166000", "114222.091000", "114222.095000", "114222.098000", "114222.101000", "114222.105000", "114222.108000", "114222.111000", "114222.115000", "114222.118000", "114222.121000", "114222.124000", "114222.128000", "114222.131000", "114222.134000", "114222.154000", "114222.157000", "114222.160000", "114222.164000", "114222.167000", "114222.170000", "114242.091000", "114242.095000", "114242.098000", "114242.101000", "114242.105000", "114242.108000", "114242.111000", "114242.115000", "114242.118000", "114242.121000", "114242.125000", "114242.129000", "114242.132000", "114242.136000", "114242.139000", "114242.142000", "114242.145000", "114242.149000", "114242.152000", "114242.155000", "114302.091000", "114302.095000", "114302.098000", "114302.101000", "114302.105000", "114302.108000", "114302.111000", "114302.115000", "114302.118000", "114302.121000", "114302.125000", "114302.128000", "114302.131000", "114302.134000", "114302.138000", "114302.141000", "114302.144000", "114302.148000", "114302.151000", "114302.154000", "114322.092000", "114322.096000", "114322.099000", "114322.102000", "114322.106000", "114322.109000", "114322.113000", "114322.116000", "114322.119000", "114322.123000", "114322.126000", "114322.129000", "114322.132000", "114322.136000", "114322.139000", "114322.142000", "114322.146000", "114322.149000", "114322.152000", "114322.156000", "114342.092000", "114342.096000", "114342.099000", "114342.102000", "114342.106000", "114342.109000", "114342.113000", "114342.116000", "114342.119000", "114342.123000", "114342.126000", "114342.129000", "114342.132000", "114342.136000", "114342.139000", "114342.142000", "114342.146000", "114342.149000", "114342.152000", "114342.156000", "114422.091000", "114422.095000", "114422.098000", "114422.102000", "114422.113000", "114422.116000", "114422.119000", "114422.123000", "114422.126000", "114422.129000", "114422.133000", "114422.151000", "114422.154000", "114422.158000", "114422.161000", "114422.164000", "114422.168000", "114422.171000", "114422.174000", "114422.178000", "114422.181000", "114422.185000", "114422.188000", "114422.191000", "114422.194000", "114422.198000", "114422.201000", "114502.091000", "114502.095000", "114502.098000", "114502.102000", "114502.105000", "114502.108000", "114502.112000", "114502.115000", "114502.118000", "114502.121000", "114502.125000", "114502.128000", "114502.132000", "114502.135000", "114502.138000", "114502.141000", "114502.145000", "114502.148000", "114502.151000", "114502.155000", "114502.158000", "114502.161000", "114502.165000", "114502.168000", "114502.171000", "114502.175000", "114502.178000", "114542.092000", "114542.096000", "114542.099000", "114542.103000", "114542.106000", "114542.110000", "114542.113000", "114542.116000", "114542.119000", "114542.123000", "114542.126000", "114542.130000", "114542.133000", "114542.136000", "114542.140000", "114542.143000", "114542.146000", "114542.150000", "114542.153000", "114542.156000", "114542.160000", "114542.163000", "114542.166000", "114542.170000", "114542.173000", "114542.176000", "114542.180000", "114546.052000", "114546.056000", "114546.060000"],
      "InstanceCreationTime": ["114202.140000", "114202.144000", "114202.147000", "114202.160000", "114202.163000", "114202.166000", "114222.091000", "114222.095000", "114222.098000", "114222.101000", "114222.105000", "114222.108000", "114222.111000", "114222.115000", "114222.118000", "114222.121000", "114222.124000", "114222.128000", "114222.131000", "114222.134000", "114222.154000", "114222.157000", "114222.160000", "114222.164000", "114222.167000", "114222.170000", "114242.091000", "114242.095000", "114242.098000", "114242.101000", "114242.105000", "114242.108000", "114242.111000", "114242.115000", "114242.118000", "114242.121000", "114242.125000", "114242.129000", "114242.132000", "114242.136000", "114242.139000", "114242.142000", "114242.145000", "114242.149000", "114242.152000", "114242.155000", "114302.091000", "114302.095000", "114302.098000", "114302.101000", "114302.105000", "114302.108000", "114302.111000", "114302.115000", "114302.118000", "114302.121000", "114302.125000", "114302.128000", "114302.131000", "114302.134000", "114302.138000", "114302.141000", "114302.144000", "114302.148000", "114302.151000", "114302.154000", "114322.092000", "114322.096000", "114322.099000", "114322.102000", "114322.106000", "114322.109000", "114322.113000", "114322.116000", "114322.119000", "114322.123000", "114322.126000", "114322.129000", "114322.132000", "114322.136000", "114322.139000", "114322.142000", "114322.146000", "114322.149000", "114322.152000", "114322.156000", "114342.092000", "114342.096000", "114342.099000", "114342.102000", "114342.106000", "114342.109000", "114342.113000", "114342.116000", "114342.119000", "114342.123000", "114342.126000", "114342.129000", "114342.132000", "114342.136000", "114342.139000", "114342.142000", "114342.146000", "114342.149000", "114342.152000", "114342.156000", "114422.091000", "114422.095000", "114422.098000", "114422.102000", "114422.113000", "114422.116000", "114422.119000", "114422.123000", "114422.126000", "114422.129000", "114422.133000", "114422.151000", "114422.154000", "114422.158000", "114422.161000", "114422.164000", "114422.168000", "114422.171000", "114422.174000", "114422.178000", "114422.181000", "114422.185000", "114422.188000", "114422.191000", "114422.194000", "114422.198000", "114422.201000", "114502.091000", "114502.095000", "114502.098000", "114502.102000", "114502.105000", "114502.108000", "114502.112000", "114502.115000", "114502.118000", "114502.121000", "114502.125000", "114502.128000", "114502.132000", "114502.135000", "114502.138000", "114502.141000", "114502.145000", "114502.148000", "114502.151000", "114502.155000", "114502.158000", "114502.161000", "114502.165000", "114502.168000", "114502.171000", "114502.175000", "114502.178000", "114542.092000", "114542.096000", "114542.099000", "114542.103000", "114542.106000", "114542.110000", "114542.113000", "114542.116000", "114542.119000", "114542.123000", "114542.126000", "114542.130000", "114542.133000", "114542.136000", "114542.140000", "114542.143000", "114542.146000", "114542.150000", "114542.153000", "114542.156000", "114542.160000", "114542.163000", "114542.166000", "114542.170000", "114542.173000", "114542.176000", "114542.180000", "114546.052000", "114546.056000", "114546.060000"],
      "InstanceNumber": [1, 2, 3, 4, 5, 6, 7, 8, 9, 10, 11, 12, 13, 14, 15, 16, 17, 18, 19, 20, 21, 22, 23, 24, 25, 26, 27, 28, 29, 30, 31, 32, 33, 34, 35, 36, 37, 38, 39, 40, 41, 42, 43, 44, 45, 46, 47, 48, 49, 50, 51, 52, 53, 54, 55, 56, 57, 58, 59, 60, 61, 62, 63, 64, 65, 66, 67, 68, 69, 70, 71, 72, 73, 74, 75, 76, 77, 78, 79, 80, 81, 82, 83, 84, 85, 86, 87, 88, 89, 90, 91, 92, 93, 94, 95, 96, 97, 98, 99, 100, 101, 102, 103, 104, 105, 106, 107, 108, 109, 110, 111, 112, 113, 114, 115, 116, 117, 118, 119, 120, 121, 122, 123, 124, 125, 126, 127, 128, 129, 130, 131, 132, 133, 134, 135, 136, 137, 138, 139, 140, 141, 142, 143, 144, 145, 146, 147, 148, 149, 150, 151, 152, 153, 154, 155, 156, 157, 158, 159, 160, 161, 162, 163, 164, 165, 166, 167, 168, 169, 170, 171, 172, 173, 174, 175, 176, 177, 178, 179, 180, 181, 182, 183, 184, 185, 186, 187, 188, 189, 190],
      "LargestImagePixelValue": [46757, 46122, 46583, 45988, 45025, 43664, 44989, 44068, 44853, 44589, 44991, 47675, 45634, 44755, 42607, 41955, 42288, 42787, 44052, 44412, 43703, 43807, 42977, 43687, 42453, 41942, 44153, 42329, 42752, 41339, 40965, 40207, 43388, 41955, 40875, 41880, 40956, 41217, 40109, 39985, 40451, 41737, 41528, 43083, 42548, 41868, 40397, 40866, 40313, 39547, 39797, 40218, 39755, 40085, 40294, 40106, 40842, 41243, 40787, 40308, 40571, 39810, 39427, 40243, 39722, 40209, 39291, 39847, 40087, 40269, 40630, 39309, 40566, 40557, 40763, 40637, 40411, 39209, 39298, 43875, 39762, 40612, 40929, 40410, 40368, 40372, 41014, 40712, 40028, 39437, 45577, 39802, 39261, 39661, 40871, 40408, 40034, 42186, 40584, 41369, 41501, 41139, 40796, 41295, 42858, 42702, 41418, 40718, 41190, 41908, 41052, 41328, 41994, 41947, 42543, 39046, 39824, 40619, 41412, 41753, 41573, 40823, 40898, 50963, 39482, 39972, 40126, 41286, 41588, 41722, 41784, 40943, 47340, 39710, 40909, 42050, 41587, 40095, 40472, 45131, 39953, 41663, 41016, 42332, 38688, 39064, 39388, 42097, 44613, 39090, 39686, 38753, 39438, 39430, 38995, 40231, 39401, 38720, 39183, 38360, 38889, 41045, 38733, 48097, 39136, 39782, 39262, 39382, 39443, 38915, 38934, 39383, 38880, 39522, 40229, 42850, 39118, 45160, 39129, 43376, 40399, 47697, 41219, 41815, 42050, 41093, 44199, 42508, 43116, 42371],
      "WindowCenter": [10533.0, 10509.0, 10510.0, 10478.0, 10440.0, 10410.0, 10427.0, 10422.0, 10430.0, 10431.0, 10450.0, 10497.0, 10477.0, 10446.0, 10423.0, 10420.0, 10435.0, 10466.0, 10477.0, 10464.0, 10441.0, 10430.0, 10416.0, 10451.0, 10452.0, 10419.0, 10413.0, 10381.0, 10391.0, 10403.0, 10398.0, 10359.0, 10373.0, 10363.0, 10373.0, 10393.0, 10375.0, 10381.0, 10364.0, 10365.0, 10362.0, 10371.0, 10382.0, 10413.0, 10422.0, 10418.0, 10394.0, 10386.0, 10381.0, 10392.0, 10404.0, 10402.0, 10389.0, 10390.0, 10398.0, 10402.0, 10409.0, 10397.0, 10395.0, 10389.0, 10391.0, 10370.0, 10361.0, 10370.0, 10390.0, 10389.0, 10380.0, 10373.0, 10380.0, 10382.0, 10383.0, 10367.0, 10389.0, 10412.0, 10438.0, 10414.0, 10381.0, 10357.0, 10348.0, 10388.0, 10361.0, 10377.0, 10369.0, 10362.0, 10372.0, 10383.0, 10393.0, 10393.0, 10369.0, 10345.0, 10399.0, 10344.0, 10344.0, 10377.0, 10389.0, 10364.0, 10352.0, 10367.0, 10380.0, 10407.0, 10426.0, 10406.0, 10383.0, 10378.0, 10392.0, 10401.0, 10387.0, 10371.0, 10389.0, 10414.0, 10422.0, 10415.0, 10401.0, 10388.0, 10393.0, 10361.0, 10368.0, 10390.0, 10401.0, 10429.0, 10422.0, 10392.0, 10380.0, 10464.0, 10354.0, 10374.0, 10400.0, 10420.0, 10414.0, 10387.0, 10372.0, 10347.0, 10424.0, 10364.0, 10392.0, 10421.0, 10408.0, 10383.0, 10380.0, 10430.0, 10383.0, 10391.0, 10395.0, 10414.0, 10376.0, 10375.0, 10387.0, 10443.0, 10466.0, 10382.0, 10388.0, 10368.0, 10395.0, 10398.0, 10366.0, 10364.0, 10343.0, 10336.0, 10351.0, 10348.0, 10352.0, 10376.0, 10347.0, 10437.0, 10364.0, 10378.0, 10378.0, 10380.0, 10379.0, 10374.0, 10371.0, 10370.0, 10383.0, 10411.0, 10427.0, 10441.0, 10383.0, 10438.0, 10391.0, 10436.0, 10433.0, 10489.0, 10421.0, 10407.0, 10386.0, 10219.0, 10435.0, 10415.0, 10437.0, 10433.0],
      "WindowWidth": [22417.0, 22349.0, 22333.0, 22255.0, 22158.0, 22087.0, 22120.0, 22111.0, 22130.0, 22134.0, 22176.0, 22280.0, 22244.0, 22174.0, 22131.0, 22131.0, 22163.0, 22234.0, 22255.0, 22215.0, 22165.0, 22137.0, 22112.0, 22189.0, 22199.0, 22121.0, 22091.0, 22025.0, 22047.0, 22089.0, 22083.0, 21989.0, 22003.0, 21992.0, 22023.0, 22061.0, 22025.0, 22039.0, 22003.0, 22011.0, 21999.0, 22012.0, 22040.0, 22105.0, 22132.0, 22126.0, 22083.0, 22049.0, 22044.0, 22076.0, 22107.0, 22101.0, 22070.0, 22068.0, 22085.0, 22097.0, 22108.0, 22075.0, 22072.0, 22063.0, 22068.0, 22023.0, 22001.0, 22024.0, 22073.0, 22061.0, 22044.0, 22020.0, 22043.0, 22054.0, 22043.0, 22015.0, 22062.0, 22110.0, 22175.0, 22119.0, 22040.0, 21984.0, 21970.0, 22050.0, 21999.0, 22037.0, 22008.0, 21998.0, 22019.0, 22050.0, 22068.0, 22074.0, 22016.0, 21960.0, 22071.0, 21965.0, 21959.0, 22038.0, 22060.0, 21996.0, 21976.0, 21999.0, 22043.0, 22095.0, 22144.0, 22093.0, 22041.0, 22028.0, 22056.0, 22077.0, 22057.0, 22011.0, 22050.0, 22109.0, 22131.0, 22112.0, 22075.0, 22038.0, 22053.0, 21994.0, 22011.0, 22056.0, 22078.0, 22142.0, 22127.0, 22060.0, 22031.0, 22205.0, 21980.0, 22024.0, 22083.0, 22124.0, 22112.0, 22053.0, 22008.0, 21951.0, 22120.0, 22002.0, 22061.0, 22125.0, 22094.0, 22039.0, 22030.0, 22135.0, 22042.0, 22053.0, 22068.0, 22114.0, 22031.0, 22029.0, 22051.0, 22177.0, 22224.0, 22042.0, 22049.0, 22010.0, 22072.0, 22084.0, 22007.0, 22002.0, 21951.0, 21938.0, 21975.0, 21968.0, 21973.0, 22034.0, 21965.0, 22141.0, 22009.0, 22035.0, 22033.0, 22037.0, 22036.0, 22026.0, 22014.0, 22013.0, 22049.0, 22111.0, 22143.0, 22176.0, 22045.0, 22152.0, 22067.0, 22151.0, 22154.0, 22264.0, 22125.0, 22085.0, 22032.0, 21654.0, 22151.0, 22106.0, 22151.0, 22141.0]
    },
    "slices": {}
  }
}