{
  "AcquisitionMatrixPE": 104,
  "AcquisitionNumber": 1,
  "AcquisitionTime": "11:26:32.240000",
  "BandwidthPerPixelPhaseEncode": 17.17,
  "BaseResolution": 104,
  "BodyPartExamined": "BRAIN",
  "CoilString": "HC1-7;NC1_2",
  "ConsistencyInfo": "N4_VE11C_LATEST_20160120",
  "ConversionSoftware": "dcm2niix",
  "ConversionSoftwareVersion": "v1.0.20190902",
  "DerivedVendorReportedEchoSpacing": 0.000560011,
  "DeviceSerialNumber": "167006",
  "DwellTime": 2.1e-06,
  "EchoTime": 0.037,
  "EchoTrainLength": 104,
  "EffectiveEchoSpacing": 0.000560011,
  "FlipAngle": 52,
  "ImageComments": "Unaliased_MB4_PE3_LB",
  "ImageOrientationPatientDICOM": [0.996117, 0.054125, 0.0694414, -0.0226051, 0.919504, -0.392429],
  "ImageType": [
    "ORIGINAL",
    "PRIMARY",
    "P",
    "MB",
    "ND",
    "MOSAIC"
],
  "ImagingFrequency": 123.259,
  "InPlanePhaseEncodingDirectionDICOM": "COL",
  "InstitutionAddress": "Chemin_Queen-Mary_4565_Montreal_District_CA_H3W_1W5",
  "InstitutionName": "IUGM",
  "InstitutionalDepartmentName": "Department",
  "MRAcquisitionType": "2D",
  "MagneticFieldStrength": 3,
  "Manufacturer": "Siemens",
  "ManufacturersModelName": "Prisma_fit",
  "Modality": "MR",
  "MultibandAccelerationFactor": 4,
  "PartialFourier": 1,
  "PatientPosition": "HFS",
  "PercentPhaseFOV": 100,
  "PhaseEncodingDirection": "j",
  "PhaseEncodingSteps": 104,
  "PhaseResolution": 1,
  "PixelBandwidth": 2290,
  "ProcedureStepDescription": "memory_things",
  "ProtocolName": "func_task-things_run-3",
  "PulseSequenceDetails": "%CustomerSeq%_cmrr_mbep2d_bold",
  "ReceiveCoilActiveElements": "HC1-7;NC1,2",
  "ReceiveCoilName": "HeadNeck_64",
  "ReconMatrixPE": 104,
  "RepetitionTime": 1.49,
  "SAR": 0.0709817,
  "ScanOptions": "FS",
  "ScanningSequence": "EP",
  "SequenceName": "epfid2d1_104",
  "SequenceVariant": "SK_SS",
  "SeriesDescription": "func_task-things_run-3",
  "SeriesNumber": 17,
  "ShimSetting": [649, -7155, -8842, 602, 106, 135, -41, -10],
  "SliceThickness": 2,
  "SliceTiming": [0, 0.7825, 0.0975, 0.88, 0.195, 0.9775, 0.2925, 1.0775, 0.39, 1.175, 0.4875, 1.2725, 0.5875, 1.37, 0.685, 0, 0.7825, 0.0975, 0.88, 0.195, 0.9775, 0.2925, 1.0775, 0.39, 1.175, 0.4875, 1.2725, 0.5875, 1.37, 0.685, 0, 0.7825, 0.0975, 0.88, 0.195, 0.9775, 0.2925, 1.0775, 0.39, 1.175, 0.4875, 1.2725, 0.5875, 1.37, 0.685, 0, 0.7825, 0.0975, 0.88, 0.195, 0.9775, 0.2925, 1.0775, 0.39, 1.175, 0.4875, 1.2725, 0.5875, 1.37, 0.685],
  "SoftwareVersions": "syngo_MR_E11",
  "SpacingBetweenSlices": 2,
  "StationName": "MRC35049",
  "TaskName": "things",
  "TotalReadoutTime": 0.0576811,
  "TxRefAmp": 320.253,
  "WipMemBlock": "dd891201-5780-45c6-a5dc-c2a3688eee8f||Sequence: R016 ve11c/master r/e634e98; Dec 19 2017 11:00:25 by eja",
  "dcmmeta_affine": [
    [-1.9922332763671875, -0.045210208743810654, 0.17018383741378784, 105.30936431884766],
    [-0.1082499623298645, 1.8390089273452759, -0.7786708474159241, -51.603633880615234],
    [0.1388828605413437, 0.7848581671714783, 1.8343143463134766, -75.4397201538086],
    [0.0, 0.0, 0.0, 1.0]
],
  "dcmmeta_reorient_transform": [
    [0.0, -1.0, 0.0, 103.0],
    [1.0, 0.0, 0.0, 0.0],
    [0.0, 0.0, 1.0, 0.0],
    [0.0, 0.0, 0.0, 1.0]
],
  "dcmmeta_shape": [104, 104, 60, 190],
  "dcmmeta_slice_dim": 2,
  "dcmmeta_version": 0.6,
  "global": {
    "const": {
      "AcquisitionMatrix": [104, 0, 0, 104],
      "AngioFlag": "N",
      "BitsAllocated": 16,
      "BitsStored": 16,
      "BodyPartExamined": "BRAIN",
      "Columns": 832,
      "EchoNumbers": 1,
      "EchoTime": 37.0,
      "EchoTrainLength": 104,
      "FlipAngle": 52.0,
      "HighBit": 15,
      "ImageOrientationPatient": [0.9961166468783, 0.05412497962384, 0.06944143138402, -0.0226051048197, 0.9195044407449, -0.3924290925588],
      "ImagePositionPatient": [-809.36911673043, -846.61649766257, 240.53569350902],
      "ImageType": [
        "ORIGINAL",
        "PRIMARY",
        "P",
        "MB",
        "ND",
        "MOSAIC"
],
      "ImagedNucleus": "1H",
      "ImagingFrequency": 123.258973,
      "InPlanePhaseEncodingDirection": "COL",
      "LargestImagePixelValue": 4095,
      "MRAcquisitionType": "2D",
      "MagneticFieldStrength": 3.0,
      "Manufacturer": "SIEMENS",
      "ManufacturerModelName": "Prisma_fit",
      "Modality": "MR",
      "NumberOfAverages": 1.0,
      "NumberOfPhaseEncodingSteps": 104,
      "PercentPhaseFieldOfView": 100.0,
      "PercentSampling": 100.0,
      "PerformedProcedureStepStartTime": "105157.808000",
      "PhotometricInterpretation": "MONOCHROME2",
      "PixelBandwidth": 2290.0,
      "PixelRepresentation": 0,
      "PixelSpacing": [2.0, 2.0],
      "ProtocolName": "func_task-things_run-3",
      "RepetitionTime": 1490.0,
      "RescaleIntercept": -4096.0,
      "RescaleSlope": 2.0,
      "RescaleType": "US",
      "Rows": 832,
      "SAR": 0.07098171906789,
      "SamplesPerPixel": 1,
      "ScanOptions": "FS",
      "ScanningSequence": "EP",
      "SequenceName": "epfid2d1_104",
      "SequenceVariant": [
        "SK",
        "SS"
],
      "SeriesDescription": "func_task-things_run-3",
      "SeriesNumber": 17,
      "SeriesTime": "112755.457000",
      "SliceLocation": -40.137978828316,
      "SliceThickness": 2.0,
      "SmallestImagePixelValue": 0,
      "SoftwareVersions": "syngo MR E11",
      "SpacingBetweenSlices": 2.0000000194979,
      "SpecificCharacterSet": "ISO_IR 100",
      "StudyID": "1",
      "StudyTime": "105157.760000",
      "TransmitCoilName": "Body",
      "VariableFlipAngleFlag": "N",
      "WindowCenterWidthExplanation": "Algo1",
      "dBdt": 0.0},
    "slices": {}
  },
  "time": {
    "samples": {
      "AcquisitionNumber": [1, 2, 3, 4, 5, 6, 7, 8, 9, 10, 11, 12, 13, 14, 15, 16, 17, 18, 19, 20, 21, 22, 23, 24, 25, 26, 27, 28, 29, 30, 31, 32, 33, 34, 35, 36, 37, 38, 39, 40, 41, 42, 43, 44, 45, 46, 47, 48, 49, 50, 51, 52, 53, 54, 55, 56, 57, 58, 59, 60, 61, 62, 63, 64, 65, 66, 67, 68, 69, 70, 71, 72, 73, 74, 75, 76, 77, 78, 79, 80, 81, 82, 83, 84, 85, 86, 87, 88, 89, 90, 91, 92, 93, 94, 95, 96, 97, 98, 99, 100, 101, 102, 103, 104, 105, 106, 107, 108, 109, 110, 111, 112, 113, 114, 115, 116, 117, 118, 119, 120, 121, 122, 123, 124, 125, 126, 127, 128, 129, 130, 131, 132, 133, 134, 135, 136, 137, 138, 139, 140, 141, 142, 143, 144, 145, 146, 147, 148, 149, 150, 151, 152, 153, 154, 155, 156, 157, 158, 159, 160, 161, 162, 163, 164, 165, 166, 167, 168, 169, 170, 171, 172, 173, 174, 175, 176, 177, 178, 179, 180, 181, 182, 183, 184, 185, 186, 187, 188, 189, 190],
      "AcquisitionTime": ["112632.240000", "112633.730000", "112635.220000", "112636.710000", "112638.200000", "112639.690000", "112641.180000", "112642.670000", "112644.160000", "112645.650000", "112647.140000", "112648.630000", "112650.120000", "112651.610000", "112653.100000", "112654.590000", "112656.080000", "112657.570000", "112659.060000", "112700.550000", "112702.040000", "112703.530000", "112705.020000", "112706.510000", "112708.000000", "112709.490000", "112710.980000", "112712.470000", "112713.960000", "112715.450000", "112716.940000", "112718.430000", "112719.920000", "112721.410000", "112722.900000", "112724.390000", "112725.880000", "112727.370000", "112728.860000", "112730.350000", "112731.840000", "112733.330000", "112734.820000", "112736.310000", "112737.800000", "112739.290000", "112740.780000", "112742.270000", "112743.760000", "112745.250000", "112746.740000", "112748.230000", "112749.720000", "112751.210000", "112752.700000", "112754.190000", "112755.680000", "112757.170000", "112758.660000", "112800.150000", "112801.640000", "112803.130000", "112804.620000", "112806.110000", "112807.600000", "112809.090000", "112810.580000", "112812.070000", "112813.560000", "112815.050000", "112816.540000", "112818.030000", "112819.520000", "112821.010000", "112822.500000", "112823.990000", "112825.480000", "112826.970000", "112828.460000", "112829.950000", "112831.440000", "112832.930000", "112834.420000", "112835.910000", "112837.400000", "112838.890000", "112840.380000", "112841.870000", "112843.360000", "112844.850000", "112846.340000", "112847.830000", "112849.320000", "112850.810000", "112852.300000", "112853.790000", "112855.280000", "112856.770000", "112858.260000", "112859.750000", "112901.240000", "112902.730000", "112904.220000", "112905.710000", "112907.200000", "112908.690000", "112910.180000", "112911.670000", "112913.160000", "112914.650000", "112916.140000", "112917.630000", "112919.120000", "112920.610000", "112922.100000", "112923.590000", "112925.080000", "112926.570000", "112928.060000", "112929.550000", "112931.040000", "112932.530000", "112934.020000", "112935.510000", "112937.000000", "112938.490000", "112939.980000", "112941.470000", "112942.960000", "112944.450000", "112945.940000", "112947.430000", "112948.920000", "112950.410000", "112951.900000", "112953.390000", "112954.880000", "112956.370000", "112957.860000", "112959.350000", "113000.840000", "113002.330000", "113003.820000", "113005.310000", "113006.800000", "113008.290000", "113009.780000", "113011.270000", "113012.760000", "113014.250000", "113015.740000", "113017.230000", "113018.720000", "113020.210000", "113021.700000", "113023.190000", "113024.680000", "113026.170000", "113027.660000", "113029.150000", "113030.640000", "113032.130000", "113033.620000", "113035.110000", "113036.600000", "113038.090000", "113039.580000", "113041.070000", "113042.560000", "113044.050000", "113045.540000", "113047.030000", "113048.520000", "113050.010000", "113051.500000", "113052.990000", "113054.480000", "113055.970000", "113057.460000", "113058.950000", "113100.440000", "113101.930000", "113103.420000", "113104.910000", "113106.400000", "113107.890000", "113109.380000", "113110.870000", "113112.360000", "113113.850000"],
      "ContentTime": ["112755.459000", "112755.462000", "112755.472000", "112755.499000", "112755.502000", "112755.504000", "112755.512000", "112755.515000", "112755.517000", "112755.520000", "112755.522000", "112755.525000", "112755.527000", "112755.536000", "112755.539000", "112755.542000", "112755.544000", "112755.546000", "112755.549000", "112755.552000", "112755.554000", "112755.556000", "112755.559000", "112755.562000", "112755.564000", "112755.567000", "112755.570000", "112755.572000", "112815.405000", "112815.408000", "112815.410000", "112815.412000", "112815.420000", "112815.423000", "112815.425000", "112815.428000", "112815.430000", "112815.433000", "112815.435000", "112815.438000", "112815.440000", "112815.443000", "112815.445000", "112815.448000", "112815.455000", "112815.458000", "112815.460000", "112815.462000", "112815.465000", "112835.381000", "112835.383000", "112835.386000", "112835.389000", "112835.391000", "112835.393000", "112835.396000", "112835.399000", "112835.401000", "112835.404000", "112835.406000", "112835.409000", "112835.411000", "112835.414000", "112835.416000", "112835.419000", "112835.421000", "112835.424000", "112835.426000", "112835.429000", "112855.403000", "112855.405000", "112855.408000", "112855.410000", "112855.413000", "112855.415000", "112855.418000", "112855.420000", "112855.423000", "112855.425000", "112855.428000", "112855.430000", "112855.433000", "112855.435000", "112855.438000", "112855.440000", "112855.443000", "112855.445000", "112855.448000", "112855.450000", "112935.434000", "112935.436000", "112935.439000", "112935.441000", "112935.444000", "112935.446000", "112935.449000", "112935.451000", "112935.454000", "112935.456000", "112935.459000", "112935.461000", "112935.464000", "112935.466000", "112935.469000", "112935.471000", "112935.474000", "112935.476000", "112935.479000", "112935.481000", "112935.484000", "112935.486000", "112935.489000", "112935.491000", "112935.494000", "112935.496000", "112935.499000", "112935.501000", "112935.504000", "112935.506000", "112935.509000", "112935.511000", "112935.514000", "113015.418000", "113015.421000", "113015.431000", "113015.433000", "113015.436000", "113015.438000", "113015.441000", "113015.443000", "113015.446000", "113015.448000", "113015.451000", "113015.453000", "113015.456000", "113015.458000", "113015.461000", "113015.463000", "113015.466000", "113015.468000", "113015.471000", "113015.474000", "113015.476000", "113015.479000", "113015.481000", "113015.484000", "113015.486000", "113015.489000", "113015.491000", "113055.796000", "113055.799000", "113055.802000", "113055.804000", "113055.807000", "113055.809000", "113055.812000", "113055.814000", "113055.817000", "113055.819000", "113055.822000", "113055.824000", "113055.827000", "113055.829000", "113055.832000", "113055.834000", "113055.837000", "113055.839000", "113055.842000", "113055.844000", "113055.847000", "113055.849000", "113055.852000", "113055.854000", "113055.857000", "113055.859000", "113055.862000", "113116.239000", "113116.242000", "113116.245000", "113116.252000", "113116.255000", "113116.257000", "113116.260000", "113116.263000", "113116.265000", "113116.268000", "113116.270000", "113116.273000", "113116.275000", "113116.278000"],
      "InstanceCreationTime": ["112755.459000", "112755.462000", "112755.472000", "112755.499000", "112755.502000", "112755.504000", "112755.512000", "112755.515000", "112755.517000", "112755.520000", "112755.522000", "112755.525000", "112755.527000", "112755.536000", "112755.539000", "112755.542000", "112755.544000", "112755.546000", "112755.549000", "112755.552000", "112755.554000", "112755.556000", "112755.559000", "112755.562000", "112755.564000", "112755.567000", "112755.570000", "112755.572000", "112815.405000", "112815.408000", "112815.410000", "112815.412000", "112815.420000", "112815.423000", "112815.425000", "112815.428000", "112815.430000", "112815.433000", "112815.435000", "112815.438000", "112815.440000", "112815.443000", "112815.445000", "112815.448000", "112815.455000", "112815.458000", "112815.460000", "112815.462000", "112815.465000", "112835.381000", "112835.383000", "112835.386000", "112835.389000", "112835.391000", "112835.393000", "112835.396000", "112835.399000", "112835.401000", "112835.404000", "112835.406000", "112835.409000", "112835.411000", "112835.414000", "112835.416000", "112835.419000", "112835.421000", "112835.424000", "112835.426000", "112835.429000", "112855.403000", "112855.405000", "112855.408000", "112855.410000", "112855.413000", "112855.415000", "112855.418000", "112855.420000", "112855.423000", "112855.425000", "112855.428000", "112855.430000", "112855.433000", "112855.435000", "112855.438000", "112855.440000", "112855.443000", "112855.445000", "112855.448000", "112855.450000", "112935.434000", "112935.436000", "112935.439000", "112935.441000", "112935.444000", "112935.446000", "112935.449000", "112935.451000", "112935.454000", "112935.456000", "112935.459000", "112935.461000", "112935.464000", "112935.466000", "112935.469000", "112935.471000", "112935.474000", "112935.476000", "112935.479000", "112935.481000", "112935.484000", "112935.486000", "112935.489000", "112935.491000", "112935.494000", "112935.496000", "112935.499000", "112935.501000", "112935.504000", "112935.506000", "112935.509000", "112935.511000", "112935.514000", "113015.418000", "113015.421000", "113015.431000", "113015.433000", "113015.436000", "113015.438000", "113015.441000", "113015.443000", "113015.446000", "113015.448000", "113015.451000", "113015.453000", "113015.456000", "113015.458000", "113015.461000", "113015.463000", "113015.466000", "113015.468000", "113015.471000", "113015.474000", "113015.476000", "113015.479000", "113015.481000", "113015.484000", "113015.486000", "113015.489000", "113015.491000", "113055.796000", "113055.799000", "113055.802000", "113055.804000", "113055.807000", "113055.809000", "113055.812000", "113055.814000", "113055.817000", "113055.819000", "113055.822000", "113055.824000", "113055.827000", "113055.829000", "113055.832000", "113055.834000", "113055.837000", "113055.839000", "113055.842000", "113055.844000", "113055.847000", "113055.849000", "113055.852000", "113055.854000", "113055.857000", "113055.859000", "113055.862000", "113116.239000", "113116.242000", "113116.245000", "113116.252000", "113116.255000", "113116.257000", "113116.260000", "113116.263000", "113116.265000", "113116.268000", "113116.270000", "113116.273000", "113116.275000", "113116.278000"],
      "InstanceNumber": [1, 2, 3, 4, 5, 6, 7, 8, 9, 10, 11, 12, 13, 14, 15, 16, 17, 18, 19, 20, 21, 22, 23, 24, 25, 26, 27, 28, 29, 30, 31, 32, 33, 34, 35, 36, 37, 38, 39, 40, 41, 42, 43, 44, 45, 46, 47, 48, 49, 50, 51, 52, 53, 54, 55, 56, 57, 58, 59, 60, 61, 62, 63, 64, 65, 66, 67, 68, 69, 70, 71, 72, 73, 74, 75, 76, 77, 78, 79, 80, 81, 82, 83, 84, 85, 86, 87, 88, 89, 90, 91, 92, 93, 94, 95, 96, 97, 98, 99, 100, 101, 102, 103, 104, 105, 106, 107, 108, 109, 110, 111, 112, 113, 114, 115, 116, 117, 118, 119, 120, 121, 122, 123, 124, 125, 126, 127, 128, 129, 130, 131, 132, 133, 134, 135, 136, 137, 138, 139, 140, 141, 142, 143, 144, 145, 146, 147, 148, 149, 150, 151, 152, 153, 154, 155, 156, 157, 158, 159, 160, 161, 162, 163, 164, 165, 166, 167, 168, 169, 170, 171, 172, 173, 174, 175, 176, 177, 178, 179, 180, 181, 182, 183, 184, 185, 186, 187, 188, 189, 190],
      "WindowCenter": [4828.0, 4854.0, 4852.0, 4826.0, 4818.0, 4820.0, 4820.0, 4822.0, 4820.0, 4820.0, 4822.0, 4820.0, 4820.0, 4826.0, 4826.0, 4828.0, 4822.0, 4822.0, 4822.0, 4824.0, 4822.0, 4820.0, 4822.0, 4822.0, 4822.0, 4824.0, 4824.0, 4822.0, 4826.0, 4826.0, 4848.0, 4848.0, 4824.0, 4830.0, 4818.0, 4812.0, 4814.0, 4820.0, 4824.0, 4818.0, 4824.0, 4846.0, 4820.0, 4824.0, 4820.0, 4818.0, 4822.0, 4824.0, 4824.0, 4820.0, 4822.0, 4826.0, 4826.0, 4826.0, 4826.0, 4828.0, 4828.0, 4824.0, 4822.0, 4826.0, 4832.0, 4854.0, 4850.0, 4826.0, 4826.0, 4814.0, 4816.0, 4824.0, 4824.0, 4824.0, 4820.0, 4820.0, 4820.0, 4826.0, 4824.0, 4824.0, 4824.0, 4826.0, 4824.0, 4824.0, 4826.0, 4824.0, 4820.0, 4824.0, 4824.0, 4828.0, 4846.0, 4824.0, 4822.0, 4824.0, 4826.0, 4852.0, 4852.0, 4824.0, 4822.0, 4816.0, 4816.0, 4818.0, 4822.0, 4822.0, 4824.0, 4826.0, 4822.0, 4824.0, 4824.0, 4828.0, 4828.0, 4828.0, 4824.0, 4822.0, 4826.0, 4822.0, 4822.0, 4848.0, 4852.0, 4848.0, 4822.0, 4822.0, 4794.0, 4814.0, 4816.0, 4824.0, 4820.0, 4820.0, 4824.0, 4826.0, 4822.0, 4820.0, 4824.0, 4824.0, 4828.0, 4824.0, 4822.0, 4824.0, 4822.0, 4828.0, 4824.0, 4824.0, 4822.0, 4830.0, 4822.0, 4828.0, 4852.0, 4828.0, 4824.0, 4820.0, 4822.0, 4822.0, 4820.0, 4848.0, 4846.0, 4846.0, 4826.0, 4816.0, 4812.0, 4812.0, 4820.0, 4820.0, 4790.0, 4820.0, 4846.0, 4848.0, 4818.0, 4822.0, 4818.0, 4816.0, 4820.0, 4820.0, 4820.0, 4820.0, 4822.0, 4818.0, 4818.0, 4820.0, 4820.0, 4828.0, 4824.0, 4824.0, 4820.0, 4820.0, 4828.0, 4824.0, 4848.0, 4824.0, 4822.0, 4818.0, 4822.0, 4826.0, 4828.0, 4822.0],
      "WindowWidth": [18600.0, 18618.0, 18616.0, 18604.0, 18598.0, 18608.0, 18608.0, 18608.0, 18590.0, 18580.0, 18582.0, 18582.0, 18584.0, 18600.0, 18602.0, 18600.0, 18606.0, 18606.0, 18604.0, 18610.0, 18586.0, 18576.0, 18584.0, 18578.0, 18600.0, 18608.0, 18600.0, 18604.0, 18596.0, 18580.0, 18612.0, 18612.0, 18584.0, 18602.0, 18600.0, 18604.0, 18610.0, 18612.0, 18602.0, 18576.0, 18582.0, 18614.0, 18576.0, 18602.0, 18602.0, 18604.0, 18606.0, 18598.0, 18580.0, 18588.0, 18594.0, 18604.0, 18594.0, 18592.0, 18580.0, 18582.0, 18594.0, 18594.0, 18600.0, 18594.0, 18588.0, 18614.0, 18614.0, 18588.0, 18598.0, 18602.0, 18606.0, 18602.0, 18592.0, 18580.0, 18576.0, 18580.0, 18586.0, 18600.0, 18602.0, 18598.0, 18592.0, 18596.0, 18600.0, 18606.0, 18604.0, 18588.0, 18582.0, 18578.0, 18594.0, 18602.0, 18638.0, 18606.0, 18602.0, 18592.0, 18580.0, 18612.0, 18616.0, 18586.0, 18598.0, 18602.0, 18604.0, 18608.0, 18600.0, 18586.0, 18586.0, 18584.0, 18572.0, 18582.0, 18588.0, 18594.0, 18592.0, 18596.0, 18596.0, 18606.0, 18602.0, 18598.0, 18584.0, 18610.0, 18624.0, 18616.0, 18584.0, 18602.0, 18572.0, 18602.0, 18604.0, 18610.0, 18606.0, 18578.0, 18584.0, 18584.0, 18578.0, 18588.0, 18600.0, 18596.0, 18590.0, 18594.0, 18600.0, 18608.0, 18598.0, 18596.0, 18584.0, 18578.0, 18578.0, 18592.0, 18592.0, 18592.0, 18622.0, 18592.0, 18594.0, 18600.0, 18602.0, 18592.0, 18578.0, 18616.0, 18614.0, 18618.0, 18608.0, 18614.0, 18612.0, 18616.0, 18612.0, 18618.0, 18556.0, 18580.0, 18616.0, 18616.0, 18578.0, 18608.0, 18612.0, 18610.0, 18610.0, 18600.0, 18584.0, 18578.0, 18582.0, 18580.0, 18582.0, 18590.0, 18586.0, 18594.0, 18602.0, 18604.0, 18604.0, 18606.0, 18594.0, 18580.0, 18616.0, 18586.0, 18602.0, 18608.0, 18604.0, 18600.0, 18598.0, 18586.0]
    },
    "slices": {}
  }
}