{
  "AcquisitionMatrixPE": 104,
  "AcquisitionNumber": 1,
  "AcquisitionTime": "11:34:45.342500",
  "BandwidthPerPixelPhaseEncode": 17.17,
  "BaseResolution": 104,
  "BodyPartExamined": "BRAIN",
  "CoilString": "HC1-7;NC1_2",
  "ConsistencyInfo": "N4_VE11C_LATEST_20160120",
  "ConversionSoftware": "dcm2niix",
  "ConversionSoftwareVersion": "v1.0.20190902",
  "DerivedVendorReportedEchoSpacing": 0.000560011,
  "DeviceSerialNumber": "167006",
  "DwellTime": 2.1e-06,
  "EchoTime": 0.037,
  "EchoTrainLength": 104,
  "EffectiveEchoSpacing": 0.000560011,
  "FlipAngle": 52,
  "ImageComments": "Unaliased_MB4_PE3_LB",
  "ImageOrientationPatientDICOM": [0.996117, 0.054125, 0.0694414, -0.0226051, 0.919504, -0.392429],
  "ImageType": [
    "ORIGINAL",
    "PRIMARY",
    "M",
    "MB",
    "ND",
    "MOSAIC"
],
  "ImagingFrequency": 123.259,
  "InPlanePhaseEncodingDirectionDICOM": "COL",
  "InstitutionAddress": "Chemin_Queen-Mary_4565_Montreal_District_CA_H3W_1W5",
  "InstitutionName": "IUGM",
  "InstitutionalDepartmentName": "Department",
  "MRAcquisitionType": "2D",
  "MagneticFieldStrength": 3,
  "Manufacturer": "Siemens",
  "ManufacturersModelName": "Prisma_fit",
  "Modality": "MR",
  "MultibandAccelerationFactor": 4,
  "PartialFourier": 1,
  "PatientPosition": "HFS",
  "PercentPhaseFOV": 100,
  "PhaseEncodingDirection": "j",
  "PhaseEncodingSteps": 104,
  "PhaseResolution": 1,
  "PixelBandwidth": 2290,
  "ProcedureStepDescription": "memory_things",
  "ProtocolName": "func_task-things_run-4",
  "PulseSequenceDetails": "%CustomerSeq%_cmrr_mbep2d_bold",
  "ReceiveCoilActiveElements": "HC1-7;NC1,2",
  "ReceiveCoilName": "HeadNeck_64",
  "ReconMatrixPE": 104,
  "RepetitionTime": 1.49,
  "SAR": 0.0709817,
  "ScanOptions": "FS",
  "ScanningSequence": "EP",
  "SequenceName": "epfid2d1_104",
  "SequenceVariant": "SK_SS",
  "SeriesDescription": "func_task-things_run-4",
  "SeriesNumber": 19,
  "ShimSetting": [649, -7155, -8842, 602, 106, 135, -41, -10],
  "SliceThickness": 2,
  "SliceTiming": [0, 0.7825, 0.0975, 0.88, 0.195, 0.98, 0.2925, 1.0775, 0.39, 1.175, 0.49, 1.2725, 0.5875, 1.37, 0.685, 0, 0.7825, 0.0975, 0.88, 0.195, 0.98, 0.2925, 1.0775, 0.39, 1.175, 0.49, 1.2725, 0.5875, 1.37, 0.685, 0, 0.7825, 0.0975, 0.88, 0.195, 0.98, 0.2925, 1.0775, 0.39, 1.175, 0.49, 1.2725, 0.5875, 1.37, 0.685, 0, 0.7825, 0.0975, 0.88, 0.195, 0.98, 0.2925, 1.0775, 0.39, 1.175, 0.49, 1.2725, 0.5875, 1.37, 0.685],
  "SoftwareVersions": "syngo_MR_E11",
  "SpacingBetweenSlices": 2,
  "StationName": "MRC35049",
  "TaskName": "things",
  "TotalReadoutTime": 0.0576811,
  "TxRefAmp": 320.253,
  "WipMemBlock": "7487feb6-f63c-4931-9074-751c4eaa8a10||Sequence: R016 ve11c/master r/e634e98; Dec 19 2017 11:00:25 by eja",
  "dcmmeta_affine": [
    [-1.9922332763671875, -0.045210208743810654, 0.17018383741378784, 105.30936431884766],
    [-0.1082499623298645, 1.8390089273452759, -0.7786708474159241, -51.603633880615234],
    [0.1388828605413437, 0.7848581671714783, 1.8343143463134766, -75.4397201538086],
    [0.0, 0.0, 0.0, 1.0]
],
  "dcmmeta_reorient_transform": [
    [0.0, -1.0, 0.0, 103.0],
    [1.0, 0.0, 0.0, 0.0],
    [0.0, 0.0, 1.0, 0.0],
    [0.0, 0.0, 0.0, 1.0]
],
  "dcmmeta_shape": [104, 104, 60, 190],
  "dcmmeta_slice_dim": 2,
  "dcmmeta_version": 0.6,
  "global": {
    "const": {
      "AcquisitionMatrix": [104, 0, 0, 104],
      "AngioFlag": "N",
      "BitsAllocated": 16,
      "BitsStored": 16,
      "BodyPartExamined": "BRAIN",
      "Columns": 832,
      "EchoNumbers": 1,
      "EchoTime": 37.0,
      "EchoTrainLength": 104,
      "FlipAngle": 52.0,
      "HighBit": 15,
      "ImageOrientationPatient": [0.9961166468783, 0.05412497962384, 0.06944143138402, -0.0226051048197, 0.9195044407449, -0.3924290925588],
      "ImagePositionPatient": [-809.36911673043, -846.61649766257, 240.53569350902],
      "ImageType": [
        "ORIGINAL",
        "PRIMARY",
        "M",
        "MB",
        "ND",
        "MOSAIC"
],
      "ImagedNucleus": "1H",
      "ImagingFrequency": 123.258975,
      "InPlanePhaseEncodingDirection": "COL",
      "MRAcquisitionType": "2D",
      "MagneticFieldStrength": 3.0,
      "Manufacturer": "SIEMENS",
      "ManufacturerModelName": "Prisma_fit",
      "Modality": "MR",
      "NumberOfAverages": 1.0,
      "NumberOfPhaseEncodingSteps": 104,
      "PercentPhaseFieldOfView": 100.0,
      "PercentSampling": 100.0,
      "PerformedProcedureStepStartTime": "105157.808000",
      "PhotometricInterpretation": "MONOCHROME2",
      "PixelBandwidth": 2290.0,
      "PixelRepresentation": 0,
      "PixelSpacing": [2.0, 2.0],
      "ProtocolName": "func_task-things_run-4",
      "RepetitionTime": 1490.0,
      "Rows": 832,
      "SAR": 0.07098171906789,
      "SamplesPerPixel": 1,
      "ScanOptions": "FS",
      "ScanningSequence": "EP",
      "SequenceName": "epfid2d1_104",
      "SequenceVariant": [
        "SK",
        "SS"
],
      "SeriesDescription": "func_task-things_run-4",
      "SeriesNumber": 19,
      "SeriesTime": "113554.324000",
      "SliceLocation": -40.137978828316,
      "SliceThickness": 2.0,
      "SmallestImagePixelValue": 0,
      "SoftwareVersions": "syngo MR E11",
      "SpacingBetweenSlices": 2.0000000194979,
      "SpecificCharacterSet": "ISO_IR 100",
      "StudyID": "1",
      "StudyTime": "105157.760000",
      "TransmitCoilName": "Body",
      "VariableFlipAngleFlag": "N",
      "WindowCenterWidthExplanation": "Algo1",
      "dBdt": 0.0},
    "slices": {}
  },
  "time": {
    "samples": {
      "AcquisitionNumber": [1, 2, 3, 4, 5, 6, 7, 8, 9, 10, 11, 12, 13, 14, 15, 16, 17, 18, 19, 20, 21, 22, 23, 24, 25, 26, 27, 28, 29, 30, 31, 32, 33, 34, 35, 36, 37, 38, 39, 40, 41, 42, 43, 44, 45, 46, 47, 48, 49, 50, 51, 52, 53, 54, 55, 56, 57, 58, 59, 60, 61, 62, 63, 64, 65, 66, 67, 68, 69, 70, 71, 72, 73, 74, 75, 76, 77, 78, 79, 80, 81, 82, 83, 84, 85, 86, 87, 88, 89, 90, 91, 92, 93, 94, 95, 96, 97, 98, 99, 100, 101, 102, 103, 104, 105, 106, 107, 108, 109, 110, 111, 112, 113, 114, 115, 116, 117, 118, 119, 120, 121, 122, 123, 124, 125, 126, 127, 128, 129, 130, 131, 132, 133, 134, 135, 136, 137, 138, 139, 140, 141, 142, 143, 144, 145, 146, 147, 148, 149, 150, 151, 152, 153, 154, 155, 156, 157, 158, 159, 160, 161, 162, 163, 164, 165, 166, 167, 168, 169, 170, 171, 172, 173, 174, 175, 176, 177, 178, 179, 180, 181, 182, 183, 184, 185, 186, 187, 188, 189, 190],
      "AcquisitionTime": ["113445.342500", "113446.832500", "113448.322500", "113449.812500", "113451.302500", "113452.792500", "113454.282500", "113455.772500", "113457.262500", "113458.752500", "113500.242500", "113501.732500", "113503.222500", "113504.712500", "113506.202500", "113507.692500", "113509.182500", "113510.672500", "113512.162500", "113513.652500", "113515.142500", "113516.632500", "113518.122500", "113519.612500", "113521.102500", "113522.592500", "113524.082500", "113525.572500", "113527.062500", "113528.552500", "113530.042500", "113531.532500", "113533.022500", "113534.512500", "113536.002500", "113537.492500", "113538.982500", "113540.472500", "113541.962500", "113543.452500", "113544.942500", "113546.432500", "113547.922500", "113549.412500", "113550.902500", "113552.392500", "113553.882500", "113555.372500", "113556.862500", "113558.352500", "113559.842500", "113601.332500", "113602.822500", "113604.312500", "113605.802500", "113607.292500", "113608.782500", "113610.272500", "113611.762500", "113613.252500", "113614.742500", "113616.232500", "113617.722500", "113619.212500", "113620.702500", "113622.192500", "113623.682500", "113625.172500", "113626.662500", "113628.152500", "113629.642500", "113631.132500", "113632.622500", "113634.112500", "113635.602500", "113637.092500", "113638.582500", "113640.072500", "113641.562500", "113643.052500", "113644.542500", "113646.032500", "113647.522500", "113649.012500", "113650.502500", "113651.992500", "113653.482500", "113654.972500", "113656.462500", "113657.952500", "113659.442500", "113700.932500", "113702.422500", "113703.912500", "113705.402500", "113706.892500", "113708.382500", "113709.872500", "113711.362500", "113712.852500", "113714.342500", "113715.832500", "113717.322500", "113718.812500", "113720.302500", "113721.792500", "113723.282500", "113724.772500", "113726.262500", "113727.752500", "113729.242500", "113730.732500", "113732.222500", "113733.712500", "113735.202500", "113736.692500", "113738.182500", "113739.672500", "113741.162500", "113742.652500", "113744.142500", "113745.632500", "113747.122500", "113748.612500", "113750.102500", "113751.592500", "113753.082500", "113754.572500", "113756.062500", "113757.552500", "113759.042500", "113800.532500", "113802.022500", "113803.512500", "113805.002500", "113806.492500", "113807.982500", "113809.472500", "113810.962500", "113812.452500", "113813.942500", "113815.432500", "113816.922500", "113818.412500", "113819.902500", "113821.392500", "113822.882500", "113824.372500", "113825.862500", "113827.352500", "113828.842500", "113830.332500", "113831.822500", "113833.312500", "113834.802500", "113836.292500", "113837.782500", "113839.272500", "113840.762500", "113842.252500", "113843.742500", "113845.232500", "113846.722500", "113848.212500", "113849.702500", "113851.192500", "113852.682500", "113854.172500", "113855.662500", "113857.152500", "113858.642500", "113900.132500", "113901.622500", "113903.112500", "113904.602500", "113906.092500", "113907.582500", "113909.072500", "113910.562500", "113912.052500", "113913.542500", "113915.032500", "113916.522500", "113918.012500", "113919.502500", "113920.992500", "113922.482500", "113923.972500", "113925.462500", "113926.952500"],
      "ContentTime": ["113554.328000", "113554.332000", "113554.339000", "113554.342000", "113554.345000", "113554.349000", "113554.352000", "113554.355000", "113554.358000", "113554.362000", "113554.365000", "113554.368000", "113554.372000", "113554.375000", "113554.378000", "113614.296000", "113614.300000", "113614.303000", "113614.314000", "113614.317000", "113614.320000", "113614.323000", "113614.327000", "113614.330000", "113614.333000", "113614.337000", "113614.340000", "113614.343000", "113614.346000", "113614.350000", "113614.353000", "113614.356000", "113614.360000", "113614.363000", "113614.366000", "113634.296000", "113634.300000", "113634.303000", "113634.306000", "113634.310000", "113634.313000", "113634.316000", "113634.320000", "113634.323000", "113634.326000", "113634.330000", "113634.333000", "113634.336000", "113634.340000", "113634.343000", "113634.346000", "113634.349000", "113634.353000", "113634.356000", "113634.360000", "113654.295000", "113654.299000", "113654.303000", "113654.306000", "113654.309000", "113654.313000", "113654.316000", "113654.319000", "113654.323000", "113654.326000", "113654.329000", "113654.332000", "113654.336000", "113654.339000", "113654.342000", "113654.346000", "113654.349000", "113654.352000", "113654.356000", "113654.359000", "113714.296000", "113714.300000", "113714.303000", "113714.307000", "113714.310000", "113714.313000", "113714.316000", "113714.320000", "113714.323000", "113714.326000", "113714.330000", "113714.333000", "113714.336000", "113714.340000", "113714.343000", "113714.346000", "113714.350000", "113714.353000", "113714.357000", "113714.360000", "113754.296000", "113754.300000", "113754.303000", "113754.306000", "113754.310000", "113754.313000", "113754.316000", "113754.320000", "113754.323000", "113754.327000", "113754.330000", "113754.333000", "113754.337000", "113754.340000", "113754.343000", "113754.347000", "113754.350000", "113754.354000", "113754.357000", "113754.360000", "113754.363000", "113754.367000", "113754.370000", "113754.373000", "113754.388000", "113754.392000", "113754.395000", "113754.398000", "113754.401000", "113754.405000", "113754.408000", "113834.296000", "113834.300000", "113834.303000", "113834.307000", "113834.310000", "113834.313000", "113834.317000", "113834.320000", "113834.323000", "113834.327000", "113834.330000", "113834.333000", "113834.337000", "113834.340000", "113834.343000", "113834.347000", "113834.350000", "113834.353000", "113834.356000", "113834.360000", "113834.363000", "113834.367000", "113834.371000", "113834.375000", "113834.378000", "113834.382000", "113914.295000", "113914.299000", "113914.302000", "113914.306000", "113914.309000", "113914.312000", "113914.315000", "113914.319000", "113914.322000", "113914.325000", "113914.329000", "113914.332000", "113914.336000", "113914.339000", "113914.342000", "113914.346000", "113914.349000", "113914.352000", "113914.355000", "113914.359000", "113914.362000", "113914.365000", "113914.369000", "113914.372000", "113914.375000", "113914.379000", "113914.382000", "113929.552000", "113929.556000", "113929.559000", "113929.563000", "113929.566000", "113929.569000", "113929.573000", "113929.576000", "113929.579000", "113929.583000", "113929.586000"],
      "InstanceCreationTime": ["113554.328000", "113554.332000", "113554.339000", "113554.342000", "113554.345000", "113554.349000", "113554.352000", "113554.355000", "113554.358000", "113554.362000", "113554.365000", "113554.368000", "113554.372000", "113554.375000", "113554.378000", "113614.296000", "113614.300000", "113614.303000", "113614.314000", "113614.317000", "113614.320000", "113614.323000", "113614.327000", "113614.330000", "113614.333000", "113614.337000", "113614.340000", "113614.343000", "113614.346000", "113614.350000", "113614.353000", "113614.356000", "113614.360000", "113614.363000", "113614.366000", "113634.296000", "113634.300000", "113634.303000", "113634.306000", "113634.310000", "113634.313000", "113634.316000", "113634.320000", "113634.323000", "113634.326000", "113634.330000", "113634.333000", "113634.336000", "113634.340000", "113634.343000", "113634.346000", "113634.349000", "113634.353000", "113634.356000", "113634.360000", "113654.295000", "113654.299000", "113654.303000", "113654.306000", "113654.309000", "113654.313000", "113654.316000", "113654.319000", "113654.323000", "113654.326000", "113654.329000", "113654.332000", "113654.336000", "113654.339000", "113654.342000", "113654.346000", "113654.349000", "113654.352000", "113654.356000", "113654.359000", "113714.296000", "113714.300000", "113714.303000", "113714.307000", "113714.310000", "113714.313000", "113714.316000", "113714.320000", "113714.323000", "113714.326000", "113714.330000", "113714.333000", "113714.336000", "113714.340000", "113714.343000", "113714.346000", "113714.350000", "113714.353000", "113714.357000", "113714.360000", "113754.296000", "113754.300000", "113754.303000", "113754.306000", "113754.310000", "113754.313000", "113754.316000", "113754.320000", "113754.323000", "113754.327000", "113754.330000", "113754.333000", "113754.337000", "113754.340000", "113754.343000", "113754.347000", "113754.350000", "113754.354000", "113754.357000", "113754.360000", "113754.363000", "113754.367000", "113754.370000", "113754.373000", "113754.388000", "113754.392000", "113754.395000", "113754.398000", "113754.401000", "113754.405000", "113754.408000", "113834.296000", "113834.300000", "113834.303000", "113834.307000", "113834.310000", "113834.313000", "113834.317000", "113834.320000", "113834.323000", "113834.327000", "113834.330000", "113834.333000", "113834.337000", "113834.340000", "113834.343000", "113834.347000", "113834.350000", "113834.353000", "113834.356000", "113834.360000", "113834.363000", "113834.367000", "113834.371000", "113834.375000", "113834.378000", "113834.382000", "113914.295000", "113914.299000", "113914.302000", "113914.306000", "113914.309000", "113914.312000", "113914.315000", "113914.319000", "113914.322000", "113914.325000", "113914.329000", "113914.332000", "113914.336000", "113914.339000", "113914.342000", "113914.346000", "113914.349000", "113914.352000", "113914.355000", "113914.359000", "113914.362000", "113914.365000", "113914.369000", "113914.372000", "113914.375000", "113914.379000", "113914.382000", "113929.552000", "113929.556000", "113929.559000", "113929.563000", "113929.566000", "113929.569000", "113929.573000", "113929.576000", "113929.579000", "113929.583000", "113929.586000"],
      "InstanceNumber": [1, 2, 3, 4, 5, 6, 7, 8, 9, 10, 11, 12, 13, 14, 15, 16, 17, 18, 19, 20, 21, 22, 23, 24, 25, 26, 27, 28, 29, 30, 31, 32, 33, 34, 35, 36, 37, 38, 39, 40, 41, 42, 43, 44, 45, 46, 47, 48, 49, 50, 51, 52, 53, 54, 55, 56, 57, 58, 59, 60, 61, 62, 63, 64, 65, 66, 67, 68, 69, 70, 71, 72, 73, 74, 75, 76, 77, 78, 79, 80, 81, 82, 83, 84, 85, 86, 87, 88, 89, 90, 91, 92, 93, 94, 95, 96, 97, 98, 99, 100, 101, 102, 103, 104, 105, 106, 107, 108, 109, 110, 111, 112, 113, 114, 115, 116, 117, 118, 119, 120, 121, 122, 123, 124, 125, 126, 127, 128, 129, 130, 131, 132, 133, 134, 135, 136, 137, 138, 139, 140, 141, 142, 143, 144, 145, 146, 147, 148, 149, 150, 151, 152, 153, 154, 155, 156, 157, 158, 159, 160, 161, 162, 163, 164, 165, 166, 167, 168, 169, 170, 171, 172, 173, 174, 175, 176, 177, 178, 179, 180, 181, 182, 183, 184, 185, 186, 187, 188, 189, 190],
      "LargestImagePixelValue": [48824, 47105, 48617, 48006, 46104, 44600, 43964, 44696, 47587, 49048, 49346, 48728, 46497, 45357, 44409, 44997, 45696, 47287, 49347, 48012, 47365, 45592, 44376, 45042, 45674, 48427, 47828, 46023, 44461, 43617, 43224, 43167, 45698, 46429, 47298, 45119, 45105, 43128, 43079, 42324, 43203, 42118, 42512, 41630, 42026, 43383, 42542, 42931, 41949, 43339, 43750, 43508, 44007, 42446, 42238, 41299, 41562, 44263, 43024, 42366, 41266, 42051, 42378, 43601, 43003, 41402, 44072, 41968, 40587, 40044, 39872, 39532, 39977, 39425, 40041, 39509, 40484, 40591, 40545, 40572, 39818, 39661, 40086, 39904, 39642, 39610, 39805, 43727, 40050, 41779, 40638, 41101, 41658, 41448, 40890, 39841, 39451, 40229, 42232, 42089, 42621, 42409, 41971, 42705, 43029, 42629, 42662, 46578, 40319, 42293, 44068, 43349, 43744, 41456, 41889, 41625, 39658, 41948, 43100, 42836, 42630, 43234, 42837, 42300, 42847, 42714, 41882, 42522, 42828, 43247, 43422, 42315, 42792, 43588, 42428, 42717, 44095, 41327, 41836, 41836, 40900, 41363, 42488, 42231, 41891, 42337, 40352, 39901, 39850, 40808, 41070, 41177, 41037, 39716, 41350, 40935, 41594, 41732, 41827, 42270, 43015, 43502, 43183, 43024, 41398, 40319, 39687, 40093, 41028, 41600, 40245, 40497, 41576, 42709, 41477, 41731, 40931, 41489, 40338, 41272, 49319, 40564, 41944, 41787, 40982, 40997, 41858, 43464, 43444, 42625],
      "WindowCenter": [10581.0, 10540.0, 10519.0, 10483.0, 10458.0, 10449.0, 10454.0, 10485.0, 10520.0, 10514.0, 10481.0, 10471.0, 10451.0, 10451.0, 10447.0, 10444.0, 10449.0, 10482.0, 10508.0, 10489.0, 10473.0, 10451.0, 10457.0, 10490.0, 10499.0, 10504.0, 10479.0, 10453.0, 10439.0, 10460.0, 10473.0, 10460.0, 10478.0, 10488.0, 10473.0, 10439.0, 10429.0, 10423.0, 10441.0, 10449.0, 10466.0, 10439.0, 10451.0, 10438.0, 10443.0, 10450.0, 10439.0, 10436.0, 10427.0, 10441.0, 10463.0, 10469.0, 10465.0, 10449.0, 10444.0, 10432.0, 10474.0, 10521.0, 10483.0, 10459.0, 10432.0, 10424.0, 10437.0, 10469.0, 10474.0, 10477.0, 10490.0, 10452.0, 10406.0, 10392.0, 10394.0, 10404.0, 10420.0, 10420.0, 10418.0, 10405.0, 10409.0, 10415.0, 10421.0, 10419.0, 10397.0, 10402.0, 10429.0, 10440.0, 10428.0, 10418.0, 10424.0, 10466.0, 10423.0, 10424.0, 10410.0, 10424.0, 10448.0, 10441.0, 10417.0, 10397.0, 10377.0, 10409.0, 10442.0, 10431.0, 10418.0, 10409.0, 10407.0, 10434.0, 10455.0, 10441.0, 10423.0, 10458.0, 10387.0, 10414.0, 10452.0, 10459.0, 10450.0, 10408.0, 10407.0, 10423.0, 10403.0, 10444.0, 10452.0, 10452.0, 10445.0, 10423.0, 10405.0, 10401.0, 10410.0, 10421.0, 10422.0, 10435.0, 10427.0, 10440.0, 10447.0, 10411.0, 10405.0, 10401.0, 10397.0, 10407.0, 10438.0, 10416.0, 10420.0, 10405.0, 10393.0, 10400.0, 10419.0, 10433.0, 10420.0, 10408.0, 10383.0, 10377.0, 10381.0, 10419.0, 10439.0, 10437.0, 10393.0, 10366.0, 10364.0, 10378.0, 10411.0, 10414.0, 10399.0, 10389.0, 10389.0, 10419.0, 10429.0, 10430.0, 10388.0, 10375.0, 10354.0, 10383.0, 10414.0, 10450.0, 10417.0, 10406.0, 10402.0, 10400.0, 10383.0, 10393.0, 10397.0, 10420.0, 10412.0, 10404.0, 10456.0, 10387.0, 10401.0, 10411.0, 10420.0, 10410.0, 10428.0, 10462.0, 10453.0, 10422.0],
      "WindowWidth": [22525.0, 22414.0, 22349.0, 22260.0, 22206.0, 22185.0, 22198.0, 22270.0, 22340.0, 22323.0, 22242.0, 22219.0, 22182.0, 22186.0, 22177.0, 22166.0, 22173.0, 22250.0, 22311.0, 22270.0, 22232.0, 22186.0, 22208.0, 22283.0, 22303.0, 22302.0, 22247.0, 22191.0, 22167.0, 22218.0, 22249.0, 22214.0, 22242.0, 22279.0, 22231.0, 22161.0, 22142.0, 22133.0, 22174.0, 22197.0, 22237.0, 22169.0, 22201.0, 22174.0, 22185.0, 22195.0, 22176.0, 22162.0, 22145.0, 22168.0, 22221.0, 22240.0, 22227.0, 22195.0, 22189.0, 22163.0, 22262.0, 22362.0, 22278.0, 22221.0, 22164.0, 22140.0, 22167.0, 22249.0, 22254.0, 22268.0, 22287.0, 22213.0, 22107.0, 22078.0, 22078.0, 22105.0, 22140.0, 22143.0, 22133.0, 22105.0, 22105.0, 22119.0, 22141.0, 22131.0, 22082.0, 22093.0, 22160.0, 22183.0, 22157.0, 22132.0, 22147.0, 22233.0, 22143.0, 22138.0, 22105.0, 22139.0, 22195.0, 22180.0, 22124.0, 22080.0, 22040.0, 22105.0, 22178.0, 22152.0, 22118.0, 22095.0, 22098.0, 22159.0, 22211.0, 22173.0, 22129.0, 22205.0, 22062.0, 22114.0, 22193.0, 22219.0, 22193.0, 22101.0, 22099.0, 22147.0, 22105.0, 22185.0, 22192.0, 22196.0, 22181.0, 22125.0, 22080.0, 22078.0, 22096.0, 22124.0, 22130.0, 22153.0, 22129.0, 22162.0, 22181.0, 22097.0, 22084.0, 22080.0, 22065.0, 22095.0, 22166.0, 22121.0, 22127.0, 22089.0, 22073.0, 22083.0, 22120.0, 22151.0, 22120.0, 22092.0, 22038.0, 22026.0, 22039.0, 22121.0, 22179.0, 22167.0, 22058.0, 22005.0, 21992.0, 22025.0, 22102.0, 22112.0, 22077.0, 22049.0, 22047.0, 22125.0, 22141.0, 22147.0, 22049.0, 22018.0, 21975.0, 22039.0, 22108.0, 22200.0, 22118.0, 22095.0, 22074.0, 22071.0, 22032.0, 22063.0, 22068.0, 22119.0, 22104.0, 22079.0, 22186.0, 22049.0, 22074.0, 22101.0, 22131.0, 22100.0, 22137.0, 22213.0, 22191.0, 22120.0]
    },
    "slices": {}
  }
}