{
  "AcquisitionMatrixPE": 104,
  "AcquisitionNumber": 1,
  "AcquisitionTime": "11:10:39.910000",
  "BandwidthPerPixelPhaseEncode": 17.17,
  "BaseResolution": 104,
  "BodyPartExamined": "BRAIN",
  "CoilString": "HC1-7;NC1_2",
  "ConsistencyInfo": "N4_VE11C_LATEST_20160120",
  "ConversionSoftware": "dcm2niix",
  "ConversionSoftwareVersion": "v1.0.20190902",
  "DerivedVendorReportedEchoSpacing": 0.000560011,
  "DeviceSerialNumber": "167006",
  "DwellTime": 2.1e-06,
  "EchoTime": 0.037,
  "EchoTrainLength": 104,
  "EffectiveEchoSpacing": 0.000560011,
  "FlipAngle": 52,
  "ImageComments": "Unaliased_MB4_PE3_LB",
  "ImageOrientationPatientDICOM": [0.996117, 0.054125, 0.0694414, -0.0226051, 0.919504, -0.392429],
  "ImageType": [
    "ORIGINAL",
    "PRIMARY",
    "M",
    "MB",
    "ND",
    "MOSAIC"
],
  "ImagingFrequency": 123.259,
  "InPlanePhaseEncodingDirectionDICOM": "COL",
  "InstitutionAddress": "Chemin_Queen-Mary_4565_Montreal_District_CA_H3W_1W5",
  "InstitutionName": "IUGM",
  "InstitutionalDepartmentName": "Department",
  "MRAcquisitionType": "2D",
  "MagneticFieldStrength": 3,
  "Manufacturer": "Siemens",
  "ManufacturersModelName": "Prisma_fit",
  "Modality": "MR",
  "MultibandAccelerationFactor": 4,
  "PartialFourier": 1,
  "PatientPosition": "HFS",
  "PercentPhaseFOV": 100,
  "PhaseEncodingDirection": "j",
  "PhaseEncodingSteps": 104,
  "PhaseResolution": 1,
  "PixelBandwidth": 2290,
  "ProcedureStepDescription": "memory_things",
  "ProtocolName": "func_task-things_run-1",
  "PulseSequenceDetails": "%CustomerSeq%_cmrr_mbep2d_bold",
  "ReceiveCoilActiveElements": "HC1-7;NC1,2",
  "ReceiveCoilName": "HeadNeck_64",
  "ReconMatrixPE": 104,
  "RepetitionTime": 1.49,
  "SAR": 0.0709817,
  "ScanOptions": "FS",
  "ScanningSequence": "EP",
  "SequenceName": "epfid2d1_104",
  "SequenceVariant": "SK_SS",
  "SeriesDescription": "func_task-things_run-1",
  "SeriesNumber": 10,
  "ShimSetting": [649, -7155, -8842, 602, 106, 135, -41, -10],
  "SliceThickness": 2,
  "SliceTiming": [0, 0.7825, 0.0975, 0.88, 0.195, 0.98, 0.2925, 1.0775, 0.3925, 1.175, 0.49, 1.2725, 0.5875, 1.37, 0.685, 0, 0.7825, 0.0975, 0.88, 0.195, 0.98, 0.2925, 1.0775, 0.3925, 1.175, 0.49, 1.2725, 0.5875, 1.37, 0.685, 0, 0.7825, 0.0975, 0.88, 0.195, 0.98, 0.2925, 1.0775, 0.3925, 1.175, 0.49, 1.2725, 0.5875, 1.37, 0.685, 0, 0.7825, 0.0975, 0.88, 0.195, 0.98, 0.2925, 1.0775, 0.3925, 1.175, 0.49, 1.2725, 0.5875, 1.37, 0.685],
  "SoftwareVersions": "syngo_MR_E11",
  "SpacingBetweenSlices": 2,
  "StationName": "MRC35049",
  "TaskName": "things",
  "TotalReadoutTime": 0.0576811,
  "TxRefAmp": 320.253,
  "WipMemBlock": "3e2fba5d-aedf-4dcd-a28b-299ed0d56486||Sequence: R016 ve11c/master r/e634e98; Dec 19 2017 11:00:25 by eja",
  "dcmmeta_affine": [
    [-1.9922332763671875, -0.045210208743810654, 0.17018383741378784, 105.30936431884766],
    [-0.1082499623298645, 1.8390089273452759, -0.7786708474159241, -51.603633880615234],
    [0.1388828605413437, 0.7848581671714783, 1.8343143463134766, -75.4397201538086],
    [0.0, 0.0, 0.0, 1.0]
],
  "dcmmeta_reorient_transform": [
    [0.0, -1.0, 0.0, 103.0],
    [1.0, 0.0, 0.0, 0.0],
    [0.0, 0.0, 1.0, 0.0],
    [0.0, 0.0, 0.0, 1.0]
],
  "dcmmeta_shape": [104, 104, 60, 190],
  "dcmmeta_slice_dim": 2,
  "dcmmeta_version": 0.6,
  "global": {
    "const": {
      "AcquisitionMatrix": [104, 0, 0, 104],
      "AngioFlag": "N",
      "BitsAllocated": 16,
      "BitsStored": 16,
      "BodyPartExamined": "BRAIN",
      "Columns": 832,
      "EchoNumbers": 1,
      "EchoTime": 37.0,
      "EchoTrainLength": 104,
      "FlipAngle": 52.0,
      "HighBit": 15,
      "ImageOrientationPatient": [0.9961166468783, 0.05412497962384, 0.06944143138402, -0.0226051048197, 0.9195044407449, -0.3924290925588],
      "ImagePositionPatient": [-809.36911673043, -846.61649766257, 240.53569350902],
      "ImageType": [
        "ORIGINAL",
        "PRIMARY",
        "M",
        "MB",
        "ND",
        "MOSAIC"
],
      "ImagedNucleus": "1H",
      "ImagingFrequency": 123.258962,
      "InPlanePhaseEncodingDirection": "COL",
      "MRAcquisitionType": "2D",
      "MagneticFieldStrength": 3.0,
      "Manufacturer": "SIEMENS",
      "ManufacturerModelName": "Prisma_fit",
      "Modality": "MR",
      "NumberOfAverages": 1.0,
      "NumberOfPhaseEncodingSteps": 104,
      "PercentPhaseFieldOfView": 100.0,
      "PercentSampling": 100.0,
      "PerformedProcedureStepStartTime": "105157.808000",
      "PhotometricInterpretation": "MONOCHROME2",
      "PixelBandwidth": 2290.0,
      "PixelRepresentation": 0,
      "PixelSpacing": [2.0, 2.0],
      "ProtocolName": "func_task-things_run-1",
      "RepetitionTime": 1490.0,
      "Rows": 832,
      "SAR": 0.07098171906789,
      "SamplesPerPixel": 1,
      "ScanOptions": "FS",
      "ScanningSequence": "EP",
      "SequenceName": "epfid2d1_104",
      "SequenceVariant": [
        "SK",
        "SS"
],
      "SeriesDescription": "func_task-things_run-1",
      "SeriesNumber": 10,
      "SeriesTime": "111154.331000",
      "SliceLocation": -40.137978828316,
      "SliceThickness": 2.0,
      "SmallestImagePixelValue": 0,
      "SoftwareVersions": "syngo MR E11",
      "SpacingBetweenSlices": 2.0000000194979,
      "SpecificCharacterSet": "ISO_IR 100",
      "StudyID": "1",
      "StudyTime": "105157.760000",
      "TransmitCoilName": "Body",
      "VariableFlipAngleFlag": "N",
      "WindowCenterWidthExplanation": "Algo1",
      "dBdt": 0.0},
    "slices": {}
  },
  "time": {
    "samples": {
      "AcquisitionNumber": [1, 2, 3, 4, 5, 6, 7, 8, 9, 10, 11, 12, 13, 14, 15, 16, 17, 18, 19, 20, 21, 22, 23, 24, 25, 26, 27, 28, 29, 30, 31, 32, 33, 34, 35, 36, 37, 38, 39, 40, 41, 42, 43, 44, 45, 46, 47, 48, 49, 50, 51, 52, 53, 54, 55, 56, 57, 58, 59, 60, 61, 62, 63, 64, 65, 66, 67, 68, 69, 70, 71, 72, 73, 74, 75, 76, 77, 78, 79, 80, 81, 82, 83, 84, 85, 86, 87, 88, 89, 90, 91, 92, 93, 94, 95, 96, 97, 98, 99, 100, 101, 102, 103, 104, 105, 106, 107, 108, 109, 110, 111, 112, 113, 114, 115, 116, 117, 118, 119, 120, 121, 122, 123, 124, 125, 126, 127, 128, 129, 130, 131, 132, 133, 134, 135, 136, 137, 138, 139, 140, 141, 142, 143, 144, 145, 146, 147, 148, 149, 150, 151, 152, 153, 154, 155, 156, 157, 158, 159, 160, 161, 162, 163, 164, 165, 166, 167, 168, 169, 170, 171, 172, 173, 174, 175, 176, 177, 178, 179, 180, 181, 182, 183, 184, 185, 186, 187, 188, 189, 190],
      "AcquisitionTime": ["111039.910000", "111041.400000", "111042.890000", "111044.380000", "111045.870000", "111047.360000", "111048.850000", "111050.340000", "111051.830000", "111053.320000", "111054.810000", "111056.300000", "111057.790000", "111059.280000", "111100.770000", "111102.260000", "111103.750000", "111105.240000", "111106.730000", "111108.220000", "111109.710000", "111111.200000", "111112.690000", "111114.180000", "111115.670000", "111117.160000", "111118.650000", "111120.140000", "111121.630000", "111123.120000", "111124.610000", "111126.100000", "111127.590000", "111129.080000", "111130.570000", "111132.060000", "111133.550000", "111135.040000", "111136.530000", "111138.020000", "111139.510000", "111141.000000", "111142.490000", "111143.980000", "111145.470000", "111146.960000", "111148.450000", "111149.940000", "111151.430000", "111152.920000", "111154.410000", "111155.900000", "111157.390000", "111158.880000", "111200.370000", "111201.860000", "111203.350000", "111204.840000", "111206.330000", "111207.820000", "111209.310000", "111210.800000", "111212.290000", "111213.780000", "111215.270000", "111216.760000", "111218.250000", "111219.740000", "111221.230000", "111222.720000", "111224.210000", "111225.700000", "111227.190000", "111228.680000", "111230.170000", "111231.660000", "111233.150000", "111234.640000", "111236.130000", "111237.620000", "111239.110000", "111240.600000", "111242.090000", "111243.580000", "111245.070000", "111246.560000", "111248.050000", "111249.540000", "111251.030000", "111252.520000", "111254.010000", "111255.500000", "111256.990000", "111258.480000", "111259.970000", "111301.460000", "111302.950000", "111304.440000", "111305.930000", "111307.420000", "111308.910000", "111310.400000", "111311.890000", "111313.380000", "111314.870000", "111316.360000", "111317.850000", "111319.340000", "111320.830000", "111322.320000", "111323.810000", "111325.300000", "111326.790000", "111328.280000", "111329.770000", "111331.260000", "111332.750000", "111334.240000", "111335.730000", "111337.220000", "111338.710000", "111340.200000", "111341.690000", "111343.180000", "111344.670000", "111346.160000", "111347.650000", "111349.140000", "111350.630000", "111352.120000", "111353.610000", "111355.100000", "111356.590000", "111358.080000", "111359.570000", "111401.060000", "111402.550000", "111404.040000", "111405.530000", "111407.020000", "111408.510000", "111410.000000", "111411.490000", "111412.980000", "111414.470000", "111415.960000", "111417.450000", "111418.940000", "111420.430000", "111421.920000", "111423.410000", "111424.900000", "111426.390000", "111427.880000", "111429.370000", "111430.860000", "111432.350000", "111433.840000", "111435.330000", "111436.820000", "111438.310000", "111439.800000", "111441.290000", "111442.780000", "111444.270000", "111445.760000", "111447.250000", "111448.740000", "111450.230000", "111451.720000", "111453.210000", "111454.700000", "111456.190000", "111457.680000", "111459.170000", "111500.660000", "111502.150000", "111503.640000", "111505.130000", "111506.620000", "111508.110000", "111509.600000", "111511.090000", "111512.580000", "111514.070000", "111515.560000", "111517.050000", "111518.540000", "111520.030000", "111521.520000"],
      "ContentTime": ["111154.334000", "111154.338000", "111154.341000", "111154.345000", "111154.348000", "111154.351000", "111154.354000", "111154.358000", "111154.361000", "111154.365000", "111154.368000", "111154.371000", "111154.374000", "111154.378000", "111154.381000", "111154.384000", "111154.388000", "111214.296000", "111214.309000", "111214.312000", "111214.316000", "111214.319000", "111214.322000", "111214.326000", "111214.329000", "111214.332000", "111214.336000", "111214.339000", "111214.343000", "111214.346000", "111214.349000", "111214.352000", "111214.356000", "111214.359000", "111214.363000", "111214.367000", "111214.370000", "111234.296000", "111234.300000", "111234.303000", "111234.306000", "111234.310000", "111234.313000", "111234.316000", "111234.320000", "111234.323000", "111234.326000", "111234.330000", "111234.333000", "111234.336000", "111234.339000", "111234.343000", "111234.346000", "111234.354000", "111234.357000", "111234.361000", "111234.364000", "111254.296000", "111254.300000", "111254.303000", "111254.307000", "111254.310000", "111254.313000", "111254.316000", "111254.320000", "111254.323000", "111254.326000", "111254.329000", "111254.333000", "111254.336000", "111254.339000", "111254.343000", "111254.346000", "111254.350000", "111254.353000", "111254.356000", "111254.359000", "111314.296000", "111314.300000", "111314.303000", "111314.306000", "111314.310000", "111314.313000", "111314.316000", "111314.320000", "111314.323000", "111314.326000", "111314.329000", "111314.333000", "111314.336000", "111314.339000", "111314.343000", "111314.346000", "111314.349000", "111314.353000", "111314.356000", "111314.360000", "111354.295000", "111354.299000", "111354.302000", "111354.306000", "111354.309000", "111354.312000", "111354.315000", "111354.319000", "111354.322000", "111354.326000", "111354.330000", "111354.333000", "111354.337000", "111354.340000", "111354.344000", "111354.347000", "111354.350000", "111354.354000", "111354.357000", "111354.360000", "111354.364000", "111354.374000", "111354.377000", "111354.380000", "111354.384000", "111354.387000", "111354.390000", "111354.394000", "111354.397000", "111354.400000", "111354.404000", "111354.407000", "111434.296000", "111434.300000", "111434.303000", "111434.307000", "111434.310000", "111434.313000", "111434.316000", "111434.320000", "111434.323000", "111434.326000", "111434.330000", "111434.333000", "111434.337000", "111434.340000", "111434.343000", "111434.347000", "111434.350000", "111434.353000", "111434.356000", "111434.360000", "111434.363000", "111434.366000", "111434.370000", "111434.373000", "111434.376000", "111434.379000", "111434.383000", "111514.296000", "111514.300000", "111514.303000", "111514.306000", "111514.310000", "111514.313000", "111514.317000", "111514.320000", "111514.323000", "111514.327000", "111514.330000", "111514.333000", "111514.336000", "111514.340000", "111514.343000", "111514.346000", "111514.350000", "111514.353000", "111514.356000", "111514.360000", "111514.363000", "111514.366000", "111514.370000", "111514.373000", "111514.376000", "111514.379000", "111514.383000", "111523.815000", "111523.819000", "111523.822000", "111523.833000", "111523.836000", "111523.839000", "111523.843000"],
      "InstanceCreationTime": ["111154.334000", "111154.338000", "111154.341000", "111154.345000", "111154.348000", "111154.351000", "111154.354000", "111154.358000", "111154.361000", "111154.365000", "111154.368000", "111154.371000", "111154.374000", "111154.378000", "111154.381000", "111154.384000", "111154.388000", "111214.296000", "111214.309000", "111214.312000", "111214.316000", "111214.319000", "111214.322000", "111214.326000", "111214.329000", "111214.332000", "111214.336000", "111214.339000", "111214.343000", "111214.346000", "111214.349000", "111214.352000", "111214.356000", "111214.359000", "111214.363000", "111214.367000", "111214.370000", "111234.296000", "111234.300000", "111234.303000", "111234.306000", "111234.310000", "111234.313000", "111234.316000", "111234.320000", "111234.323000", "111234.326000", "111234.330000", "111234.333000", "111234.336000", "111234.339000", "111234.343000", "111234.346000", "111234.354000", "111234.357000", "111234.361000", "111234.364000", "111254.296000", "111254.300000", "111254.303000", "111254.307000", "111254.310000", "111254.313000", "111254.316000", "111254.320000", "111254.323000", "111254.326000", "111254.329000", "111254.333000", "111254.336000", "111254.339000", "111254.343000", "111254.346000", "111254.350000", "111254.353000", "111254.356000", "111254.359000", "111314.296000", "111314.300000", "111314.303000", "111314.306000", "111314.310000", "111314.313000", "111314.316000", "111314.320000", "111314.323000", "111314.326000", "111314.329000", "111314.333000", "111314.336000", "111314.339000", "111314.343000", "111314.346000", "111314.349000", "111314.353000", "111314.356000", "111314.360000", "111354.295000", "111354.299000", "111354.302000", "111354.306000", "111354.309000", "111354.312000", "111354.315000", "111354.319000", "111354.322000", "111354.326000", "111354.330000", "111354.333000", "111354.337000", "111354.340000", "111354.344000", "111354.347000", "111354.350000", "111354.354000", "111354.357000", "111354.360000", "111354.364000", "111354.374000", "111354.377000", "111354.380000", "111354.384000", "111354.387000", "111354.390000", "111354.394000", "111354.397000", "111354.400000", "111354.404000", "111354.407000", "111434.296000", "111434.300000", "111434.303000", "111434.307000", "111434.310000", "111434.313000", "111434.316000", "111434.320000", "111434.323000", "111434.326000", "111434.330000", "111434.333000", "111434.337000", "111434.340000", "111434.343000", "111434.347000", "111434.350000", "111434.353000", "111434.356000", "111434.360000", "111434.363000", "111434.366000", "111434.370000", "111434.373000", "111434.376000", "111434.379000", "111434.383000", "111514.296000", "111514.300000", "111514.303000", "111514.306000", "111514.310000", "111514.313000", "111514.317000", "111514.320000", "111514.323000", "111514.327000", "111514.330000", "111514.333000", "111514.336000", "111514.340000", "111514.343000", "111514.346000", "111514.350000", "111514.353000", "111514.356000", "111514.360000", "111514.363000", "111514.366000", "111514.370000", "111514.373000", "111514.376000", "111514.379000", "111514.383000", "111523.815000", "111523.819000", "111523.822000", "111523.833000", "111523.836000", "111523.839000", "111523.843000"],
      "InstanceNumber": [1, 2, 3, 4, 5, 6, 7, 8, 9, 10, 11, 12, 13, 14, 15, 16, 17, 18, 19, 20, 21, 22, 23, 24, 25, 26, 27, 28, 29, 30, 31, 32, 33, 34, 35, 36, 37, 38, 39, 40, 41, 42, 43, 44, 45, 46, 47, 48, 49, 50, 51, 52, 53, 54, 55, 56, 57, 58, 59, 60, 61, 62, 63, 64, 65, 66, 67, 68, 69, 70, 71, 72, 73, 74, 75, 76, 77, 78, 79, 80, 81, 82, 83, 84, 85, 86, 87, 88, 89, 90, 91, 92, 93, 94, 95, 96, 97, 98, 99, 100, 101, 102, 103, 104, 105, 106, 107, 108, 109, 110, 111, 112, 113, 114, 115, 116, 117, 118, 119, 120, 121, 122, 123, 124, 125, 126, 127, 128, 129, 130, 131, 132, 133, 134, 135, 136, 137, 138, 139, 140, 141, 142, 143, 144, 145, 146, 147, 148, 149, 150, 151, 152, 153, 154, 155, 156, 157, 158, 159, 160, 161, 162, 163, 164, 165, 166, 167, 168, 169, 170, 171, 172, 173, 174, 175, 176, 177, 178, 179, 180, 181, 182, 183, 184, 185, 186, 187, 188, 189, 190],
      "LargestImagePixelValue": [45503, 44504, 43328, 43455, 43122, 43531, 42856, 42368, 41741, 42028, 43045, 43299, 41999, 42232, 41415, 40928, 41501, 41906, 41721, 41776, 40941, 40830, 41399, 41118, 40808, 40891, 40684, 41291, 40833, 41070, 40380, 40562, 40926, 41454, 41035, 40567, 40270, 40519, 41039, 41472, 40968, 40626, 40239, 41622, 42636, 42534, 42329, 41446, 41470, 41547, 42485, 43010, 42604, 41834, 41315, 41670, 42368, 42779, 42767, 41642, 41888, 41862, 42742, 42392, 41327, 41526, 41209, 40936, 41914, 43404, 43212, 43165, 43221, 42727, 41798, 41814, 41711, 43608, 43108, 42946, 42730, 43829, 43387, 43216, 43079, 42040, 41278, 42000, 43120, 43363, 42897, 43155, 41954, 42074, 42604, 43533, 41479, 41840, 40922, 42190, 42850, 42255, 41644, 41659, 42535, 43094, 42895, 41940, 41399, 42202, 42948, 43229, 42344, 41799, 41777, 42787, 42501, 42730, 42269, 43438, 44522, 44928, 43757, 43271, 43465, 43898, 43402, 43396, 43764, 43666, 43671, 43684, 43921, 43109, 43416, 44289, 43399, 42459, 42265, 43287, 43892, 42923, 42946, 42118, 42887, 43260, 42888, 42532, 42017, 42411, 42572, 43227, 41947, 41877, 43181, 42771, 42784, 42864, 43241, 42987, 43189, 42858, 42135, 43321, 43809, 44909, 43237, 42602, 43522, 43607, 43496, 43575, 43146, 42640, 42712, 43861, 43210, 42848, 42483, 42750, 42797, 43485, 42932, 42604, 43024, 42717, 42661, 42945, 43273, 43454],
      "WindowCenter": [10611.0, 10572.0, 10574.0, 10574.0, 10567.0, 10561.0, 10565.0, 10557.0, 10553.0, 10564.0, 10573.0, 10540.0, 10520.0, 10522.0, 10514.0, 10524.0, 10554.0, 10548.0, 10525.0, 10511.0, 10490.0, 10512.0, 10545.0, 10542.0, 10528.0, 10510.0, 10515.0, 10524.0, 10510.0, 10505.0, 10496.0, 10511.0, 10533.0, 10537.0, 10514.0, 10501.0, 10502.0, 10510.0, 10525.0, 10539.0, 10515.0, 10498.0, 10492.0, 10511.0, 10539.0, 10557.0, 10535.0, 10520.0, 10514.0, 10522.0, 10561.0, 10577.0, 10545.0, 10521.0, 10500.0, 10494.0, 10528.0, 10540.0, 10531.0, 10519.0, 10520.0, 10529.0, 10536.0, 10525.0, 10514.0, 10511.0, 10507.0, 10502.0, 10538.0, 10565.0, 10534.0, 10517.0, 10512.0, 10512.0, 10510.0, 10521.0, 10524.0, 10549.0, 10542.0, 10519.0, 10515.0, 10525.0, 10534.0, 10558.0, 10555.0, 10528.0, 10519.0, 10518.0, 10541.0, 10562.0, 10553.0, 10552.0, 10542.0, 10535.0, 10562.0, 10583.0, 10563.0, 10552.0, 10531.0, 10528.0, 10535.0, 10521.0, 10516.0, 10516.0, 10544.0, 10571.0, 10563.0, 10547.0, 10533.0, 10541.0, 10555.0, 10545.0, 10523.0, 10509.0, 10508.0, 10532.0, 10531.0, 10528.0, 10506.0, 10514.0, 10538.0, 10558.0, 10548.0, 10531.0, 10523.0, 10533.0, 10546.0, 10556.0, 10550.0, 10540.0, 10549.0, 10550.0, 10549.0, 10542.0, 10548.0, 10570.0, 10561.0, 10548.0, 10533.0, 10534.0, 10556.0, 10546.0, 10537.0, 10530.0, 10535.0, 10552.0, 10554.0, 10529.0, 10509.0, 10495.0, 10515.0, 10550.0, 10546.0, 10527.0, 10525.0, 10527.0, 10526.0, 10526.0, 10531.0, 10550.0, 10554.0, 10547.0, 10527.0, 10533.0, 10551.0, 10551.0, 10525.0, 10517.0, 10523.0, 10528.0, 10545.0, 10539.0, 10514.0, 10501.0, 10506.0, 10536.0, 10538.0, 10525.0, 10519.0, 10508.0, 10523.0, 10537.0, 10527.0, 10525.0, 10527.0, 10523.0, 10527.0, 10510.0, 10525.0, 10557.0],
      "WindowWidth": [22605.0, 22499.0, 22504.0, 22496.0, 22476.0, 22454.0, 22467.0, 22455.0, 22445.0, 22472.0, 22485.0, 22407.0, 22366.0, 22368.0, 22357.0, 22379.0, 22449.0, 22431.0, 22376.0, 22342.0, 22298.0, 22355.0, 22430.0, 22423.0, 22393.0, 22350.0, 22361.0, 22384.0, 22352.0, 22336.0, 22323.0, 22354.0, 22408.0, 22411.0, 22358.0, 22331.0, 22334.0, 22350.0, 22384.0, 22418.0, 22360.0, 22319.0, 22307.0, 22348.0, 22411.0, 22455.0, 22401.0, 22366.0, 22354.0, 22375.0, 22468.0, 22500.0, 22422.0, 22367.0, 22321.0, 22305.0, 22381.0, 22409.0, 22384.0, 22362.0, 22365.0, 22391.0, 22399.0, 22376.0, 22352.0, 22345.0, 22339.0, 22329.0, 22410.0, 22468.0, 22397.0, 22356.0, 22344.0, 22345.0, 22342.0, 22373.0, 22380.0, 22432.0, 22416.0, 22362.0, 22352.0, 22371.0, 22394.0, 22455.0, 22446.0, 22385.0, 22365.0, 22364.0, 22411.0, 22459.0, 22442.0, 22439.0, 22423.0, 22409.0, 22467.0, 22512.0, 22469.0, 22440.0, 22389.0, 22378.0, 22396.0, 22364.0, 22356.0, 22356.0, 22419.0, 22485.0, 22463.0, 22433.0, 22400.0, 22415.0, 22447.0, 22424.0, 22373.0, 22342.0, 22339.0, 22389.0, 22387.0, 22377.0, 22326.0, 22339.0, 22396.0, 22446.0, 22426.0, 22390.0, 22366.0, 22385.0, 22418.0, 22439.0, 22427.0, 22404.0, 22426.0, 22432.0, 22427.0, 22412.0, 22423.0, 22476.0, 22459.0, 22430.0, 22394.0, 22392.0, 22444.0, 22425.0, 22403.0, 22389.0, 22396.0, 22437.0, 22440.0, 22379.0, 22337.0, 22303.0, 22350.0, 22433.0, 22420.0, 22377.0, 22367.0, 22376.0, 22375.0, 22374.0, 22383.0, 22435.0, 22445.0, 22427.0, 22386.0, 22386.0, 22429.0, 22427.0, 22368.0, 22351.0, 22364.0, 22373.0, 22415.0, 22398.0, 22339.0, 22311.0, 22330.0, 22395.0, 22400.0, 22369.0, 22354.0, 22328.0, 22365.0, 22397.0, 22376.0, 22370.0, 22378.0, 22371.0, 22374.0, 22335.0, 22369.0, 22445.0]
    },
    "slices": {}
  }
}