{
  "AcquisitionMatrixPE": 104,
  "AcquisitionNumber": 1,
  "AcquisitionTime": "11:34:45.342500",
  "BandwidthPerPixelPhaseEncode": 17.17,
  "BaseResolution": 104,
  "BodyPartExamined": "BRAIN",
  "CoilString": "HC1-7;NC1_2",
  "ConsistencyInfo": "N4_VE11C_LATEST_20160120",
  "ConversionSoftware": "dcm2niix",
  "ConversionSoftwareVersion": "v1.0.20190902",
  "DerivedVendorReportedEchoSpacing": 0.000560011,
  "DeviceSerialNumber": "167006",
  "DwellTime": 2.1e-06,
  "EchoTime": 0.037,
  "EchoTrainLength": 104,
  "EffectiveEchoSpacing": 0.000560011,
  "FlipAngle": 52,
  "ImageComments": "Unaliased_MB4_PE3_LB",
  "ImageOrientationPatientDICOM": [0.996117, 0.054125, 0.0694414, -0.0226051, 0.919504, -0.392429],
  "ImageType": [
    "ORIGINAL",
    "PRIMARY",
    "P",
    "MB",
    "ND",
    "MOSAIC"
],
  "ImagingFrequency": 123.259,
  "InPlanePhaseEncodingDirectionDICOM": "COL",
  "InstitutionAddress": "Chemin_Queen-Mary_4565_Montreal_District_CA_H3W_1W5",
  "InstitutionName": "IUGM",
  "InstitutionalDepartmentName": "Department",
  "MRAcquisitionType": "2D",
  "MagneticFieldStrength": 3,
  "Manufacturer": "Siemens",
  "ManufacturersModelName": "Prisma_fit",
  "Modality": "MR",
  "MultibandAccelerationFactor": 4,
  "PartialFourier": 1,
  "PatientPosition": "HFS",
  "PercentPhaseFOV": 100,
  "PhaseEncodingDirection": "j",
  "PhaseEncodingSteps": 104,
  "PhaseResolution": 1,
  "PixelBandwidth": 2290,
  "ProcedureStepDescription": "memory_things",
  "ProtocolName": "func_task-things_run-4",
  "PulseSequenceDetails": "%CustomerSeq%_cmrr_mbep2d_bold",
  "ReceiveCoilActiveElements": "HC1-7;NC1,2",
  "ReceiveCoilName": "HeadNeck_64",
  "ReconMatrixPE": 104,
  "RepetitionTime": 1.49,
  "SAR": 0.0709817,
  "ScanOptions": "FS",
  "ScanningSequence": "EP",
  "SequenceName": "epfid2d1_104",
  "SequenceVariant": "SK_SS",
  "SeriesDescription": "func_task-things_run-4",
  "SeriesNumber": 20,
  "ShimSetting": [649, -7155, -8842, 602, 106, 135, -41, -10],
  "SliceThickness": 2,
  "SliceTiming": [0, 0.7825, 0.0975, 0.88, 0.195, 0.98, 0.2925, 1.0775, 0.39, 1.175, 0.49, 1.2725, 0.5875, 1.37, 0.685, 0, 0.7825, 0.0975, 0.88, 0.195, 0.98, 0.2925, 1.0775, 0.39, 1.175, 0.49, 1.2725, 0.5875, 1.37, 0.685, 0, 0.7825, 0.0975, 0.88, 0.195, 0.98, 0.2925, 1.0775, 0.39, 1.175, 0.49, 1.2725, 0.5875, 1.37, 0.685, 0, 0.7825, 0.0975, 0.88, 0.195, 0.98, 0.2925, 1.0775, 0.39, 1.175, 0.49, 1.2725, 0.5875, 1.37, 0.685],
  "SoftwareVersions": "syngo_MR_E11",
  "SpacingBetweenSlices": 2,
  "StationName": "MRC35049",
  "TaskName": "things",
  "TotalReadoutTime": 0.0576811,
  "TxRefAmp": 320.253,
  "WipMemBlock": "7487feb6-f63c-4931-9074-751c4eaa8a10||Sequence: R016 ve11c/master r/e634e98; Dec 19 2017 11:00:25 by eja",
  "dcmmeta_affine": [
    [-1.9922332763671875, -0.045210208743810654, 0.17018383741378784, 105.30936431884766],
    [-0.1082499623298645, 1.8390089273452759, -0.7786708474159241, -51.603633880615234],
    [0.1388828605413437, 0.7848581671714783, 1.8343143463134766, -75.4397201538086],
    [0.0, 0.0, 0.0, 1.0]
],
  "dcmmeta_reorient_transform": [
    [0.0, -1.0, 0.0, 103.0],
    [1.0, 0.0, 0.0, 0.0],
    [0.0, 0.0, 1.0, 0.0],
    [0.0, 0.0, 0.0, 1.0]
],
  "dcmmeta_shape": [104, 104, 60, 190],
  "dcmmeta_slice_dim": 2,
  "dcmmeta_version": 0.6,
  "global": {
    "const": {
      "AcquisitionMatrix": [104, 0, 0, 104],
      "AngioFlag": "N",
      "BitsAllocated": 16,
      "BitsStored": 16,
      "BodyPartExamined": "BRAIN",
      "Columns": 832,
      "EchoNumbers": 1,
      "EchoTime": 37.0,
      "EchoTrainLength": 104,
      "FlipAngle": 52.0,
      "HighBit": 15,
      "ImageOrientationPatient": [0.9961166468783, 0.05412497962384, 0.06944143138402, -0.0226051048197, 0.9195044407449, -0.3924290925588],
      "ImagePositionPatient": [-809.36911673043, -846.61649766257, 240.53569350902],
      "ImageType": [
        "ORIGINAL",
        "PRIMARY",
        "P",
        "MB",
        "ND",
        "MOSAIC"
],
      "ImagedNucleus": "1H",
      "ImagingFrequency": 123.258975,
      "InPlanePhaseEncodingDirection": "COL",
      "LargestImagePixelValue": 4095,
      "MRAcquisitionType": "2D",
      "MagneticFieldStrength": 3.0,
      "Manufacturer": "SIEMENS",
      "ManufacturerModelName": "Prisma_fit",
      "Modality": "MR",
      "NumberOfAverages": 1.0,
      "NumberOfPhaseEncodingSteps": 104,
      "PercentPhaseFieldOfView": 100.0,
      "PercentSampling": 100.0,
      "PerformedProcedureStepStartTime": "105157.808000",
      "PhotometricInterpretation": "MONOCHROME2",
      "PixelBandwidth": 2290.0,
      "PixelRepresentation": 0,
      "PixelSpacing": [2.0, 2.0],
      "ProtocolName": "func_task-things_run-4",
      "RepetitionTime": 1490.0,
      "RescaleIntercept": -4096.0,
      "RescaleSlope": 2.0,
      "RescaleType": "US",
      "Rows": 832,
      "SAR": 0.07098171906789,
      "SamplesPerPixel": 1,
      "ScanOptions": "FS",
      "ScanningSequence": "EP",
      "SequenceName": "epfid2d1_104",
      "SequenceVariant": [
        "SK",
        "SS"
],
      "SeriesDescription": "func_task-things_run-4",
      "SeriesNumber": 20,
      "SeriesTime": "113554.406000",
      "SliceLocation": -40.137978828316,
      "SliceThickness": 2.0,
      "SmallestImagePixelValue": 0,
      "SoftwareVersions": "syngo MR E11",
      "SpacingBetweenSlices": 2.0000000194979,
      "SpecificCharacterSet": "ISO_IR 100",
      "StudyID": "1",
      "StudyTime": "105157.760000",
      "TransmitCoilName": "Body",
      "VariableFlipAngleFlag": "N",
      "WindowCenterWidthExplanation": "Algo1",
      "dBdt": 0.0},
    "slices": {}
  },
  "time": {
    "samples": {
      "AcquisitionNumber": [1, 2, 3, 4, 5, 6, 7, 8, 9, 10, 11, 12, 13, 14, 15, 16, 17, 18, 19, 20, 21, 22, 23, 24, 25, 26, 27, 28, 29, 30, 31, 32, 33, 34, 35, 36, 37, 38, 39, 40, 41, 42, 43, 44, 45, 46, 47, 48, 49, 50, 51, 52, 53, 54, 55, 56, 57, 58, 59, 60, 61, 62, 63, 64, 65, 66, 67, 68, 69, 70, 71, 72, 73, 74, 75, 76, 77, 78, 79, 80, 81, 82, 83, 84, 85, 86, 87, 88, 89, 90, 91, 92, 93, 94, 95, 96, 97, 98, 99, 100, 101, 102, 103, 104, 105, 106, 107, 108, 109, 110, 111, 112, 113, 114, 115, 116, 117, 118, 119, 120, 121, 122, 123, 124, 125, 126, 127, 128, 129, 130, 131, 132, 133, 134, 135, 136, 137, 138, 139, 140, 141, 142, 143, 144, 145, 146, 147, 148, 149, 150, 151, 152, 153, 154, 155, 156, 157, 158, 159, 160, 161, 162, 163, 164, 165, 166, 167, 168, 169, 170, 171, 172, 173, 174, 175, 176, 177, 178, 179, 180, 181, 182, 183, 184, 185, 186, 187, 188, 189, 190],
      "AcquisitionTime": ["113445.342500", "113446.832500", "113448.322500", "113449.812500", "113451.302500", "113452.792500", "113454.282500", "113455.772500", "113457.262500", "113458.752500", "113500.242500", "113501.732500", "113503.222500", "113504.712500", "113506.202500", "113507.692500", "113509.182500", "113510.672500", "113512.162500", "113513.652500", "113515.142500", "113516.632500", "113518.122500", "113519.612500", "113521.102500", "113522.592500", "113524.082500", "113525.572500", "113527.062500", "113528.552500", "113530.042500", "113531.532500", "113533.022500", "113534.512500", "113536.002500", "113537.492500", "113538.982500", "113540.472500", "113541.962500", "113543.452500", "113544.942500", "113546.432500", "113547.922500", "113549.412500", "113550.902500", "113552.392500", "113553.882500", "113555.372500", "113556.862500", "113558.352500", "113559.842500", "113601.332500", "113602.822500", "113604.312500", "113605.802500", "113607.292500", "113608.782500", "113610.272500", "113611.762500", "113613.252500", "113614.742500", "113616.232500", "113617.722500", "113619.212500", "113620.702500", "113622.192500", "113623.682500", "113625.172500", "113626.662500", "113628.152500", "113629.642500", "113631.132500", "113632.622500", "113634.112500", "113635.602500", "113637.092500", "113638.582500", "113640.072500", "113641.562500", "113643.052500", "113644.542500", "113646.032500", "113647.522500", "113649.012500", "113650.502500", "113651.992500", "113653.482500", "113654.972500", "113656.462500", "113657.952500", "113659.442500", "113700.932500", "113702.422500", "113703.912500", "113705.402500", "113706.892500", "113708.382500", "113709.872500", "113711.362500", "113712.852500", "113714.342500", "113715.832500", "113717.322500", "113718.812500", "113720.302500", "113721.792500", "113723.282500", "113724.772500", "113726.262500", "113727.752500", "113729.242500", "113730.732500", "113732.222500", "113733.712500", "113735.202500", "113736.692500", "113738.182500", "113739.672500", "113741.162500", "113742.652500", "113744.142500", "113745.632500", "113747.122500", "113748.612500", "113750.102500", "113751.592500", "113753.082500", "113754.572500", "113756.062500", "113757.552500", "113759.042500", "113800.532500", "113802.022500", "113803.512500", "113805.002500", "113806.492500", "113807.982500", "113809.472500", "113810.962500", "113812.452500", "113813.942500", "113815.432500", "113816.922500", "113818.412500", "113819.902500", "113821.392500", "113822.882500", "113824.372500", "113825.862500", "113827.352500", "113828.842500", "113830.332500", "113831.822500", "113833.312500", "113834.802500", "113836.292500", "113837.782500", "113839.272500", "113840.762500", "113842.252500", "113843.742500", "113845.232500", "113846.722500", "113848.212500", "113849.702500", "113851.192500", "113852.682500", "113854.172500", "113855.662500", "113857.152500", "113858.642500", "113900.132500", "113901.622500", "113903.112500", "113904.602500", "113906.092500", "113907.582500", "113909.072500", "113910.562500", "113912.052500", "113913.542500", "113915.032500", "113916.522500", "113918.012500", "113919.502500", "113920.992500", "113922.482500", "113923.972500", "113925.462500", "113926.952500"],
      "ContentTime": ["113554.408000", "113554.411000", "113554.413000", "113554.416000", "113554.424000", "113554.426000", "113554.429000", "113554.431000", "113554.434000", "113554.436000", "113554.439000", "113554.441000", "113554.444000", "113554.446000", "113554.449000", "113614.411000", "113614.414000", "113614.416000", "113614.419000", "113614.421000", "113614.426000", "113614.428000", "113614.431000", "113614.433000", "113614.436000", "113614.438000", "113614.441000", "113614.443000", "113614.446000", "113614.448000", "113614.451000", "113614.453000", "113614.456000", "113614.458000", "113614.461000", "113634.410000", "113634.412000", "113634.415000", "113634.417000", "113634.420000", "113634.422000", "113634.425000", "113634.427000", "113634.430000", "113634.432000", "113634.435000", "113634.437000", "113634.440000", "113634.442000", "113634.445000", "113634.447000", "113634.450000", "113634.452000", "113634.455000", "113634.457000", "113654.403000", "113654.406000", "113654.408000", "113654.411000", "113654.413000", "113654.417000", "113654.419000", "113654.422000", "113654.424000", "113654.427000", "113654.429000", "113654.432000", "113654.434000", "113654.437000", "113654.439000", "113654.442000", "113654.444000", "113654.447000", "113654.449000", "113654.452000", "113714.397000", "113714.400000", "113714.403000", "113714.405000", "113714.408000", "113714.410000", "113714.413000", "113714.415000", "113714.418000", "113714.420000", "113714.423000", "113714.425000", "113714.428000", "113714.430000", "113714.433000", "113714.435000", "113714.438000", "113714.448000", "113714.450000", "113714.453000", "113754.457000", "113754.460000", "113754.463000", "113754.465000", "113754.468000", "113754.470000", "113754.473000", "113754.475000", "113754.478000", "113754.480000", "113754.483000", "113754.485000", "113754.488000", "113754.490000", "113754.493000", "113754.495000", "113754.498000", "113754.500000", "113754.503000", "113754.505000", "113754.508000", "113754.510000", "113754.513000", "113754.515000", "113754.527000", "113754.529000", "113754.532000", "113754.534000", "113754.537000", "113754.539000", "113754.542000", "113834.442000", "113834.444000", "113834.447000", "113834.449000", "113834.452000", "113834.463000", "113834.465000", "113834.468000", "113834.470000", "113834.473000", "113834.475000", "113834.478000", "113834.480000", "113834.483000", "113834.485000", "113834.488000", "113834.490000", "113834.493000", "113834.495000", "113834.498000", "113834.500000", "113834.503000", "113834.505000", "113834.508000", "113834.510000", "113834.513000", "113914.432000", "113914.435000", "113914.438000", "113914.440000", "113914.443000", "113914.445000", "113914.448000", "113914.450000", "113914.453000", "113914.455000", "113914.458000", "113914.460000", "113914.463000", "113914.465000", "113914.468000", "113914.470000", "113914.474000", "113914.477000", "113914.479000", "113914.482000", "113914.484000", "113914.487000", "113914.489000", "113914.492000", "113914.495000", "113914.497000", "113914.500000", "113929.629000", "113929.632000", "113929.639000", "113929.641000", "113929.644000", "113929.646000", "113929.649000", "113929.651000", "113929.654000", "113929.657000", "113929.659000"],
      "InstanceCreationTime": ["113554.408000", "113554.411000", "113554.413000", "113554.416000", "113554.424000", "113554.426000", "113554.429000", "113554.431000", "113554.434000", "113554.436000", "113554.439000", "113554.441000", "113554.444000", "113554.446000", "113554.449000", "113614.411000", "113614.414000", "113614.416000", "113614.419000", "113614.421000", "113614.426000", "113614.428000", "113614.431000", "113614.433000", "113614.436000", "113614.438000", "113614.441000", "113614.443000", "113614.446000", "113614.448000", "113614.451000", "113614.453000", "113614.456000", "113614.458000", "113614.461000", "113634.410000", "113634.412000", "113634.415000", "113634.417000", "113634.420000", "113634.422000", "113634.425000", "113634.427000", "113634.430000", "113634.432000", "113634.435000", "113634.437000", "113634.440000", "113634.442000", "113634.445000", "113634.447000", "113634.450000", "113634.452000", "113634.455000", "113634.457000", "113654.403000", "113654.406000", "113654.408000", "113654.411000", "113654.413000", "113654.417000", "113654.419000", "113654.422000", "113654.424000", "113654.427000", "113654.429000", "113654.432000", "113654.434000", "113654.437000", "113654.439000", "113654.442000", "113654.444000", "113654.447000", "113654.449000", "113654.452000", "113714.397000", "113714.400000", "113714.403000", "113714.405000", "113714.408000", "113714.410000", "113714.413000", "113714.415000", "113714.418000", "113714.420000", "113714.423000", "113714.425000", "113714.428000", "113714.430000", "113714.433000", "113714.435000", "113714.438000", "113714.448000", "113714.450000", "113714.453000", "113754.457000", "113754.460000", "113754.463000", "113754.465000", "113754.468000", "113754.470000", "113754.473000", "113754.475000", "113754.478000", "113754.480000", "113754.483000", "113754.485000", "113754.488000", "113754.490000", "113754.493000", "113754.495000", "113754.498000", "113754.500000", "113754.503000", "113754.505000", "113754.508000", "113754.510000", "113754.513000", "113754.515000", "113754.527000", "113754.529000", "113754.532000", "113754.534000", "113754.537000", "113754.539000", "113754.542000", "113834.442000", "113834.444000", "113834.447000", "113834.449000", "113834.452000", "113834.463000", "113834.465000", "113834.468000", "113834.470000", "113834.473000", "113834.475000", "113834.478000", "113834.480000", "113834.483000", "113834.485000", "113834.488000", "113834.490000", "113834.493000", "113834.495000", "113834.498000", "113834.500000", "113834.503000", "113834.505000", "113834.508000", "113834.510000", "113834.513000", "113914.432000", "113914.435000", "113914.438000", "113914.440000", "113914.443000", "113914.445000", "113914.448000", "113914.450000", "113914.453000", "113914.455000", "113914.458000", "113914.460000", "113914.463000", "113914.465000", "113914.468000", "113914.470000", "113914.474000", "113914.477000", "113914.479000", "113914.482000", "113914.484000", "113914.487000", "113914.489000", "113914.492000", "113914.495000", "113914.497000", "113914.500000", "113929.629000", "113929.632000", "113929.639000", "113929.641000", "113929.644000", "113929.646000", "113929.649000", "113929.651000", "113929.654000", "113929.657000", "113929.659000"],
      "InstanceNumber": [1, 2, 3, 4, 5, 6, 7, 8, 9, 10, 11, 12, 13, 14, 15, 16, 17, 18, 19, 20, 21, 22, 23, 24, 25, 26, 27, 28, 29, 30, 31, 32, 33, 34, 35, 36, 37, 38, 39, 40, 41, 42, 43, 44, 45, 46, 47, 48, 49, 50, 51, 52, 53, 54, 55, 56, 57, 58, 59, 60, 61, 62, 63, 64, 65, 66, 67, 68, 69, 70, 71, 72, 73, 74, 75, 76, 77, 78, 79, 80, 81, 82, 83, 84, 85, 86, 87, 88, 89, 90, 91, 92, 93, 94, 95, 96, 97, 98, 99, 100, 101, 102, 103, 104, 105, 106, 107, 108, 109, 110, 111, 112, 113, 114, 115, 116, 117, 118, 119, 120, 121, 122, 123, 124, 125, 126, 127, 128, 129, 130, 131, 132, 133, 134, 135, 136, 137, 138, 139, 140, 141, 142, 143, 144, 145, 146, 147, 148, 149, 150, 151, 152, 153, 154, 155, 156, 157, 158, 159, 160, 161, 162, 163, 164, 165, 166, 167, 168, 169, 170, 171, 172, 173, 174, 175, 176, 177, 178, 179, 180, 181, 182, 183, 184, 185, 186, 187, 188, 189, 190],
      "WindowCenter": [4830.0, 4832.0, 4824.0, 4822.0, 4826.0, 4824.0, 4826.0, 4850.0, 4846.0, 4826.0, 4820.0, 4790.0, 4816.0, 4818.0, 4820.0, 4820.0, 4848.0, 4848.0, 4822.0, 4826.0, 4826.0, 4830.0, 4852.0, 4854.0, 4852.0, 4826.0, 4820.0, 4818.0, 4822.0, 4826.0, 4824.0, 4848.0, 4850.0, 4850.0, 4828.0, 4822.0, 4824.0, 4826.0, 4826.0, 4822.0, 4822.0, 4824.0, 4828.0, 4824.0, 4826.0, 4828.0, 4824.0, 4824.0, 4830.0, 4826.0, 4830.0, 4826.0, 4826.0, 4826.0, 4826.0, 4826.0, 4848.0, 4826.0, 4826.0, 4826.0, 4822.0, 4826.0, 4828.0, 4824.0, 4850.0, 4850.0, 4830.0, 4830.0, 4826.0, 4826.0, 4830.0, 4830.0, 4828.0, 4828.0, 4824.0, 4848.0, 4850.0, 4832.0, 4830.0, 4828.0, 4852.0, 4830.0, 4856.0, 4828.0, 4824.0, 4826.0, 4828.0, 4826.0, 4828.0, 4854.0, 4854.0, 4852.0, 4832.0, 4830.0, 4830.0, 4830.0, 4826.0, 4852.0, 4852.0, 4830.0, 4854.0, 4830.0, 4854.0, 4832.0, 4828.0, 4830.0, 4830.0, 4828.0, 4850.0, 4850.0, 4828.0, 4830.0, 4830.0, 4832.0, 4828.0, 4830.0, 4822.0, 4850.0, 4848.0, 4850.0, 4830.0, 4828.0, 4828.0, 4852.0, 4854.0, 4854.0, 4826.0, 4826.0, 4852.0, 4852.0, 4830.0, 4830.0, 4830.0, 4854.0, 4854.0, 4856.0, 4828.0, 4828.0, 4826.0, 4850.0, 4850.0, 4850.0, 4854.0, 4828.0, 4830.0, 4830.0, 4826.0, 4828.0, 4850.0, 4852.0, 4852.0, 4852.0, 4832.0, 4826.0, 4852.0, 4852.0, 4830.0, 4830.0, 4828.0, 4846.0, 4852.0, 4850.0, 4826.0, 4828.0, 4826.0, 4826.0, 4822.0, 4820.0, 4824.0, 4826.0, 4824.0, 4824.0, 4828.0, 4826.0, 4828.0, 4826.0, 4822.0, 4822.0, 4820.0, 4824.0, 4824.0, 4824.0, 4826.0, 4824.0, 4818.0, 4824.0, 4852.0, 4824.0, 4850.0, 4826.0],
      "WindowWidth": [18596.0, 18594.0, 18596.0, 18600.0, 18608.0, 18590.0, 18580.0, 18624.0, 18610.0, 18598.0, 18602.0, 18572.0, 18602.0, 18598.0, 18592.0, 18574.0, 18616.0, 18614.0, 18582.0, 18602.0, 18600.0, 18594.0, 18624.0, 18618.0, 18624.0, 18600.0, 18598.0, 18596.0, 18604.0, 18592.0, 18584.0, 18616.0, 18620.0, 18610.0, 18592.0, 18598.0, 18604.0, 18598.0, 18598.0, 18590.0, 18582.0, 18582.0, 18582.0, 18584.0, 18588.0, 18600.0, 18594.0, 18596.0, 18592.0, 18586.0, 18586.0, 18592.0, 18588.0, 18588.0, 18586.0, 18584.0, 18614.0, 18584.0, 18600.0, 18600.0, 18598.0, 18594.0, 18592.0, 18580.0, 18624.0, 18620.0, 18582.0, 18598.0, 18592.0, 18592.0, 18594.0, 18590.0, 18592.0, 18586.0, 18582.0, 18606.0, 18610.0, 18586.0, 18594.0, 18592.0, 18620.0, 18592.0, 18628.0, 18588.0, 18580.0, 18588.0, 18584.0, 18584.0, 18590.0, 18620.0, 18618.0, 18620.0, 18594.0, 18596.0, 18592.0, 18588.0, 18584.0, 18620.0, 18614.0, 18588.0, 18624.0, 18592.0, 18624.0, 18592.0, 18586.0, 18588.0, 18586.0, 18582.0, 18614.0, 18614.0, 18584.0, 18594.0, 18596.0, 18594.0, 18586.0, 18592.0, 18584.0, 18614.0, 18612.0, 18610.0, 18590.0, 18590.0, 18588.0, 18624.0, 18620.0, 18616.0, 18586.0, 18584.0, 18620.0, 18616.0, 18584.0, 18590.0, 18588.0, 18622.0, 18618.0, 18616.0, 18586.0, 18588.0, 18582.0, 18612.0, 18616.0, 18614.0, 18616.0, 18588.0, 18588.0, 18586.0, 18588.0, 18584.0, 18616.0, 18620.0, 18616.0, 18616.0, 18586.0, 18582.0, 18612.0, 18618.0, 18584.0, 18588.0, 18584.0, 18616.0, 18622.0, 18618.0, 18584.0, 18588.0, 18590.0, 18586.0, 18584.0, 18582.0, 18582.0, 18582.0, 18582.0, 18582.0, 18586.0, 18586.0, 18586.0, 18584.0, 18578.0, 18584.0, 18580.0, 18582.0, 18586.0, 18584.0, 18590.0, 18582.0, 18578.0, 18582.0, 18618.0, 18584.0, 18616.0, 18586.0]
    },
    "slices": {}
  }
}