{
  "AcquisitionMatrixPE": 104,
  "AcquisitionNumber": 1,
  "AcquisitionTime": "11:47:14.117500",
  "BandwidthPerPixelPhaseEncode": 17.17,
  "BaseResolution": 104,
  "BodyPartExamined": "BRAIN",
  "CoilString": "HC1-7;NC1_2",
  "ConsistencyInfo": "N4_VE11C_LATEST_20160120",
  "ConversionSoftware": "dcm2niix",
  "ConversionSoftwareVersion": "v1.0.20190902",
  "DerivedVendorReportedEchoSpacing": 0.000560011,
  "DeviceSerialNumber": "167006",
  "DwellTime": 2.1e-06,
  "EchoTime": 0.037,
  "EchoTrainLength": 104,
  "EffectiveEchoSpacing": 0.000560011,
  "FlipAngle": 52,
  "ImageComments": "Unaliased_MB4_PE3_LB",
  "ImageOrientationPatientDICOM": [0.996117, 0.054125, 0.0694414, -0.0226051, 0.919504, -0.392429],
  "ImageType": [
    "ORIGINAL",
    "PRIMARY",
    "P",
    "MB",
    "ND",
    "MOSAIC"
],
  "ImagingFrequency": 123.259,
  "InPlanePhaseEncodingDirectionDICOM": "COL",
  "InstitutionAddress": "Chemin_Queen-Mary_4565_Montreal_District_CA_H3W_1W5",
  "InstitutionName": "IUGM",
  "InstitutionalDepartmentName": "Department",
  "MRAcquisitionType": "2D",
  "MagneticFieldStrength": 3,
  "Manufacturer": "Siemens",
  "ManufacturersModelName": "Prisma_fit",
  "Modality": "MR",
  "MultibandAccelerationFactor": 4,
  "PartialFourier": 1,
  "PatientPosition": "HFS",
  "PercentPhaseFOV": 100,
  "PhaseEncodingDirection": "j",
  "PhaseEncodingSteps": 104,
  "PhaseResolution": 1,
  "PixelBandwidth": 2290,
  "ProcedureStepDescription": "memory_things",
  "ProtocolName": "func_task-things_run-6",
  "PulseSequenceDetails": "%CustomerSeq%_cmrr_mbep2d_bold",
  "ReceiveCoilActiveElements": "HC1-7;NC1,2",
  "ReceiveCoilName": "HeadNeck_64",
  "ReconMatrixPE": 104,
  "RepetitionTime": 1.49,
  "SAR": 0.0709817,
  "ScanOptions": "FS",
  "ScanningSequence": "EP",
  "SequenceName": "epfid2d1_104",
  "SequenceVariant": "SK_SS",
  "SeriesDescription": "func_task-things_run-6",
  "SeriesNumber": 26,
  "ShimSetting": [649, -7155, -8842, 602, 106, 135, -41, -10],
  "SliceThickness": 2,
  "SliceTiming": [0, 0.785, 0.1, 0.8825, 0.1975, 0.98, 0.295, 1.08, 0.3925, 1.1775, 0.49, 1.275, 0.59, 1.3725, 0.6875, 0, 0.785, 0.1, 0.8825, 0.1975, 0.98, 0.295, 1.08, 0.3925, 1.1775, 0.49, 1.275, 0.59, 1.3725, 0.6875, 0, 0.785, 0.1, 0.8825, 0.1975, 0.98, 0.295, 1.08, 0.3925, 1.1775, 0.49, 1.275, 0.59, 1.3725, 0.6875, 0, 0.785, 0.1, 0.8825, 0.1975, 0.98, 0.295, 1.08, 0.3925, 1.1775, 0.49, 1.275, 0.59, 1.3725, 0.6875],
  "SoftwareVersions": "syngo_MR_E11",
  "SpacingBetweenSlices": 2,
  "StationName": "MRC35049",
  "TaskName": "things",
  "TotalReadoutTime": 0.0576811,
  "TxRefAmp": 320.253,
  "WipMemBlock": "9d166ac7-ddf2-46b2-80ed-6843c8c4b292||Sequence: R016 ve11c/master r/e634e98; Dec 19 2017 11:00:25 by eja",
  "dcmmeta_affine": [
    [-1.9922332763671875, -0.045210208743810654, 0.17018383741378784, 105.30936431884766],
    [-0.1082499623298645, 1.8390089273452759, -0.7786708474159241, -51.603633880615234],
    [0.1388828605413437, 0.7848581671714783, 1.8343143463134766, -75.4397201538086],
    [0.0, 0.0, 0.0, 1.0]
],
  "dcmmeta_reorient_transform": [
    [0.0, -1.0, 0.0, 103.0],
    [1.0, 0.0, 0.0, 0.0],
    [0.0, 0.0, 1.0, 0.0],
    [0.0, 0.0, 0.0, 1.0]
],
  "dcmmeta_shape": [104, 104, 60, 190],
  "dcmmeta_slice_dim": 2,
  "dcmmeta_version": 0.6,
  "global": {
    "const": {
      "AcquisitionMatrix": [104, 0, 0, 104],
      "AngioFlag": "N",
      "BitsAllocated": 16,
      "BitsStored": 16,
      "BodyPartExamined": "BRAIN",
      "Columns": 832,
      "EchoNumbers": 1,
      "EchoTime": 37.0,
      "EchoTrainLength": 104,
      "FlipAngle": 52.0,
      "HighBit": 15,
      "ImageOrientationPatient": [0.9961166468783, 0.05412497962384, 0.06944143138402, -0.0226051048197, 0.9195044407449, -0.3924290925588],
      "ImagePositionPatient": [-809.36911673043, -846.61649766257, 240.53569350902],
      "ImageType": [
        "ORIGINAL",
        "PRIMARY",
        "P",
        "MB",
        "ND",
        "MOSAIC"
],
      "ImagedNucleus": "1H",
      "ImagingFrequency": 123.258978,
      "InPlanePhaseEncodingDirection": "COL",
      "LargestImagePixelValue": 4095,
      "MRAcquisitionType": "2D",
      "MagneticFieldStrength": 3.0,
      "Manufacturer": "SIEMENS",
      "ManufacturerModelName": "Prisma_fit",
      "Modality": "MR",
      "NumberOfAverages": 1.0,
      "NumberOfPhaseEncodingSteps": 104,
      "PercentPhaseFieldOfView": 100.0,
      "PercentSampling": 100.0,
      "PerformedProcedureStepStartTime": "105157.808000",
      "PhotometricInterpretation": "MONOCHROME2",
      "PixelBandwidth": 2290.0,
      "PixelRepresentation": 0,
      "PixelSpacing": [2.0, 2.0],
      "ProtocolName": "func_task-things_run-6",
      "RepetitionTime": 1490.0,
      "RescaleIntercept": -4096.0,
      "RescaleSlope": 2.0,
      "RescaleType": "US",
      "Rows": 832,
      "SAR": 0.07098171906789,
      "SamplesPerPixel": 1,
      "ScanOptions": "FS",
      "ScanningSequence": "EP",
      "SequenceName": "epfid2d1_104",
      "SequenceVariant": [
        "SK",
        "SS"
],
      "SeriesDescription": "func_task-things_run-6",
      "SeriesNumber": 26,
      "SeriesTime": "114835.445000",
      "SliceLocation": -40.137978828316,
      "SliceThickness": 2.0,
      "SmallestImagePixelValue": 0,
      "SoftwareVersions": "syngo MR E11",
      "SpacingBetweenSlices": 2.0000000194979,
      "SpecificCharacterSet": "ISO_IR 100",
      "StudyID": "1",
      "StudyTime": "105157.760000",
      "TransmitCoilName": "Body",
      "VariableFlipAngleFlag": "N",
      "WindowCenterWidthExplanation": "Algo1",
      "dBdt": 0.0},
    "slices": {}
  },
  "time": {
    "samples": {
      "AcquisitionNumber": [1, 2, 3, 4, 5, 6, 7, 8, 9, 10, 11, 12, 13, 14, 15, 16, 17, 18, 19, 20, 21, 22, 23, 24, 25, 26, 27, 28, 29, 30, 31, 32, 33, 34, 35, 36, 37, 38, 39, 40, 41, 42, 43, 44, 45, 46, 47, 48, 49, 50, 51, 52, 53, 54, 55, 56, 57, 58, 59, 60, 61, 62, 63, 64, 65, 66, 67, 68, 69, 70, 71, 72, 73, 74, 75, 76, 77, 78, 79, 80, 81, 82, 83, 84, 85, 86, 87, 88, 89, 90, 91, 92, 93, 94, 95, 96, 97, 98, 99, 100, 101, 102, 103, 104, 105, 106, 107, 108, 109, 110, 111, 112, 113, 114, 115, 116, 117, 118, 119, 120, 121, 122, 123, 124, 125, 126, 127, 128, 129, 130, 131, 132, 133, 134, 135, 136, 137, 138, 139, 140, 141, 142, 143, 144, 145, 146, 147, 148, 149, 150, 151, 152, 153, 154, 155, 156, 157, 158, 159, 160, 161, 162, 163, 164, 165, 166, 167, 168, 169, 170, 171, 172, 173, 174, 175, 176, 177, 178, 179, 180, 181, 182, 183, 184, 185, 186, 187, 188, 189, 190],
      "AcquisitionTime": ["114714.117500", "114715.607500", "114717.097500", "114718.587500", "114720.077500", "114721.567500", "114723.057500", "114724.547500", "114726.037500", "114727.527500", "114729.017500", "114730.507500", "114731.997500", "114733.487500", "114734.977500", "114736.467500", "114737.957500", "114739.447500", "114740.937500", "114742.427500", "114743.917500", "114745.407500", "114746.897500", "114748.387500", "114749.877500", "114751.367500", "114752.857500", "114754.347500", "114755.837500", "114757.327500", "114758.817500", "114800.307500", "114801.797500", "114803.287500", "114804.777500", "114806.267500", "114807.757500", "114809.247500", "114810.737500", "114812.227500", "114813.717500", "114815.207500", "114816.697500", "114818.187500", "114819.677500", "114821.167500", "114822.657500", "114824.147500", "114825.637500", "114827.127500", "114828.617500", "114830.107500", "114831.597500", "114833.087500", "114834.577500", "114836.067500", "114837.557500", "114839.047500", "114840.537500", "114842.027500", "114843.517500", "114845.007500", "114846.497500", "114847.987500", "114849.477500", "114850.967500", "114852.457500", "114853.947500", "114855.437500", "114856.927500", "114858.417500", "114859.907500", "114901.397500", "114902.887500", "114904.377500", "114905.867500", "114907.357500", "114908.847500", "114910.337500", "114911.827500", "114913.317500", "114914.807500", "114916.297500", "114917.787500", "114919.277500", "114920.767500", "114922.257500", "114923.747500", "114925.237500", "114926.727500", "114928.217500", "114929.707500", "114931.197500", "114932.687500", "114934.177500", "114935.667500", "114937.157500", "114938.647500", "114940.137500", "114941.627500", "114943.117500", "114944.607500", "114946.097500", "114947.587500", "114949.077500", "114950.567500", "114952.057500", "114953.547500", "114955.037500", "114956.527500", "114958.017500", "114959.507500", "115000.997500", "115002.487500", "115003.977500", "115005.467500", "115006.957500", "115008.447500", "115009.937500", "115011.427500", "115012.917500", "115014.407500", "115015.897500", "115017.387500", "115018.877500", "115020.367500", "115021.857500", "115023.347500", "115024.837500", "115026.327500", "115027.817500", "115029.307500", "115030.797500", "115032.287500", "115033.777500", "115035.267500", "115036.757500", "115038.247500", "115039.737500", "115041.227500", "115042.717500", "115044.207500", "115045.697500", "115047.187500", "115048.677500", "115050.167500", "115051.657500", "115053.147500", "115054.637500", "115056.127500", "115057.617500", "115059.107500", "115100.597500", "115102.087500", "115103.577500", "115105.067500", "115106.557500", "115108.047500", "115109.537500", "115111.027500", "115112.517500", "115114.007500", "115115.497500", "115116.987500", "115118.477500", "115119.967500", "115121.457500", "115122.947500", "115124.437500", "115125.927500", "115127.417500", "115128.907500", "115130.397500", "115131.887500", "115133.377500", "115134.867500", "115136.357500", "115137.847500", "115139.337500", "115140.827500", "115142.317500", "115143.807500", "115145.297500", "115146.787500", "115148.277500", "115149.767500", "115151.257500", "115152.747500", "115154.237500", "115155.727500"],
      "ContentTime": ["114835.447000", "114835.450000", "114835.453000", "114835.455000", "114835.458000", "114835.460000", "114835.463000", "114835.465000", "114835.468000", "114835.470000", "114835.473000", "114835.475000", "114835.478000", "114835.480000", "114835.483000", "114835.485000", "114835.492000", "114835.506000", "114835.509000", "114835.511000", "114835.514000", "114835.517000", "114835.521000", "114835.523000", "114835.526000", "114835.529000", "114855.810000", "114855.813000", "114855.815000", "114855.818000", "114855.821000", "114855.823000", "114855.826000", "114855.828000", "114855.831000", "114855.833000", "114855.836000", "114855.838000", "114855.841000", "114855.843000", "114855.846000", "114855.848000", "114855.851000", "114855.853000", "114855.856000", "114855.858000", "114915.392000", "114915.395000", "114915.402000", "114915.404000", "114915.407000", "114915.409000", "114915.412000", "114915.414000", "114915.417000", "114915.419000", "114915.422000", "114915.424000", "114915.427000", "114915.429000", "114915.432000", "114915.434000", "114915.436000", "114915.439000", "114915.441000", "114915.444000", "114915.446000", "114935.380000", "114935.383000", "114935.385000", "114935.388000", "114935.390000", "114935.393000", "114935.395000", "114935.398000", "114935.400000", "114935.403000", "114935.405000", "114935.408000", "114935.410000", "114935.413000", "114935.415000", "114935.417000", "114935.420000", "114935.423000", "114935.425000", "114935.427000", "114955.385000", "114955.387000", "114955.390000", "114955.392000", "114955.394000", "114955.397000", "114955.400000", "114955.402000", "114955.405000", "114955.407000", "114955.410000", "114955.412000", "114955.415000", "114955.428000", "114955.430000", "114955.432000", "114955.435000", "114955.438000", "114955.440000", "114955.443000", "115035.438000", "115035.441000", "115035.443000", "115035.446000", "115035.448000", "115035.451000", "115035.453000", "115035.456000", "115035.458000", "115035.461000", "115035.463000", "115035.466000", "115035.468000", "115035.471000", "115035.473000", "115035.476000", "115035.478000", "115035.481000", "115035.483000", "115035.486000", "115035.488000", "115035.491000", "115035.493000", "115035.496000", "115035.498000", "115035.501000", "115035.504000", "115115.418000", "115115.421000", "115115.423000", "115115.426000", "115115.428000", "115115.431000", "115115.433000", "115115.436000", "115115.438000", "115115.441000", "115115.443000", "115115.446000", "115115.448000", "115115.451000", "115115.453000", "115115.456000", "115115.458000", "115115.461000", "115115.463000", "115115.466000", "115115.469000", "115115.471000", "115115.474000", "115115.476000", "115115.479000", "115115.481000", "115115.484000", "115155.415000", "115155.417000", "115155.420000", "115155.423000", "115155.425000", "115155.427000", "115155.430000", "115155.433000", "115155.435000", "115155.438000", "115155.440000", "115155.443000", "115155.445000", "115155.448000", "115155.450000", "115155.453000", "115155.455000", "115155.458000", "115155.460000", "115155.463000", "115155.465000", "115155.468000", "115155.470000", "115155.473000", "115155.475000", "115155.478000", "115155.481000", "115158.294000", "115158.297000"],
      "InstanceCreationTime": ["114835.447000", "114835.450000", "114835.453000", "114835.455000", "114835.458000", "114835.460000", "114835.463000", "114835.465000", "114835.468000", "114835.470000", "114835.473000", "114835.475000", "114835.478000", "114835.480000", "114835.483000", "114835.485000", "114835.492000", "114835.506000", "114835.509000", "114835.511000", "114835.514000", "114835.517000", "114835.521000", "114835.523000", "114835.526000", "114835.529000", "114855.810000", "114855.813000", "114855.815000", "114855.818000", "114855.821000", "114855.823000", "114855.826000", "114855.828000", "114855.831000", "114855.833000", "114855.836000", "114855.838000", "114855.841000", "114855.843000", "114855.846000", "114855.848000", "114855.851000", "114855.853000", "114855.856000", "114855.858000", "114915.392000", "114915.395000", "114915.402000", "114915.404000", "114915.407000", "114915.409000", "114915.412000", "114915.414000", "114915.417000", "114915.419000", "114915.422000", "114915.424000", "114915.427000", "114915.429000", "114915.432000", "114915.434000", "114915.436000", "114915.439000", "114915.441000", "114915.444000", "114915.446000", "114935.380000", "114935.383000", "114935.385000", "114935.388000", "114935.390000", "114935.393000", "114935.395000", "114935.398000", "114935.400000", "114935.403000", "114935.405000", "114935.408000", "114935.410000", "114935.413000", "114935.415000", "114935.417000", "114935.420000", "114935.423000", "114935.425000", "114935.427000", "114955.385000", "114955.387000", "114955.390000", "114955.392000", "114955.394000", "114955.397000", "114955.400000", "114955.402000", "114955.405000", "114955.407000", "114955.410000", "114955.412000", "114955.415000", "114955.428000", "114955.430000", "114955.432000", "114955.435000", "114955.438000", "114955.440000", "114955.443000", "115035.438000", "115035.441000", "115035.443000", "115035.446000", "115035.448000", "115035.451000", "115035.453000", "115035.456000", "115035.458000", "115035.461000", "115035.463000", "115035.466000", "115035.468000", "115035.471000", "115035.473000", "115035.476000", "115035.478000", "115035.481000", "115035.483000", "115035.486000", "115035.488000", "115035.491000", "115035.493000", "115035.496000", "115035.498000", "115035.501000", "115035.504000", "115115.418000", "115115.421000", "115115.423000", "115115.426000", "115115.428000", "115115.431000", "115115.433000", "115115.436000", "115115.438000", "115115.441000", "115115.443000", "115115.446000", "115115.448000", "115115.451000", "115115.453000", "115115.456000", "115115.458000", "115115.461000", "115115.463000", "115115.466000", "115115.469000", "115115.471000", "115115.474000", "115115.476000", "115115.479000", "115115.481000", "115115.484000", "115155.415000", "115155.417000", "115155.420000", "115155.423000", "115155.425000", "115155.427000", "115155.430000", "115155.433000", "115155.435000", "115155.438000", "115155.440000", "115155.443000", "115155.445000", "115155.448000", "115155.450000", "115155.453000", "115155.455000", "115155.458000", "115155.460000", "115155.463000", "115155.465000", "115155.468000", "115155.470000", "115155.473000", "115155.475000", "115155.478000", "115155.481000", "115158.294000", "115158.297000"],
      "InstanceNumber": [1, 2, 3, 4, 5, 6, 7, 8, 9, 10, 11, 12, 13, 14, 15, 16, 17, 18, 19, 20, 21, 22, 23, 24, 25, 26, 27, 28, 29, 30, 31, 32, 33, 34, 35, 36, 37, 38, 39, 40, 41, 42, 43, 44, 45, 46, 47, 48, 49, 50, 51, 52, 53, 54, 55, 56, 57, 58, 59, 60, 61, 62, 63, 64, 65, 66, 67, 68, 69, 70, 71, 72, 73, 74, 75, 76, 77, 78, 79, 80, 81, 82, 83, 84, 85, 86, 87, 88, 89, 90, 91, 92, 93, 94, 95, 96, 97, 98, 99, 100, 101, 102, 103, 104, 105, 106, 107, 108, 109, 110, 111, 112, 113, 114, 115, 116, 117, 118, 119, 120, 121, 122, 123, 124, 125, 126, 127, 128, 129, 130, 131, 132, 133, 134, 135, 136, 137, 138, 139, 140, 141, 142, 143, 144, 145, 146, 147, 148, 149, 150, 151, 152, 153, 154, 155, 156, 157, 158, 159, 160, 161, 162, 163, 164, 165, 166, 167, 168, 169, 170, 171, 172, 173, 174, 175, 176, 177, 178, 179, 180, 181, 182, 183, 184, 185, 186, 187, 188, 189, 190],
      "WindowCenter": [4850.0, 4824.0, 4850.0, 4850.0, 4854.0, 4826.0, 4824.0, 4822.0, 4824.0, 4848.0, 4826.0, 4826.0, 4852.0, 4852.0, 4850.0, 4854.0, 4820.0, 4814.0, 4794.0, 4822.0, 4826.0, 4828.0, 4856.0, 4854.0, 4828.0, 4828.0, 4826.0, 4850.0, 4826.0, 4826.0, 4826.0, 4826.0, 4828.0, 4828.0, 4828.0, 4830.0, 4830.0, 4828.0, 4826.0, 4822.0, 4824.0, 4828.0, 4854.0, 4850.0, 4830.0, 4828.0, 4828.0, 4824.0, 4828.0, 4828.0, 4824.0, 4828.0, 4854.0, 4854.0, 4828.0, 4828.0, 4824.0, 4824.0, 4828.0, 4854.0, 4852.0, 4826.0, 4850.0, 4852.0, 4854.0, 4826.0, 4830.0, 4826.0, 4826.0, 4824.0, 4828.0, 4852.0, 4828.0, 4854.0, 4828.0, 4852.0, 4852.0, 4830.0, 4852.0, 4854.0, 4854.0, 4828.0, 4824.0, 4822.0, 4826.0, 4830.0, 4828.0, 4828.0, 4826.0, 4852.0, 4858.0, 4834.0, 4828.0, 4822.0, 4818.0, 4822.0, 4854.0, 4856.0, 4832.0, 4852.0, 4850.0, 4854.0, 4852.0, 4828.0, 4830.0, 4828.0, 4828.0, 4832.0, 4828.0, 4830.0, 4854.0, 4832.0, 4830.0, 4830.0, 4850.0, 4830.0, 4852.0, 4828.0, 4830.0, 4832.0, 4854.0, 4830.0, 4850.0, 4854.0, 4854.0, 4852.0, 4832.0, 4850.0, 4830.0, 4828.0, 4852.0, 4856.0, 4830.0, 4830.0, 4826.0, 4852.0, 4854.0, 4828.0, 4828.0, 4824.0, 4850.0, 4854.0, 4830.0, 4832.0, 4852.0, 4830.0, 4852.0, 4830.0, 4854.0, 4830.0, 4830.0, 4856.0, 4832.0, 4832.0, 4830.0, 4854.0, 4854.0, 4854.0, 4858.0, 4832.0, 4826.0, 4832.0, 4856.0, 4856.0, 4854.0, 4858.0, 4832.0, 4856.0, 4856.0, 4830.0, 4830.0, 4854.0, 4832.0, 4830.0, 4832.0, 4828.0, 4830.0, 4830.0, 4852.0, 4854.0, 4830.0, 4854.0, 4828.0, 4830.0, 4852.0, 4828.0, 4832.0, 4832.0, 4830.0, 4852.0],
      "WindowWidth": [18634.0, 18598.0, 18632.0, 18626.0, 18628.0, 18596.0, 18598.0, 18596.0, 18596.0, 18634.0, 18598.0, 18600.0, 18622.0, 18624.0, 18618.0, 18628.0, 18594.0, 18590.0, 18562.0, 18592.0, 18598.0, 18596.0, 18626.0, 18628.0, 18594.0, 18598.0, 18598.0, 18630.0, 18596.0, 18598.0, 18600.0, 18600.0, 18596.0, 18602.0, 18594.0, 18592.0, 18594.0, 18600.0, 18600.0, 18596.0, 18596.0, 18596.0, 18624.0, 18622.0, 18598.0, 18594.0, 18596.0, 18596.0, 18598.0, 18600.0, 18600.0, 18594.0, 18630.0, 18618.0, 18592.0, 18592.0, 18594.0, 18598.0, 18592.0, 18626.0, 18626.0, 18594.0, 18626.0, 18622.0, 18622.0, 18590.0, 18592.0, 18592.0, 18590.0, 18590.0, 18598.0, 18628.0, 18592.0, 18624.0, 18594.0, 18628.0, 18628.0, 18590.0, 18626.0, 18628.0, 18622.0, 18594.0, 18586.0, 18588.0, 18590.0, 18596.0, 18594.0, 18592.0, 18590.0, 18620.0, 18624.0, 18592.0, 18594.0, 18594.0, 18586.0, 18590.0, 18626.0, 18628.0, 18592.0, 18620.0, 18622.0, 18618.0, 18622.0, 18590.0, 18592.0, 18596.0, 18594.0, 18594.0, 18590.0, 18596.0, 18622.0, 18588.0, 18590.0, 18592.0, 18624.0, 18592.0, 18618.0, 18588.0, 18596.0, 18596.0, 18622.0, 18592.0, 18620.0, 18622.0, 18622.0, 18624.0, 18592.0, 18622.0, 18592.0, 18588.0, 18620.0, 18624.0, 18588.0, 18590.0, 18590.0, 18614.0, 18620.0, 18594.0, 18594.0, 18590.0, 18622.0, 18622.0, 18596.0, 18594.0, 18620.0, 18590.0, 18620.0, 18592.0, 18626.0, 18590.0, 18588.0, 18618.0, 18592.0, 18584.0, 18592.0, 18620.0, 18620.0, 18618.0, 18618.0, 18590.0, 18586.0, 18588.0, 18622.0, 18622.0, 18616.0, 18620.0, 18586.0, 18622.0, 18626.0, 18588.0, 18584.0, 18618.0, 18592.0, 18586.0, 18590.0, 18592.0, 18592.0, 18590.0, 18616.0, 18622.0, 18586.0, 18620.0, 18586.0, 18584.0, 18614.0, 18584.0, 18586.0, 18590.0, 18586.0, 18614.0]
    },
    "slices": {}
  }
}