{
  "AcquisitionMatrixPE": 104,
  "AcquisitionNumber": 1,
  "AcquisitionTime": "18:00:25.127500",
  "BandwidthPerPixelPhaseEncode": 17.17,
  "BaseResolution": 104,
  "BodyPartExamined": "BRAIN",
  "CoilString": "HC1-7;NC1_2",
  "ConsistencyInfo": "N4_VE11C_LATEST_20160120",
  "ConversionSoftware": "dcm2niix",
  "ConversionSoftwareVersion": "v1.0.20190902",
  "DerivedVendorReportedEchoSpacing": 0.000560011,
  "DeviceSerialNumber": "167006",
  "DwellTime": 2.1e-06,
  "EchoTime": 0.037,
  "EchoTrainLength": 104,
  "EffectiveEchoSpacing": 0.000560011,
  "FlipAngle": 52,
  "HeudiconvVersion": "0.10.0",
  "ImageComments": "Unaliased_MB4_PE3_LB",
  "ImageOrientationPatientDICOM": [0.995642, 0.0886085, 0.0290746, -0.0724166, 0.931051, -0.35763],
  "ImageType": [
    "ORIGINAL",
    "PRIMARY",
    "M",
    "MB",
    "ND",
    "MOSAIC"
],
  "ImagingFrequency": 123.259,
  "InPlanePhaseEncodingDirectionDICOM": "COL",
  "InstitutionAddress": "Chemin_Queen-Mary_4565_Montreal_District_CA_H3W_1W5",
  "InstitutionName": "IUGM",
  "InstitutionalDepartmentName": "Department",
  "MRAcquisitionType": "2D",
  "MagneticFieldStrength": 3,
  "Manufacturer": "Siemens",
  "ManufacturersModelName": "Prisma_fit",
  "Modality": "MR",
  "MultibandAccelerationFactor": 4,
  "PartialFourier": 1,
  "PatientPosition": "HFS",
  "PercentPhaseFOV": 100,
  "PhaseEncodingDirection": "j",
  "PhaseEncodingSteps": 104,
  "PhaseResolution": 1,
  "PixelBandwidth": 2290,
  "ProcedureStepDescription": "memory_things",
  "ProtocolName": "func_task-things_run-2",
  "PulseSequenceDetails": "%CustomerSeq%_cmrr_mbep2d_bold",
  "ReceiveCoilActiveElements": "HC1-7;NC1,2",
  "ReceiveCoilName": "HeadNeck_64",
  "ReconMatrixPE": 104,
  "RepetitionTime": 1.49,
  "SAR": 0.0585802,
  "ScanOptions": "FS",
  "ScanningSequence": "EP",
  "SequenceName": "epfid2d1_104",
  "SequenceVariant": "SK_SS",
  "SeriesDescription": "func_task-things_run-2",
  "SeriesNumber": 13,
  "ShimSetting": [633, -7188, -8801, 662, 89, 19, -39, -3],
  "SliceThickness": 2,
  "SliceTiming": [0, 0.7825, 0.0975, 0.8825, 0.195, 0.98, 0.2925, 1.0775, 0.3925, 1.175, 0.49, 1.2725, 0.5875, 1.3725, 0.685, 0, 0.7825, 0.0975, 0.8825, 0.195, 0.98, 0.2925, 1.0775, 0.3925, 1.175, 0.49, 1.2725, 0.5875, 1.3725, 0.685, 0, 0.7825, 0.0975, 0.8825, 0.195, 0.98, 0.2925, 1.0775, 0.3925, 1.175, 0.49, 1.2725, 0.5875, 1.3725, 0.685, 0, 0.7825, 0.0975, 0.8825, 0.195, 0.98, 0.2925, 1.0775, 0.3925, 1.175, 0.49, 1.2725, 0.5875, 1.3725, 0.685],
  "SoftwareVersions": "syngo_MR_E11",
  "SpacingBetweenSlices": 2,
  "StationName": "MRC35049",
  "TaskName": "things",
  "TotalReadoutTime": 0.0576811,
  "TxRefAmp": 295.506,
  "WipMemBlock": "78aa4651-383c-4991-b792-ff7f5d8159e2||Sequence: R016 ve11c/master r/e634e98; Dec 19 2017 11:00:25 by eja",
  "dcmmeta_affine": [
    [-1.9912842512130737, -0.1448332816362381, 0.11751798540353775, 110.24864196777344],
    [-0.17721690237522125, 1.8621025085449219, -0.7079325914382935, -49.9926643371582],
    [0.05814916267991066, 0.7152605652809143, 1.8668211698532104, -60.228179931640625],
    [0.0, 0.0, 0.0, 1.0]
],
  "dcmmeta_reorient_transform": [
    [0.0, -1.0, 0.0, 103.0],
    [1.0, 0.0, 0.0, 0.0],
    [0.0, 0.0, 1.0, 0.0],
    [0.0, 0.0, 0.0, 1.0]
],
  "dcmmeta_shape": [104, 104, 60, 190],
  "dcmmeta_slice_dim": 2,
  "dcmmeta_version": 0.6,
  "global": {
    "const": {
      "AcquisitionMatrix": [104, 0, 0, 104],
      "AngioFlag": "N",
      "BitsAllocated": 16,
      "BitsStored": 16,
      "BodyPartExamined": "BRAIN",
      "Columns": 832,
      "EchoNumbers": 1,
      "EchoTime": 37.0,
      "EchoTrainLength": 104,
      "FlipAngle": 52.0,
      "HighBit": 15,
      "ImageOrientationPatient": [0.99564211011378, 0.08860844918262, 0.02907458171023, -0.0724166384269, 0.9310512343753, -0.3576302971606],
      "ImagePositionPatient": [-767.43895561219, -884.11613787864, 252.63222190814],
      "ImageType": [
        "ORIGINAL",
        "PRIMARY",
        "M",
        "MB",
        "ND",
        "MOSAIC"
],
      "ImagedNucleus": "1H",
      "ImagingFrequency": 123.258866,
      "InPlanePhaseEncodingDirection": "COL",
      "MRAcquisitionType": "2D",
      "MagneticFieldStrength": 3.0,
      "Manufacturer": "SIEMENS",
      "ManufacturerModelName": "Prisma_fit",
      "Modality": "MR",
      "NumberOfAverages": 1.0,
      "NumberOfPhaseEncodingSteps": 104,
      "PercentPhaseFieldOfView": 100.0,
      "PercentSampling": 100.0,
      "PerformedProcedureStepStartTime": "170913.226000",
      "PhotometricInterpretation": "MONOCHROME2",
      "PixelBandwidth": 2290.0,
      "PixelRepresentation": 0,
      "PixelSpacing": [2.0, 2.0],
      "ProtocolName": "func_task-things_run-2",
      "RepetitionTime": 1490.0,
      "Rows": 832,
      "SAR": 0.05858015540803,
      "SamplesPerPixel": 1,
      "ScanOptions": "FS",
      "ScanningSequence": "EP",
      "SequenceName": "epfid2d1_104",
      "SequenceVariant": [
        "SK",
        "SS"
],
      "SeriesDescription": "func_task-things_run-2",
      "SeriesNumber": 13,
      "SeriesTime": "180135.550000",
      "SliceLocation": -32.043800373431,
      "SliceThickness": 2.0,
      "SmallestImagePixelValue": 0,
      "SoftwareVersions": "syngo MR E11",
      "SpacingBetweenSlices": 2.0000000350292,
      "SpecificCharacterSet": "ISO_IR 100",
      "StudyID": "1",
      "StudyTime": "170913.080000",
      "TransmitCoilName": "Body",
      "VariableFlipAngleFlag": "N",
      "WindowCenterWidthExplanation": "Algo1",
      "dBdt": 0.0},
    "slices": {}
  },
  "time": {
    "samples": {
      "AcquisitionNumber": [1, 2, 3, 4, 5, 6, 7, 8, 9, 10, 11, 12, 13, 14, 15, 16, 17, 18, 19, 20, 21, 22, 23, 24, 25, 26, 27, 28, 29, 30, 31, 32, 33, 34, 35, 36, 37, 38, 39, 40, 41, 42, 43, 44, 45, 46, 47, 48, 49, 50, 51, 52, 53, 54, 55, 56, 57, 58, 59, 60, 61, 62, 63, 64, 65, 66, 67, 68, 69, 70, 71, 72, 73, 74, 75, 76, 77, 78, 79, 80, 81, 82, 83, 84, 85, 86, 87, 88, 89, 90, 91, 92, 93, 94, 95, 96, 97, 98, 99, 100, 101, 102, 103, 104, 105, 106, 107, 108, 109, 110, 111, 112, 113, 114, 115, 116, 117, 118, 119, 120, 121, 122, 123, 124, 125, 126, 127, 128, 129, 130, 131, 132, 133, 134, 135, 136, 137, 138, 139, 140, 141, 142, 143, 144, 145, 146, 147, 148, 149, 150, 151, 152, 153, 154, 155, 156, 157, 158, 159, 160, 161, 162, 163, 164, 165, 166, 167, 168, 169, 170, 171, 172, 173, 174, 175, 176, 177, 178, 179, 180, 181, 182, 183, 184, 185, 186, 187, 188, 189, 190],
      "AcquisitionTime": ["180025.127500", "180026.617500", "180028.107500", "180029.597500", "180031.087500", "180032.577500", "180034.067500", "180035.557500", "180037.047500", "180038.537500", "180040.027500", "180041.517500", "180043.007500", "180044.497500", "180045.987500", "180047.477500", "180048.967500", "180050.457500", "180051.947500", "180053.437500", "180054.927500", "180056.417500", "180057.907500", "180059.397500", "180100.887500", "180102.377500", "180103.867500", "180105.357500", "180106.847500", "180108.337500", "180109.827500", "180111.317500", "180112.807500", "180114.297500", "180115.787500", "180117.277500", "180118.767500", "180120.257500", "180121.747500", "180123.237500", "180124.727500", "180126.217500", "180127.707500", "180129.197500", "180130.687500", "180132.177500", "180133.667500", "180135.157500", "180136.647500", "180138.137500", "180139.627500", "180141.117500", "180142.607500", "180144.097500", "180145.587500", "180147.077500", "180148.567500", "180150.057500", "180151.547500", "180153.037500", "180154.527500", "180156.017500", "180157.507500", "180158.997500", "180200.487500", "180201.977500", "180203.467500", "180204.957500", "180206.447500", "180207.937500", "180209.427500", "180210.917500", "180212.407500", "180213.897500", "180215.387500", "180216.877500", "180218.367500", "180219.857500", "180221.347500", "180222.837500", "180224.327500", "180225.817500", "180227.307500", "180228.797500", "180230.287500", "180231.777500", "180233.267500", "180234.757500", "180236.247500", "180237.737500", "180239.227500", "180240.717500", "180242.207500", "180243.697500", "180245.187500", "180246.677500", "180248.167500", "180249.657500", "180251.147500", "180252.637500", "180254.127500", "180255.617500", "180257.107500", "180258.597500", "180300.087500", "180301.577500", "180303.067500", "180304.557500", "180306.047500", "180307.537500", "180309.027500", "180310.517500", "180312.007500", "180313.497500", "180314.987500", "180316.477500", "180317.967500", "180319.457500", "180320.947500", "180322.437500", "180323.927500", "180325.417500", "180326.907500", "180328.397500", "180329.887500", "180331.377500", "180332.867500", "180334.357500", "180335.847500", "180337.337500", "180338.827500", "180340.317500", "180341.807500", "180343.297500", "180344.787500", "180346.277500", "180347.767500", "180349.257500", "180350.747500", "180352.237500", "180353.727500", "180355.217500", "180356.707500", "180358.197500", "180359.687500", "180401.177500", "180402.667500", "180404.157500", "180405.647500", "180407.137500", "180408.627500", "180410.117500", "180411.607500", "180413.097500", "180414.587500", "180416.077500", "180417.567500", "180419.057500", "180420.547500", "180422.037500", "180423.527500", "180425.017500", "180426.507500", "180427.997500", "180429.487500", "180430.977500", "180432.467500", "180433.957500", "180435.447500", "180436.937500", "180438.427500", "180439.917500", "180441.407500", "180442.897500", "180444.387500", "180445.877500", "180447.367500", "180448.857500", "180450.347500", "180451.837500", "180453.327500", "180454.817500", "180456.307500", "180457.797500", "180459.287500", "180500.777500", "180502.267500", "180503.757500", "180505.247500", "180506.737500"],
      "ContentTime": ["180135.553000", "180135.557000", "180135.560000", "180135.563000", "180135.567000", "180135.570000", "180135.573000", "180135.577000", "180135.580000", "180135.584000", "180135.587000", "180135.590000", "180135.593000", "180135.597000", "180135.600000", "180155.515000", "180155.518000", "180155.522000", "180155.525000", "180155.529000", "180155.536000", "180155.540000", "180155.543000", "180155.546000", "180155.549000", "180155.553000", "180155.574000", "180155.577000", "180155.581000", "180155.584000", "180155.587000", "180155.591000", "180155.594000", "180155.597000", "180155.600000", "180215.514000", "180215.518000", "180215.521000", "180215.524000", "180215.528000", "180215.531000", "180215.534000", "180215.538000", "180215.541000", "180215.544000", "180215.547000", "180215.551000", "180215.554000", "180215.557000", "180215.560000", "180215.564000", "180215.567000", "180215.571000", "180215.574000", "180215.577000", "180235.514000", "180235.518000", "180235.521000", "180235.524000", "180235.528000", "180235.531000", "180235.534000", "180235.537000", "180235.541000", "180235.544000", "180235.547000", "180235.551000", "180235.554000", "180235.557000", "180235.560000", "180235.564000", "180235.567000", "180235.570000", "180235.574000", "180235.577000", "180255.514000", "180255.518000", "180255.521000", "180255.524000", "180255.528000", "180255.531000", "180255.534000", "180255.537000", "180255.541000", "180255.544000", "180255.547000", "180255.551000", "180255.554000", "180255.557000", "180255.560000", "180255.564000", "180255.567000", "180255.570000", "180255.573000", "180255.577000", "180335.514000", "180335.518000", "180335.521000", "180335.524000", "180335.528000", "180335.531000", "180335.534000", "180335.538000", "180335.541000", "180335.544000", "180335.548000", "180335.551000", "180335.555000", "180335.558000", "180335.561000", "180335.564000", "180335.568000", "180335.571000", "180335.574000", "180335.578000", "180335.581000", "180335.584000", "180335.587000", "180335.591000", "180335.594000", "180335.597000", "180335.600000", "180335.604000", "180335.607000", "180335.610000", "180335.614000", "180335.617000", "180355.514000", "180355.518000", "180355.521000", "180355.524000", "180355.528000", "180355.531000", "180355.534000", "180355.538000", "180355.541000", "180355.544000", "180355.548000", "180355.551000", "180355.554000", "180435.514000", "180435.518000", "180435.521000", "180435.525000", "180435.528000", "180435.531000", "180435.535000", "180435.538000", "180435.541000", "180435.545000", "180435.548000", "180435.551000", "180435.554000", "180435.558000", "180435.561000", "180435.565000", "180435.568000", "180435.571000", "180435.575000", "180435.578000", "180435.581000", "180435.585000", "180435.588000", "180435.591000", "180435.594000", "180435.598000", "180435.601000", "180508.911000", "180508.915000", "180508.918000", "180508.931000", "180508.934000", "180508.938000", "180508.941000", "180508.945000", "180508.948000", "180508.951000", "180508.955000", "180508.958000", "180508.962000", "180508.965000", "180508.969000", "180508.972000", "180508.976000", "180508.979000", "180508.982000", "180508.986000", "180508.989000", "180508.992000", "180508.996000"],
      "InstanceCreationTime": ["180135.553000", "180135.557000", "180135.560000", "180135.563000", "180135.567000", "180135.570000", "180135.573000", "180135.577000", "180135.580000", "180135.584000", "180135.587000", "180135.590000", "180135.593000", "180135.597000", "180135.600000", "180155.515000", "180155.518000", "180155.522000", "180155.525000", "180155.529000", "180155.536000", "180155.540000", "180155.543000", "180155.546000", "180155.549000", "180155.553000", "180155.574000", "180155.577000", "180155.581000", "180155.584000", "180155.587000", "180155.591000", "180155.594000", "180155.597000", "180155.600000", "180215.514000", "180215.518000", "180215.521000", "180215.524000", "180215.528000", "180215.531000", "180215.534000", "180215.538000", "180215.541000", "180215.544000", "180215.547000", "180215.551000", "180215.554000", "180215.557000", "180215.560000", "180215.564000", "180215.567000", "180215.571000", "180215.574000", "180215.577000", "180235.514000", "180235.518000", "180235.521000", "180235.524000", "180235.528000", "180235.531000", "180235.534000", "180235.537000", "180235.541000", "180235.544000", "180235.547000", "180235.551000", "180235.554000", "180235.557000", "180235.560000", "180235.564000", "180235.567000", "180235.570000", "180235.574000", "180235.577000", "180255.514000", "180255.518000", "180255.521000", "180255.524000", "180255.528000", "180255.531000", "180255.534000", "180255.537000", "180255.541000", "180255.544000", "180255.547000", "180255.551000", "180255.554000", "180255.557000", "180255.560000", "180255.564000", "180255.567000", "180255.570000", "180255.573000", "180255.577000", "180335.514000", "180335.518000", "180335.521000", "180335.524000", "180335.528000", "180335.531000", "180335.534000", "180335.538000", "180335.541000", "180335.544000", "180335.548000", "180335.551000", "180335.555000", "180335.558000", "180335.561000", "180335.564000", "180335.568000", "180335.571000", "180335.574000", "180335.578000", "180335.581000", "180335.584000", "180335.587000", "180335.591000", "180335.594000", "180335.597000", "180335.600000", "180335.604000", "180335.607000", "180335.610000", "180335.614000", "180335.617000", "180355.514000", "180355.518000", "180355.521000", "180355.524000", "180355.528000", "180355.531000", "180355.534000", "180355.538000", "180355.541000", "180355.544000", "180355.548000", "180355.551000", "180355.554000", "180435.514000", "180435.518000", "180435.521000", "180435.525000", "180435.528000", "180435.531000", "180435.535000", "180435.538000", "180435.541000", "180435.545000", "180435.548000", "180435.551000", "180435.554000", "180435.558000", "180435.561000", "180435.565000", "180435.568000", "180435.571000", "180435.575000", "180435.578000", "180435.581000", "180435.585000", "180435.588000", "180435.591000", "180435.594000", "180435.598000", "180435.601000", "180508.911000", "180508.915000", "180508.918000", "180508.931000", "180508.934000", "180508.938000", "180508.941000", "180508.945000", "180508.948000", "180508.951000", "180508.955000", "180508.958000", "180508.962000", "180508.965000", "180508.969000", "180508.972000", "180508.976000", "180508.979000", "180508.982000", "180508.986000", "180508.989000", "180508.992000", "180508.996000"],
      "InstanceNumber": [1, 2, 3, 4, 5, 6, 7, 8, 9, 10, 11, 12, 13, 14, 15, 16, 17, 18, 19, 20, 21, 22, 23, 24, 25, 26, 27, 28, 29, 30, 31, 32, 33, 34, 35, 36, 37, 38, 39, 40, 41, 42, 43, 44, 45, 46, 47, 48, 49, 50, 51, 52, 53, 54, 55, 56, 57, 58, 59, 60, 61, 62, 63, 64, 65, 66, 67, 68, 69, 70, 71, 72, 73, 74, 75, 76, 77, 78, 79, 80, 81, 82, 83, 84, 85, 86, 87, 88, 89, 90, 91, 92, 93, 94, 95, 96, 97, 98, 99, 100, 101, 102, 103, 104, 105, 106, 107, 108, 109, 110, 111, 112, 113, 114, 115, 116, 117, 118, 119, 120, 121, 122, 123, 124, 125, 126, 127, 128, 129, 130, 131, 132, 133, 134, 135, 136, 137, 138, 139, 140, 141, 142, 143, 144, 145, 146, 147, 148, 149, 150, 151, 152, 153, 154, 155, 156, 157, 158, 159, 160, 161, 162, 163, 164, 165, 166, 167, 168, 169, 170, 171, 172, 173, 174, 175, 176, 177, 178, 179, 180, 181, 182, 183, 184, 185, 186, 187, 188, 189, 190],
      "LargestImagePixelValue": [41892, 41078, 40811, 39626, 40598, 40662, 40455, 40202, 39841, 39585, 39622, 39571, 39883, 40830, 40109, 40263, 39573, 39468, 39494, 40059, 40473, 39656, 40465, 40556, 39969, 39122, 39624, 39689, 40090, 40153, 39853, 40057, 39896, 40295, 40417, 41691, 43017, 42167, 41988, 41733, 42148, 42263, 42016, 41223, 40381, 40061, 42118, 41977, 42863, 43528, 41596, 41334, 40233, 41155, 42350, 42240, 42960, 41335, 42350, 43937, 43057, 42640, 43205, 42119, 42586, 42799, 42233, 42683, 42839, 42860, 42410, 41639, 42558, 42555, 43755, 44093, 43219, 43075, 44626, 41352, 40303, 39840, 41343, 40393, 39704, 39858, 40411, 40114, 39918, 40476, 40501, 40114, 40736, 40939, 40699, 40726, 40302, 40840, 41881, 39913, 39913, 40515, 40853, 41333, 40914, 40432, 40288, 40397, 43187, 40987, 41016, 41402, 40770, 40778, 40628, 41046, 40685, 40925, 40917, 40799, 40696, 40515, 40666, 41092, 40347, 40422, 44287, 41096, 42814, 39481, 39868, 41163, 40834, 43300, 44633, 44986, 44868, 43101, 42890, 40049, 39506, 40020, 40865, 40702, 40855, 40760, 42477, 41473, 40335, 40510, 40345, 40654, 40515, 40392, 40838, 40894, 40572, 41125, 42037, 40402, 41198, 41115, 40790, 40766, 40976, 40637, 40984, 40620, 41001, 40543, 40589, 40909, 39581, 40371, 41272, 40785, 40236, 40980, 40546, 40811, 41006, 40732, 40563, 40969, 40765, 40771, 40790, 40988, 40755, 40491],
      "WindowCenter": [10480.0, 10436.0, 10434.0, 10429.0, 10438.0, 10449.0, 10466.0, 10444.0, 10425.0, 10415.0, 10423.0, 10440.0, 10469.0, 10492.0, 10476.0, 10467.0, 10447.0, 10420.0, 10410.0, 10423.0, 10446.0, 10464.0, 10486.0, 10476.0, 10444.0, 10412.0, 10411.0, 10431.0, 10459.0, 10460.0, 10432.0, 10427.0, 10431.0, 10436.0, 10427.0, 10464.0, 10495.0, 10472.0, 10446.0, 10430.0, 10435.0, 10436.0, 10435.0, 10420.0, 10402.0, 10404.0, 10440.0, 10434.0, 10428.0, 10428.0, 10415.0, 10445.0, 10461.0, 10464.0, 10443.0, 10407.0, 10394.0, 10383.0, 10418.0, 10447.0, 10458.0, 10428.0, 10407.0, 10393.0, 10408.0, 10408.0, 10394.0, 10389.0, 10390.0, 10399.0, 10414.0, 10423.0, 10457.0, 10458.0, 10453.0, 10439.0, 10437.0, 10453.0, 10476.0, 10464.0, 10452.0, 10422.0, 10405.0, 10375.0, 10375.0, 10397.0, 10402.0, 10394.0, 10378.0, 10381.0, 10387.0, 10384.0, 10407.0, 10418.0, 10410.0, 10416.0, 10418.0, 10439.0, 10455.0, 10428.0, 10432.0, 10463.0, 10481.0, 10487.0, 10471.0, 10434.0, 10426.0, 10419.0, 10464.0, 10452.0, 10435.0, 10452.0, 10483.0, 10489.0, 10474.0, 10459.0, 10443.0, 10450.0, 10455.0, 10442.0, 10453.0, 10455.0, 10454.0, 10454.0, 10447.0, 10447.0, 10496.0, 10460.0, 10468.0, 10439.0, 10454.0, 10463.0, 10430.0, 10422.0, 10443.0, 10470.0, 10491.0, 10469.0, 10452.0, 10410.0, 10396.0, 10412.0, 10433.0, 10445.0, 10440.0, 10437.0, 10459.0, 10460.0, 10468.0, 10475.0, 10461.0, 10457.0, 10457.0, 10467.0, 10466.0, 10465.0, 10460.0, 10479.0, 10485.0, 10478.0, 10495.0, 10491.0, 10477.0, 10466.0, 10477.0, 10488.0, 10500.0, 10499.0, 10490.0, 10467.0, 10456.0, 10478.0, 10472.0, 10482.0, 10501.0, 10488.0, 10474.0, 10478.0, 10471.0, 10476.0, 10480.0, 10481.0, 10481.0, 10500.0, 10494.0, 10467.0, 10450.0, 10461.0, 10474.0, 10460.0],
      "WindowWidth": [22259.0, 22143.0, 22130.0, 22117.0, 22132.0, 22151.0, 22191.0, 22143.0, 22097.0, 22077.0, 22096.0, 22134.0, 22203.0, 22251.0, 22215.0, 22204.0, 22154.0, 22094.0, 22072.0, 22100.0, 22152.0, 22196.0, 22243.0, 22215.0, 22143.0, 22070.0, 22063.0, 22116.0, 22184.0, 22183.0, 22115.0, 22105.0, 22118.0, 22127.0, 22105.0, 22182.0, 22256.0, 22201.0, 22139.0, 22103.0, 22115.0, 22119.0, 22115.0, 22081.0, 22045.0, 22054.0, 22126.0, 22117.0, 22100.0, 22095.0, 22074.0, 22146.0, 22180.0, 22186.0, 22129.0, 22044.0, 22015.0, 22001.0, 22074.0, 22137.0, 22167.0, 22096.0, 22046.0, 22018.0, 22050.0, 22049.0, 22014.0, 22002.0, 22008.0, 22033.0, 22066.0, 22092.0, 22173.0, 22175.0, 22157.0, 22123.0, 22126.0, 22156.0, 22202.0, 22187.0, 22164.0, 22103.0, 22053.0, 21992.0, 21992.0, 22036.0, 22046.0, 22024.0, 21990.0, 21997.0, 22014.0, 22011.0, 22063.0, 22090.0, 22077.0, 22082.0, 22093.0, 22142.0, 22179.0, 22111.0, 22124.0, 22192.0, 22235.0, 22247.0, 22205.0, 22124.0, 22098.0, 22085.0, 22193.0, 22175.0, 22123.0, 22164.0, 22239.0, 22254.0, 22218.0, 22177.0, 22141.0, 22162.0, 22171.0, 22144.0, 22170.0, 22173.0, 22169.0, 22167.0, 22152.0, 22151.0, 22261.0, 22178.0, 22188.0, 22143.0, 22174.0, 22191.0, 22115.0, 22082.0, 22123.0, 22187.0, 22232.0, 22185.0, 22146.0, 22067.0, 22043.0, 22074.0, 22123.0, 22155.0, 22149.0, 22136.0, 22175.0, 22184.0, 22210.0, 22222.0, 22187.0, 22174.0, 22177.0, 22202.0, 22199.0, 22196.0, 22189.0, 22226.0, 22238.0, 22226.0, 22262.0, 22256.0, 22224.0, 22197.0, 22220.0, 22248.0, 22277.0, 22278.0, 22251.0, 22198.0, 22169.0, 22225.0, 22219.0, 22237.0, 22276.0, 22252.0, 22212.0, 22220.0, 22205.0, 22213.0, 22222.0, 22227.0, 22231.0, 22273.0, 22260.0, 22197.0, 22156.0, 22180.0, 22218.0, 22187.0]
    },
    "slices": {}
  }
}