{
  "AcquisitionMatrixPE": 104,
  "AcquisitionNumber": 1,
  "AcquisitionTime": "18:06:49.002500",
  "BandwidthPerPixelPhaseEncode": 17.17,
  "BaseResolution": 104,
  "BodyPartExamined": "BRAIN",
  "CoilString": "HC1-7;NC1_2",
  "ConsistencyInfo": "N4_VE11C_LATEST_20160120",
  "ConversionSoftware": "dcm2niix",
  "ConversionSoftwareVersion": "v1.0.20190902",
  "DerivedVendorReportedEchoSpacing": 0.000560011,
  "DeviceSerialNumber": "167006",
  "DwellTime": 2.1e-06,
  "EchoTime": 0.037,
  "EchoTrainLength": 104,
  "EffectiveEchoSpacing": 0.000560011,
  "FlipAngle": 52,
  "HeudiconvVersion": "0.10.0",
  "ImageComments": "Unaliased_MB4_PE3_LB",
  "ImageOrientationPatientDICOM": [0.995642, 0.0886085, 0.0290746, -0.0724166, 0.931051, -0.35763],
  "ImageType": [
    "ORIGINAL",
    "PRIMARY",
    "M",
    "MB",
    "ND",
    "MOSAIC"
],
  "ImagingFrequency": 123.259,
  "InPlanePhaseEncodingDirectionDICOM": "COL",
  "InstitutionAddress": "Chemin_Queen-Mary_4565_Montreal_District_CA_H3W_1W5",
  "InstitutionName": "IUGM",
  "InstitutionalDepartmentName": "Department",
  "MRAcquisitionType": "2D",
  "MagneticFieldStrength": 3,
  "Manufacturer": "Siemens",
  "ManufacturersModelName": "Prisma_fit",
  "Modality": "MR",
  "MultibandAccelerationFactor": 4,
  "PartialFourier": 1,
  "PatientPosition": "HFS",
  "PercentPhaseFOV": 100,
  "PhaseEncodingDirection": "j",
  "PhaseEncodingSteps": 104,
  "PhaseResolution": 1,
  "PixelBandwidth": 2290,
  "ProcedureStepDescription": "memory_things",
  "ProtocolName": "func_task-things_run-3",
  "PulseSequenceDetails": "%CustomerSeq%_cmrr_mbep2d_bold",
  "ReceiveCoilActiveElements": "HC1-7;NC1,2",
  "ReceiveCoilName": "HeadNeck_64",
  "ReconMatrixPE": 104,
  "RepetitionTime": 1.49,
  "SAR": 0.0585802,
  "ScanOptions": "FS",
  "ScanningSequence": "EP",
  "SequenceName": "epfid2d1_104",
  "SequenceVariant": "SK_SS",
  "SeriesDescription": "func_task-things_run-3",
  "SeriesNumber": 16,
  "ShimSetting": [633, -7188, -8801, 662, 89, 19, -39, -3],
  "SliceThickness": 2,
  "SliceTiming": [0, 0.7825, 0.0975, 0.88, 0.195, 0.98, 0.2925, 1.0775, 0.39, 1.175, 0.49, 1.2725, 0.5875, 1.37, 0.685, 0, 0.7825, 0.0975, 0.88, 0.195, 0.98, 0.2925, 1.0775, 0.39, 1.175, 0.49, 1.2725, 0.5875, 1.37, 0.685, 0, 0.7825, 0.0975, 0.88, 0.195, 0.98, 0.2925, 1.0775, 0.39, 1.175, 0.49, 1.2725, 0.5875, 1.37, 0.685, 0, 0.7825, 0.0975, 0.88, 0.195, 0.98, 0.2925, 1.0775, 0.39, 1.175, 0.49, 1.2725, 0.5875, 1.37, 0.685],
  "SoftwareVersions": "syngo_MR_E11",
  "SpacingBetweenSlices": 2,
  "StationName": "MRC35049",
  "TaskName": "things",
  "TotalReadoutTime": 0.0576811,
  "TxRefAmp": 295.506,
  "WipMemBlock": "1c490f1a-0665-490d-863c-15205caa3e3b||Sequence: R016 ve11c/master r/e634e98; Dec 19 2017 11:00:25 by eja",
  "dcmmeta_affine": [
    [-1.9912842512130737, -0.1448332816362381, 0.11751798540353775, 110.24864196777344],
    [-0.17721690237522125, 1.8621025085449219, -0.7079325914382935, -49.9926643371582],
    [0.05814916267991066, 0.7152605652809143, 1.8668211698532104, -60.228179931640625],
    [0.0, 0.0, 0.0, 1.0]
],
  "dcmmeta_reorient_transform": [
    [0.0, -1.0, 0.0, 103.0],
    [1.0, 0.0, 0.0, 0.0],
    [0.0, 0.0, 1.0, 0.0],
    [0.0, 0.0, 0.0, 1.0]
],
  "dcmmeta_shape": [104, 104, 60, 190],
  "dcmmeta_slice_dim": 2,
  "dcmmeta_version": 0.6,
  "global": {
    "const": {
      "AcquisitionMatrix": [104, 0, 0, 104],
      "AngioFlag": "N",
      "BitsAllocated": 16,
      "BitsStored": 16,
      "BodyPartExamined": "BRAIN",
      "Columns": 832,
      "EchoNumbers": 1,
      "EchoTime": 37.0,
      "EchoTrainLength": 104,
      "FlipAngle": 52.0,
      "HighBit": 15,
      "ImageOrientationPatient": [0.99564211011378, 0.08860844918262, 0.02907458171023, -0.0724166384269, 0.9310512343753, -0.3576302971606],
      "ImagePositionPatient": [-767.43895561219, -884.11613787864, 252.63222190814],
      "ImageType": [
        "ORIGINAL",
        "PRIMARY",
        "M",
        "MB",
        "ND",
        "MOSAIC"
],
      "ImagedNucleus": "1H",
      "ImagingFrequency": 123.25887,
      "InPlanePhaseEncodingDirection": "COL",
      "MRAcquisitionType": "2D",
      "MagneticFieldStrength": 3.0,
      "Manufacturer": "SIEMENS",
      "ManufacturerModelName": "Prisma_fit",
      "Modality": "MR",
      "NumberOfAverages": 1.0,
      "NumberOfPhaseEncodingSteps": 104,
      "PercentPhaseFieldOfView": 100.0,
      "PercentSampling": 100.0,
      "PerformedProcedureStepStartTime": "170913.226000",
      "PhotometricInterpretation": "MONOCHROME2",
      "PixelBandwidth": 2290.0,
      "PixelRepresentation": 0,
      "PixelSpacing": [2.0, 2.0],
      "ProtocolName": "func_task-things_run-3",
      "RepetitionTime": 1490.0,
      "Rows": 832,
      "SAR": 0.05858015540803,
      "SamplesPerPixel": 1,
      "ScanOptions": "FS",
      "ScanningSequence": "EP",
      "SequenceName": "epfid2d1_104",
      "SequenceVariant": [
        "SK",
        "SS"
],
      "SeriesDescription": "func_task-things_run-3",
      "SeriesNumber": 16,
      "SeriesTime": "180818.324000",
      "SliceLocation": -32.043800373431,
      "SliceThickness": 2.0,
      "SmallestImagePixelValue": 0,
      "SoftwareVersions": "syngo MR E11",
      "SpacingBetweenSlices": 2.0000000350292,
      "SpecificCharacterSet": "ISO_IR 100",
      "StudyID": "1",
      "StudyTime": "170913.080000",
      "TransmitCoilName": "Body",
      "VariableFlipAngleFlag": "N",
      "WindowCenterWidthExplanation": "Algo1",
      "dBdt": 0.0},
    "slices": {}
  },
  "time": {
    "samples": {
      "AcquisitionNumber": [1, 2, 3, 4, 5, 6, 7, 8, 9, 10, 11, 12, 13, 14, 15, 16, 17, 18, 19, 20, 21, 22, 23, 24, 25, 26, 27, 28, 29, 30, 31, 32, 33, 34, 35, 36, 37, 38, 39, 40, 41, 42, 43, 44, 45, 46, 47, 48, 49, 50, 51, 52, 53, 54, 55, 56, 57, 58, 59, 60, 61, 62, 63, 64, 65, 66, 67, 68, 69, 70, 71, 72, 73, 74, 75, 76, 77, 78, 79, 80, 81, 82, 83, 84, 85, 86, 87, 88, 89, 90, 91, 92, 93, 94, 95, 96, 97, 98, 99, 100, 101, 102, 103, 104, 105, 106, 107, 108, 109, 110, 111, 112, 113, 114, 115, 116, 117, 118, 119, 120, 121, 122, 123, 124, 125, 126, 127, 128, 129, 130, 131, 132, 133, 134, 135, 136, 137, 138, 139, 140, 141, 142, 143, 144, 145, 146, 147, 148, 149, 150, 151, 152, 153, 154, 155, 156, 157, 158, 159, 160, 161, 162, 163, 164, 165, 166, 167, 168, 169, 170, 171, 172, 173, 174, 175, 176, 177, 178, 179, 180, 181, 182, 183, 184, 185, 186, 187, 188, 189, 190],
      "AcquisitionTime": ["180649.002500", "180650.492500", "180651.982500", "180653.472500", "180654.962500", "180656.452500", "180657.942500", "180659.432500", "180700.922500", "180702.412500", "180703.902500", "180705.392500", "180706.882500", "180708.372500", "180709.862500", "180711.352500", "180712.842500", "180714.332500", "180715.822500", "180717.312500", "180718.802500", "180720.292500", "180721.782500", "180723.272500", "180724.762500", "180726.252500", "180727.742500", "180729.232500", "180730.722500", "180732.212500", "180733.702500", "180735.192500", "180736.682500", "180738.172500", "180739.662500", "180741.152500", "180742.642500", "180744.132500", "180745.622500", "180747.112500", "180748.602500", "180750.092500", "180751.582500", "180753.072500", "180754.562500", "180756.052500", "180757.542500", "180759.032500", "180800.522500", "180802.012500", "180803.502500", "180804.992500", "180806.482500", "180807.972500", "180809.462500", "180810.952500", "180812.442500", "180813.932500", "180815.422500", "180816.912500", "180818.402500", "180819.892500", "180821.382500", "180822.872500", "180824.362500", "180825.852500", "180827.342500", "180828.832500", "180830.322500", "180831.812500", "180833.302500", "180834.792500", "180836.282500", "180837.772500", "180839.262500", "180840.752500", "180842.242500", "180843.732500", "180845.222500", "180846.712500", "180848.202500", "180849.692500", "180851.182500", "180852.672500", "180854.162500", "180855.652500", "180857.142500", "180858.632500", "180900.122500", "180901.612500", "180903.102500", "180904.592500", "180906.082500", "180907.572500", "180909.062500", "180910.552500", "180912.042500", "180913.532500", "180915.022500", "180916.512500", "180918.002500", "180919.492500", "180920.982500", "180922.472500", "180923.962500", "180925.452500", "180926.942500", "180928.432500", "180929.922500", "180931.412500", "180932.902500", "180934.392500", "180935.882500", "180937.372500", "180938.862500", "180940.352500", "180941.842500", "180943.332500", "180944.822500", "180946.312500", "180947.802500", "180949.292500", "180950.782500", "180952.272500", "180953.762500", "180955.252500", "180956.742500", "180958.232500", "180959.722500", "181001.212500", "181002.702500", "181004.192500", "181005.682500", "181007.172500", "181008.662500", "181010.152500", "181011.642500", "181013.132500", "181014.622500", "181016.112500", "181017.602500", "181019.092500", "181020.582500", "181022.072500", "181023.562500", "181025.052500", "181026.542500", "181028.032500", "181029.522500", "181031.012500", "181032.502500", "181033.992500", "181035.482500", "181036.972500", "181038.462500", "181039.952500", "181041.442500", "181042.932500", "181044.422500", "181045.912500", "181047.402500", "181048.892500", "181050.382500", "181051.872500", "181053.362500", "181054.852500", "181056.342500", "181057.832500", "181059.322500", "181100.812500", "181102.302500", "181103.792500", "181105.282500", "181106.772500", "181108.262500", "181109.752500", "181111.242500", "181112.732500", "181114.222500", "181115.712500", "181117.202500", "181118.692500", "181120.182500", "181121.672500", "181123.162500", "181124.652500", "181126.142500", "181127.632500", "181129.122500", "181130.612500"],
      "ContentTime": ["180818.327000", "180818.331000", "180818.334000", "180818.337000", "180818.341000", "180818.347000", "180818.351000", "180818.354000", "180818.357000", "180818.364000", "180818.367000", "180818.370000", "180818.374000", "180818.377000", "180818.380000", "180818.384000", "180818.387000", "180818.390000", "180818.394000", "180818.397000", "180818.400000", "180818.403000", "180818.407000", "180818.410000", "180818.414000", "180818.417000", "180818.421000", "180818.424000", "180818.427000", "180818.430000", "180818.434000", "180818.437000", "180818.440000", "180818.443000", "180818.447000", "180818.450000", "180838.281000", "180838.285000", "180838.288000", "180838.291000", "180838.295000", "180838.298000", "180838.301000", "180838.305000", "180838.308000", "180838.311000", "180838.314000", "180838.318000", "180838.321000", "180838.324000", "180838.327000", "180838.331000", "180838.334000", "180838.337000", "180838.341000", "180838.344000", "180858.281000", "180858.285000", "180858.288000", "180858.292000", "180858.295000", "180858.298000", "180858.301000", "180858.305000", "180858.308000", "180858.311000", "180858.315000", "180858.318000", "180858.321000", "180858.324000", "180858.328000", "180858.331000", "180858.334000", "180858.338000", "180858.341000", "180858.344000", "180918.280000", "180918.284000", "180918.287000", "180918.290000", "180918.294000", "180918.297000", "180918.300000", "180918.304000", "180918.307000", "180918.310000", "180918.313000", "180918.317000", "180918.320000", "180918.323000", "180918.326000", "180918.330000", "180918.333000", "180918.336000", "180918.340000", "180918.343000", "180958.280000", "180958.284000", "180958.287000", "180958.290000", "180958.294000", "180958.297000", "180958.300000", "180958.304000", "180958.307000", "180958.310000", "180958.313000", "180958.317000", "180958.320000", "180958.323000", "180958.326000", "180958.330000", "180958.333000", "180958.336000", "180958.339000", "180958.343000", "180958.346000", "180958.349000", "180958.352000", "180958.356000", "180958.359000", "180958.362000", "180958.366000", "180958.369000", "180958.372000", "180958.376000", "181038.281000", "181038.285000", "181038.288000", "181038.291000", "181038.295000", "181038.298000", "181038.301000", "181038.312000", "181038.315000", "181038.319000", "181038.322000", "181038.325000", "181038.329000", "181038.332000", "181038.335000", "181038.338000", "181038.342000", "181038.345000", "181038.348000", "181038.359000", "181038.363000", "181038.366000", "181038.369000", "181038.372000", "181038.376000", "181038.379000", "181038.382000", "181118.281000", "181118.285000", "181118.288000", "181118.291000", "181118.295000", "181118.298000", "181118.301000", "181118.304000", "181118.308000", "181118.311000", "181118.314000", "181118.317000", "181118.321000", "181118.324000", "181118.327000", "181118.330000", "181118.334000", "181118.337000", "181118.340000", "181118.343000", "181118.347000", "181118.350000", "181118.353000", "181118.357000", "181118.360000", "181118.363000", "181118.366000", "181132.312000", "181132.315000", "181132.318000", "181132.322000", "181132.325000", "181132.328000", "181132.331000", "181132.335000", "181132.338000", "181132.341000"],
      "InstanceCreationTime": ["180818.327000", "180818.331000", "180818.334000", "180818.337000", "180818.341000", "180818.347000", "180818.351000", "180818.354000", "180818.357000", "180818.364000", "180818.367000", "180818.370000", "180818.374000", "180818.377000", "180818.380000", "180818.384000", "180818.387000", "180818.390000", "180818.394000", "180818.397000", "180818.400000", "180818.403000", "180818.407000", "180818.410000", "180818.414000", "180818.417000", "180818.421000", "180818.424000", "180818.427000", "180818.430000", "180818.434000", "180818.437000", "180818.440000", "180818.443000", "180818.447000", "180818.450000", "180838.281000", "180838.285000", "180838.288000", "180838.291000", "180838.295000", "180838.298000", "180838.301000", "180838.305000", "180838.308000", "180838.311000", "180838.314000", "180838.318000", "180838.321000", "180838.324000", "180838.327000", "180838.331000", "180838.334000", "180838.337000", "180838.341000", "180838.344000", "180858.281000", "180858.285000", "180858.288000", "180858.292000", "180858.295000", "180858.298000", "180858.301000", "180858.305000", "180858.308000", "180858.311000", "180858.315000", "180858.318000", "180858.321000", "180858.324000", "180858.328000", "180858.331000", "180858.334000", "180858.338000", "180858.341000", "180858.344000", "180918.280000", "180918.284000", "180918.287000", "180918.290000", "180918.294000", "180918.297000", "180918.300000", "180918.304000", "180918.307000", "180918.310000", "180918.313000", "180918.317000", "180918.320000", "180918.323000", "180918.326000", "180918.330000", "180918.333000", "180918.336000", "180918.340000", "180918.343000", "180958.280000", "180958.284000", "180958.287000", "180958.290000", "180958.294000", "180958.297000", "180958.300000", "180958.304000", "180958.307000", "180958.310000", "180958.313000", "180958.317000", "180958.320000", "180958.323000", "180958.326000", "180958.330000", "180958.333000", "180958.336000", "180958.339000", "180958.343000", "180958.346000", "180958.349000", "180958.352000", "180958.356000", "180958.359000", "180958.362000", "180958.366000", "180958.369000", "180958.372000", "180958.376000", "181038.281000", "181038.285000", "181038.288000", "181038.291000", "181038.295000", "181038.298000", "181038.301000", "181038.312000", "181038.315000", "181038.319000", "181038.322000", "181038.325000", "181038.329000", "181038.332000", "181038.335000", "181038.338000", "181038.342000", "181038.345000", "181038.348000", "181038.359000", "181038.363000", "181038.366000", "181038.369000", "181038.372000", "181038.376000", "181038.379000", "181038.382000", "181118.281000", "181118.285000", "181118.288000", "181118.291000", "181118.295000", "181118.298000", "181118.301000", "181118.304000", "181118.308000", "181118.311000", "181118.314000", "181118.317000", "181118.321000", "181118.324000", "181118.327000", "181118.330000", "181118.334000", "181118.337000", "181118.340000", "181118.343000", "181118.347000", "181118.350000", "181118.353000", "181118.357000", "181118.360000", "181118.363000", "181118.366000", "181132.312000", "181132.315000", "181132.318000", "181132.322000", "181132.325000", "181132.328000", "181132.331000", "181132.335000", "181132.338000", "181132.341000"],
      "InstanceNumber": [1, 2, 3, 4, 5, 6, 7, 8, 9, 10, 11, 12, 13, 14, 15, 16, 17, 18, 19, 20, 21, 22, 23, 24, 25, 26, 27, 28, 29, 30, 31, 32, 33, 34, 35, 36, 37, 38, 39, 40, 41, 42, 43, 44, 45, 46, 47, 48, 49, 50, 51, 52, 53, 54, 55, 56, 57, 58, 59, 60, 61, 62, 63, 64, 65, 66, 67, 68, 69, 70, 71, 72, 73, 74, 75, 76, 77, 78, 79, 80, 81, 82, 83, 84, 85, 86, 87, 88, 89, 90, 91, 92, 93, 94, 95, 96, 97, 98, 99, 100, 101, 102, 103, 104, 105, 106, 107, 108, 109, 110, 111, 112, 113, 114, 115, 116, 117, 118, 119, 120, 121, 122, 123, 124, 125, 126, 127, 128, 129, 130, 131, 132, 133, 134, 135, 136, 137, 138, 139, 140, 141, 142, 143, 144, 145, 146, 147, 148, 149, 150, 151, 152, 153, 154, 155, 156, 157, 158, 159, 160, 161, 162, 163, 164, 165, 166, 167, 168, 169, 170, 171, 172, 173, 174, 175, 176, 177, 178, 179, 180, 181, 182, 183, 184, 185, 186, 187, 188, 189, 190],
      "LargestImagePixelValue": [45953, 44306, 41747, 41899, 43109, 43707, 41328, 40662, 40779, 40207, 40856, 40676, 39992, 39952, 40214, 40181, 46460, 40393, 40834, 41223, 41031, 40597, 40833, 40839, 40794, 42388, 40234, 40603, 40582, 41212, 40917, 41077, 40941, 40912, 41278, 41145, 40825, 41323, 41033, 40989, 41038, 40791, 41319, 41205, 40822, 40683, 40780, 41018, 40351, 41192, 40016, 40222, 40009, 40951, 39296, 39353, 39542, 39432, 39304, 39506, 39109, 42529, 39433, 40039, 39772, 39871, 40309, 39824, 39961, 38940, 39570, 42326, 39216, 39226, 39359, 38716, 41757, 40071, 42862, 39858, 39709, 39790, 41013, 39734, 41999, 39110, 39179, 40425, 40101, 40714, 41893, 39747, 39269, 39073, 39506, 39773, 39734, 40485, 39884, 39228, 38813, 39322, 39423, 39669, 39024, 38552, 38880, 38563, 40492, 39742, 40323, 47640, 41079, 41300, 41430, 41317, 41774, 40990, 39835, 39803, 39544, 40095, 39956, 39916, 39822, 40166, 40100, 39620, 40201, 40024, 40078, 39633, 39939, 40564, 39937, 39772, 39153, 39183, 47879, 41086, 39130, 38543, 42255, 39609, 39115, 39662, 40756, 39895, 41057, 39993, 39730, 40753, 40484, 41292, 41247, 43838, 40406, 40989, 41759, 40919, 40540, 40753, 40084, 40061, 40794, 40392, 39841, 40687, 44651, 41096, 40504, 40878, 39249, 41287, 40774, 40345, 40312, 43568, 41247, 41956, 42740, 42813, 42361, 43238, 42724, 42454, 41701, 42585, 45655, 41707],
      "WindowCenter": [10605.0, 10558.0, 10533.0, 10506.0, 10494.0, 10484.0, 10471.0, 10486.0, 10498.0, 10489.0, 10483.0, 10469.0, 10456.0, 10461.0, 10452.0, 10449.0, 10503.0, 10452.0, 10465.0, 10486.0, 10493.0, 10494.0, 10475.0, 10474.0, 10476.0, 10497.0, 10482.0, 10503.0, 10508.0, 10509.0, 10495.0, 10474.0, 10477.0, 10490.0, 10513.0, 10518.0, 10514.0, 10499.0, 10476.0, 10483.0, 10484.0, 10482.0, 10490.0, 10492.0, 10474.0, 10456.0, 10454.0, 10453.0, 10448.0, 10454.0, 10451.0, 10456.0, 10460.0, 10473.0, 10465.0, 10469.0, 10473.0, 10464.0, 10452.0, 10438.0, 10438.0, 10471.0, 10446.0, 10464.0, 10475.0, 10473.0, 10472.0, 10457.0, 10452.0, 10433.0, 10448.0, 10494.0, 10481.0, 10474.0, 10467.0, 10452.0, 10469.0, 10451.0, 10466.0, 10437.0, 10442.0, 10468.0, 10501.0, 10476.0, 10463.0, 10431.0, 10418.0, 10443.0, 10451.0, 10473.0, 10484.0, 10460.0, 10441.0, 10437.0, 10463.0, 10471.0, 10454.0, 10456.0, 10451.0, 10429.0, 10401.0, 10407.0, 10426.0, 10435.0, 10414.0, 10414.0, 10412.0, 10422.0, 10437.0, 10417.0, 10421.0, 10472.0, 10409.0, 10414.0, 10413.0, 10421.0, 10436.0, 10439.0, 10440.0, 10443.0, 10469.0, 10487.0, 10475.0, 10456.0, 10421.0, 10430.0, 10426.0, 10399.0, 10409.0, 10431.0, 10435.0, 10416.0, 10423.0, 10450.0, 10429.0, 10401.0, 10358.0, 10374.0, 10487.0, 10427.0, 10377.0, 10369.0, 10414.0, 10378.0, 10380.0, 10393.0, 10426.0, 10422.0, 10433.0, 10431.0, 10440.0, 10452.0, 10429.0, 10422.0, 10422.0, 10453.0, 10418.0, 10440.0, 10462.0, 10453.0, 10456.0, 10447.0, 10427.0, 10425.0, 10440.0, 10477.0, 10478.0, 10474.0, 10488.0, 10428.0, 10401.0, 10400.0, 10381.0, 10399.0, 10415.0, 10427.0, 10428.0, 10440.0, 10394.0, 10397.0, 10418.0, 10426.0, 10446.0, 10447.0, 10441.0, 10432.0, 10421.0, 10440.0, 10467.0, 10432.0],
      "WindowWidth": [22537.0, 22417.0, 22354.0, 22285.0, 22249.0, 22212.0, 22193.0, 22240.0, 22268.0, 22246.0, 22225.0, 22196.0, 22169.0, 22180.0, 22157.0, 22148.0, 22263.0, 22162.0, 22187.0, 22237.0, 22258.0, 22261.0, 22215.0, 22209.0, 22217.0, 22265.0, 22230.0, 22278.0, 22295.0, 22289.0, 22259.0, 22206.0, 22213.0, 22249.0, 22301.0, 22314.0, 22308.0, 22266.0, 22212.0, 22235.0, 22240.0, 22224.0, 22246.0, 22249.0, 22203.0, 22163.0, 22160.0, 22153.0, 22148.0, 22160.0, 22154.0, 22165.0, 22178.0, 22214.0, 22193.0, 22205.0, 22214.0, 22190.0, 22163.0, 22127.0, 22129.0, 22200.0, 22149.0, 22197.0, 22221.0, 22211.0, 22206.0, 22169.0, 22165.0, 22119.0, 22146.0, 22257.0, 22228.0, 22213.0, 22194.0, 22163.0, 22196.0, 22161.0, 22186.0, 22120.0, 22134.0, 22195.0, 22274.0, 22221.0, 22181.0, 22113.0, 22081.0, 22133.0, 22159.0, 22210.0, 22229.0, 22174.0, 22128.0, 22123.0, 22185.0, 22202.0, 22157.0, 22159.0, 22154.0, 22105.0, 22036.0, 22049.0, 22099.0, 22117.0, 22070.0, 22069.0, 22063.0, 22085.0, 22115.0, 22071.0, 22081.0, 22178.0, 22061.0, 22065.0, 22061.0, 22080.0, 22114.0, 22122.0, 22125.0, 22136.0, 22202.0, 22237.0, 22211.0, 22164.0, 22083.0, 22101.0, 22096.0, 22034.0, 22052.0, 22111.0, 22121.0, 22069.0, 22083.0, 22143.0, 22097.0, 22033.0, 21936.0, 21974.0, 22220.0, 22096.0, 21981.0, 21962.0, 22059.0, 21983.0, 21988.0, 22017.0, 22099.0, 22084.0, 22106.0, 22105.0, 22124.0, 22148.0, 22093.0, 22076.0, 22080.0, 22153.0, 22074.0, 22124.0, 22169.0, 22152.0, 22169.0, 22148.0, 22104.0, 22093.0, 22119.0, 22212.0, 22217.0, 22197.0, 22229.0, 22097.0, 22029.0, 22033.0, 21999.0, 22020.0, 22071.0, 22096.0, 22094.0, 22117.0, 22012.0, 22013.0, 22060.0, 22080.0, 22128.0, 22132.0, 22118.0, 22095.0, 22075.0, 22120.0, 22173.0, 22099.0]
    },
    "slices": {}
  }
}