{
  "AcquisitionMatrixPE": 104,
  "AcquisitionNumber": 1,
  "AcquisitionTime": "18:17:37.625000",
  "BandwidthPerPixelPhaseEncode": 17.17,
  "BaseResolution": 104,
  "BodyPartExamined": "BRAIN",
  "CoilString": "HC1-7;NC1_2",
  "ConsistencyInfo": "N4_VE11C_LATEST_20160120",
  "ConversionSoftware": "dcm2niix",
  "ConversionSoftwareVersion": "v1.0.20190902",
  "DerivedVendorReportedEchoSpacing": 0.000560011,
  "DeviceSerialNumber": "167006",
  "DwellTime": 2.1e-06,
  "EchoTime": 0.037,
  "EchoTrainLength": 104,
  "EffectiveEchoSpacing": 0.000560011,
  "FlipAngle": 52,
  "HeudiconvVersion": "0.10.0",
  "ImageComments": "Unaliased_MB4_PE3_LB",
  "ImageOrientationPatientDICOM": [0.995642, 0.0886085, 0.0290746, -0.0724166, 0.931051, -0.35763],
  "ImageType": [
    "ORIGINAL",
    "PRIMARY",
    "M",
    "MB",
    "ND",
    "MOSAIC"
],
  "ImagingFrequency": 123.259,
  "InPlanePhaseEncodingDirectionDICOM": "COL",
  "InstitutionAddress": "Chemin_Queen-Mary_4565_Montreal_District_CA_H3W_1W5",
  "InstitutionName": "IUGM",
  "InstitutionalDepartmentName": "Department",
  "MRAcquisitionType": "2D",
  "MagneticFieldStrength": 3,
  "Manufacturer": "Siemens",
  "ManufacturersModelName": "Prisma_fit",
  "Modality": "MR",
  "MultibandAccelerationFactor": 4,
  "PartialFourier": 1,
  "PatientPosition": "HFS",
  "PercentPhaseFOV": 100,
  "PhaseEncodingDirection": "j",
  "PhaseEncodingSteps": 104,
  "PhaseResolution": 1,
  "PixelBandwidth": 2290,
  "ProcedureStepDescription": "memory_things",
  "ProtocolName": "func_task-things_run-4",
  "PulseSequenceDetails": "%CustomerSeq%_cmrr_mbep2d_bold",
  "ReceiveCoilActiveElements": "HC1-7;NC1,2",
  "ReceiveCoilName": "HeadNeck_64",
  "ReconMatrixPE": 104,
  "RepetitionTime": 1.49,
  "SAR": 0.0585802,
  "ScanOptions": "FS",
  "ScanningSequence": "EP",
  "SequenceName": "epfid2d1_104",
  "SequenceVariant": "SK_SS",
  "SeriesDescription": "func_task-things_run-4",
  "SeriesNumber": 19,
  "ShimSetting": [633, -7188, -8801, 662, 89, 19, -39, -3],
  "SliceThickness": 2,
  "SliceTiming": [0, 0.785, 0.0975, 0.8825, 0.1975, 0.98, 0.295, 1.0775, 0.3925, 1.1775, 0.49, 1.275, 0.5875, 1.3725, 0.6875, 0, 0.785, 0.0975, 0.8825, 0.1975, 0.98, 0.295, 1.0775, 0.3925, 1.1775, 0.49, 1.275, 0.5875, 1.3725, 0.6875, 0, 0.785, 0.0975, 0.8825, 0.1975, 0.98, 0.295, 1.0775, 0.3925, 1.1775, 0.49, 1.275, 0.5875, 1.3725, 0.6875, 0, 0.785, 0.0975, 0.8825, 0.1975, 0.98, 0.295, 1.0775, 0.3925, 1.1775, 0.49, 1.275, 0.5875, 1.3725, 0.6875],
  "SoftwareVersions": "syngo_MR_E11",
  "SpacingBetweenSlices": 2,
  "StationName": "MRC35049",
  "TaskName": "things",
  "TotalReadoutTime": 0.0576811,
  "TxRefAmp": 295.506,
  "WipMemBlock": "d24cc20b-7361-4995-825f-01d923ca7092||Sequence: R016 ve11c/master r/e634e98; Dec 19 2017 11:00:25 by eja",
  "dcmmeta_affine": [
    [-1.9912842512130737, -0.1448332816362381, 0.11751798540353775, 110.24864196777344],
    [-0.17721690237522125, 1.8621025085449219, -0.7079325914382935, -49.9926643371582],
    [0.05814916267991066, 0.7152605652809143, 1.8668211698532104, -60.228179931640625],
    [0.0, 0.0, 0.0, 1.0]
],
  "dcmmeta_reorient_transform": [
    [0.0, -1.0, 0.0, 103.0],
    [1.0, 0.0, 0.0, 0.0],
    [0.0, 0.0, 1.0, 0.0],
    [0.0, 0.0, 0.0, 1.0]
],
  "dcmmeta_shape": [104, 104, 60, 190],
  "dcmmeta_slice_dim": 2,
  "dcmmeta_version": 0.6,
  "global": {
    "const": {
      "AcquisitionMatrix": [104, 0, 0, 104],
      "AngioFlag": "N",
      "BitsAllocated": 16,
      "BitsStored": 16,
      "BodyPartExamined": "BRAIN",
      "Columns": 832,
      "EchoNumbers": 1,
      "EchoTime": 37.0,
      "EchoTrainLength": 104,
      "FlipAngle": 52.0,
      "HighBit": 15,
      "ImageOrientationPatient": [0.99564211011378, 0.08860844918262, 0.02907458171023, -0.0724166384269, 0.9310512343753, -0.3576302971606],
      "ImagePositionPatient": [-767.43895561219, -884.11613787864, 252.63222190814],
      "ImageType": [
        "ORIGINAL",
        "PRIMARY",
        "M",
        "MB",
        "ND",
        "MOSAIC"
],
      "ImagedNucleus": "1H",
      "ImagingFrequency": 123.258873,
      "InPlanePhaseEncodingDirection": "COL",
      "MRAcquisitionType": "2D",
      "MagneticFieldStrength": 3.0,
      "Manufacturer": "SIEMENS",
      "ManufacturerModelName": "Prisma_fit",
      "Modality": "MR",
      "NumberOfAverages": 1.0,
      "NumberOfPhaseEncodingSteps": 104,
      "PercentPhaseFieldOfView": 100.0,
      "PercentSampling": 100.0,
      "PerformedProcedureStepStartTime": "170913.226000",
      "PhotometricInterpretation": "MONOCHROME2",
      "PixelBandwidth": 2290.0,
      "PixelRepresentation": 0,
      "PixelSpacing": [2.0, 2.0],
      "ProtocolName": "func_task-things_run-4",
      "RepetitionTime": 1490.0,
      "Rows": 832,
      "SAR": 0.05858015540803,
      "SamplesPerPixel": 1,
      "ScanOptions": "FS",
      "ScanningSequence": "EP",
      "SequenceName": "epfid2d1_104",
      "SequenceVariant": [
        "SK",
        "SS"
],
      "SeriesDescription": "func_task-things_run-4",
      "SeriesNumber": 19,
      "SeriesTime": "181838.320000",
      "SliceLocation": -32.043800373431,
      "SliceThickness": 2.0,
      "SmallestImagePixelValue": 0,
      "SoftwareVersions": "syngo MR E11",
      "SpacingBetweenSlices": 2.0000000350292,
      "SpecificCharacterSet": "ISO_IR 100",
      "StudyID": "1",
      "StudyTime": "170913.080000",
      "TransmitCoilName": "Body",
      "VariableFlipAngleFlag": "N",
      "WindowCenterWidthExplanation": "Algo1",
      "dBdt": 0.0},
    "slices": {}
  },
  "time": {
    "samples": {
      "AcquisitionNumber": [1, 2, 3, 4, 5, 6, 7, 8, 9, 10, 11, 12, 13, 14, 15, 16, 17, 18, 19, 20, 21, 22, 23, 24, 25, 26, 27, 28, 29, 30, 31, 32, 33, 34, 35, 36, 37, 38, 39, 40, 41, 42, 43, 44, 45, 46, 47, 48, 49, 50, 51, 52, 53, 54, 55, 56, 57, 58, 59, 60, 61, 62, 63, 64, 65, 66, 67, 68, 69, 70, 71, 72, 73, 74, 75, 76, 77, 78, 79, 80, 81, 82, 83, 84, 85, 86, 87, 88, 89, 90, 91, 92, 93, 94, 95, 96, 97, 98, 99, 100, 101, 102, 103, 104, 105, 106, 107, 108, 109, 110, 111, 112, 113, 114, 115, 116, 117, 118, 119, 120, 121, 122, 123, 124, 125, 126, 127, 128, 129, 130, 131, 132, 133, 134, 135, 136, 137, 138, 139, 140, 141, 142, 143, 144, 145, 146, 147, 148, 149, 150, 151, 152, 153, 154, 155, 156, 157, 158, 159, 160, 161, 162, 163, 164, 165, 166, 167, 168, 169, 170, 171, 172, 173, 174, 175, 176, 177, 178, 179, 180, 181, 182, 183, 184, 185, 186, 187, 188, 189, 190],
      "AcquisitionTime": ["181737.625000", "181739.115000", "181740.605000", "181742.095000", "181743.585000", "181745.075000", "181746.565000", "181748.055000", "181749.545000", "181751.035000", "181752.525000", "181754.015000", "181755.505000", "181756.995000", "181758.485000", "181759.975000", "181801.465000", "181802.955000", "181804.445000", "181805.935000", "181807.425000", "181808.915000", "181810.405000", "181811.895000", "181813.385000", "181814.875000", "181816.365000", "181817.855000", "181819.345000", "181820.835000", "181822.325000", "181823.815000", "181825.305000", "181826.795000", "181828.285000", "181829.775000", "181831.265000", "181832.755000", "181834.245000", "181835.735000", "181837.225000", "181838.715000", "181840.205000", "181841.695000", "181843.185000", "181844.675000", "181846.165000", "181847.655000", "181849.145000", "181850.635000", "181852.125000", "181853.615000", "181855.105000", "181856.595000", "181858.085000", "181859.575000", "181901.065000", "181902.555000", "181904.045000", "181905.535000", "181907.025000", "181908.515000", "181910.005000", "181911.495000", "181912.985000", "181914.475000", "181915.965000", "181917.455000", "181918.945000", "181920.435000", "181921.925000", "181923.415000", "181924.905000", "181926.395000", "181927.885000", "181929.375000", "181930.865000", "181932.355000", "181933.845000", "181935.335000", "181936.825000", "181938.315000", "181939.805000", "181941.295000", "181942.785000", "181944.275000", "181945.765000", "181947.255000", "181948.745000", "181950.235000", "181951.725000", "181953.215000", "181954.705000", "181956.195000", "181957.685000", "181959.175000", "182000.665000", "182002.155000", "182003.645000", "182005.135000", "182006.625000", "182008.115000", "182009.605000", "182011.095000", "182012.585000", "182014.075000", "182015.565000", "182017.055000", "182018.545000", "182020.035000", "182021.525000", "182023.015000", "182024.505000", "182025.995000", "182027.485000", "182028.975000", "182030.465000", "182031.955000", "182033.445000", "182034.935000", "182036.425000", "182037.915000", "182039.405000", "182040.895000", "182042.385000", "182043.875000", "182045.365000", "182046.855000", "182048.345000", "182049.835000", "182051.325000", "182052.815000", "182054.305000", "182055.795000", "182057.285000", "182058.775000", "182100.265000", "182101.755000", "182103.245000", "182104.735000", "182106.225000", "182107.715000", "182109.205000", "182110.695000", "182112.185000", "182113.675000", "182115.165000", "182116.655000", "182118.145000", "182119.635000", "182121.125000", "182122.615000", "182124.105000", "182125.595000", "182127.085000", "182128.575000", "182130.065000", "182131.555000", "182133.045000", "182134.535000", "182136.025000", "182137.515000", "182139.005000", "182140.495000", "182141.985000", "182143.475000", "182144.965000", "182146.455000", "182147.945000", "182149.435000", "182150.925000", "182152.415000", "182153.905000", "182155.395000", "182156.885000", "182158.375000", "182159.865000", "182201.355000", "182202.845000", "182204.335000", "182205.825000", "182207.315000", "182208.805000", "182210.295000", "182211.785000", "182213.275000", "182214.765000", "182216.255000", "182217.745000", "182219.235000"],
      "ContentTime": ["181838.323000", "181838.327000", "181838.330000", "181838.333000", "181838.337000", "181838.340000", "181858.274000", "181858.277000", "181858.282000", "181858.285000", "181858.289000", "181858.292000", "181858.295000", "181858.298000", "181858.302000", "181858.305000", "181858.308000", "181858.311000", "181858.315000", "181858.318000", "181858.321000", "181858.324000", "181858.328000", "181858.331000", "181858.334000", "181858.337000", "181918.273000", "181918.277000", "181918.280000", "181918.283000", "181918.287000", "181918.290000", "181918.293000", "181918.297000", "181918.300000", "181918.303000", "181918.306000", "181918.310000", "181918.321000", "181918.324000", "181918.341000", "181918.344000", "181918.348000", "181918.351000", "181918.354000", "181918.357000", "181938.273000", "181938.277000", "181938.280000", "181938.283000", "181938.286000", "181938.290000", "181938.293000", "181938.296000", "181938.300000", "181938.303000", "181938.306000", "181938.309000", "181938.313000", "181938.316000", "181938.319000", "181938.323000", "181938.326000", "181938.329000", "181938.333000", "181938.346000", "181938.349000", "181958.274000", "181958.278000", "181958.281000", "181958.284000", "181958.288000", "181958.291000", "181958.294000", "181958.298000", "181958.301000", "181958.304000", "181958.308000", "181958.312000", "181958.315000", "181958.318000", "181958.321000", "181958.325000", "181958.328000", "181958.331000", "181958.335000", "181958.338000", "182018.274000", "182018.278000", "182018.281000", "182018.284000", "182018.288000", "182018.291000", "182018.294000", "182018.298000", "182018.301000", "182018.304000", "182018.307000", "182018.311000", "182018.314000", "182018.317000", "182018.321000", "182018.324000", "182018.327000", "182018.331000", "182018.334000", "182018.337000", "182058.273000", "182058.277000", "182058.280000", "182058.283000", "182058.287000", "182058.290000", "182058.293000", "182058.297000", "182058.300000", "182058.303000", "182058.306000", "182058.310000", "182058.313000", "182058.316000", "182058.320000", "182058.323000", "182058.333000", "182058.336000", "182058.339000", "182058.343000", "182058.346000", "182058.349000", "182058.353000", "182058.356000", "182058.359000", "182058.362000", "182058.366000", "182138.274000", "182138.277000", "182138.280000", "182138.284000", "182138.287000", "182138.300000", "182138.303000", "182138.306000", "182138.310000", "182138.313000", "182138.316000", "182138.320000", "182138.323000", "182138.327000", "182138.330000", "182138.333000", "182138.336000", "182138.340000", "182138.343000", "182138.346000", "182138.350000", "182138.353000", "182138.356000", "182138.359000", "182138.362000", "182138.366000", "182218.274000", "182218.278000", "182218.281000", "182218.284000", "182218.288000", "182218.291000", "182218.294000", "182218.297000", "182218.301000", "182218.304000", "182218.307000", "182218.311000", "182218.314000", "182218.317000", "182218.321000", "182218.324000", "182218.327000", "182218.330000", "182218.334000", "182218.337000", "182218.340000", "182218.343000", "182218.347000", "182218.350000", "182218.353000", "182218.356000", "182218.360000", "182221.549000", "182221.553000", "182221.556000"],
      "InstanceCreationTime": ["181838.323000", "181838.327000", "181838.330000", "181838.333000", "181838.337000", "181838.340000", "181858.274000", "181858.277000", "181858.282000", "181858.285000", "181858.289000", "181858.292000", "181858.295000", "181858.298000", "181858.302000", "181858.305000", "181858.308000", "181858.311000", "181858.315000", "181858.318000", "181858.321000", "181858.324000", "181858.328000", "181858.331000", "181858.334000", "181858.337000", "181918.273000", "181918.277000", "181918.280000", "181918.283000", "181918.287000", "181918.290000", "181918.293000", "181918.297000", "181918.300000", "181918.303000", "181918.306000", "181918.310000", "181918.321000", "181918.324000", "181918.341000", "181918.344000", "181918.348000", "181918.351000", "181918.354000", "181918.357000", "181938.273000", "181938.277000", "181938.280000", "181938.283000", "181938.286000", "181938.290000", "181938.293000", "181938.296000", "181938.300000", "181938.303000", "181938.306000", "181938.309000", "181938.313000", "181938.316000", "181938.319000", "181938.323000", "181938.326000", "181938.329000", "181938.333000", "181938.346000", "181938.349000", "181958.274000", "181958.278000", "181958.281000", "181958.284000", "181958.288000", "181958.291000", "181958.294000", "181958.298000", "181958.301000", "181958.304000", "181958.308000", "181958.312000", "181958.315000", "181958.318000", "181958.321000", "181958.325000", "181958.328000", "181958.331000", "181958.335000", "181958.338000", "182018.274000", "182018.278000", "182018.281000", "182018.284000", "182018.288000", "182018.291000", "182018.294000", "182018.298000", "182018.301000", "182018.304000", "182018.307000", "182018.311000", "182018.314000", "182018.317000", "182018.321000", "182018.324000", "182018.327000", "182018.331000", "182018.334000", "182018.337000", "182058.273000", "182058.277000", "182058.280000", "182058.283000", "182058.287000", "182058.290000", "182058.293000", "182058.297000", "182058.300000", "182058.303000", "182058.306000", "182058.310000", "182058.313000", "182058.316000", "182058.320000", "182058.323000", "182058.333000", "182058.336000", "182058.339000", "182058.343000", "182058.346000", "182058.349000", "182058.353000", "182058.356000", "182058.359000", "182058.362000", "182058.366000", "182138.274000", "182138.277000", "182138.280000", "182138.284000", "182138.287000", "182138.300000", "182138.303000", "182138.306000", "182138.310000", "182138.313000", "182138.316000", "182138.320000", "182138.323000", "182138.327000", "182138.330000", "182138.333000", "182138.336000", "182138.340000", "182138.343000", "182138.346000", "182138.350000", "182138.353000", "182138.356000", "182138.359000", "182138.362000", "182138.366000", "182218.274000", "182218.278000", "182218.281000", "182218.284000", "182218.288000", "182218.291000", "182218.294000", "182218.297000", "182218.301000", "182218.304000", "182218.307000", "182218.311000", "182218.314000", "182218.317000", "182218.321000", "182218.324000", "182218.327000", "182218.330000", "182218.334000", "182218.337000", "182218.340000", "182218.343000", "182218.347000", "182218.350000", "182218.353000", "182218.356000", "182218.360000", "182221.549000", "182221.553000", "182221.556000"],
      "InstanceNumber": [1, 2, 3, 4, 5, 6, 7, 8, 9, 10, 11, 12, 13, 14, 15, 16, 17, 18, 19, 20, 21, 22, 23, 24, 25, 26, 27, 28, 29, 30, 31, 32, 33, 34, 35, 36, 37, 38, 39, 40, 41, 42, 43, 44, 45, 46, 47, 48, 49, 50, 51, 52, 53, 54, 55, 56, 57, 58, 59, 60, 61, 62, 63, 64, 65, 66, 67, 68, 69, 70, 71, 72, 73, 74, 75, 76, 77, 78, 79, 80, 81, 82, 83, 84, 85, 86, 87, 88, 89, 90, 91, 92, 93, 94, 95, 96, 97, 98, 99, 100, 101, 102, 103, 104, 105, 106, 107, 108, 109, 110, 111, 112, 113, 114, 115, 116, 117, 118, 119, 120, 121, 122, 123, 124, 125, 126, 127, 128, 129, 130, 131, 132, 133, 134, 135, 136, 137, 138, 139, 140, 141, 142, 143, 144, 145, 146, 147, 148, 149, 150, 151, 152, 153, 154, 155, 156, 157, 158, 159, 160, 161, 162, 163, 164, 165, 166, 167, 168, 169, 170, 171, 172, 173, 174, 175, 176, 177, 178, 179, 180, 181, 182, 183, 184, 185, 186, 187, 188, 189, 190],
      "LargestImagePixelValue": [45654, 44634, 43563, 44286, 44163, 43968, 43028, 44105, 43781, 44424, 44407, 44439, 43918, 43758, 43289, 42849, 43361, 43292, 43853, 43860, 42549, 43387, 43988, 45239, 43180, 42564, 42449, 42984, 42418, 42780, 43169, 43635, 44035, 43790, 43494, 43897, 44047, 43915, 43544, 43288, 43433, 43441, 43529, 43439, 43059, 43144, 42980, 43808, 45632, 43436, 43174, 43699, 43671, 43043, 43092, 43310, 43369, 43889, 44055, 43954, 43425, 42136, 42809, 43779, 44347, 43649, 42982, 42990, 42588, 42943, 43240, 43471, 42991, 42870, 43726, 43116, 43028, 42955, 42684, 42333, 42575, 42425, 42407, 43324, 43276, 43666, 44047, 43374, 43667, 44359, 43552, 42668, 41983, 42275, 43550, 42959, 42306, 41537, 41293, 43169, 42868, 42853, 42315, 42787, 42211, 41952, 42567, 42664, 43473, 42623, 42927, 42416, 42819, 42420, 42816, 43323, 43501, 44189, 44305, 43862, 42761, 42657, 43373, 42626, 42049, 42177, 42210, 43026, 42776, 41370, 40836, 41522, 45986, 41601, 39802, 40094, 40064, 40612, 41561, 41640, 45594, 41801, 41873, 41016, 42066, 42914, 42201, 41830, 40621, 40980, 43878, 42925, 42199, 41656, 41742, 41714, 41857, 41596, 40653, 40465, 41494, 41119, 41103, 41116, 40446, 39814, 39586, 39966, 40027, 42669, 40544, 39827, 39672, 40574, 40128, 40610, 40216, 39372, 39142, 39709, 40363, 40982, 40114, 39323, 39958, 40609, 40407, 42401, 41054, 40662],
      "WindowCenter": [10533.0, 10491.0, 10491.0, 10506.0, 10505.0, 10482.0, 10467.0, 10482.0, 10501.0, 10501.0, 10488.0, 10479.0, 10467.0, 10474.0, 10471.0, 10466.0, 10467.0, 10452.0, 10437.0, 10424.0, 10425.0, 10458.0, 10482.0, 10488.0, 10455.0, 10444.0, 10426.0, 10420.0, 10422.0, 10440.0, 10467.0, 10479.0, 10476.0, 10462.0, 10459.0, 10474.0, 10466.0, 10456.0, 10447.0, 10446.0, 10480.0, 10493.0, 10478.0, 10468.0, 10452.0, 10449.0, 10436.0, 10452.0, 10482.0, 10458.0, 10448.0, 10454.0, 10449.0, 10439.0, 10439.0, 10463.0, 10491.0, 10501.0, 10501.0, 10477.0, 10452.0, 10427.0, 10448.0, 10469.0, 10464.0, 10436.0, 10427.0, 10433.0, 10444.0, 10465.0, 10472.0, 10473.0, 10467.0, 10461.0, 10458.0, 10432.0, 10414.0, 10411.0, 10425.0, 10446.0, 10455.0, 10441.0, 10438.0, 10441.0, 10433.0, 10422.0, 10421.0, 10428.0, 10452.0, 10466.0, 10439.0, 10409.0, 10404.0, 10423.0, 10452.0, 10434.0, 10390.0, 10355.0, 10345.0, 10376.0, 10390.0, 10402.0, 10404.0, 10404.0, 10397.0, 10398.0, 10403.0, 10405.0, 10442.0, 10447.0, 10454.0, 10442.0, 10438.0, 10429.0, 10435.0, 10458.0, 10474.0, 10482.0, 10466.0, 10441.0, 10425.0, 10419.0, 10432.0, 10456.0, 10449.0, 10438.0, 10421.0, 10421.0, 10404.0, 10378.0, 10371.0, 10384.0, 10447.0, 10411.0, 10382.0, 10374.0, 10373.0, 10392.0, 10417.0, 10424.0, 10448.0, 10422.0, 10406.0, 10414.0, 10439.0, 10443.0, 10416.0, 10398.0, 10381.0, 10386.0, 10409.0, 10404.0, 10399.0, 10367.0, 10347.0, 10350.0, 10365.0, 10377.0, 10370.0, 10372.0, 10383.0, 10377.0, 10379.0, 10386.0, 10373.0, 10359.0, 10365.0, 10396.0, 10412.0, 10449.0, 10434.0, 10398.0, 10374.0, 10386.0, 10400.0, 10415.0, 10401.0, 10365.0, 10347.0, 10357.0, 10371.0, 10409.0, 10417.0, 10400.0, 10395.0, 10398.0, 10402.0, 10427.0, 10430.0, 10429.0],
      "WindowWidth": [22359.0, 22249.0, 22240.0, 22270.0, 22264.0, 22209.0, 22176.0, 22205.0, 22255.0, 22253.0, 22221.0, 22198.0, 22175.0, 22189.0, 22181.0, 22173.0, 22169.0, 22137.0, 22101.0, 22073.0, 22082.0, 22161.0, 22213.0, 22215.0, 22143.0, 22121.0, 22082.0, 22069.0, 22075.0, 22118.0, 22180.0, 22209.0, 22198.0, 22166.0, 22158.0, 22194.0, 22176.0, 22153.0, 22132.0, 22128.0, 22207.0, 22238.0, 22202.0, 22176.0, 22139.0, 22130.0, 22107.0, 22139.0, 22218.0, 22156.0, 22129.0, 22142.0, 22135.0, 22109.0, 22110.0, 22169.0, 22235.0, 22255.0, 22252.0, 22193.0, 22137.0, 22084.0, 22133.0, 22186.0, 22165.0, 22105.0, 22083.0, 22095.0, 22124.0, 22178.0, 22187.0, 22186.0, 22173.0, 22162.0, 22151.0, 22096.0, 22055.0, 22048.0, 22083.0, 22133.0, 22148.0, 22115.0, 22105.0, 22114.0, 22100.0, 22074.0, 22065.0, 22085.0, 22144.0, 22170.0, 22109.0, 22036.0, 22028.0, 22076.0, 22138.0, 22098.0, 21994.0, 21916.0, 21897.0, 21962.0, 21994.0, 22022.0, 22025.0, 22026.0, 22010.0, 22020.0, 22030.0, 22035.0, 22125.0, 22132.0, 22143.0, 22121.0, 22108.0, 22088.0, 22103.0, 22158.0, 22191.0, 22207.0, 22170.0, 22107.0, 22073.0, 22062.0, 22089.0, 22152.0, 22142.0, 22117.0, 22075.0, 22073.0, 22033.0, 21981.0, 21964.0, 21990.0, 22130.0, 22053.0, 21996.0, 21970.0, 21975.0, 22016.0, 22070.0, 22085.0, 22131.0, 22077.0, 22034.0, 22052.0, 22111.0, 22119.0, 22057.0, 22016.0, 21985.0, 21993.0, 22043.0, 22028.0, 22018.0, 21952.0, 21905.0, 21909.0, 21942.0, 21969.0, 21960.0, 21965.0, 21984.0, 21973.0, 21980.0, 21999.0, 21975.0, 21944.0, 21957.0, 22028.0, 22064.0, 22142.0, 22111.0, 22035.0, 21976.0, 21998.0, 22039.0, 22069.0, 22035.0, 21956.0, 21916.0, 21936.0, 21969.0, 22058.0, 22079.0, 22044.0, 22025.0, 22028.0, 22041.0, 22090.0, 22105.0, 22102.0]
    },
    "slices": {}
  }
}