{
  "AcquisitionMatrixPE": 104,
  "AcquisitionNumber": 1,
  "AcquisitionTime": "18:06:49.002500",
  "BandwidthPerPixelPhaseEncode": 17.17,
  "BaseResolution": 104,
  "BodyPartExamined": "BRAIN",
  "CoilString": "HC1-7;NC1_2",
  "ConsistencyInfo": "N4_VE11C_LATEST_20160120",
  "ConversionSoftware": "dcm2niix",
  "ConversionSoftwareVersion": "v1.0.20190902",
  "DerivedVendorReportedEchoSpacing": 0.000560011,
  "DeviceSerialNumber": "167006",
  "DwellTime": 2.1e-06,
  "EchoTime": 0.037,
  "EchoTrainLength": 104,
  "EffectiveEchoSpacing": 0.000560011,
  "FlipAngle": 52,
  "HeudiconvVersion": "0.10.0",
  "ImageComments": "Unaliased_MB4_PE3_LB",
  "ImageOrientationPatientDICOM": [0.995642, 0.0886085, 0.0290746, -0.0724166, 0.931051, -0.35763],
  "ImageType": [
    "ORIGINAL",
    "PRIMARY",
    "P",
    "MB",
    "ND",
    "MOSAIC"
],
  "ImagingFrequency": 123.259,
  "InPlanePhaseEncodingDirectionDICOM": "COL",
  "InstitutionAddress": "Chemin_Queen-Mary_4565_Montreal_District_CA_H3W_1W5",
  "InstitutionName": "IUGM",
  "InstitutionalDepartmentName": "Department",
  "MRAcquisitionType": "2D",
  "MagneticFieldStrength": 3,
  "Manufacturer": "Siemens",
  "ManufacturersModelName": "Prisma_fit",
  "Modality": "MR",
  "MultibandAccelerationFactor": 4,
  "PartialFourier": 1,
  "PatientPosition": "HFS",
  "PercentPhaseFOV": 100,
  "PhaseEncodingDirection": "j",
  "PhaseEncodingSteps": 104,
  "PhaseResolution": 1,
  "PixelBandwidth": 2290,
  "ProcedureStepDescription": "memory_things",
  "ProtocolName": "func_task-things_run-3",
  "PulseSequenceDetails": "%CustomerSeq%_cmrr_mbep2d_bold",
  "ReceiveCoilActiveElements": "HC1-7;NC1,2",
  "ReceiveCoilName": "HeadNeck_64",
  "ReconMatrixPE": 104,
  "RepetitionTime": 1.49,
  "SAR": 0.0585802,
  "ScanOptions": "FS",
  "ScanningSequence": "EP",
  "SequenceName": "epfid2d1_104",
  "SequenceVariant": "SK_SS",
  "SeriesDescription": "func_task-things_run-3",
  "SeriesNumber": 17,
  "ShimSetting": [633, -7188, -8801, 662, 89, 19, -39, -3],
  "SliceThickness": 2,
  "SliceTiming": [0, 0.7825, 0.0975, 0.88, 0.195, 0.98, 0.2925, 1.0775, 0.39, 1.175, 0.49, 1.2725, 0.5875, 1.37, 0.685, 0, 0.7825, 0.0975, 0.88, 0.195, 0.98, 0.2925, 1.0775, 0.39, 1.175, 0.49, 1.2725, 0.5875, 1.37, 0.685, 0, 0.7825, 0.0975, 0.88, 0.195, 0.98, 0.2925, 1.0775, 0.39, 1.175, 0.49, 1.2725, 0.5875, 1.37, 0.685, 0, 0.7825, 0.0975, 0.88, 0.195, 0.98, 0.2925, 1.0775, 0.39, 1.175, 0.49, 1.2725, 0.5875, 1.37, 0.685],
  "SoftwareVersions": "syngo_MR_E11",
  "SpacingBetweenSlices": 2,
  "StationName": "MRC35049",
  "TaskName": "things",
  "TotalReadoutTime": 0.0576811,
  "TxRefAmp": 295.506,
  "WipMemBlock": "1c490f1a-0665-490d-863c-15205caa3e3b||Sequence: R016 ve11c/master r/e634e98; Dec 19 2017 11:00:25 by eja",
  "dcmmeta_affine": [
    [-1.9912842512130737, -0.1448332816362381, 0.11751798540353775, 110.24864196777344],
    [-0.17721690237522125, 1.8621025085449219, -0.7079325914382935, -49.9926643371582],
    [0.05814916267991066, 0.7152605652809143, 1.8668211698532104, -60.228179931640625],
    [0.0, 0.0, 0.0, 1.0]
],
  "dcmmeta_reorient_transform": [
    [0.0, -1.0, 0.0, 103.0],
    [1.0, 0.0, 0.0, 0.0],
    [0.0, 0.0, 1.0, 0.0],
    [0.0, 0.0, 0.0, 1.0]
],
  "dcmmeta_shape": [104, 104, 60, 190],
  "dcmmeta_slice_dim": 2,
  "dcmmeta_version": 0.6,
  "global": {
    "const": {
      "AcquisitionMatrix": [104, 0, 0, 104],
      "AngioFlag": "N",
      "BitsAllocated": 16,
      "BitsStored": 16,
      "BodyPartExamined": "BRAIN",
      "Columns": 832,
      "EchoNumbers": 1,
      "EchoTime": 37.0,
      "EchoTrainLength": 104,
      "FlipAngle": 52.0,
      "HighBit": 15,
      "ImageOrientationPatient": [0.99564211011378, 0.08860844918262, 0.02907458171023, -0.0724166384269, 0.9310512343753, -0.3576302971606],
      "ImagePositionPatient": [-767.43895561219, -884.11613787864, 252.63222190814],
      "ImageType": [
        "ORIGINAL",
        "PRIMARY",
        "P",
        "MB",
        "ND",
        "MOSAIC"
],
      "ImagedNucleus": "1H",
      "ImagingFrequency": 123.25887,
      "InPlanePhaseEncodingDirection": "COL",
      "LargestImagePixelValue": 4095,
      "MRAcquisitionType": "2D",
      "MagneticFieldStrength": 3.0,
      "Manufacturer": "SIEMENS",
      "ManufacturerModelName": "Prisma_fit",
      "Modality": "MR",
      "NumberOfAverages": 1.0,
      "NumberOfPhaseEncodingSteps": 104,
      "PercentPhaseFieldOfView": 100.0,
      "PercentSampling": 100.0,
      "PerformedProcedureStepStartTime": "170913.226000",
      "PhotometricInterpretation": "MONOCHROME2",
      "PixelBandwidth": 2290.0,
      "PixelRepresentation": 0,
      "PixelSpacing": [2.0, 2.0],
      "ProtocolName": "func_task-things_run-3",
      "RepetitionTime": 1490.0,
      "RescaleIntercept": -4096.0,
      "RescaleSlope": 2.0,
      "RescaleType": "US",
      "Rows": 832,
      "SAR": 0.05858015540803,
      "SamplesPerPixel": 1,
      "ScanOptions": "FS",
      "ScanningSequence": "EP",
      "SequenceName": "epfid2d1_104",
      "SequenceVariant": [
        "SK",
        "SS"
],
      "SeriesDescription": "func_task-things_run-3",
      "SeriesNumber": 17,
      "SeriesTime": "180818.506000",
      "SliceLocation": -32.043800373431,
      "SliceThickness": 2.0,
      "SmallestImagePixelValue": 0,
      "SoftwareVersions": "syngo MR E11",
      "SpacingBetweenSlices": 2.0000000350292,
      "SpecificCharacterSet": "ISO_IR 100",
      "StudyID": "1",
      "StudyTime": "170913.080000",
      "TransmitCoilName": "Body",
      "VariableFlipAngleFlag": "N",
      "WindowCenterWidthExplanation": "Algo1",
      "dBdt": 0.0},
    "slices": {}
  },
  "time": {
    "samples": {
      "AcquisitionNumber": [1, 2, 3, 4, 5, 6, 7, 8, 9, 10, 11, 12, 13, 14, 15, 16, 17, 18, 19, 20, 21, 22, 23, 24, 25, 26, 27, 28, 29, 30, 31, 32, 33, 34, 35, 36, 37, 38, 39, 40, 41, 42, 43, 44, 45, 46, 47, 48, 49, 50, 51, 52, 53, 54, 55, 56, 57, 58, 59, 60, 61, 62, 63, 64, 65, 66, 67, 68, 69, 70, 71, 72, 73, 74, 75, 76, 77, 78, 79, 80, 81, 82, 83, 84, 85, 86, 87, 88, 89, 90, 91, 92, 93, 94, 95, 96, 97, 98, 99, 100, 101, 102, 103, 104, 105, 106, 107, 108, 109, 110, 111, 112, 113, 114, 115, 116, 117, 118, 119, 120, 121, 122, 123, 124, 125, 126, 127, 128, 129, 130, 131, 132, 133, 134, 135, 136, 137, 138, 139, 140, 141, 142, 143, 144, 145, 146, 147, 148, 149, 150, 151, 152, 153, 154, 155, 156, 157, 158, 159, 160, 161, 162, 163, 164, 165, 166, 167, 168, 169, 170, 171, 172, 173, 174, 175, 176, 177, 178, 179, 180, 181, 182, 183, 184, 185, 186, 187, 188, 189, 190],
      "AcquisitionTime": ["180649.002500", "180650.492500", "180651.982500", "180653.472500", "180654.962500", "180656.452500", "180657.942500", "180659.432500", "180700.922500", "180702.412500", "180703.902500", "180705.392500", "180706.882500", "180708.372500", "180709.862500", "180711.352500", "180712.842500", "180714.332500", "180715.822500", "180717.312500", "180718.802500", "180720.292500", "180721.782500", "180723.272500", "180724.762500", "180726.252500", "180727.742500", "180729.232500", "180730.722500", "180732.212500", "180733.702500", "180735.192500", "180736.682500", "180738.172500", "180739.662500", "180741.152500", "180742.642500", "180744.132500", "180745.622500", "180747.112500", "180748.602500", "180750.092500", "180751.582500", "180753.072500", "180754.562500", "180756.052500", "180757.542500", "180759.032500", "180800.522500", "180802.012500", "180803.502500", "180804.992500", "180806.482500", "180807.972500", "180809.462500", "180810.952500", "180812.442500", "180813.932500", "180815.422500", "180816.912500", "180818.402500", "180819.892500", "180821.382500", "180822.872500", "180824.362500", "180825.852500", "180827.342500", "180828.832500", "180830.322500", "180831.812500", "180833.302500", "180834.792500", "180836.282500", "180837.772500", "180839.262500", "180840.752500", "180842.242500", "180843.732500", "180845.222500", "180846.712500", "180848.202500", "180849.692500", "180851.182500", "180852.672500", "180854.162500", "180855.652500", "180857.142500", "180858.632500", "180900.122500", "180901.612500", "180903.102500", "180904.592500", "180906.082500", "180907.572500", "180909.062500", "180910.552500", "180912.042500", "180913.532500", "180915.022500", "180916.512500", "180918.002500", "180919.492500", "180920.982500", "180922.472500", "180923.962500", "180925.452500", "180926.942500", "180928.432500", "180929.922500", "180931.412500", "180932.902500", "180934.392500", "180935.882500", "180937.372500", "180938.862500", "180940.352500", "180941.842500", "180943.332500", "180944.822500", "180946.312500", "180947.802500", "180949.292500", "180950.782500", "180952.272500", "180953.762500", "180955.252500", "180956.742500", "180958.232500", "180959.722500", "181001.212500", "181002.702500", "181004.192500", "181005.682500", "181007.172500", "181008.662500", "181010.152500", "181011.642500", "181013.132500", "181014.622500", "181016.112500", "181017.602500", "181019.092500", "181020.582500", "181022.072500", "181023.562500", "181025.052500", "181026.542500", "181028.032500", "181029.522500", "181031.012500", "181032.502500", "181033.992500", "181035.482500", "181036.972500", "181038.462500", "181039.952500", "181041.442500", "181042.932500", "181044.422500", "181045.912500", "181047.402500", "181048.892500", "181050.382500", "181051.872500", "181053.362500", "181054.852500", "181056.342500", "181057.832500", "181059.322500", "181100.812500", "181102.302500", "181103.792500", "181105.282500", "181106.772500", "181108.262500", "181109.752500", "181111.242500", "181112.732500", "181114.222500", "181115.712500", "181117.202500", "181118.692500", "181120.182500", "181121.672500", "181123.162500", "181124.652500", "181126.142500", "181127.632500", "181129.122500", "181130.612500"],
      "ContentTime": ["180818.508000", "180818.511000", "180818.514000", "180818.516000", "180818.527000", "180818.529000", "180818.532000", "180818.534000", "180818.537000", "180818.539000", "180818.542000", "180818.544000", "180818.547000", "180818.549000", "180818.552000", "180818.554000", "180818.557000", "180818.559000", "180818.561000", "180818.564000", "180818.566000", "180818.569000", "180818.571000", "180818.574000", "180818.576000", "180818.579000", "180818.581000", "180818.584000", "180818.586000", "180818.589000", "180818.591000", "180818.594000", "180818.596000", "180818.599000", "180818.605000", "180818.608000", "180838.385000", "180838.388000", "180838.390000", "180838.393000", "180838.402000", "180838.405000", "180838.407000", "180838.410000", "180838.412000", "180838.414000", "180838.417000", "180838.419000", "180838.422000", "180838.424000", "180838.427000", "180838.429000", "180838.432000", "180838.434000", "180838.437000", "180838.439000", "180858.378000", "180858.381000", "180858.383000", "180858.386000", "180858.388000", "180858.391000", "180858.393000", "180858.396000", "180858.398000", "180858.401000", "180858.403000", "180858.406000", "180858.409000", "180858.411000", "180858.413000", "180858.416000", "180858.418000", "180858.421000", "180858.423000", "180858.426000", "180918.389000", "180918.391000", "180918.394000", "180918.396000", "180918.399000", "180918.401000", "180918.404000", "180918.406000", "180918.409000", "180918.411000", "180918.414000", "180918.416000", "180918.419000", "180918.421000", "180918.423000", "180918.426000", "180918.429000", "180918.431000", "180918.434000", "180918.436000", "180958.442000", "180958.445000", "180958.447000", "180958.450000", "180958.452000", "180958.455000", "180958.457000", "180958.460000", "180958.462000", "180958.465000", "180958.467000", "180958.470000", "180958.472000", "180958.474000", "180958.477000", "180958.479000", "180958.482000", "180958.484000", "180958.487000", "180958.489000", "180958.492000", "180958.494000", "180958.497000", "180958.499000", "180958.502000", "180958.504000", "180958.507000", "180958.512000", "180958.514000", "180958.517000", "181038.513000", "181038.516000", "181038.519000", "181038.521000", "181038.524000", "181038.526000", "181038.529000", "181038.531000", "181038.534000", "181038.536000", "181038.539000", "181038.541000", "181038.544000", "181038.546000", "181038.549000", "181038.551000", "181038.554000", "181038.556000", "181038.558000", "181038.561000", "181038.563000", "181038.566000", "181038.568000", "181038.571000", "181038.573000", "181038.576000", "181038.578000", "181118.424000", "181118.427000", "181118.429000", "181118.431000", "181118.434000", "181118.436000", "181118.439000", "181118.441000", "181118.444000", "181118.446000", "181118.449000", "181118.451000", "181118.454000", "181118.456000", "181118.459000", "181118.461000", "181118.463000", "181118.466000", "181118.468000", "181118.471000", "181118.473000", "181118.476000", "181118.478000", "181118.481000", "181118.483000", "181118.486000", "181118.488000", "181132.387000", "181132.390000", "181132.393000", "181132.395000", "181132.398000", "181132.400000", "181132.403000", "181132.406000", "181132.409000", "181132.411000"],
      "InstanceCreationTime": ["180818.508000", "180818.511000", "180818.514000", "180818.516000", "180818.527000", "180818.529000", "180818.532000", "180818.534000", "180818.537000", "180818.539000", "180818.542000", "180818.544000", "180818.547000", "180818.549000", "180818.552000", "180818.554000", "180818.557000", "180818.559000", "180818.561000", "180818.564000", "180818.566000", "180818.569000", "180818.571000", "180818.574000", "180818.576000", "180818.579000", "180818.581000", "180818.584000", "180818.586000", "180818.589000", "180818.591000", "180818.594000", "180818.596000", "180818.599000", "180818.605000", "180818.608000", "180838.385000", "180838.388000", "180838.390000", "180838.393000", "180838.402000", "180838.405000", "180838.407000", "180838.410000", "180838.412000", "180838.414000", "180838.417000", "180838.419000", "180838.422000", "180838.424000", "180838.427000", "180838.429000", "180838.432000", "180838.434000", "180838.437000", "180838.439000", "180858.378000", "180858.381000", "180858.383000", "180858.386000", "180858.388000", "180858.391000", "180858.393000", "180858.396000", "180858.398000", "180858.401000", "180858.403000", "180858.406000", "180858.409000", "180858.411000", "180858.413000", "180858.416000", "180858.418000", "180858.421000", "180858.423000", "180858.426000", "180918.389000", "180918.391000", "180918.394000", "180918.396000", "180918.399000", "180918.401000", "180918.404000", "180918.406000", "180918.409000", "180918.411000", "180918.414000", "180918.416000", "180918.419000", "180918.421000", "180918.423000", "180918.426000", "180918.429000", "180918.431000", "180918.434000", "180918.436000", "180958.442000", "180958.445000", "180958.447000", "180958.450000", "180958.452000", "180958.455000", "180958.457000", "180958.460000", "180958.462000", "180958.465000", "180958.467000", "180958.470000", "180958.472000", "180958.474000", "180958.477000", "180958.479000", "180958.482000", "180958.484000", "180958.487000", "180958.489000", "180958.492000", "180958.494000", "180958.497000", "180958.499000", "180958.502000", "180958.504000", "180958.507000", "180958.512000", "180958.514000", "180958.517000", "181038.513000", "181038.516000", "181038.519000", "181038.521000", "181038.524000", "181038.526000", "181038.529000", "181038.531000", "181038.534000", "181038.536000", "181038.539000", "181038.541000", "181038.544000", "181038.546000", "181038.549000", "181038.551000", "181038.554000", "181038.556000", "181038.558000", "181038.561000", "181038.563000", "181038.566000", "181038.568000", "181038.571000", "181038.573000", "181038.576000", "181038.578000", "181118.424000", "181118.427000", "181118.429000", "181118.431000", "181118.434000", "181118.436000", "181118.439000", "181118.441000", "181118.444000", "181118.446000", "181118.449000", "181118.451000", "181118.454000", "181118.456000", "181118.459000", "181118.461000", "181118.463000", "181118.466000", "181118.468000", "181118.471000", "181118.473000", "181118.476000", "181118.478000", "181118.481000", "181118.483000", "181118.486000", "181118.488000", "181132.387000", "181132.390000", "181132.393000", "181132.395000", "181132.398000", "181132.400000", "181132.403000", "181132.406000", "181132.409000", "181132.411000"],
      "InstanceNumber": [1, 2, 3, 4, 5, 6, 7, 8, 9, 10, 11, 12, 13, 14, 15, 16, 17, 18, 19, 20, 21, 22, 23, 24, 25, 26, 27, 28, 29, 30, 31, 32, 33, 34, 35, 36, 37, 38, 39, 40, 41, 42, 43, 44, 45, 46, 47, 48, 49, 50, 51, 52, 53, 54, 55, 56, 57, 58, 59, 60, 61, 62, 63, 64, 65, 66, 67, 68, 69, 70, 71, 72, 73, 74, 75, 76, 77, 78, 79, 80, 81, 82, 83, 84, 85, 86, 87, 88, 89, 90, 91, 92, 93, 94, 95, 96, 97, 98, 99, 100, 101, 102, 103, 104, 105, 106, 107, 108, 109, 110, 111, 112, 113, 114, 115, 116, 117, 118, 119, 120, 121, 122, 123, 124, 125, 126, 127, 128, 129, 130, 131, 132, 133, 134, 135, 136, 137, 138, 139, 140, 141, 142, 143, 144, 145, 146, 147, 148, 149, 150, 151, 152, 153, 154, 155, 156, 157, 158, 159, 160, 161, 162, 163, 164, 165, 166, 167, 168, 169, 170, 171, 172, 173, 174, 175, 176, 177, 178, 179, 180, 181, 182, 183, 184, 185, 186, 187, 188, 189, 190],
      "WindowCenter": [4790.0, 4796.0, 4792.0, 4792.0, 4792.0, 4818.0, 4824.0, 4822.0, 4790.0, 4790.0, 4792.0, 4792.0, 4794.0, 4794.0, 4822.0, 4822.0, 4798.0, 4820.0, 4798.0, 4796.0, 4792.0, 4796.0, 4792.0, 4792.0, 4792.0, 4792.0, 4798.0, 4796.0, 4796.0, 4794.0, 4794.0, 4792.0, 4794.0, 4794.0, 4796.0, 4794.0, 4818.0, 4816.0, 4794.0, 4794.0, 4796.0, 4818.0, 4796.0, 4792.0, 4792.0, 4796.0, 4794.0, 4794.0, 4794.0, 4790.0, 4790.0, 4794.0, 4792.0, 4790.0, 4792.0, 4792.0, 4796.0, 4794.0, 4792.0, 4794.0, 4792.0, 4792.0, 4794.0, 4790.0, 4796.0, 4792.0, 4790.0, 4790.0, 4790.0, 4792.0, 4790.0, 4788.0, 4794.0, 4796.0, 4790.0, 4796.0, 4790.0, 4792.0, 4794.0, 4794.0, 4792.0, 4798.0, 4792.0, 4796.0, 4792.0, 4792.0, 4794.0, 4792.0, 4794.0, 4792.0, 4790.0, 4790.0, 4794.0, 4796.0, 4790.0, 4794.0, 4818.0, 4794.0, 4792.0, 4790.0, 4796.0, 4820.0, 4790.0, 4794.0, 4794.0, 4790.0, 4790.0, 4792.0, 4790.0, 4792.0, 4790.0, 4788.0, 4790.0, 4788.0, 4788.0, 4792.0, 4794.0, 4794.0, 4796.0, 4822.0, 4820.0, 4790.0, 4790.0, 4792.0, 4794.0, 4792.0, 4792.0, 4796.0, 4798.0, 4794.0, 4794.0, 4820.0, 4822.0, 4796.0, 4790.0, 4790.0, 4794.0, 4792.0, 4792.0, 4792.0, 4798.0, 4818.0, 4794.0, 4796.0, 4788.0, 4790.0, 4792.0, 4792.0, 4790.0, 4792.0, 4796.0, 4790.0, 4796.0, 4794.0, 4792.0, 4816.0, 4794.0, 4792.0, 4790.0, 4794.0, 4788.0, 4790.0, 4790.0, 4796.0, 4794.0, 4788.0, 4794.0, 4792.0, 4790.0, 4794.0, 4792.0, 4792.0, 4792.0, 4792.0, 4794.0, 4796.0, 4788.0, 4792.0, 4796.0, 4792.0, 4790.0, 4792.0, 4792.0, 4792.0, 4792.0, 4790.0, 4794.0, 4790.0, 4792.0, 4790.0],
      "WindowWidth": [18548.0, 18550.0, 18556.0, 18556.0, 18554.0, 18586.0, 18588.0, 18584.0, 18550.0, 18558.0, 18562.0, 18552.0, 18556.0, 18550.0, 18586.0, 18584.0, 18552.0, 18584.0, 18556.0, 18552.0, 18554.0, 18560.0, 18552.0, 18560.0, 18554.0, 18550.0, 18556.0, 18556.0, 18554.0, 18556.0, 18552.0, 18556.0, 18552.0, 18556.0, 18554.0, 18550.0, 18584.0, 18582.0, 18550.0, 18554.0, 18554.0, 18584.0, 18552.0, 18552.0, 18550.0, 18554.0, 18552.0, 18552.0, 18552.0, 18550.0, 18548.0, 18548.0, 18552.0, 18548.0, 18554.0, 18552.0, 18552.0, 18556.0, 18552.0, 18554.0, 18554.0, 18550.0, 18552.0, 18554.0, 18552.0, 18554.0, 18550.0, 18550.0, 18552.0, 18554.0, 18548.0, 18552.0, 18554.0, 18554.0, 18552.0, 18554.0, 18548.0, 18550.0, 18552.0, 18556.0, 18550.0, 18556.0, 18554.0, 18556.0, 18554.0, 18550.0, 18552.0, 18554.0, 18554.0, 18552.0, 18550.0, 18554.0, 18552.0, 18558.0, 18552.0, 18554.0, 18586.0, 18554.0, 18554.0, 18556.0, 18554.0, 18586.0, 18554.0, 18554.0, 18556.0, 18548.0, 18554.0, 18556.0, 18556.0, 18552.0, 18552.0, 18554.0, 18554.0, 18552.0, 18552.0, 18554.0, 18554.0, 18556.0, 18552.0, 18590.0, 18584.0, 18558.0, 18552.0, 18552.0, 18548.0, 18550.0, 18554.0, 18556.0, 18550.0, 18552.0, 18550.0, 18588.0, 18586.0, 18550.0, 18556.0, 18552.0, 18558.0, 18554.0, 18554.0, 18556.0, 18556.0, 18584.0, 18548.0, 18556.0, 18552.0, 18552.0, 18556.0, 18560.0, 18552.0, 18554.0, 18556.0, 18552.0, 18554.0, 18552.0, 18558.0, 18584.0, 18552.0, 18550.0, 18550.0, 18558.0, 18550.0, 18552.0, 18554.0, 18556.0, 18548.0, 18554.0, 18552.0, 18552.0, 18550.0, 18548.0, 18550.0, 18556.0, 18552.0, 18552.0, 18558.0, 18554.0, 18550.0, 18552.0, 18556.0, 18556.0, 18552.0, 18550.0, 18554.0, 18552.0, 18552.0, 18556.0, 18556.0, 18552.0, 18554.0, 18552.0]
    },
    "slices": {}
  }
}