{
  "AcquisitionMatrixPE": 104,
  "AcquisitionNumber": 1,
  "AcquisitionTime": "18:17:37.625000",
  "BandwidthPerPixelPhaseEncode": 17.17,
  "BaseResolution": 104,
  "BodyPartExamined": "BRAIN",
  "CoilString": "HC1-7;NC1_2",
  "ConsistencyInfo": "N4_VE11C_LATEST_20160120",
  "ConversionSoftware": "dcm2niix",
  "ConversionSoftwareVersion": "v1.0.20190902",
  "DerivedVendorReportedEchoSpacing": 0.000560011,
  "DeviceSerialNumber": "167006",
  "DwellTime": 2.1e-06,
  "EchoTime": 0.037,
  "EchoTrainLength": 104,
  "EffectiveEchoSpacing": 0.000560011,
  "FlipAngle": 52,
  "HeudiconvVersion": "0.10.0",
  "ImageComments": "Unaliased_MB4_PE3_LB",
  "ImageOrientationPatientDICOM": [0.995642, 0.0886085, 0.0290746, -0.0724166, 0.931051, -0.35763],
  "ImageType": [
    "ORIGINAL",
    "PRIMARY",
    "P",
    "MB",
    "ND",
    "MOSAIC"
],
  "ImagingFrequency": 123.259,
  "InPlanePhaseEncodingDirectionDICOM": "COL",
  "InstitutionAddress": "Chemin_Queen-Mary_4565_Montreal_District_CA_H3W_1W5",
  "InstitutionName": "IUGM",
  "InstitutionalDepartmentName": "Department",
  "MRAcquisitionType": "2D",
  "MagneticFieldStrength": 3,
  "Manufacturer": "Siemens",
  "ManufacturersModelName": "Prisma_fit",
  "Modality": "MR",
  "MultibandAccelerationFactor": 4,
  "PartialFourier": 1,
  "PatientPosition": "HFS",
  "PercentPhaseFOV": 100,
  "PhaseEncodingDirection": "j",
  "PhaseEncodingSteps": 104,
  "PhaseResolution": 1,
  "PixelBandwidth": 2290,
  "ProcedureStepDescription": "memory_things",
  "ProtocolName": "func_task-things_run-4",
  "PulseSequenceDetails": "%CustomerSeq%_cmrr_mbep2d_bold",
  "ReceiveCoilActiveElements": "HC1-7;NC1,2",
  "ReceiveCoilName": "HeadNeck_64",
  "ReconMatrixPE": 104,
  "RepetitionTime": 1.49,
  "SAR": 0.0585802,
  "ScanOptions": "FS",
  "ScanningSequence": "EP",
  "SequenceName": "epfid2d1_104",
  "SequenceVariant": "SK_SS",
  "SeriesDescription": "func_task-things_run-4",
  "SeriesNumber": 20,
  "ShimSetting": [633, -7188, -8801, 662, 89, 19, -39, -3],
  "SliceThickness": 2,
  "SliceTiming": [0, 0.785, 0.0975, 0.8825, 0.1975, 0.98, 0.295, 1.0775, 0.3925, 1.1775, 0.49, 1.275, 0.5875, 1.3725, 0.6875, 0, 0.785, 0.0975, 0.8825, 0.1975, 0.98, 0.295, 1.0775, 0.3925, 1.1775, 0.49, 1.275, 0.5875, 1.3725, 0.6875, 0, 0.785, 0.0975, 0.8825, 0.1975, 0.98, 0.295, 1.0775, 0.3925, 1.1775, 0.49, 1.275, 0.5875, 1.3725, 0.6875, 0, 0.785, 0.0975, 0.8825, 0.1975, 0.98, 0.295, 1.0775, 0.3925, 1.1775, 0.49, 1.275, 0.5875, 1.3725, 0.6875],
  "SoftwareVersions": "syngo_MR_E11",
  "SpacingBetweenSlices": 2,
  "StationName": "MRC35049",
  "TaskName": "things",
  "TotalReadoutTime": 0.0576811,
  "TxRefAmp": 295.506,
  "WipMemBlock": "d24cc20b-7361-4995-825f-01d923ca7092||Sequence: R016 ve11c/master r/e634e98; Dec 19 2017 11:00:25 by eja",
  "dcmmeta_affine": [
    [-1.9912842512130737, -0.1448332816362381, 0.11751798540353775, 110.24864196777344],
    [-0.17721690237522125, 1.8621025085449219, -0.7079325914382935, -49.9926643371582],
    [0.05814916267991066, 0.7152605652809143, 1.8668211698532104, -60.228179931640625],
    [0.0, 0.0, 0.0, 1.0]
],
  "dcmmeta_reorient_transform": [
    [0.0, -1.0, 0.0, 103.0],
    [1.0, 0.0, 0.0, 0.0],
    [0.0, 0.0, 1.0, 0.0],
    [0.0, 0.0, 0.0, 1.0]
],
  "dcmmeta_shape": [104, 104, 60, 190],
  "dcmmeta_slice_dim": 2,
  "dcmmeta_version": 0.6,
  "global": {
    "const": {
      "AcquisitionMatrix": [104, 0, 0, 104],
      "AngioFlag": "N",
      "BitsAllocated": 16,
      "BitsStored": 16,
      "BodyPartExamined": "BRAIN",
      "Columns": 832,
      "EchoNumbers": 1,
      "EchoTime": 37.0,
      "EchoTrainLength": 104,
      "FlipAngle": 52.0,
      "HighBit": 15,
      "ImageOrientationPatient": [0.99564211011378, 0.08860844918262, 0.02907458171023, -0.0724166384269, 0.9310512343753, -0.3576302971606],
      "ImagePositionPatient": [-767.43895561219, -884.11613787864, 252.63222190814],
      "ImageType": [
        "ORIGINAL",
        "PRIMARY",
        "P",
        "MB",
        "ND",
        "MOSAIC"
],
      "ImagedNucleus": "1H",
      "ImagingFrequency": 123.258873,
      "InPlanePhaseEncodingDirection": "COL",
      "LargestImagePixelValue": 4095,
      "MRAcquisitionType": "2D",
      "MagneticFieldStrength": 3.0,
      "Manufacturer": "SIEMENS",
      "ManufacturerModelName": "Prisma_fit",
      "Modality": "MR",
      "NumberOfAverages": 1.0,
      "NumberOfPhaseEncodingSteps": 104,
      "PercentPhaseFieldOfView": 100.0,
      "PercentSampling": 100.0,
      "PerformedProcedureStepStartTime": "170913.226000",
      "PhotometricInterpretation": "MONOCHROME2",
      "PixelBandwidth": 2290.0,
      "PixelRepresentation": 0,
      "PixelSpacing": [2.0, 2.0],
      "ProtocolName": "func_task-things_run-4",
      "RepetitionTime": 1490.0,
      "RescaleIntercept": -4096.0,
      "RescaleSlope": 2.0,
      "RescaleType": "US",
      "Rows": 832,
      "SAR": 0.05858015540803,
      "SamplesPerPixel": 1,
      "ScanOptions": "FS",
      "ScanningSequence": "EP",
      "SequenceName": "epfid2d1_104",
      "SequenceVariant": [
        "SK",
        "SS"
],
      "SeriesDescription": "func_task-things_run-4",
      "SeriesNumber": 20,
      "SeriesTime": "181838.365000",
      "SliceLocation": -32.043800373431,
      "SliceThickness": 2.0,
      "SmallestImagePixelValue": 0,
      "SoftwareVersions": "syngo MR E11",
      "SpacingBetweenSlices": 2.0000000350292,
      "SpecificCharacterSet": "ISO_IR 100",
      "StudyID": "1",
      "StudyTime": "170913.080000",
      "TransmitCoilName": "Body",
      "VariableFlipAngleFlag": "N",
      "WindowCenterWidthExplanation": "Algo1",
      "dBdt": 0.0},
    "slices": {}
  },
  "time": {
    "samples": {
      "AcquisitionNumber": [1, 2, 3, 4, 5, 6, 7, 8, 9, 10, 11, 12, 13, 14, 15, 16, 17, 18, 19, 20, 21, 22, 23, 24, 25, 26, 27, 28, 29, 30, 31, 32, 33, 34, 35, 36, 37, 38, 39, 40, 41, 42, 43, 44, 45, 46, 47, 48, 49, 50, 51, 52, 53, 54, 55, 56, 57, 58, 59, 60, 61, 62, 63, 64, 65, 66, 67, 68, 69, 70, 71, 72, 73, 74, 75, 76, 77, 78, 79, 80, 81, 82, 83, 84, 85, 86, 87, 88, 89, 90, 91, 92, 93, 94, 95, 96, 97, 98, 99, 100, 101, 102, 103, 104, 105, 106, 107, 108, 109, 110, 111, 112, 113, 114, 115, 116, 117, 118, 119, 120, 121, 122, 123, 124, 125, 126, 127, 128, 129, 130, 131, 132, 133, 134, 135, 136, 137, 138, 139, 140, 141, 142, 143, 144, 145, 146, 147, 148, 149, 150, 151, 152, 153, 154, 155, 156, 157, 158, 159, 160, 161, 162, 163, 164, 165, 166, 167, 168, 169, 170, 171, 172, 173, 174, 175, 176, 177, 178, 179, 180, 181, 182, 183, 184, 185, 186, 187, 188, 189, 190],
      "AcquisitionTime": ["181737.625000", "181739.115000", "181740.605000", "181742.095000", "181743.585000", "181745.075000", "181746.565000", "181748.055000", "181749.545000", "181751.035000", "181752.525000", "181754.015000", "181755.505000", "181756.995000", "181758.485000", "181759.975000", "181801.465000", "181802.955000", "181804.445000", "181805.935000", "181807.425000", "181808.915000", "181810.405000", "181811.895000", "181813.385000", "181814.875000", "181816.365000", "181817.855000", "181819.345000", "181820.835000", "181822.325000", "181823.815000", "181825.305000", "181826.795000", "181828.285000", "181829.775000", "181831.265000", "181832.755000", "181834.245000", "181835.735000", "181837.225000", "181838.715000", "181840.205000", "181841.695000", "181843.185000", "181844.675000", "181846.165000", "181847.655000", "181849.145000", "181850.635000", "181852.125000", "181853.615000", "181855.105000", "181856.595000", "181858.085000", "181859.575000", "181901.065000", "181902.555000", "181904.045000", "181905.535000", "181907.025000", "181908.515000", "181910.005000", "181911.495000", "181912.985000", "181914.475000", "181915.965000", "181917.455000", "181918.945000", "181920.435000", "181921.925000", "181923.415000", "181924.905000", "181926.395000", "181927.885000", "181929.375000", "181930.865000", "181932.355000", "181933.845000", "181935.335000", "181936.825000", "181938.315000", "181939.805000", "181941.295000", "181942.785000", "181944.275000", "181945.765000", "181947.255000", "181948.745000", "181950.235000", "181951.725000", "181953.215000", "181954.705000", "181956.195000", "181957.685000", "181959.175000", "182000.665000", "182002.155000", "182003.645000", "182005.135000", "182006.625000", "182008.115000", "182009.605000", "182011.095000", "182012.585000", "182014.075000", "182015.565000", "182017.055000", "182018.545000", "182020.035000", "182021.525000", "182023.015000", "182024.505000", "182025.995000", "182027.485000", "182028.975000", "182030.465000", "182031.955000", "182033.445000", "182034.935000", "182036.425000", "182037.915000", "182039.405000", "182040.895000", "182042.385000", "182043.875000", "182045.365000", "182046.855000", "182048.345000", "182049.835000", "182051.325000", "182052.815000", "182054.305000", "182055.795000", "182057.285000", "182058.775000", "182100.265000", "182101.755000", "182103.245000", "182104.735000", "182106.225000", "182107.715000", "182109.205000", "182110.695000", "182112.185000", "182113.675000", "182115.165000", "182116.655000", "182118.145000", "182119.635000", "182121.125000", "182122.615000", "182124.105000", "182125.595000", "182127.085000", "182128.575000", "182130.065000", "182131.555000", "182133.045000", "182134.535000", "182136.025000", "182137.515000", "182139.005000", "182140.495000", "182141.985000", "182143.475000", "182144.965000", "182146.455000", "182147.945000", "182149.435000", "182150.925000", "182152.415000", "182153.905000", "182155.395000", "182156.885000", "182158.375000", "182159.865000", "182201.355000", "182202.845000", "182204.335000", "182205.825000", "182207.315000", "182208.805000", "182210.295000", "182211.785000", "182213.275000", "182214.765000", "182216.255000", "182217.745000", "182219.235000"],
      "ContentTime": ["181838.367000", "181838.370000", "181838.373000", "181838.375000", "181838.378000", "181838.380000", "181858.388000", "181858.391000", "181858.393000", "181858.396000", "181858.398000", "181858.401000", "181858.403000", "181858.406000", "181858.408000", "181858.410000", "181858.413000", "181858.415000", "181858.418000", "181858.420000", "181858.423000", "181858.425000", "181858.428000", "181858.430000", "181858.432000", "181858.435000", "181918.398000", "181918.401000", "181918.404000", "181918.406000", "181918.409000", "181918.411000", "181918.413000", "181918.416000", "181918.418000", "181918.421000", "181918.423000", "181918.426000", "181918.428000", "181918.430000", "181918.433000", "181918.435000", "181918.438000", "181918.440000", "181918.443000", "181918.445000", "181938.390000", "181938.393000", "181938.396000", "181938.398000", "181938.406000", "181938.408000", "181938.411000", "181938.413000", "181938.416000", "181938.419000", "181938.421000", "181938.423000", "181938.426000", "181938.429000", "181938.431000", "181938.433000", "181938.436000", "181938.439000", "181938.441000", "181938.443000", "181938.446000", "181958.379000", "181958.382000", "181958.385000", "181958.387000", "181958.390000", "181958.392000", "181958.394000", "181958.397000", "181958.399000", "181958.402000", "181958.404000", "181958.412000", "181958.415000", "181958.417000", "181958.420000", "181958.422000", "181958.425000", "181958.427000", "181958.430000", "181958.433000", "182018.384000", "182018.386000", "182018.389000", "182018.391000", "182018.394000", "182018.396000", "182018.399000", "182018.401000", "182018.404000", "182018.406000", "182018.409000", "182018.411000", "182018.414000", "182018.416000", "182018.419000", "182018.426000", "182018.428000", "182018.431000", "182018.433000", "182018.436000", "182058.414000", "182058.417000", "182058.419000", "182058.422000", "182058.424000", "182058.427000", "182058.429000", "182058.432000", "182058.434000", "182058.437000", "182058.439000", "182058.442000", "182058.444000", "182058.447000", "182058.449000", "182058.452000", "182058.454000", "182058.457000", "182058.459000", "182058.462000", "182058.464000", "182058.467000", "182058.469000", "182058.472000", "182058.474000", "182058.477000", "182058.479000", "182138.416000", "182138.418000", "182138.421000", "182138.423000", "182138.426000", "182138.428000", "182138.431000", "182138.433000", "182138.436000", "182138.438000", "182138.441000", "182138.443000", "182138.446000", "182138.448000", "182138.451000", "182138.453000", "182138.456000", "182138.458000", "182138.461000", "182138.464000", "182138.466000", "182138.468000", "182138.471000", "182138.474000", "182138.476000", "182138.478000", "182218.413000", "182218.415000", "182218.418000", "182218.420000", "182218.423000", "182218.425000", "182218.428000", "182218.430000", "182218.433000", "182218.435000", "182218.438000", "182218.440000", "182218.443000", "182218.445000", "182218.448000", "182218.450000", "182218.453000", "182218.455000", "182218.458000", "182218.460000", "182218.463000", "182218.465000", "182218.468000", "182218.470000", "182218.473000", "182218.475000", "182218.477000", "182221.601000", "182221.604000", "182221.606000"],
      "InstanceCreationTime": ["181838.367000", "181838.370000", "181838.373000", "181838.375000", "181838.378000", "181838.380000", "181858.388000", "181858.391000", "181858.393000", "181858.396000", "181858.398000", "181858.401000", "181858.403000", "181858.406000", "181858.408000", "181858.410000", "181858.413000", "181858.415000", "181858.418000", "181858.420000", "181858.423000", "181858.425000", "181858.428000", "181858.430000", "181858.432000", "181858.435000", "181918.398000", "181918.401000", "181918.404000", "181918.406000", "181918.409000", "181918.411000", "181918.413000", "181918.416000", "181918.418000", "181918.421000", "181918.423000", "181918.426000", "181918.428000", "181918.430000", "181918.433000", "181918.435000", "181918.438000", "181918.440000", "181918.443000", "181918.445000", "181938.390000", "181938.393000", "181938.396000", "181938.398000", "181938.406000", "181938.408000", "181938.411000", "181938.413000", "181938.416000", "181938.419000", "181938.421000", "181938.423000", "181938.426000", "181938.429000", "181938.431000", "181938.433000", "181938.436000", "181938.439000", "181938.441000", "181938.443000", "181938.446000", "181958.379000", "181958.382000", "181958.385000", "181958.387000", "181958.390000", "181958.392000", "181958.394000", "181958.397000", "181958.399000", "181958.402000", "181958.404000", "181958.412000", "181958.415000", "181958.417000", "181958.420000", "181958.422000", "181958.425000", "181958.427000", "181958.430000", "181958.433000", "182018.384000", "182018.386000", "182018.389000", "182018.391000", "182018.394000", "182018.396000", "182018.399000", "182018.401000", "182018.404000", "182018.406000", "182018.409000", "182018.411000", "182018.414000", "182018.416000", "182018.419000", "182018.426000", "182018.428000", "182018.431000", "182018.433000", "182018.436000", "182058.414000", "182058.417000", "182058.419000", "182058.422000", "182058.424000", "182058.427000", "182058.429000", "182058.432000", "182058.434000", "182058.437000", "182058.439000", "182058.442000", "182058.444000", "182058.447000", "182058.449000", "182058.452000", "182058.454000", "182058.457000", "182058.459000", "182058.462000", "182058.464000", "182058.467000", "182058.469000", "182058.472000", "182058.474000", "182058.477000", "182058.479000", "182138.416000", "182138.418000", "182138.421000", "182138.423000", "182138.426000", "182138.428000", "182138.431000", "182138.433000", "182138.436000", "182138.438000", "182138.441000", "182138.443000", "182138.446000", "182138.448000", "182138.451000", "182138.453000", "182138.456000", "182138.458000", "182138.461000", "182138.464000", "182138.466000", "182138.468000", "182138.471000", "182138.474000", "182138.476000", "182138.478000", "182218.413000", "182218.415000", "182218.418000", "182218.420000", "182218.423000", "182218.425000", "182218.428000", "182218.430000", "182218.433000", "182218.435000", "182218.438000", "182218.440000", "182218.443000", "182218.445000", "182218.448000", "182218.450000", "182218.453000", "182218.455000", "182218.458000", "182218.460000", "182218.463000", "182218.465000", "182218.468000", "182218.470000", "182218.473000", "182218.475000", "182218.477000", "182221.601000", "182221.604000", "182221.606000"],
      "InstanceNumber": [1, 2, 3, 4, 5, 6, 7, 8, 9, 10, 11, 12, 13, 14, 15, 16, 17, 18, 19, 20, 21, 22, 23, 24, 25, 26, 27, 28, 29, 30, 31, 32, 33, 34, 35, 36, 37, 38, 39, 40, 41, 42, 43, 44, 45, 46, 47, 48, 49, 50, 51, 52, 53, 54, 55, 56, 57, 58, 59, 60, 61, 62, 63, 64, 65, 66, 67, 68, 69, 70, 71, 72, 73, 74, 75, 76, 77, 78, 79, 80, 81, 82, 83, 84, 85, 86, 87, 88, 89, 90, 91, 92, 93, 94, 95, 96, 97, 98, 99, 100, 101, 102, 103, 104, 105, 106, 107, 108, 109, 110, 111, 112, 113, 114, 115, 116, 117, 118, 119, 120, 121, 122, 123, 124, 125, 126, 127, 128, 129, 130, 131, 132, 133, 134, 135, 136, 137, 138, 139, 140, 141, 142, 143, 144, 145, 146, 147, 148, 149, 150, 151, 152, 153, 154, 155, 156, 157, 158, 159, 160, 161, 162, 163, 164, 165, 166, 167, 168, 169, 170, 171, 172, 173, 174, 175, 176, 177, 178, 179, 180, 181, 182, 183, 184, 185, 186, 187, 188, 189, 190],
      "WindowCenter": [4792.0, 4816.0, 4792.0, 4816.0, 4794.0, 4818.0, 4824.0, 4822.0, 4818.0, 4814.0, 4814.0, 4816.0, 4814.0, 4792.0, 4820.0, 4852.0, 4822.0, 4818.0, 4820.0, 4816.0, 4790.0, 4816.0, 4794.0, 4850.0, 4852.0, 4826.0, 4816.0, 4792.0, 4816.0, 4792.0, 4792.0, 4794.0, 4818.0, 4826.0, 4826.0, 4822.0, 4818.0, 4818.0, 4822.0, 4818.0, 4820.0, 4816.0, 4818.0, 4818.0, 4816.0, 4818.0, 4820.0, 4820.0, 4796.0, 4822.0, 4822.0, 4796.0, 4816.0, 4796.0, 4818.0, 4818.0, 4820.0, 4818.0, 4816.0, 4822.0, 4822.0, 4826.0, 4850.0, 4824.0, 4816.0, 4814.0, 4816.0, 4814.0, 4794.0, 4820.0, 4822.0, 4852.0, 4880.0, 4852.0, 4828.0, 4820.0, 4818.0, 4812.0, 4814.0, 4820.0, 4818.0, 4850.0, 4876.0, 4854.0, 4822.0, 4818.0, 4824.0, 4826.0, 4820.0, 4814.0, 4816.0, 4818.0, 4852.0, 4874.0, 4850.0, 4826.0, 4796.0, 4820.0, 4816.0, 4792.0, 4794.0, 4796.0, 4822.0, 4826.0, 4848.0, 4826.0, 4818.0, 4816.0, 4794.0, 4822.0, 4822.0, 4820.0, 4822.0, 4796.0, 4822.0, 4828.0, 4824.0, 4794.0, 4794.0, 4794.0, 4816.0, 4822.0, 4874.0, 4874.0, 4876.0, 4824.0, 4818.0, 4816.0, 4814.0, 4818.0, 4818.0, 4848.0, 4852.0, 4852.0, 4826.0, 4822.0, 4820.0, 4796.0, 4794.0, 4792.0, 4794.0, 4818.0, 4848.0, 4850.0, 4850.0, 4824.0, 4794.0, 4792.0, 4820.0, 4850.0, 4850.0, 4848.0, 4850.0, 4822.0, 4818.0, 4818.0, 4792.0, 4820.0, 4818.0, 4820.0, 4824.0, 4854.0, 4856.0, 4850.0, 4820.0, 4816.0, 4796.0, 4826.0, 4850.0, 4854.0, 4828.0, 4796.0, 4816.0, 4814.0, 4792.0, 4794.0, 4822.0, 4824.0, 4828.0, 4824.0, 4848.0, 4850.0, 4856.0, 4826.0, 4818.0, 4816.0, 4824.0, 4826.0, 4848.0, 4850.0],
      "WindowWidth": [18556.0, 18580.0, 18554.0, 18580.0, 18560.0, 18586.0, 18584.0, 18586.0, 18586.0, 18586.0, 18594.0, 18592.0, 18588.0, 18548.0, 18586.0, 18620.0, 18588.0, 18584.0, 18594.0, 18600.0, 18568.0, 18594.0, 18556.0, 18628.0, 18632.0, 18584.0, 18588.0, 18560.0, 18594.0, 18564.0, 18564.0, 18556.0, 18582.0, 18588.0, 18588.0, 18582.0, 18586.0, 18590.0, 18594.0, 18578.0, 18586.0, 18584.0, 18588.0, 18588.0, 18584.0, 18582.0, 18586.0, 18580.0, 18552.0, 18586.0, 18586.0, 18560.0, 18586.0, 18562.0, 18584.0, 18590.0, 18588.0, 18584.0, 18576.0, 18586.0, 18582.0, 18594.0, 18624.0, 18588.0, 18584.0, 18594.0, 18598.0, 18596.0, 18560.0, 18580.0, 18588.0, 18636.0, 18670.0, 18628.0, 18586.0, 18598.0, 18608.0, 18604.0, 18594.0, 18594.0, 18584.0, 18626.0, 18668.0, 18632.0, 18586.0, 18584.0, 18590.0, 18592.0, 18584.0, 18586.0, 18596.0, 18586.0, 18628.0, 18666.0, 18626.0, 18590.0, 18556.0, 18590.0, 18594.0, 18560.0, 18558.0, 18552.0, 18580.0, 18590.0, 18622.0, 18590.0, 18594.0, 18594.0, 18564.0, 18590.0, 18584.0, 18582.0, 18588.0, 18554.0, 18584.0, 18592.0, 18584.0, 18556.0, 18560.0, 18560.0, 18590.0, 18586.0, 18666.0, 18682.0, 18668.0, 18584.0, 18592.0, 18604.0, 18602.0, 18590.0, 18584.0, 18620.0, 18630.0, 18624.0, 18586.0, 18586.0, 18582.0, 18558.0, 18556.0, 18556.0, 18560.0, 18582.0, 18624.0, 18634.0, 18630.0, 18590.0, 18554.0, 18558.0, 18584.0, 18620.0, 18628.0, 18626.0, 18622.0, 18586.0, 18586.0, 18594.0, 18558.0, 18590.0, 18586.0, 18582.0, 18590.0, 18630.0, 18632.0, 18624.0, 18582.0, 18584.0, 18562.0, 18586.0, 18628.0, 18630.0, 18588.0, 18556.0, 18598.0, 18588.0, 18556.0, 18554.0, 18584.0, 18592.0, 18590.0, 18588.0, 18620.0, 18622.0, 18624.0, 18586.0, 18584.0, 18596.0, 18594.0, 18586.0, 18622.0, 18622.0]
    },
    "slices": {}
  }
}