{
  "AcquisitionMatrixPE": 104,
  "AcquisitionNumber": 1,
  "AcquisitionTime": "18:23:52.975000",
  "BandwidthPerPixelPhaseEncode": 17.17,
  "BaseResolution": 104,
  "BodyPartExamined": "BRAIN",
  "CoilString": "HC1-7;NC1_2",
  "ConsistencyInfo": "N4_VE11C_LATEST_20160120",
  "ConversionSoftware": "dcm2niix",
  "ConversionSoftwareVersion": "v1.0.20190902",
  "DerivedVendorReportedEchoSpacing": 0.000560011,
  "DeviceSerialNumber": "167006",
  "DwellTime": 2.1e-06,
  "EchoTime": 0.037,
  "EchoTrainLength": 104,
  "EffectiveEchoSpacing": 0.000560011,
  "FlipAngle": 52,
  "HeudiconvVersion": "0.10.0",
  "ImageComments": "Unaliased_MB4_PE3_LB",
  "ImageOrientationPatientDICOM": [0.995642, 0.0886085, 0.0290746, -0.0724166, 0.931051, -0.35763],
  "ImageType": [
    "ORIGINAL",
    "PRIMARY",
    "M",
    "MB",
    "ND",
    "MOSAIC"
],
  "ImagingFrequency": 123.259,
  "InPlanePhaseEncodingDirectionDICOM": "COL",
  "InstitutionAddress": "Chemin_Queen-Mary_4565_Montreal_District_CA_H3W_1W5",
  "InstitutionName": "IUGM",
  "InstitutionalDepartmentName": "Department",
  "MRAcquisitionType": "2D",
  "MagneticFieldStrength": 3,
  "Manufacturer": "Siemens",
  "ManufacturersModelName": "Prisma_fit",
  "Modality": "MR",
  "MultibandAccelerationFactor": 4,
  "PartialFourier": 1,
  "PatientPosition": "HFS",
  "PercentPhaseFOV": 100,
  "PhaseEncodingDirection": "j",
  "PhaseEncodingSteps": 104,
  "PhaseResolution": 1,
  "PixelBandwidth": 2290,
  "ProcedureStepDescription": "memory_things",
  "ProtocolName": "func_task-things_run-5",
  "PulseSequenceDetails": "%CustomerSeq%_cmrr_mbep2d_bold",
  "ReceiveCoilActiveElements": "HC1-7;NC1,2",
  "ReceiveCoilName": "HeadNeck_64",
  "ReconMatrixPE": 104,
  "RepetitionTime": 1.49,
  "SAR": 0.0585802,
  "ScanOptions": "FS",
  "ScanningSequence": "EP",
  "SequenceName": "epfid2d1_104",
  "SequenceVariant": "SK_SS",
  "SeriesDescription": "func_task-things_run-5",
  "SeriesNumber": 22,
  "ShimSetting": [633, -7188, -8801, 662, 89, 19, -39, -3],
  "SliceThickness": 2,
  "SliceTiming": [0, 0.7825, 0.0975, 0.8825, 0.195, 0.98, 0.2925, 1.0775, 0.3925, 1.175, 0.49, 1.2725, 0.5875, 1.3725, 0.685, 0, 0.7825, 0.0975, 0.8825, 0.195, 0.98, 0.2925, 1.0775, 0.3925, 1.175, 0.49, 1.2725, 0.5875, 1.3725, 0.685, 0, 0.7825, 0.0975, 0.8825, 0.195, 0.98, 0.2925, 1.0775, 0.3925, 1.175, 0.49, 1.2725, 0.5875, 1.3725, 0.685, 0, 0.7825, 0.0975, 0.8825, 0.195, 0.98, 0.2925, 1.0775, 0.3925, 1.175, 0.49, 1.2725, 0.5875, 1.3725, 0.685],
  "SoftwareVersions": "syngo_MR_E11",
  "SpacingBetweenSlices": 2,
  "StationName": "MRC35049",
  "TaskName": "things",
  "TotalReadoutTime": 0.0576811,
  "TxRefAmp": 295.506,
  "WipMemBlock": "bf7d076f-e88c-4ebc-8c41-c6dc40d24ebe||Sequence: R016 ve11c/master r/e634e98; Dec 19 2017 11:00:25 by eja",
  "dcmmeta_affine": [
    [-1.9912842512130737, -0.1448332816362381, 0.11751798540353775, 110.24864196777344],
    [-0.17721690237522125, 1.8621025085449219, -0.7079325914382935, -49.9926643371582],
    [0.05814916267991066, 0.7152605652809143, 1.8668211698532104, -60.228179931640625],
    [0.0, 0.0, 0.0, 1.0]
],
  "dcmmeta_reorient_transform": [
    [0.0, -1.0, 0.0, 103.0],
    [1.0, 0.0, 0.0, 0.0],
    [0.0, 0.0, 1.0, 0.0],
    [0.0, 0.0, 0.0, 1.0]
],
  "dcmmeta_shape": [104, 104, 60, 190],
  "dcmmeta_slice_dim": 2,
  "dcmmeta_version": 0.6,
  "global": {
    "const": {
      "AcquisitionMatrix": [104, 0, 0, 104],
      "AngioFlag": "N",
      "BitsAllocated": 16,
      "BitsStored": 16,
      "BodyPartExamined": "BRAIN",
      "Columns": 832,
      "EchoNumbers": 1,
      "EchoTime": 37.0,
      "EchoTrainLength": 104,
      "FlipAngle": 52.0,
      "HighBit": 15,
      "ImageOrientationPatient": [0.99564211011378, 0.08860844918262, 0.02907458171023, -0.0724166384269, 0.9310512343753, -0.3576302971606],
      "ImagePositionPatient": [-767.43895561219, -884.11613787864, 252.63222190814],
      "ImageType": [
        "ORIGINAL",
        "PRIMARY",
        "M",
        "MB",
        "ND",
        "MOSAIC"
],
      "ImagedNucleus": "1H",
      "ImagingFrequency": 123.258877,
      "InPlanePhaseEncodingDirection": "COL",
      "MRAcquisitionType": "2D",
      "MagneticFieldStrength": 3.0,
      "Manufacturer": "SIEMENS",
      "ManufacturerModelName": "Prisma_fit",
      "Modality": "MR",
      "NumberOfAverages": 1.0,
      "NumberOfPhaseEncodingSteps": 104,
      "PercentPhaseFieldOfView": 100.0,
      "PercentSampling": 100.0,
      "PerformedProcedureStepStartTime": "170913.226000",
      "PhotometricInterpretation": "MONOCHROME2",
      "PixelBandwidth": 2290.0,
      "PixelRepresentation": 0,
      "PixelSpacing": [2.0, 2.0],
      "ProtocolName": "func_task-things_run-5",
      "RepetitionTime": 1490.0,
      "Rows": 832,
      "SAR": 0.05858015540803,
      "SamplesPerPixel": 1,
      "ScanOptions": "FS",
      "ScanningSequence": "EP",
      "SequenceName": "epfid2d1_104",
      "SequenceVariant": [
        "SK",
        "SS"
],
      "SeriesDescription": "func_task-things_run-5",
      "SeriesNumber": 22,
      "SeriesTime": "182455.547000",
      "SliceLocation": -32.043800373431,
      "SliceThickness": 2.0,
      "SmallestImagePixelValue": 0,
      "SoftwareVersions": "syngo MR E11",
      "SpacingBetweenSlices": 2.0000000350292,
      "SpecificCharacterSet": "ISO_IR 100",
      "StudyID": "1",
      "StudyTime": "170913.080000",
      "TransmitCoilName": "Body",
      "VariableFlipAngleFlag": "N",
      "WindowCenterWidthExplanation": "Algo1",
      "dBdt": 0.0},
    "slices": {}
  },
  "time": {
    "samples": {
      "AcquisitionNumber": [1, 2, 3, 4, 5, 6, 7, 8, 9, 10, 11, 12, 13, 14, 15, 16, 17, 18, 19, 20, 21, 22, 23, 24, 25, 26, 27, 28, 29, 30, 31, 32, 33, 34, 35, 36, 37, 38, 39, 40, 41, 42, 43, 44, 45, 46, 47, 48, 49, 50, 51, 52, 53, 54, 55, 56, 57, 58, 59, 60, 61, 62, 63, 64, 65, 66, 67, 68, 69, 70, 71, 72, 73, 74, 75, 76, 77, 78, 79, 80, 81, 82, 83, 84, 85, 86, 87, 88, 89, 90, 91, 92, 93, 94, 95, 96, 97, 98, 99, 100, 101, 102, 103, 104, 105, 106, 107, 108, 109, 110, 111, 112, 113, 114, 115, 116, 117, 118, 119, 120, 121, 122, 123, 124, 125, 126, 127, 128, 129, 130, 131, 132, 133, 134, 135, 136, 137, 138, 139, 140, 141, 142, 143, 144, 145, 146, 147, 148, 149, 150, 151, 152, 153, 154, 155, 156, 157, 158, 159, 160, 161, 162, 163, 164, 165, 166, 167, 168, 169, 170, 171, 172, 173, 174, 175, 176, 177, 178, 179, 180, 181, 182, 183, 184, 185, 186, 187, 188, 189, 190],
      "AcquisitionTime": ["182352.975000", "182354.465000", "182355.955000", "182357.445000", "182358.935000", "182400.425000", "182401.915000", "182403.405000", "182404.895000", "182406.385000", "182407.875000", "182409.365000", "182410.855000", "182412.345000", "182413.835000", "182415.325000", "182416.815000", "182418.305000", "182419.795000", "182421.285000", "182422.775000", "182424.265000", "182425.755000", "182427.245000", "182428.735000", "182430.225000", "182431.715000", "182433.205000", "182434.695000", "182436.185000", "182437.675000", "182439.165000", "182440.655000", "182442.145000", "182443.635000", "182445.125000", "182446.615000", "182448.105000", "182449.595000", "182451.085000", "182452.575000", "182454.065000", "182455.555000", "182457.045000", "182458.535000", "182500.025000", "182501.515000", "182503.005000", "182504.495000", "182505.985000", "182507.475000", "182508.965000", "182510.455000", "182511.945000", "182513.435000", "182514.925000", "182516.415000", "182517.905000", "182519.395000", "182520.885000", "182522.375000", "182523.865000", "182525.355000", "182526.845000", "182528.335000", "182529.825000", "182531.315000", "182532.805000", "182534.295000", "182535.785000", "182537.275000", "182538.765000", "182540.255000", "182541.745000", "182543.235000", "182544.725000", "182546.215000", "182547.705000", "182549.195000", "182550.685000", "182552.175000", "182553.665000", "182555.155000", "182556.645000", "182558.135000", "182559.625000", "182601.115000", "182602.605000", "182604.095000", "182605.585000", "182607.075000", "182608.565000", "182610.055000", "182611.545000", "182613.035000", "182614.525000", "182616.015000", "182617.505000", "182618.995000", "182620.485000", "182621.975000", "182623.465000", "182624.955000", "182626.445000", "182627.935000", "182629.425000", "182630.915000", "182632.405000", "182633.895000", "182635.385000", "182636.875000", "182638.365000", "182639.855000", "182641.345000", "182642.835000", "182644.325000", "182645.815000", "182647.305000", "182648.795000", "182650.285000", "182651.775000", "182653.265000", "182654.755000", "182656.245000", "182657.735000", "182659.225000", "182700.715000", "182702.205000", "182703.695000", "182705.185000", "182706.675000", "182708.165000", "182709.655000", "182711.145000", "182712.635000", "182714.125000", "182715.615000", "182717.105000", "182718.595000", "182720.085000", "182721.575000", "182723.065000", "182724.555000", "182726.045000", "182727.535000", "182729.025000", "182730.515000", "182732.005000", "182733.495000", "182734.985000", "182736.475000", "182737.965000", "182739.455000", "182740.945000", "182742.435000", "182743.925000", "182745.415000", "182746.905000", "182748.395000", "182749.885000", "182751.375000", "182752.865000", "182754.355000", "182755.845000", "182757.335000", "182758.825000", "182800.315000", "182801.805000", "182803.295000", "182804.785000", "182806.275000", "182807.765000", "182809.255000", "182810.745000", "182812.235000", "182813.725000", "182815.215000", "182816.705000", "182818.195000", "182819.685000", "182821.175000", "182822.665000", "182824.155000", "182825.645000", "182827.135000", "182828.625000", "182830.115000", "182831.605000", "182833.095000", "182834.585000"],
      "ContentTime": ["182455.550000", "182455.554000", "182455.557000", "182455.565000", "182515.515000", "182515.519000", "182515.522000", "182515.525000", "182515.528000", "182515.531000", "182515.535000", "182515.538000", "182515.541000", "182515.544000", "182515.548000", "182515.551000", "182515.554000", "182515.557000", "182515.560000", "182515.564000", "182515.567000", "182515.570000", "182515.574000", "182515.577000", "182535.514000", "182535.518000", "182535.521000", "182535.524000", "182535.527000", "182535.531000", "182535.534000", "182535.537000", "182535.540000", "182535.543000", "182535.547000", "182535.550000", "182535.553000", "182535.556000", "182535.560000", "182535.563000", "182535.566000", "182535.569000", "182535.573000", "182535.576000", "182555.514000", "182555.518000", "182555.521000", "182555.524000", "182555.527000", "182555.530000", "182555.534000", "182555.537000", "182555.540000", "182555.555000", "182555.559000", "182555.562000", "182555.565000", "182555.569000", "182555.572000", "182555.575000", "182555.578000", "182555.582000", "182555.586000", "182555.589000", "182555.592000", "182615.514000", "182615.518000", "182615.521000", "182615.524000", "182615.528000", "182615.531000", "182615.534000", "182615.537000", "182615.540000", "182615.544000", "182615.547000", "182615.550000", "182615.553000", "182615.557000", "182615.560000", "182615.563000", "182615.567000", "182615.570000", "182615.573000", "182615.576000", "182635.514000", "182635.518000", "182635.521000", "182635.524000", "182635.527000", "182635.531000", "182635.534000", "182635.537000", "182635.540000", "182635.544000", "182635.547000", "182635.550000", "182635.553000", "182635.557000", "182635.560000", "182635.563000", "182635.566000", "182635.570000", "182635.573000", "182635.576000", "182715.515000", "182715.519000", "182715.522000", "182715.525000", "182715.529000", "182715.532000", "182715.535000", "182715.538000", "182715.541000", "182715.545000", "182715.548000", "182715.551000", "182715.555000", "182715.558000", "182715.561000", "182715.564000", "182715.568000", "182715.571000", "182715.574000", "182715.577000", "182715.587000", "182715.590000", "182715.594000", "182715.597000", "182715.600000", "182715.609000", "182715.612000", "182715.616000", "182715.619000", "182715.622000", "182755.514000", "182755.518000", "182755.521000", "182755.524000", "182755.528000", "182755.531000", "182755.534000", "182755.537000", "182755.541000", "182755.544000", "182755.547000", "182755.550000", "182755.554000", "182755.557000", "182755.560000", "182755.563000", "182755.567000", "182755.570000", "182755.573000", "182755.591000", "182755.594000", "182755.597000", "182755.601000", "182755.604000", "182755.607000", "182755.610000", "182755.614000", "182835.514000", "182835.518000", "182835.521000", "182835.524000", "182835.528000", "182835.531000", "182835.534000", "182835.537000", "182835.541000", "182835.544000", "182835.547000", "182835.550000", "182835.554000", "182835.557000", "182835.561000", "182835.564000", "182835.567000", "182835.571000", "182835.574000", "182835.577000", "182835.581000", "182835.584000", "182835.587000", "182835.591000", "182835.594000", "182835.597000", "182837.123000", "182837.126000"],
      "InstanceCreationTime": ["182455.550000", "182455.554000", "182455.557000", "182455.565000", "182515.515000", "182515.519000", "182515.522000", "182515.525000", "182515.528000", "182515.531000", "182515.535000", "182515.538000", "182515.541000", "182515.544000", "182515.548000", "182515.551000", "182515.554000", "182515.557000", "182515.560000", "182515.564000", "182515.567000", "182515.570000", "182515.574000", "182515.577000", "182535.514000", "182535.518000", "182535.521000", "182535.524000", "182535.527000", "182535.531000", "182535.534000", "182535.537000", "182535.540000", "182535.543000", "182535.547000", "182535.550000", "182535.553000", "182535.556000", "182535.560000", "182535.563000", "182535.566000", "182535.569000", "182535.573000", "182535.576000", "182555.514000", "182555.518000", "182555.521000", "182555.524000", "182555.527000", "182555.530000", "182555.534000", "182555.537000", "182555.540000", "182555.555000", "182555.559000", "182555.562000", "182555.565000", "182555.569000", "182555.572000", "182555.575000", "182555.578000", "182555.582000", "182555.586000", "182555.589000", "182555.592000", "182615.514000", "182615.518000", "182615.521000", "182615.524000", "182615.528000", "182615.531000", "182615.534000", "182615.537000", "182615.540000", "182615.544000", "182615.547000", "182615.550000", "182615.553000", "182615.557000", "182615.560000", "182615.563000", "182615.567000", "182615.570000", "182615.573000", "182615.576000", "182635.514000", "182635.518000", "182635.521000", "182635.524000", "182635.527000", "182635.531000", "182635.534000", "182635.537000", "182635.540000", "182635.544000", "182635.547000", "182635.550000", "182635.553000", "182635.557000", "182635.560000", "182635.563000", "182635.566000", "182635.570000", "182635.573000", "182635.576000", "182715.515000", "182715.519000", "182715.522000", "182715.525000", "182715.529000", "182715.532000", "182715.535000", "182715.538000", "182715.541000", "182715.545000", "182715.548000", "182715.551000", "182715.555000", "182715.558000", "182715.561000", "182715.564000", "182715.568000", "182715.571000", "182715.574000", "182715.577000", "182715.587000", "182715.590000", "182715.594000", "182715.597000", "182715.600000", "182715.609000", "182715.612000", "182715.616000", "182715.619000", "182715.622000", "182755.514000", "182755.518000", "182755.521000", "182755.524000", "182755.528000", "182755.531000", "182755.534000", "182755.537000", "182755.541000", "182755.544000", "182755.547000", "182755.550000", "182755.554000", "182755.557000", "182755.560000", "182755.563000", "182755.567000", "182755.570000", "182755.573000", "182755.591000", "182755.594000", "182755.597000", "182755.601000", "182755.604000", "182755.607000", "182755.610000", "182755.614000", "182835.514000", "182835.518000", "182835.521000", "182835.524000", "182835.528000", "182835.531000", "182835.534000", "182835.537000", "182835.541000", "182835.544000", "182835.547000", "182835.550000", "182835.554000", "182835.557000", "182835.561000", "182835.564000", "182835.567000", "182835.571000", "182835.574000", "182835.577000", "182835.581000", "182835.584000", "182835.587000", "182835.591000", "182835.594000", "182835.597000", "182837.123000", "182837.126000"],
      "InstanceNumber": [1, 2, 3, 4, 5, 6, 7, 8, 9, 10, 11, 12, 13, 14, 15, 16, 17, 18, 19, 20, 21, 22, 23, 24, 25, 26, 27, 28, 29, 30, 31, 32, 33, 34, 35, 36, 37, 38, 39, 40, 41, 42, 43, 44, 45, 46, 47, 48, 49, 50, 51, 52, 53, 54, 55, 56, 57, 58, 59, 60, 61, 62, 63, 64, 65, 66, 67, 68, 69, 70, 71, 72, 73, 74, 75, 76, 77, 78, 79, 80, 81, 82, 83, 84, 85, 86, 87, 88, 89, 90, 91, 92, 93, 94, 95, 96, 97, 98, 99, 100, 101, 102, 103, 104, 105, 106, 107, 108, 109, 110, 111, 112, 113, 114, 115, 116, 117, 118, 119, 120, 121, 122, 123, 124, 125, 126, 127, 128, 129, 130, 131, 132, 133, 134, 135, 136, 137, 138, 139, 140, 141, 142, 143, 144, 145, 146, 147, 148, 149, 150, 151, 152, 153, 154, 155, 156, 157, 158, 159, 160, 161, 162, 163, 164, 165, 166, 167, 168, 169, 170, 171, 172, 173, 174, 175, 176, 177, 178, 179, 180, 181, 182, 183, 184, 185, 186, 187, 188, 189, 190],
      "LargestImagePixelValue": [44286, 43218, 42724, 41792, 42207, 42742, 44260, 43450, 41550, 39108, 38824, 39535, 38623, 39880, 39106, 40878, 42241, 42578, 41079, 39430, 38351, 38977, 39317, 39621, 39988, 39436, 40907, 40175, 39481, 39449, 38495, 37586, 38342, 38591, 38204, 37943, 38360, 37784, 37833, 38014, 38514, 39010, 38709, 38401, 37710, 37829, 37821, 37758, 37419, 38697, 37763, 38165, 38627, 38109, 37778, 37634, 37919, 37860, 38335, 37835, 37894, 38233, 38098, 37915, 38696, 38901, 38684, 40170, 40297, 39346, 38485, 37756, 38292, 37884, 37730, 39083, 37949, 37997, 38448, 38122, 39621, 41443, 40235, 38210, 37621, 37990, 38085, 38874, 40183, 38482, 37301, 38373, 38045, 38846, 38174, 37791, 39117, 38701, 39645, 39670, 39322, 37775, 37735, 38292, 40131, 41272, 40747, 42386, 41711, 41773, 41521, 40672, 41231, 40741, 40904, 40381, 44636, 40434, 41097, 40819, 41212, 41185, 41135, 41278, 40472, 46793, 41473, 40422, 40410, 40749, 41064, 40858, 40922, 46873, 40490, 40849, 39037, 38839, 41302, 39627, 40692, 40256, 40007, 40034, 39063, 40226, 39897, 39706, 40099, 39245, 39579, 39466, 39948, 40993, 40589, 40078, 40014, 40369, 40667, 40025, 40599, 40811, 40916, 40431, 40365, 40090, 40306, 40163, 41159, 41114, 41251, 41249, 42097, 38534, 40173, 39407, 40700, 40259, 41231, 40582, 40878, 41829, 39444, 39578, 39227, 39114, 40979, 38932, 40211, 40411],
      "WindowCenter": [10491.0, 10455.0, 10412.0, 10376.0, 10353.0, 10371.0, 10408.0, 10410.0, 10387.0, 10362.0, 10360.0, 10373.0, 10361.0, 10365.0, 10350.0, 10363.0, 10378.0, 10356.0, 10326.0, 10301.0, 10307.0, 10339.0, 10359.0, 10358.0, 10347.0, 10334.0, 10334.0, 10306.0, 10282.0, 10281.0, 10285.0, 10295.0, 10323.0, 10335.0, 10332.0, 10336.0, 10332.0, 10316.0, 10305.0, 10311.0, 10336.0, 10356.0, 10361.0, 10349.0, 10328.0, 10308.0, 10288.0, 10286.0, 10287.0, 10327.0, 10317.0, 10315.0, 10313.0, 10297.0, 10299.0, 10315.0, 10320.0, 10329.0, 10343.0, 10339.0, 10335.0, 10347.0, 10367.0, 10364.0, 10365.0, 10361.0, 10364.0, 10396.0, 10409.0, 10409.0, 10391.0, 10364.0, 10342.0, 10322.0, 10320.0, 10341.0, 10356.0, 10376.0, 10373.0, 10342.0, 10338.0, 10367.0, 10376.0, 10349.0, 10326.0, 10309.0, 10307.0, 10323.0, 10335.0, 10332.0, 10329.0, 10331.0, 10319.0, 10320.0, 10288.0, 10263.0, 10269.0, 10263.0, 10286.0, 10310.0, 10325.0, 10327.0, 10328.0, 10313.0, 10318.0, 10335.0, 10345.0, 10362.0, 10357.0, 10359.0, 10342.0, 10338.0, 10351.0, 10345.0, 10335.0, 10329.0, 10367.0, 10325.0, 10331.0, 10341.0, 10358.0, 10351.0, 10344.0, 10348.0, 10354.0, 10424.0, 10377.0, 10357.0, 10355.0, 10352.0, 10350.0, 10348.0, 10360.0, 10424.0, 10353.0, 10351.0, 10326.0, 10316.0, 10345.0, 10330.0, 10330.0, 10316.0, 10325.0, 10333.0, 10342.0, 10336.0, 10311.0, 10293.0, 10286.0, 10273.0, 10288.0, 10325.0, 10346.0, 10348.0, 10326.0, 10306.0, 10303.0, 10302.0, 10317.0, 10336.0, 10342.0, 10327.0, 10326.0, 10306.0, 10311.0, 10314.0, 10334.0, 10325.0, 10335.0, 10336.0, 10342.0, 10342.0, 10368.0, 10331.0, 10323.0, 10303.0, 10309.0, 10302.0, 10314.0, 10311.0, 10338.0, 10292.0, 10312.0, 10297.0, 10290.0, 10307.0, 10318.0, 10277.0, 10282.0, 10273.0],
      "WindowWidth": [22278.0, 22176.0, 22068.0, 21976.0, 21920.0, 21956.0, 22039.0, 22044.0, 21998.0, 21955.0, 21954.0, 21977.0, 21952.0, 21959.0, 21922.0, 21943.0, 21975.0, 21927.0, 21864.0, 21816.0, 21832.0, 21902.0, 21946.0, 21937.0, 21905.0, 21876.0, 21876.0, 21815.0, 21768.0, 21766.0, 21780.0, 21807.0, 21866.0, 21892.0, 21882.0, 21894.0, 21890.0, 21857.0, 21837.0, 21848.0, 21905.0, 21942.0, 21954.0, 21926.0, 21879.0, 21829.0, 21785.0, 21781.0, 21791.0, 21871.0, 21852.0, 21847.0, 21843.0, 21803.0, 21809.0, 21848.0, 21862.0, 21880.0, 21912.0, 21907.0, 21900.0, 21927.0, 21977.0, 21972.0, 21967.0, 21954.0, 21964.0, 22030.0, 22059.0, 22063.0, 22028.0, 21964.0, 21907.0, 21861.0, 21857.0, 21904.0, 21942.0, 21987.0, 21973.0, 21905.0, 21887.0, 21944.0, 21974.0, 21927.0, 21876.0, 21829.0, 21822.0, 21856.0, 21874.0, 21883.0, 21885.0, 21885.0, 21861.0, 21853.0, 21784.0, 21722.0, 21727.0, 21717.0, 21768.0, 21824.0, 21866.0, 21878.0, 21883.0, 21840.0, 21842.0, 21877.0, 21904.0, 21930.0, 21922.0, 21931.0, 21887.0, 21883.0, 21908.0, 21897.0, 21870.0, 21862.0, 21942.0, 21852.0, 21867.0, 21891.0, 21935.0, 21920.0, 21898.0, 21905.0, 21933.0, 22069.0, 21971.0, 21931.0, 21927.0, 21917.0, 21909.0, 21902.0, 21935.0, 22072.0, 21919.0, 21912.0, 21865.0, 21842.0, 21904.0, 21877.0, 21870.0, 21830.0, 21851.0, 21870.0, 21901.0, 21877.0, 21821.0, 21778.0, 21759.0, 21732.0, 21768.0, 21859.0, 21905.0, 21902.0, 21851.0, 21808.0, 21800.0, 21802.0, 21838.0, 21888.0, 21903.0, 21869.0, 21848.0, 21807.0, 21820.0, 21831.0, 21877.0, 21865.0, 21871.0, 21872.0, 21882.0, 21882.0, 21954.0, 21881.0, 21845.0, 21808.0, 21815.0, 21794.0, 21820.0, 21817.0, 21883.0, 21778.0, 21827.0, 21786.0, 21774.0, 21812.0, 21836.0, 21750.0, 21747.0, 21723.0]
    },
    "slices": {}
  }
}