{
  "AcquisitionMatrixPE": 104,
  "AcquisitionNumber": 1,
  "AcquisitionTime": "18:23:52.975000",
  "BandwidthPerPixelPhaseEncode": 17.17,
  "BaseResolution": 104,
  "BodyPartExamined": "BRAIN",
  "CoilString": "HC1-7;NC1_2",
  "ConsistencyInfo": "N4_VE11C_LATEST_20160120",
  "ConversionSoftware": "dcm2niix",
  "ConversionSoftwareVersion": "v1.0.20190902",
  "DerivedVendorReportedEchoSpacing": 0.000560011,
  "DeviceSerialNumber": "167006",
  "DwellTime": 2.1e-06,
  "EchoTime": 0.037,
  "EchoTrainLength": 104,
  "EffectiveEchoSpacing": 0.000560011,
  "FlipAngle": 52,
  "HeudiconvVersion": "0.10.0",
  "ImageComments": "Unaliased_MB4_PE3_LB",
  "ImageOrientationPatientDICOM": [0.995642, 0.0886085, 0.0290746, -0.0724166, 0.931051, -0.35763],
  "ImageType": [
    "ORIGINAL",
    "PRIMARY",
    "P",
    "MB",
    "ND",
    "MOSAIC"
],
  "ImagingFrequency": 123.259,
  "InPlanePhaseEncodingDirectionDICOM": "COL",
  "InstitutionAddress": "Chemin_Queen-Mary_4565_Montreal_District_CA_H3W_1W5",
  "InstitutionName": "IUGM",
  "InstitutionalDepartmentName": "Department",
  "MRAcquisitionType": "2D",
  "MagneticFieldStrength": 3,
  "Manufacturer": "Siemens",
  "ManufacturersModelName": "Prisma_fit",
  "Modality": "MR",
  "MultibandAccelerationFactor": 4,
  "PartialFourier": 1,
  "PatientPosition": "HFS",
  "PercentPhaseFOV": 100,
  "PhaseEncodingDirection": "j",
  "PhaseEncodingSteps": 104,
  "PhaseResolution": 1,
  "PixelBandwidth": 2290,
  "ProcedureStepDescription": "memory_things",
  "ProtocolName": "func_task-things_run-5",
  "PulseSequenceDetails": "%CustomerSeq%_cmrr_mbep2d_bold",
  "ReceiveCoilActiveElements": "HC1-7;NC1,2",
  "ReceiveCoilName": "HeadNeck_64",
  "ReconMatrixPE": 104,
  "RepetitionTime": 1.49,
  "SAR": 0.0585802,
  "ScanOptions": "FS",
  "ScanningSequence": "EP",
  "SequenceName": "epfid2d1_104",
  "SequenceVariant": "SK_SS",
  "SeriesDescription": "func_task-things_run-5",
  "SeriesNumber": 23,
  "ShimSetting": [633, -7188, -8801, 662, 89, 19, -39, -3],
  "SliceThickness": 2,
  "SliceTiming": [0, 0.7825, 0.0975, 0.8825, 0.195, 0.98, 0.2925, 1.0775, 0.3925, 1.175, 0.49, 1.2725, 0.5875, 1.3725, 0.685, 0, 0.7825, 0.0975, 0.8825, 0.195, 0.98, 0.2925, 1.0775, 0.3925, 1.175, 0.49, 1.2725, 0.5875, 1.3725, 0.685, 0, 0.7825, 0.0975, 0.8825, 0.195, 0.98, 0.2925, 1.0775, 0.3925, 1.175, 0.49, 1.2725, 0.5875, 1.3725, 0.685, 0, 0.7825, 0.0975, 0.8825, 0.195, 0.98, 0.2925, 1.0775, 0.3925, 1.175, 0.49, 1.2725, 0.5875, 1.3725, 0.685],
  "SoftwareVersions": "syngo_MR_E11",
  "SpacingBetweenSlices": 2,
  "StationName": "MRC35049",
  "TaskName": "things",
  "TotalReadoutTime": 0.0576811,
  "TxRefAmp": 295.506,
  "WipMemBlock": "bf7d076f-e88c-4ebc-8c41-c6dc40d24ebe||Sequence: R016 ve11c/master r/e634e98; Dec 19 2017 11:00:25 by eja",
  "dcmmeta_affine": [
    [-1.9912842512130737, -0.1448332816362381, 0.11751798540353775, 110.24864196777344],
    [-0.17721690237522125, 1.8621025085449219, -0.7079325914382935, -49.9926643371582],
    [0.05814916267991066, 0.7152605652809143, 1.8668211698532104, -60.228179931640625],
    [0.0, 0.0, 0.0, 1.0]
],
  "dcmmeta_reorient_transform": [
    [0.0, -1.0, 0.0, 103.0],
    [1.0, 0.0, 0.0, 0.0],
    [0.0, 0.0, 1.0, 0.0],
    [0.0, 0.0, 0.0, 1.0]
],
  "dcmmeta_shape": [104, 104, 60, 190],
  "dcmmeta_slice_dim": 2,
  "dcmmeta_version": 0.6,
  "global": {
    "const": {
      "AcquisitionMatrix": [104, 0, 0, 104],
      "AngioFlag": "N",
      "BitsAllocated": 16,
      "BitsStored": 16,
      "BodyPartExamined": "BRAIN",
      "Columns": 832,
      "EchoNumbers": 1,
      "EchoTime": 37.0,
      "EchoTrainLength": 104,
      "FlipAngle": 52.0,
      "HighBit": 15,
      "ImageOrientationPatient": [0.99564211011378, 0.08860844918262, 0.02907458171023, -0.0724166384269, 0.9310512343753, -0.3576302971606],
      "ImagePositionPatient": [-767.43895561219, -884.11613787864, 252.63222190814],
      "ImageType": [
        "ORIGINAL",
        "PRIMARY",
        "P",
        "MB",
        "ND",
        "MOSAIC"
],
      "ImagedNucleus": "1H",
      "ImagingFrequency": 123.258877,
      "InPlanePhaseEncodingDirection": "COL",
      "LargestImagePixelValue": 4095,
      "MRAcquisitionType": "2D",
      "MagneticFieldStrength": 3.0,
      "Manufacturer": "SIEMENS",
      "ManufacturerModelName": "Prisma_fit",
      "Modality": "MR",
      "NumberOfAverages": 1.0,
      "NumberOfPhaseEncodingSteps": 104,
      "PercentPhaseFieldOfView": 100.0,
      "PercentSampling": 100.0,
      "PerformedProcedureStepStartTime": "170913.226000",
      "PhotometricInterpretation": "MONOCHROME2",
      "PixelBandwidth": 2290.0,
      "PixelRepresentation": 0,
      "PixelSpacing": [2.0, 2.0],
      "ProtocolName": "func_task-things_run-5",
      "RepetitionTime": 1490.0,
      "RescaleIntercept": -4096.0,
      "RescaleSlope": 2.0,
      "RescaleType": "US",
      "Rows": 832,
      "SAR": 0.05858015540803,
      "SamplesPerPixel": 1,
      "ScanOptions": "FS",
      "ScanningSequence": "EP",
      "SequenceName": "epfid2d1_104",
      "SequenceVariant": [
        "SK",
        "SS"
],
      "SeriesDescription": "func_task-things_run-5",
      "SeriesNumber": 23,
      "SeriesTime": "182455.586000",
      "SliceLocation": -32.043800373431,
      "SliceThickness": 2.0,
      "SmallestImagePixelValue": 0,
      "SoftwareVersions": "syngo MR E11",
      "SpacingBetweenSlices": 2.0000000350292,
      "SpecificCharacterSet": "ISO_IR 100",
      "StudyID": "1",
      "StudyTime": "170913.080000",
      "TransmitCoilName": "Body",
      "VariableFlipAngleFlag": "N",
      "WindowCenterWidthExplanation": "Algo1",
      "dBdt": 0.0},
    "slices": {}
  },
  "time": {
    "samples": {
      "AcquisitionNumber": [1, 2, 3, 4, 5, 6, 7, 8, 9, 10, 11, 12, 13, 14, 15, 16, 17, 18, 19, 20, 21, 22, 23, 24, 25, 26, 27, 28, 29, 30, 31, 32, 33, 34, 35, 36, 37, 38, 39, 40, 41, 42, 43, 44, 45, 46, 47, 48, 49, 50, 51, 52, 53, 54, 55, 56, 57, 58, 59, 60, 61, 62, 63, 64, 65, 66, 67, 68, 69, 70, 71, 72, 73, 74, 75, 76, 77, 78, 79, 80, 81, 82, 83, 84, 85, 86, 87, 88, 89, 90, 91, 92, 93, 94, 95, 96, 97, 98, 99, 100, 101, 102, 103, 104, 105, 106, 107, 108, 109, 110, 111, 112, 113, 114, 115, 116, 117, 118, 119, 120, 121, 122, 123, 124, 125, 126, 127, 128, 129, 130, 131, 132, 133, 134, 135, 136, 137, 138, 139, 140, 141, 142, 143, 144, 145, 146, 147, 148, 149, 150, 151, 152, 153, 154, 155, 156, 157, 158, 159, 160, 161, 162, 163, 164, 165, 166, 167, 168, 169, 170, 171, 172, 173, 174, 175, 176, 177, 178, 179, 180, 181, 182, 183, 184, 185, 186, 187, 188, 189, 190],
      "AcquisitionTime": ["182352.975000", "182354.465000", "182355.955000", "182357.445000", "182358.935000", "182400.425000", "182401.915000", "182403.405000", "182404.895000", "182406.385000", "182407.875000", "182409.365000", "182410.855000", "182412.345000", "182413.835000", "182415.325000", "182416.815000", "182418.305000", "182419.795000", "182421.285000", "182422.775000", "182424.265000", "182425.755000", "182427.245000", "182428.735000", "182430.225000", "182431.715000", "182433.205000", "182434.695000", "182436.185000", "182437.675000", "182439.165000", "182440.655000", "182442.145000", "182443.635000", "182445.125000", "182446.615000", "182448.105000", "182449.595000", "182451.085000", "182452.575000", "182454.065000", "182455.555000", "182457.045000", "182458.535000", "182500.025000", "182501.515000", "182503.005000", "182504.495000", "182505.985000", "182507.475000", "182508.965000", "182510.455000", "182511.945000", "182513.435000", "182514.925000", "182516.415000", "182517.905000", "182519.395000", "182520.885000", "182522.375000", "182523.865000", "182525.355000", "182526.845000", "182528.335000", "182529.825000", "182531.315000", "182532.805000", "182534.295000", "182535.785000", "182537.275000", "182538.765000", "182540.255000", "182541.745000", "182543.235000", "182544.725000", "182546.215000", "182547.705000", "182549.195000", "182550.685000", "182552.175000", "182553.665000", "182555.155000", "182556.645000", "182558.135000", "182559.625000", "182601.115000", "182602.605000", "182604.095000", "182605.585000", "182607.075000", "182608.565000", "182610.055000", "182611.545000", "182613.035000", "182614.525000", "182616.015000", "182617.505000", "182618.995000", "182620.485000", "182621.975000", "182623.465000", "182624.955000", "182626.445000", "182627.935000", "182629.425000", "182630.915000", "182632.405000", "182633.895000", "182635.385000", "182636.875000", "182638.365000", "182639.855000", "182641.345000", "182642.835000", "182644.325000", "182645.815000", "182647.305000", "182648.795000", "182650.285000", "182651.775000", "182653.265000", "182654.755000", "182656.245000", "182657.735000", "182659.225000", "182700.715000", "182702.205000", "182703.695000", "182705.185000", "182706.675000", "182708.165000", "182709.655000", "182711.145000", "182712.635000", "182714.125000", "182715.615000", "182717.105000", "182718.595000", "182720.085000", "182721.575000", "182723.065000", "182724.555000", "182726.045000", "182727.535000", "182729.025000", "182730.515000", "182732.005000", "182733.495000", "182734.985000", "182736.475000", "182737.965000", "182739.455000", "182740.945000", "182742.435000", "182743.925000", "182745.415000", "182746.905000", "182748.395000", "182749.885000", "182751.375000", "182752.865000", "182754.355000", "182755.845000", "182757.335000", "182758.825000", "182800.315000", "182801.805000", "182803.295000", "182804.785000", "182806.275000", "182807.765000", "182809.255000", "182810.745000", "182812.235000", "182813.725000", "182815.215000", "182816.705000", "182818.195000", "182819.685000", "182821.175000", "182822.665000", "182824.155000", "182825.645000", "182827.135000", "182828.625000", "182830.115000", "182831.605000", "182833.095000", "182834.585000"],
      "ContentTime": ["182455.588000", "182455.591000", "182455.594000", "182455.596000", "182515.620000", "182515.623000", "182515.635000", "182515.637000", "182515.639000", "182515.642000", "182515.644000", "182515.647000", "182515.649000", "182515.651000", "182515.654000", "182515.656000", "182515.659000", "182515.661000", "182515.664000", "182515.666000", "182515.669000", "182515.671000", "182515.673000", "182515.676000", "182535.990000", "182535.993000", "182535.996000", "182535.998000", "182536.002000", "182536.004000", "182536.006000", "182536.009000", "182536.011000", "182536.014000", "182536.016000", "182536.019000", "182536.021000", "182536.024000", "182536.026000", "182536.029000", "182536.031000", "182536.034000", "182536.036000", "182536.039000", "182555.635000", "182555.638000", "182555.640000", "182555.643000", "182555.645000", "182555.648000", "182555.650000", "182555.653000", "182555.655000", "182555.658000", "182555.660000", "182555.662000", "182555.665000", "182555.667000", "182555.670000", "182555.672000", "182555.675000", "182555.677000", "182555.680000", "182555.682000", "182555.685000", "182615.623000", "182615.626000", "182615.628000", "182615.631000", "182615.633000", "182615.636000", "182615.638000", "182615.640000", "182615.643000", "182615.645000", "182615.648000", "182615.650000", "182615.655000", "182615.658000", "182615.660000", "182615.663000", "182615.665000", "182615.667000", "182615.670000", "182615.672000", "182635.616000", "182635.619000", "182635.621000", "182635.624000", "182635.626000", "182635.629000", "182635.631000", "182635.634000", "182635.636000", "182635.639000", "182635.641000", "182635.644000", "182635.646000", "182635.649000", "182635.651000", "182635.653000", "182635.656000", "182635.658000", "182635.661000", "182635.663000", "182715.671000", "182715.674000", "182715.676000", "182715.679000", "182715.681000", "182715.684000", "182715.686000", "182715.689000", "182715.691000", "182715.694000", "182715.696000", "182715.699000", "182715.701000", "182715.704000", "182715.706000", "182715.709000", "182715.711000", "182715.714000", "182715.716000", "182715.719000", "182715.721000", "182715.724000", "182715.726000", "182715.729000", "182715.731000", "182715.734000", "182715.736000", "182715.739000", "182715.741000", "182715.744000", "182755.667000", "182755.670000", "182755.672000", "182755.675000", "182755.677000", "182755.680000", "182755.682000", "182755.685000", "182755.687000", "182755.690000", "182755.692000", "182755.695000", "182755.697000", "182755.700000", "182755.702000", "182755.705000", "182755.707000", "182755.710000", "182755.712000", "182755.715000", "182755.717000", "182755.720000", "182755.722000", "182755.725000", "182755.727000", "182755.730000", "182755.732000", "182835.651000", "182835.654000", "182835.656000", "182835.659000", "182835.661000", "182835.664000", "182835.666000", "182835.669000", "182835.671000", "182835.674000", "182835.676000", "182835.679000", "182835.681000", "182835.683000", "182835.686000", "182835.688000", "182835.691000", "182835.693000", "182835.696000", "182835.698000", "182835.701000", "182835.703000", "182835.706000", "182835.708000", "182835.710000", "182835.713000", "182837.145000", "182837.148000"],
      "InstanceCreationTime": ["182455.588000", "182455.591000", "182455.594000", "182455.596000", "182515.620000", "182515.623000", "182515.635000", "182515.637000", "182515.639000", "182515.642000", "182515.644000", "182515.647000", "182515.649000", "182515.651000", "182515.654000", "182515.656000", "182515.659000", "182515.661000", "182515.664000", "182515.666000", "182515.669000", "182515.671000", "182515.673000", "182515.676000", "182535.990000", "182535.993000", "182535.996000", "182535.998000", "182536.002000", "182536.004000", "182536.006000", "182536.009000", "182536.011000", "182536.014000", "182536.016000", "182536.019000", "182536.021000", "182536.024000", "182536.026000", "182536.029000", "182536.031000", "182536.034000", "182536.036000", "182536.039000", "182555.635000", "182555.638000", "182555.640000", "182555.643000", "182555.645000", "182555.648000", "182555.650000", "182555.653000", "182555.655000", "182555.658000", "182555.660000", "182555.662000", "182555.665000", "182555.667000", "182555.670000", "182555.672000", "182555.675000", "182555.677000", "182555.680000", "182555.682000", "182555.685000", "182615.623000", "182615.626000", "182615.628000", "182615.631000", "182615.633000", "182615.636000", "182615.638000", "182615.640000", "182615.643000", "182615.645000", "182615.648000", "182615.650000", "182615.655000", "182615.658000", "182615.660000", "182615.663000", "182615.665000", "182615.667000", "182615.670000", "182615.672000", "182635.616000", "182635.619000", "182635.621000", "182635.624000", "182635.626000", "182635.629000", "182635.631000", "182635.634000", "182635.636000", "182635.639000", "182635.641000", "182635.644000", "182635.646000", "182635.649000", "182635.651000", "182635.653000", "182635.656000", "182635.658000", "182635.661000", "182635.663000", "182715.671000", "182715.674000", "182715.676000", "182715.679000", "182715.681000", "182715.684000", "182715.686000", "182715.689000", "182715.691000", "182715.694000", "182715.696000", "182715.699000", "182715.701000", "182715.704000", "182715.706000", "182715.709000", "182715.711000", "182715.714000", "182715.716000", "182715.719000", "182715.721000", "182715.724000", "182715.726000", "182715.729000", "182715.731000", "182715.734000", "182715.736000", "182715.739000", "182715.741000", "182715.744000", "182755.667000", "182755.670000", "182755.672000", "182755.675000", "182755.677000", "182755.680000", "182755.682000", "182755.685000", "182755.687000", "182755.690000", "182755.692000", "182755.695000", "182755.697000", "182755.700000", "182755.702000", "182755.705000", "182755.707000", "182755.710000", "182755.712000", "182755.715000", "182755.717000", "182755.720000", "182755.722000", "182755.725000", "182755.727000", "182755.730000", "182755.732000", "182835.651000", "182835.654000", "182835.656000", "182835.659000", "182835.661000", "182835.664000", "182835.666000", "182835.669000", "182835.671000", "182835.674000", "182835.676000", "182835.679000", "182835.681000", "182835.683000", "182835.686000", "182835.688000", "182835.691000", "182835.693000", "182835.696000", "182835.698000", "182835.701000", "182835.703000", "182835.706000", "182835.708000", "182835.710000", "182835.713000", "182837.145000", "182837.148000"],
      "InstanceNumber": [1, 2, 3, 4, 5, 6, 7, 8, 9, 10, 11, 12, 13, 14, 15, 16, 17, 18, 19, 20, 21, 22, 23, 24, 25, 26, 27, 28, 29, 30, 31, 32, 33, 34, 35, 36, 37, 38, 39, 40, 41, 42, 43, 44, 45, 46, 47, 48, 49, 50, 51, 52, 53, 54, 55, 56, 57, 58, 59, 60, 61, 62, 63, 64, 65, 66, 67, 68, 69, 70, 71, 72, 73, 74, 75, 76, 77, 78, 79, 80, 81, 82, 83, 84, 85, 86, 87, 88, 89, 90, 91, 92, 93, 94, 95, 96, 97, 98, 99, 100, 101, 102, 103, 104, 105, 106, 107, 108, 109, 110, 111, 112, 113, 114, 115, 116, 117, 118, 119, 120, 121, 122, 123, 124, 125, 126, 127, 128, 129, 130, 131, 132, 133, 134, 135, 136, 137, 138, 139, 140, 141, 142, 143, 144, 145, 146, 147, 148, 149, 150, 151, 152, 153, 154, 155, 156, 157, 158, 159, 160, 161, 162, 163, 164, 165, 166, 167, 168, 169, 170, 171, 172, 173, 174, 175, 176, 177, 178, 179, 180, 181, 182, 183, 184, 185, 186, 187, 188, 189, 190],
      "WindowCenter": [4820.0, 4818.0, 4824.0, 4826.0, 4850.0, 4852.0, 4822.0, 4816.0, 4816.0, 4818.0, 4816.0, 4816.0, 4818.0, 4852.0, 4872.0, 4872.0, 4854.0, 4824.0, 4790.0, 4808.0, 4788.0, 4814.0, 4822.0, 4848.0, 4874.0, 4868.0, 4878.0, 4824.0, 4818.0, 4790.0, 4790.0, 4820.0, 4818.0, 4852.0, 4874.0, 4874.0, 4856.0, 4826.0, 4820.0, 4816.0, 4814.0, 4818.0, 4826.0, 4826.0, 4850.0, 4824.0, 4850.0, 4850.0, 4822.0, 4822.0, 4816.0, 4816.0, 4820.0, 4820.0, 4822.0, 4820.0, 4826.0, 4826.0, 4826.0, 4824.0, 4828.0, 4826.0, 4796.0, 4818.0, 4818.0, 4816.0, 4820.0, 4826.0, 4852.0, 4852.0, 4824.0, 4820.0, 4818.0, 4818.0, 4818.0, 4824.0, 4822.0, 4822.0, 4820.0, 4824.0, 4850.0, 4852.0, 4850.0, 4822.0, 4816.0, 4814.0, 4816.0, 4850.0, 4872.0, 4870.0, 4876.0, 4852.0, 4826.0, 4818.0, 4814.0, 4812.0, 4818.0, 4828.0, 4854.0, 4876.0, 4880.0, 4854.0, 4818.0, 4816.0, 4818.0, 4794.0, 4794.0, 4816.0, 4820.0, 4826.0, 4826.0, 4826.0, 4822.0, 4818.0, 4820.0, 4816.0, 4814.0, 4816.0, 4818.0, 4794.0, 4818.0, 4824.0, 4822.0, 4826.0, 4824.0, 4820.0, 4820.0, 4816.0, 4818.0, 4818.0, 4820.0, 4824.0, 4826.0, 4822.0, 4822.0, 4820.0, 4820.0, 4820.0, 4818.0, 4822.0, 4820.0, 4818.0, 4822.0, 4822.0, 4796.0, 4822.0, 4822.0, 4820.0, 4820.0, 4824.0, 4822.0, 4820.0, 4822.0, 4820.0, 4818.0, 4820.0, 4818.0, 4820.0, 4798.0, 4822.0, 4820.0, 4824.0, 4796.0, 4822.0, 4818.0, 4818.0, 4794.0, 4822.0, 4820.0, 4822.0, 4824.0, 4828.0, 4824.0, 4818.0, 4822.0, 4820.0, 4816.0, 4818.0, 4820.0, 4818.0, 4820.0, 4820.0, 4824.0, 4820.0, 4820.0, 4820.0, 4816.0, 4818.0, 4818.0, 4822.0],
      "WindowWidth": [18586.0, 18582.0, 18590.0, 18590.0, 18624.0, 18624.0, 18586.0, 18590.0, 18594.0, 18602.0, 18590.0, 18584.0, 18586.0, 18630.0, 18678.0, 18676.0, 18630.0, 18590.0, 18568.0, 18604.0, 18570.0, 18594.0, 18588.0, 18624.0, 18680.0, 18672.0, 18672.0, 18588.0, 18596.0, 18566.0, 18570.0, 18602.0, 18586.0, 18626.0, 18674.0, 18678.0, 18632.0, 18586.0, 18586.0, 18594.0, 18594.0, 18594.0, 18592.0, 18594.0, 18622.0, 18594.0, 18624.0, 18622.0, 18582.0, 18592.0, 18584.0, 18584.0, 18588.0, 18584.0, 18584.0, 18588.0, 18588.0, 18590.0, 18590.0, 18588.0, 18592.0, 18588.0, 18554.0, 18586.0, 18588.0, 18584.0, 18582.0, 18590.0, 18634.0, 18632.0, 18588.0, 18582.0, 18586.0, 18586.0, 18584.0, 18584.0, 18586.0, 18588.0, 18586.0, 18590.0, 18626.0, 18630.0, 18626.0, 18586.0, 18588.0, 18590.0, 18586.0, 18630.0, 18676.0, 18678.0, 18668.0, 18624.0, 18596.0, 18598.0, 18608.0, 18598.0, 18588.0, 18590.0, 18630.0, 18674.0, 18680.0, 18622.0, 18582.0, 18592.0, 18592.0, 18558.0, 18564.0, 18584.0, 18584.0, 18594.0, 18592.0, 18594.0, 18586.0, 18584.0, 18578.0, 18584.0, 18584.0, 18586.0, 18586.0, 18556.0, 18580.0, 18586.0, 18586.0, 18594.0, 18590.0, 18584.0, 18584.0, 18582.0, 18584.0, 18590.0, 18584.0, 18588.0, 18592.0, 18584.0, 18582.0, 18584.0, 18582.0, 18586.0, 18584.0, 18586.0, 18586.0, 18582.0, 18590.0, 18590.0, 18548.0, 18586.0, 18592.0, 18586.0, 18590.0, 18586.0, 18590.0, 18582.0, 18590.0, 18584.0, 18584.0, 18584.0, 18582.0, 18584.0, 18552.0, 18584.0, 18584.0, 18582.0, 18552.0, 18582.0, 18584.0, 18582.0, 18550.0, 18586.0, 18588.0, 18590.0, 18592.0, 18592.0, 18582.0, 18580.0, 18588.0, 18584.0, 18582.0, 18582.0, 18582.0, 18582.0, 18586.0, 18582.0, 18590.0, 18588.0, 18582.0, 18580.0, 18580.0, 18580.0, 18584.0, 18588.0]
    },
    "slices": {}
  }
}