{
  "AcquisitionMatrixPE": 104,
  "AcquisitionNumber": 1,
  "AcquisitionTime": "17:48:39.732500",
  "BandwidthPerPixelPhaseEncode": 17.17,
  "BaseResolution": 104,
  "BodyPartExamined": "BRAIN",
  "CoilString": "HC1-7;NC1_2",
  "ConsistencyInfo": "N4_VE11C_LATEST_20160120",
  "ConversionSoftware": "dcm2niix",
  "ConversionSoftwareVersion": "v1.0.20190902",
  "DerivedVendorReportedEchoSpacing": 0.000560011,
  "DeviceSerialNumber": "167006",
  "DwellTime": 2.1e-06,
  "EchoTime": 0.037,
  "EchoTrainLength": 104,
  "EffectiveEchoSpacing": 0.000560011,
  "FlipAngle": 52,
  "HeudiconvVersion": "0.10.0",
  "ImageComments": "Unaliased_MB4_PE3_LB",
  "ImageOrientationPatientDICOM": [0.995642, 0.0886085, 0.0290746, -0.0724166, 0.931051, -0.35763],
  "ImageType": [
    "ORIGINAL",
    "PRIMARY",
    "P",
    "MB",
    "ND",
    "MOSAIC"
],
  "ImagingFrequency": 123.259,
  "InPlanePhaseEncodingDirectionDICOM": "COL",
  "InstitutionAddress": "Chemin_Queen-Mary_4565_Montreal_District_CA_H3W_1W5",
  "InstitutionName": "IUGM",
  "InstitutionalDepartmentName": "Department",
  "MRAcquisitionType": "2D",
  "MagneticFieldStrength": 3,
  "Manufacturer": "Siemens",
  "ManufacturersModelName": "Prisma_fit",
  "Modality": "MR",
  "MultibandAccelerationFactor": 4,
  "PartialFourier": 1,
  "PatientPosition": "HFS",
  "PercentPhaseFOV": 100,
  "PhaseEncodingDirection": "j",
  "PhaseEncodingSteps": 104,
  "PhaseResolution": 1,
  "PixelBandwidth": 2290,
  "ProcedureStepDescription": "memory_things",
  "ProtocolName": "func_task-things_run-1",
  "PulseSequenceDetails": "%CustomerSeq%_cmrr_mbep2d_bold",
  "ReceiveCoilActiveElements": "HC1-7;NC1,2",
  "ReceiveCoilName": "HeadNeck_64",
  "ReconMatrixPE": 104,
  "RepetitionTime": 1.49,
  "SAR": 0.0585802,
  "ScanOptions": "FS",
  "ScanningSequence": "EP",
  "SequenceName": "epfid2d1_104",
  "SequenceVariant": "SK_SS",
  "SeriesDescription": "func_task-things_run-1",
  "SeriesNumber": 11,
  "ShimSetting": [633, -7188, -8801, 662, 89, 19, -39, -3],
  "SliceThickness": 2,
  "SliceTiming": [0, 0.7825, 0.0975, 0.88, 0.195, 0.98, 0.2925, 1.0775, 0.39, 1.175, 0.49, 1.2725, 0.5875, 1.37, 0.685, 0, 0.7825, 0.0975, 0.88, 0.195, 0.98, 0.2925, 1.0775, 0.39, 1.175, 0.49, 1.2725, 0.5875, 1.37, 0.685, 0, 0.7825, 0.0975, 0.88, 0.195, 0.98, 0.2925, 1.0775, 0.39, 1.175, 0.49, 1.2725, 0.5875, 1.37, 0.685, 0, 0.7825, 0.0975, 0.88, 0.195, 0.98, 0.2925, 1.0775, 0.39, 1.175, 0.49, 1.2725, 0.5875, 1.37, 0.685],
  "SoftwareVersions": "syngo_MR_E11",
  "SpacingBetweenSlices": 2,
  "StationName": "MRC35049",
  "TaskName": "things",
  "TotalReadoutTime": 0.0576811,
  "TxRefAmp": 295.506,
  "WipMemBlock": "397345c6-918a-4c58-a118-97beb03fb65e||Sequence: R016 ve11c/master r/e634e98; Dec 19 2017 11:00:25 by eja",
  "dcmmeta_affine": [
    [-1.9912842512130737, -0.1448332816362381, 0.11751798540353775, 110.24864196777344],
    [-0.17721690237522125, 1.8621025085449219, -0.7079325914382935, -49.9926643371582],
    [0.05814916267991066, 0.7152605652809143, 1.8668211698532104, -60.228179931640625],
    [0.0, 0.0, 0.0, 1.0]
],
  "dcmmeta_reorient_transform": [
    [0.0, -1.0, 0.0, 103.0],
    [1.0, 0.0, 0.0, 0.0],
    [0.0, 0.0, 1.0, 0.0],
    [0.0, 0.0, 0.0, 1.0]
],
  "dcmmeta_shape": [104, 104, 60, 190],
  "dcmmeta_slice_dim": 2,
  "dcmmeta_version": 0.6,
  "global": {
    "const": {
      "AcquisitionMatrix": [104, 0, 0, 104],
      "AngioFlag": "N",
      "BitsAllocated": 16,
      "BitsStored": 16,
      "BodyPartExamined": "BRAIN",
      "Columns": 832,
      "EchoNumbers": 1,
      "EchoTime": 37.0,
      "EchoTrainLength": 104,
      "FlipAngle": 52.0,
      "HighBit": 15,
      "ImageOrientationPatient": [0.99564211011378, 0.08860844918262, 0.02907458171023, -0.0724166384269, 0.9310512343753, -0.3576302971606],
      "ImagePositionPatient": [-767.43895561219, -884.11613787864, 252.63222190814],
      "ImageType": [
        "ORIGINAL",
        "PRIMARY",
        "P",
        "MB",
        "ND",
        "MOSAIC"
],
      "ImagedNucleus": "1H",
      "ImagingFrequency": 123.258861,
      "InPlanePhaseEncodingDirection": "COL",
      "LargestImagePixelValue": 4095,
      "MRAcquisitionType": "2D",
      "MagneticFieldStrength": 3.0,
      "Manufacturer": "SIEMENS",
      "ManufacturerModelName": "Prisma_fit",
      "Modality": "MR",
      "NumberOfAverages": 1.0,
      "NumberOfPhaseEncodingSteps": 104,
      "PercentPhaseFieldOfView": 100.0,
      "PercentSampling": 100.0,
      "PerformedProcedureStepStartTime": "170913.226000",
      "PhotometricInterpretation": "MONOCHROME2",
      "PixelBandwidth": 2290.0,
      "PixelRepresentation": 0,
      "PixelSpacing": [2.0, 2.0],
      "ProtocolName": "func_task-things_run-1",
      "RepetitionTime": 1490.0,
      "RescaleIntercept": -4096.0,
      "RescaleSlope": 2.0,
      "RescaleType": "US",
      "Rows": 832,
      "SAR": 0.05858015540803,
      "SamplesPerPixel": 1,
      "ScanOptions": "FS",
      "ScanningSequence": "EP",
      "SequenceName": "epfid2d1_104",
      "SequenceVariant": [
        "SK",
        "SS"
],
      "SeriesDescription": "func_task-things_run-1",
      "SeriesNumber": 11,
      "SeriesTime": "174958.437000",
      "SliceLocation": -32.043800373431,
      "SliceThickness": 2.0,
      "SmallestImagePixelValue": 0,
      "SoftwareVersions": "syngo MR E11",
      "SpacingBetweenSlices": 2.0000000350292,
      "SpecificCharacterSet": "ISO_IR 100",
      "StudyID": "1",
      "StudyTime": "170913.080000",
      "TransmitCoilName": "Body",
      "VariableFlipAngleFlag": "N",
      "WindowCenterWidthExplanation": "Algo1",
      "dBdt": 0.0},
    "slices": {}
  },
  "time": {
    "samples": {
      "AcquisitionNumber": [1, 2, 3, 4, 5, 6, 7, 8, 9, 10, 11, 12, 13, 14, 15, 16, 17, 18, 19, 20, 21, 22, 23, 24, 25, 26, 27, 28, 29, 30, 31, 32, 33, 34, 35, 36, 37, 38, 39, 40, 41, 42, 43, 44, 45, 46, 47, 48, 49, 50, 51, 52, 53, 54, 55, 56, 57, 58, 59, 60, 61, 62, 63, 64, 65, 66, 67, 68, 69, 70, 71, 72, 73, 74, 75, 76, 77, 78, 79, 80, 81, 82, 83, 84, 85, 86, 87, 88, 89, 90, 91, 92, 93, 94, 95, 96, 97, 98, 99, 100, 101, 102, 103, 104, 105, 106, 107, 108, 109, 110, 111, 112, 113, 114, 115, 116, 117, 118, 119, 120, 121, 122, 123, 124, 125, 126, 127, 128, 129, 130, 131, 132, 133, 134, 135, 136, 137, 138, 139, 140, 141, 142, 143, 144, 145, 146, 147, 148, 149, 150, 151, 152, 153, 154, 155, 156, 157, 158, 159, 160, 161, 162, 163, 164, 165, 166, 167, 168, 169, 170, 171, 172, 173, 174, 175, 176, 177, 178, 179, 180, 181, 182, 183, 184, 185, 186, 187, 188, 189, 190],
      "AcquisitionTime": ["174839.732500", "174841.222500", "174842.712500", "174844.202500", "174845.692500", "174847.182500", "174848.672500", "174850.162500", "174851.652500", "174853.142500", "174854.632500", "174856.122500", "174857.612500", "174859.102500", "174900.592500", "174902.082500", "174903.572500", "174905.062500", "174906.552500", "174908.042500", "174909.532500", "174911.022500", "174912.512500", "174914.002500", "174915.492500", "174916.982500", "174918.472500", "174919.962500", "174921.452500", "174922.942500", "174924.432500", "174925.922500", "174927.412500", "174928.902500", "174930.392500", "174931.882500", "174933.372500", "174934.862500", "174936.352500", "174937.842500", "174939.332500", "174940.822500", "174942.312500", "174943.802500", "174945.292500", "174946.782500", "174948.272500", "174949.762500", "174951.252500", "174952.742500", "174954.232500", "174955.722500", "174957.212500", "174958.702500", "175000.192500", "175001.682500", "175003.172500", "175004.662500", "175006.152500", "175007.642500", "175009.132500", "175010.622500", "175012.112500", "175013.602500", "175015.092500", "175016.582500", "175018.072500", "175019.562500", "175021.052500", "175022.542500", "175024.032500", "175025.522500", "175027.012500", "175028.502500", "175029.992500", "175031.482500", "175032.972500", "175034.462500", "175035.952500", "175037.442500", "175038.932500", "175040.422500", "175041.912500", "175043.402500", "175044.892500", "175046.382500", "175047.872500", "175049.362500", "175050.852500", "175052.342500", "175053.832500", "175055.322500", "175056.812500", "175058.302500", "175059.792500", "175101.282500", "175102.772500", "175104.262500", "175105.752500", "175107.242500", "175108.732500", "175110.222500", "175111.712500", "175113.202500", "175114.692500", "175116.182500", "175117.672500", "175119.162500", "175120.652500", "175122.142500", "175123.632500", "175125.122500", "175126.612500", "175128.102500", "175129.592500", "175131.082500", "175132.572500", "175134.062500", "175135.552500", "175137.042500", "175138.532500", "175140.022500", "175141.512500", "175143.002500", "175144.492500", "175145.982500", "175147.472500", "175148.962500", "175150.452500", "175151.942500", "175153.432500", "175154.922500", "175156.412500", "175157.902500", "175159.392500", "175200.882500", "175202.372500", "175203.862500", "175205.352500", "175206.842500", "175208.332500", "175209.822500", "175211.312500", "175212.802500", "175214.292500", "175215.782500", "175217.272500", "175218.762500", "175220.252500", "175221.742500", "175223.232500", "175224.722500", "175226.212500", "175227.702500", "175229.192500", "175230.682500", "175232.172500", "175233.662500", "175235.152500", "175236.642500", "175238.132500", "175239.622500", "175241.112500", "175242.602500", "175244.092500", "175245.582500", "175247.072500", "175248.562500", "175250.052500", "175251.542500", "175253.032500", "175254.522500", "175256.012500", "175257.502500", "175258.992500", "175300.482500", "175301.972500", "175303.462500", "175304.952500", "175306.442500", "175307.932500", "175309.422500", "175310.912500", "175312.402500", "175313.892500", "175315.382500", "175316.872500", "175318.362500", "175319.852500", "175321.342500"],
      "ContentTime": ["174958.440000", "174958.442000", "174958.445000", "174958.447000", "174958.450000", "174958.452000", "174958.455000", "174958.457000", "174958.460000", "174958.462000", "174958.464000", "174958.467000", "174958.469000", "174958.472000", "174958.474000", "174958.477000", "174958.479000", "174958.482000", "174958.484000", "174958.486000", "174958.489000", "174958.491000", "174958.494000", "174958.496000", "175018.386000", "175018.388000", "175018.391000", "175018.393000", "175018.396000", "175018.398000", "175018.401000", "175018.403000", "175018.406000", "175018.408000", "175018.410000", "175018.413000", "175018.415000", "175018.418000", "175018.420000", "175018.423000", "175018.425000", "175018.428000", "175018.430000", "175018.432000", "175038.396000", "175038.399000", "175038.401000", "175038.404000", "175038.406000", "175038.409000", "175038.411000", "175038.413000", "175038.416000", "175038.418000", "175038.421000", "175038.423000", "175038.426000", "175038.428000", "175038.430000", "175038.433000", "175038.435000", "175038.438000", "175038.440000", "175038.443000", "175038.445000", "175058.383000", "175058.386000", "175058.389000", "175058.391000", "175058.393000", "175058.396000", "175058.398000", "175058.401000", "175058.403000", "175058.406000", "175058.408000", "175058.411000", "175058.413000", "175058.416000", "175058.418000", "175058.420000", "175058.423000", "175058.425000", "175058.428000", "175058.430000", "175118.377000", "175118.379000", "175118.382000", "175118.384000", "175118.387000", "175118.389000", "175118.392000", "175118.394000", "175118.396000", "175118.399000", "175118.401000", "175118.404000", "175118.406000", "175118.409000", "175118.411000", "175118.414000", "175118.416000", "175118.419000", "175118.421000", "175118.424000", "175158.419000", "175158.421000", "175158.424000", "175158.427000", "175158.429000", "175158.440000", "175158.442000", "175158.445000", "175158.447000", "175158.450000", "175158.453000", "175158.455000", "175158.458000", "175158.460000", "175158.463000", "175158.465000", "175158.468000", "175158.470000", "175158.473000", "175158.476000", "175158.478000", "175158.481000", "175158.483000", "175158.486000", "175158.488000", "175158.491000", "175158.493000", "175238.402000", "175238.405000", "175238.408000", "175238.410000", "175238.413000", "175238.415000", "175238.418000", "175238.420000", "175238.423000", "175238.425000", "175238.428000", "175238.430000", "175238.433000", "175238.435000", "175238.438000", "175238.440000", "175238.443000", "175238.445000", "175238.448000", "175238.450000", "175238.453000", "175238.455000", "175238.458000", "175238.460000", "175238.463000", "175238.465000", "175238.468000", "175318.416000", "175318.419000", "175318.421000", "175318.424000", "175318.426000", "175318.428000", "175318.431000", "175318.433000", "175318.436000", "175318.438000", "175318.441000", "175318.443000", "175318.446000", "175318.448000", "175318.451000", "175318.453000", "175318.456000", "175318.458000", "175318.461000", "175318.463000", "175318.466000", "175318.468000", "175318.471000", "175318.473000", "175318.476000", "175318.478000", "175318.481000", "175323.500000", "175323.503000", "175323.506000", "175323.517000"],
      "InstanceCreationTime": ["174958.440000", "174958.442000", "174958.445000", "174958.447000", "174958.450000", "174958.452000", "174958.455000", "174958.457000", "174958.460000", "174958.462000", "174958.464000", "174958.467000", "174958.469000", "174958.472000", "174958.474000", "174958.477000", "174958.479000", "174958.482000", "174958.484000", "174958.486000", "174958.489000", "174958.491000", "174958.494000", "174958.496000", "175018.386000", "175018.388000", "175018.391000", "175018.393000", "175018.396000", "175018.398000", "175018.401000", "175018.403000", "175018.406000", "175018.408000", "175018.410000", "175018.413000", "175018.415000", "175018.418000", "175018.420000", "175018.423000", "175018.425000", "175018.428000", "175018.430000", "175018.432000", "175038.396000", "175038.399000", "175038.401000", "175038.404000", "175038.406000", "175038.409000", "175038.411000", "175038.413000", "175038.416000", "175038.418000", "175038.421000", "175038.423000", "175038.426000", "175038.428000", "175038.430000", "175038.433000", "175038.435000", "175038.438000", "175038.440000", "175038.443000", "175038.445000", "175058.383000", "175058.386000", "175058.389000", "175058.391000", "175058.393000", "175058.396000", "175058.398000", "175058.401000", "175058.403000", "175058.406000", "175058.408000", "175058.411000", "175058.413000", "175058.416000", "175058.418000", "175058.420000", "175058.423000", "175058.425000", "175058.428000", "175058.430000", "175118.377000", "175118.379000", "175118.382000", "175118.384000", "175118.387000", "175118.389000", "175118.392000", "175118.394000", "175118.396000", "175118.399000", "175118.401000", "175118.404000", "175118.406000", "175118.409000", "175118.411000", "175118.414000", "175118.416000", "175118.419000", "175118.421000", "175118.424000", "175158.419000", "175158.421000", "175158.424000", "175158.427000", "175158.429000", "175158.440000", "175158.442000", "175158.445000", "175158.447000", "175158.450000", "175158.453000", "175158.455000", "175158.458000", "175158.460000", "175158.463000", "175158.465000", "175158.468000", "175158.470000", "175158.473000", "175158.476000", "175158.478000", "175158.481000", "175158.483000", "175158.486000", "175158.488000", "175158.491000", "175158.493000", "175238.402000", "175238.405000", "175238.408000", "175238.410000", "175238.413000", "175238.415000", "175238.418000", "175238.420000", "175238.423000", "175238.425000", "175238.428000", "175238.430000", "175238.433000", "175238.435000", "175238.438000", "175238.440000", "175238.443000", "175238.445000", "175238.448000", "175238.450000", "175238.453000", "175238.455000", "175238.458000", "175238.460000", "175238.463000", "175238.465000", "175238.468000", "175318.416000", "175318.419000", "175318.421000", "175318.424000", "175318.426000", "175318.428000", "175318.431000", "175318.433000", "175318.436000", "175318.438000", "175318.441000", "175318.443000", "175318.446000", "175318.448000", "175318.451000", "175318.453000", "175318.456000", "175318.458000", "175318.461000", "175318.463000", "175318.466000", "175318.468000", "175318.471000", "175318.473000", "175318.476000", "175318.478000", "175318.481000", "175323.500000", "175323.503000", "175323.506000", "175323.517000"],
      "InstanceNumber": [1, 2, 3, 4, 5, 6, 7, 8, 9, 10, 11, 12, 13, 14, 15, 16, 17, 18, 19, 20, 21, 22, 23, 24, 25, 26, 27, 28, 29, 30, 31, 32, 33, 34, 35, 36, 37, 38, 39, 40, 41, 42, 43, 44, 45, 46, 47, 48, 49, 50, 51, 52, 53, 54, 55, 56, 57, 58, 59, 60, 61, 62, 63, 64, 65, 66, 67, 68, 69, 70, 71, 72, 73, 74, 75, 76, 77, 78, 79, 80, 81, 82, 83, 84, 85, 86, 87, 88, 89, 90, 91, 92, 93, 94, 95, 96, 97, 98, 99, 100, 101, 102, 103, 104, 105, 106, 107, 108, 109, 110, 111, 112, 113, 114, 115, 116, 117, 118, 119, 120, 121, 122, 123, 124, 125, 126, 127, 128, 129, 130, 131, 132, 133, 134, 135, 136, 137, 138, 139, 140, 141, 142, 143, 144, 145, 146, 147, 148, 149, 150, 151, 152, 153, 154, 155, 156, 157, 158, 159, 160, 161, 162, 163, 164, 165, 166, 167, 168, 169, 170, 171, 172, 173, 174, 175, 176, 177, 178, 179, 180, 181, 182, 183, 184, 185, 186, 187, 188, 189, 190],
      "WindowCenter": [4818.0, 4788.0, 4790.0, 4794.0, 4818.0, 4820.0, 4820.0, 4818.0, 4790.0, 4790.0, 4816.0, 4826.0, 4824.0, 4792.0, 4792.0, 4790.0, 4790.0, 4796.0, 4824.0, 4822.0, 4816.0, 4792.0, 4794.0, 4792.0, 4820.0, 4796.0, 4796.0, 4798.0, 4794.0, 4794.0, 4790.0, 4794.0, 4796.0, 4794.0, 4818.0, 4820.0, 4822.0, 4794.0, 4796.0, 4796.0, 4794.0, 4792.0, 4792.0, 4796.0, 4824.0, 4826.0, 4818.0, 4792.0, 4790.0, 4794.0, 4794.0, 4798.0, 4796.0, 4794.0, 4818.0, 4824.0, 4822.0, 4796.0, 4822.0, 4818.0, 4792.0, 4790.0, 4792.0, 4794.0, 4792.0, 4820.0, 4818.0, 4800.0, 4822.0, 4820.0, 4794.0, 4792.0, 4796.0, 4794.0, 4792.0, 4818.0, 4818.0, 4794.0, 4796.0, 4796.0, 4824.0, 4824.0, 4798.0, 4794.0, 4790.0, 4818.0, 4826.0, 4824.0, 4818.0, 4792.0, 4790.0, 4792.0, 4792.0, 4820.0, 4818.0, 4820.0, 4820.0, 4822.0, 4820.0, 4794.0, 4792.0, 4792.0, 4792.0, 4796.0, 4796.0, 4794.0, 4820.0, 4820.0, 4798.0, 4796.0, 4792.0, 4794.0, 4792.0, 4792.0, 4794.0, 4794.0, 4794.0, 4822.0, 4816.0, 4792.0, 4822.0, 4796.0, 4796.0, 4818.0, 4822.0, 4820.0, 4792.0, 4798.0, 4796.0, 4790.0, 4818.0, 4822.0, 4820.0, 4818.0, 4820.0, 4818.0, 4818.0, 4796.0, 4818.0, 4796.0, 4826.0, 4822.0, 4792.0, 4824.0, 4820.0, 4796.0, 4822.0, 4818.0, 4796.0, 4822.0, 4818.0, 4820.0, 4794.0, 4820.0, 4820.0, 4824.0, 4820.0, 4820.0, 4794.0, 4798.0, 4794.0, 4818.0, 4796.0, 4794.0, 4794.0, 4820.0, 4824.0, 4820.0, 4820.0, 4818.0, 4820.0, 4796.0, 4798.0, 4828.0, 4828.0, 4818.0, 4794.0, 4818.0, 4820.0, 4794.0, 4816.0, 4822.0, 4820.0, 4818.0, 4820.0, 4824.0, 4822.0, 4796.0, 4824.0, 4820.0],
      "WindowWidth": [18588.0, 18548.0, 18558.0, 18560.0, 18588.0, 18588.0, 18588.0, 18584.0, 18558.0, 18556.0, 18588.0, 18592.0, 18590.0, 18554.0, 18558.0, 18556.0, 18556.0, 18558.0, 18596.0, 18592.0, 18582.0, 18552.0, 18558.0, 18556.0, 18588.0, 18558.0, 18556.0, 18558.0, 18558.0, 18554.0, 18552.0, 18560.0, 18560.0, 18556.0, 18588.0, 18590.0, 18588.0, 18554.0, 18556.0, 18554.0, 18552.0, 18556.0, 18554.0, 18556.0, 18596.0, 18596.0, 18586.0, 18552.0, 18552.0, 18556.0, 18554.0, 18556.0, 18554.0, 18560.0, 18588.0, 18592.0, 18588.0, 18554.0, 18588.0, 18584.0, 18550.0, 18556.0, 18552.0, 18554.0, 18550.0, 18588.0, 18586.0, 18558.0, 18592.0, 18588.0, 18554.0, 18556.0, 18558.0, 18556.0, 18558.0, 18586.0, 18586.0, 18554.0, 18556.0, 18552.0, 18590.0, 18592.0, 18554.0, 18560.0, 18552.0, 18586.0, 18596.0, 18592.0, 18588.0, 18558.0, 18554.0, 18554.0, 18554.0, 18586.0, 18584.0, 18588.0, 18586.0, 18586.0, 18588.0, 18556.0, 18558.0, 18558.0, 18558.0, 18560.0, 18554.0, 18552.0, 18586.0, 18590.0, 18562.0, 18558.0, 18552.0, 18556.0, 18552.0, 18552.0, 18558.0, 18558.0, 18552.0, 18590.0, 18584.0, 18554.0, 18594.0, 18558.0, 18556.0, 18582.0, 18588.0, 18584.0, 18554.0, 18556.0, 18558.0, 18552.0, 18590.0, 18590.0, 18590.0, 18588.0, 18586.0, 18588.0, 18586.0, 18558.0, 18588.0, 18556.0, 18594.0, 18594.0, 18554.0, 18590.0, 18586.0, 18554.0, 18588.0, 18586.0, 18554.0, 18586.0, 18592.0, 18592.0, 18556.0, 18588.0, 18590.0, 18594.0, 18588.0, 18586.0, 18558.0, 18564.0, 18554.0, 18590.0, 18556.0, 18554.0, 18556.0, 18588.0, 18594.0, 18588.0, 18586.0, 18590.0, 18590.0, 18554.0, 18558.0, 18592.0, 18596.0, 18590.0, 18550.0, 18582.0, 18588.0, 18558.0, 18586.0, 18588.0, 18588.0, 18584.0, 18588.0, 18590.0, 18588.0, 18556.0, 18590.0, 18588.0]
    },
    "slices": {}
  }
}