{
  "AcquisitionMatrixPE": 104,
  "AcquisitionNumber": 1,
  "AcquisitionTime": "18:30:35.890000",
  "BandwidthPerPixelPhaseEncode": 17.17,
  "BaseResolution": 104,
  "BodyPartExamined": "BRAIN",
  "CoilString": "HC1-7;NC1_2",
  "ConsistencyInfo": "N4_VE11C_LATEST_20160120",
  "ConversionSoftware": "dcm2niix",
  "ConversionSoftwareVersion": "v1.0.20190902",
  "DerivedVendorReportedEchoSpacing": 0.000560011,
  "DeviceSerialNumber": "167006",
  "DwellTime": 2.1e-06,
  "EchoTime": 0.037,
  "EchoTrainLength": 104,
  "EffectiveEchoSpacing": 0.000560011,
  "FlipAngle": 52,
  "HeudiconvVersion": "0.10.0",
  "ImageComments": "Unaliased_MB4_PE3_LB",
  "ImageOrientationPatientDICOM": [0.995642, 0.0886085, 0.0290746, -0.0724166, 0.931051, -0.35763],
  "ImageType": [
    "ORIGINAL",
    "PRIMARY",
    "P",
    "MB",
    "ND",
    "MOSAIC"
],
  "ImagingFrequency": 123.259,
  "InPlanePhaseEncodingDirectionDICOM": "COL",
  "InstitutionAddress": "Chemin_Queen-Mary_4565_Montreal_District_CA_H3W_1W5",
  "InstitutionName": "IUGM",
  "InstitutionalDepartmentName": "Department",
  "MRAcquisitionType": "2D",
  "MagneticFieldStrength": 3,
  "Manufacturer": "Siemens",
  "ManufacturersModelName": "Prisma_fit",
  "Modality": "MR",
  "MultibandAccelerationFactor": 4,
  "PartialFourier": 1,
  "PatientPosition": "HFS",
  "PercentPhaseFOV": 100,
  "PhaseEncodingDirection": "j",
  "PhaseEncodingSteps": 104,
  "PhaseResolution": 1,
  "PixelBandwidth": 2290,
  "ProcedureStepDescription": "memory_things",
  "ProtocolName": "func_task-things_run-6",
  "PulseSequenceDetails": "%CustomerSeq%_cmrr_mbep2d_bold",
  "ReceiveCoilActiveElements": "HC1-7;NC1,2",
  "ReceiveCoilName": "HeadNeck_64",
  "ReconMatrixPE": 104,
  "RepetitionTime": 1.49,
  "SAR": 0.0585802,
  "ScanOptions": "FS",
  "ScanningSequence": "EP",
  "SequenceName": "epfid2d1_104",
  "SequenceVariant": "SK_SS",
  "SeriesDescription": "func_task-things_run-6",
  "SeriesNumber": 26,
  "ShimSetting": [633, -7188, -8801, 662, 89, 19, -39, -3],
  "SliceThickness": 2,
  "SliceTiming": [0, 0.785, 0.0975, 0.8825, 0.195, 0.98, 0.295, 1.0775, 0.3925, 1.175, 0.49, 1.275, 0.5875, 1.3725, 0.685, 0, 0.785, 0.0975, 0.8825, 0.195, 0.98, 0.295, 1.0775, 0.3925, 1.175, 0.49, 1.275, 0.5875, 1.3725, 0.685, 0, 0.785, 0.0975, 0.8825, 0.195, 0.98, 0.295, 1.0775, 0.3925, 1.175, 0.49, 1.275, 0.5875, 1.3725, 0.685, 0, 0.785, 0.0975, 0.8825, 0.195, 0.98, 0.295, 1.0775, 0.3925, 1.175, 0.49, 1.275, 0.5875, 1.3725, 0.685],
  "SoftwareVersions": "syngo_MR_E11",
  "SpacingBetweenSlices": 2,
  "StationName": "MRC35049",
  "TaskName": "things",
  "TotalReadoutTime": 0.0576811,
  "TxRefAmp": 295.506,
  "WipMemBlock": "27a1a72a-579f-466a-b8c7-01dcb07b82a1||Sequence: R016 ve11c/master r/e634e98; Dec 19 2017 11:00:25 by eja",
  "dcmmeta_affine": [
    [-1.9912842512130737, -0.1448332816362381, 0.11751798540353775, 110.24864196777344],
    [-0.17721690237522125, 1.8621025085449219, -0.7079325914382935, -49.9926643371582],
    [0.05814916267991066, 0.7152605652809143, 1.8668211698532104, -60.228179931640625],
    [0.0, 0.0, 0.0, 1.0]
],
  "dcmmeta_reorient_transform": [
    [0.0, -1.0, 0.0, 103.0],
    [1.0, 0.0, 0.0, 0.0],
    [0.0, 0.0, 1.0, 0.0],
    [0.0, 0.0, 0.0, 1.0]
],
  "dcmmeta_shape": [104, 104, 60, 190],
  "dcmmeta_slice_dim": 2,
  "dcmmeta_version": 0.6,
  "global": {
    "const": {
      "AcquisitionMatrix": [104, 0, 0, 104],
      "AngioFlag": "N",
      "BitsAllocated": 16,
      "BitsStored": 16,
      "BodyPartExamined": "BRAIN",
      "Columns": 832,
      "EchoNumbers": 1,
      "EchoTime": 37.0,
      "EchoTrainLength": 104,
      "FlipAngle": 52.0,
      "HighBit": 15,
      "ImageOrientationPatient": [0.99564211011378, 0.08860844918262, 0.02907458171023, -0.0724166384269, 0.9310512343753, -0.3576302971606],
      "ImagePositionPatient": [-767.43895561219, -884.11613787864, 252.63222190814],
      "ImageType": [
        "ORIGINAL",
        "PRIMARY",
        "P",
        "MB",
        "ND",
        "MOSAIC"
],
      "ImagedNucleus": "1H",
      "ImagingFrequency": 123.258881,
      "InPlanePhaseEncodingDirection": "COL",
      "LargestImagePixelValue": 4095,
      "MRAcquisitionType": "2D",
      "MagneticFieldStrength": 3.0,
      "Manufacturer": "SIEMENS",
      "ManufacturerModelName": "Prisma_fit",
      "Modality": "MR",
      "NumberOfAverages": 1.0,
      "NumberOfPhaseEncodingSteps": 104,
      "PercentPhaseFieldOfView": 100.0,
      "PercentSampling": 100.0,
      "PerformedProcedureStepStartTime": "170913.226000",
      "PhotometricInterpretation": "MONOCHROME2",
      "PixelBandwidth": 2290.0,
      "PixelRepresentation": 0,
      "PixelSpacing": [2.0, 2.0],
      "ProtocolName": "func_task-things_run-6",
      "RepetitionTime": 1490.0,
      "RescaleIntercept": -4096.0,
      "RescaleSlope": 2.0,
      "RescaleType": "US",
      "Rows": 832,
      "SAR": 0.05858015540803,
      "SamplesPerPixel": 1,
      "ScanOptions": "FS",
      "ScanningSequence": "EP",
      "SequenceName": "epfid2d1_104",
      "SequenceVariant": [
        "SK",
        "SS"
],
      "SeriesDescription": "func_task-things_run-6",
      "SeriesNumber": 26,
      "SeriesTime": "183158.457000",
      "SliceLocation": -32.043800373431,
      "SliceThickness": 2.0,
      "SmallestImagePixelValue": 0,
      "SoftwareVersions": "syngo MR E11",
      "SpacingBetweenSlices": 2.0000000350292,
      "SpecificCharacterSet": "ISO_IR 100",
      "StudyID": "1",
      "StudyTime": "170913.080000",
      "TransmitCoilName": "Body",
      "VariableFlipAngleFlag": "N",
      "WindowCenterWidthExplanation": "Algo1",
      "dBdt": 0.0},
    "slices": {}
  },
  "time": {
    "samples": {
      "AcquisitionNumber": [1, 2, 3, 4, 5, 6, 7, 8, 9, 10, 11, 12, 13, 14, 15, 16, 17, 18, 19, 20, 21, 22, 23, 24, 25, 26, 27, 28, 29, 30, 31, 32, 33, 34, 35, 36, 37, 38, 39, 40, 41, 42, 43, 44, 45, 46, 47, 48, 49, 50, 51, 52, 53, 54, 55, 56, 57, 58, 59, 60, 61, 62, 63, 64, 65, 66, 67, 68, 69, 70, 71, 72, 73, 74, 75, 76, 77, 78, 79, 80, 81, 82, 83, 84, 85, 86, 87, 88, 89, 90, 91, 92, 93, 94, 95, 96, 97, 98, 99, 100, 101, 102, 103, 104, 105, 106, 107, 108, 109, 110, 111, 112, 113, 114, 115, 116, 117, 118, 119, 120, 121, 122, 123, 124, 125, 126, 127, 128, 129, 130, 131, 132, 133, 134, 135, 136, 137, 138, 139, 140, 141, 142, 143, 144, 145, 146, 147, 148, 149, 150, 151, 152, 153, 154, 155, 156, 157, 158, 159, 160, 161, 162, 163, 164, 165, 166, 167, 168, 169, 170, 171, 172, 173, 174, 175, 176, 177, 178, 179, 180, 181, 182, 183, 184, 185, 186, 187, 188, 189, 190],
      "AcquisitionTime": ["183035.890000", "183037.380000", "183038.870000", "183040.360000", "183041.850000", "183043.340000", "183044.830000", "183046.320000", "183047.810000", "183049.300000", "183050.790000", "183052.280000", "183053.770000", "183055.260000", "183056.750000", "183058.240000", "183059.730000", "183101.220000", "183102.710000", "183104.200000", "183105.690000", "183107.180000", "183108.670000", "183110.160000", "183111.650000", "183113.140000", "183114.630000", "183116.120000", "183117.610000", "183119.100000", "183120.590000", "183122.080000", "183123.570000", "183125.060000", "183126.550000", "183128.040000", "183129.530000", "183131.020000", "183132.510000", "183134.000000", "183135.490000", "183136.980000", "183138.470000", "183139.960000", "183141.450000", "183142.940000", "183144.430000", "183145.920000", "183147.410000", "183148.900000", "183150.390000", "183151.880000", "183153.370000", "183154.860000", "183156.350000", "183157.840000", "183159.330000", "183200.820000", "183202.310000", "183203.800000", "183205.290000", "183206.780000", "183208.270000", "183209.760000", "183211.250000", "183212.740000", "183214.230000", "183215.720000", "183217.210000", "183218.700000", "183220.190000", "183221.680000", "183223.170000", "183224.660000", "183226.150000", "183227.640000", "183229.130000", "183230.620000", "183232.110000", "183233.600000", "183235.090000", "183236.580000", "183238.070000", "183239.560000", "183241.050000", "183242.540000", "183244.030000", "183245.520000", "183247.010000", "183248.500000", "183249.990000", "183251.480000", "183252.970000", "183254.460000", "183255.950000", "183257.440000", "183258.930000", "183300.420000", "183301.910000", "183303.400000", "183304.890000", "183306.380000", "183307.870000", "183309.360000", "183310.850000", "183312.340000", "183313.830000", "183315.320000", "183316.810000", "183318.300000", "183319.790000", "183321.280000", "183322.770000", "183324.260000", "183325.750000", "183327.240000", "183328.730000", "183330.220000", "183331.710000", "183333.200000", "183334.690000", "183336.180000", "183337.670000", "183339.160000", "183340.650000", "183342.140000", "183343.630000", "183345.120000", "183346.610000", "183348.100000", "183349.590000", "183351.080000", "183352.570000", "183354.060000", "183355.550000", "183357.040000", "183358.530000", "183400.020000", "183401.510000", "183403.000000", "183404.490000", "183405.980000", "183407.470000", "183408.960000", "183410.450000", "183411.940000", "183413.430000", "183414.920000", "183416.410000", "183417.900000", "183419.390000", "183420.880000", "183422.370000", "183423.860000", "183425.350000", "183426.840000", "183428.330000", "183429.820000", "183431.310000", "183432.800000", "183434.290000", "183435.780000", "183437.270000", "183438.760000", "183440.250000", "183441.740000", "183443.230000", "183444.720000", "183446.210000", "183447.700000", "183449.190000", "183450.680000", "183452.170000", "183453.660000", "183455.150000", "183456.640000", "183458.130000", "183459.620000", "183501.110000", "183502.600000", "183504.090000", "183505.580000", "183507.070000", "183508.560000", "183510.050000", "183511.540000", "183513.030000", "183514.520000", "183516.010000", "183517.500000"],
      "ContentTime": ["183158.460000", "183158.462000", "183158.465000", "183158.467000", "183158.470000", "183158.472000", "183158.475000", "183158.477000", "183158.480000", "183158.482000", "183158.484000", "183158.487000", "183158.489000", "183158.492000", "183158.494000", "183158.497000", "183158.499000", "183158.501000", "183158.504000", "183158.506000", "183158.509000", "183158.511000", "183158.514000", "183158.516000", "183158.518000", "183158.521000", "183158.523000", "183158.526000", "183218.411000", "183218.413000", "183218.416000", "183218.418000", "183218.421000", "183218.423000", "183218.426000", "183218.428000", "183218.430000", "183218.433000", "183218.435000", "183218.438000", "183218.440000", "183218.443000", "183218.445000", "183218.448000", "183218.450000", "183218.452000", "183218.455000", "183218.457000", "183238.392000", "183238.395000", "183238.398000", "183238.400000", "183238.403000", "183238.405000", "183238.408000", "183238.410000", "183238.412000", "183238.415000", "183238.417000", "183238.420000", "183238.424000", "183238.426000", "183238.429000", "183238.431000", "183238.434000", "183238.436000", "183238.438000", "183238.441000", "183238.443000", "183258.397000", "183258.400000", "183258.402000", "183258.405000", "183258.408000", "183258.410000", "183258.412000", "183258.415000", "183258.417000", "183258.420000", "183258.422000", "183258.425000", "183258.427000", "183258.430000", "183258.432000", "183258.435000", "183258.437000", "183258.440000", "183258.442000", "183258.445000", "183338.446000", "183338.449000", "183338.451000", "183338.454000", "183338.456000", "183338.459000", "183338.461000", "183338.464000", "183338.466000", "183338.469000", "183338.471000", "183338.473000", "183338.476000", "183338.478000", "183338.481000", "183338.483000", "183338.486000", "183338.488000", "183338.491000", "183338.493000", "183338.496000", "183338.498000", "183338.501000", "183338.503000", "183338.506000", "183338.508000", "183338.511000", "183338.513000", "183338.516000", "183338.518000", "183338.521000", "183338.523000", "183338.526000", "183358.364000", "183358.367000", "183358.369000", "183358.372000", "183358.374000", "183358.377000", "183358.379000", "183358.382000", "183358.384000", "183358.387000", "183358.389000", "183358.392000", "183358.394000", "183438.422000", "183438.425000", "183438.427000", "183438.430000", "183438.432000", "183438.435000", "183438.437000", "183438.440000", "183438.443000", "183438.445000", "183438.447000", "183438.450000", "183438.453000", "183438.455000", "183438.457000", "183438.460000", "183438.463000", "183438.465000", "183438.468000", "183438.470000", "183438.473000", "183438.475000", "183438.478000", "183438.480000", "183438.483000", "183438.485000", "183438.487000", "183518.413000", "183518.415000", "183518.418000", "183518.420000", "183518.423000", "183518.425000", "183518.428000", "183518.430000", "183518.433000", "183518.435000", "183518.438000", "183518.440000", "183518.442000", "183518.445000", "183518.447000", "183518.450000", "183518.452000", "183518.455000", "183518.457000", "183518.460000", "183518.462000", "183518.465000", "183518.467000", "183518.469000", "183518.472000", "183518.474000", "183518.477000", "183519.559000"],
      "InstanceCreationTime": ["183158.460000", "183158.462000", "183158.465000", "183158.467000", "183158.470000", "183158.472000", "183158.475000", "183158.477000", "183158.480000", "183158.482000", "183158.484000", "183158.487000", "183158.489000", "183158.492000", "183158.494000", "183158.497000", "183158.499000", "183158.501000", "183158.504000", "183158.506000", "183158.509000", "183158.511000", "183158.514000", "183158.516000", "183158.518000", "183158.521000", "183158.523000", "183158.526000", "183218.411000", "183218.413000", "183218.416000", "183218.418000", "183218.421000", "183218.423000", "183218.426000", "183218.428000", "183218.430000", "183218.433000", "183218.435000", "183218.438000", "183218.440000", "183218.443000", "183218.445000", "183218.448000", "183218.450000", "183218.452000", "183218.455000", "183218.457000", "183238.392000", "183238.395000", "183238.398000", "183238.400000", "183238.403000", "183238.405000", "183238.408000", "183238.410000", "183238.412000", "183238.415000", "183238.417000", "183238.420000", "183238.424000", "183238.426000", "183238.429000", "183238.431000", "183238.434000", "183238.436000", "183238.438000", "183238.441000", "183238.443000", "183258.397000", "183258.400000", "183258.402000", "183258.405000", "183258.408000", "183258.410000", "183258.412000", "183258.415000", "183258.417000", "183258.420000", "183258.422000", "183258.425000", "183258.427000", "183258.430000", "183258.432000", "183258.435000", "183258.437000", "183258.440000", "183258.442000", "183258.445000", "183338.446000", "183338.449000", "183338.451000", "183338.454000", "183338.456000", "183338.459000", "183338.461000", "183338.464000", "183338.466000", "183338.469000", "183338.471000", "183338.473000", "183338.476000", "183338.478000", "183338.481000", "183338.483000", "183338.486000", "183338.488000", "183338.491000", "183338.493000", "183338.496000", "183338.498000", "183338.501000", "183338.503000", "183338.506000", "183338.508000", "183338.511000", "183338.513000", "183338.516000", "183338.518000", "183338.521000", "183338.523000", "183338.526000", "183358.364000", "183358.367000", "183358.369000", "183358.372000", "183358.374000", "183358.377000", "183358.379000", "183358.382000", "183358.384000", "183358.387000", "183358.389000", "183358.392000", "183358.394000", "183438.422000", "183438.425000", "183438.427000", "183438.430000", "183438.432000", "183438.435000", "183438.437000", "183438.440000", "183438.443000", "183438.445000", "183438.447000", "183438.450000", "183438.453000", "183438.455000", "183438.457000", "183438.460000", "183438.463000", "183438.465000", "183438.468000", "183438.470000", "183438.473000", "183438.475000", "183438.478000", "183438.480000", "183438.483000", "183438.485000", "183438.487000", "183518.413000", "183518.415000", "183518.418000", "183518.420000", "183518.423000", "183518.425000", "183518.428000", "183518.430000", "183518.433000", "183518.435000", "183518.438000", "183518.440000", "183518.442000", "183518.445000", "183518.447000", "183518.450000", "183518.452000", "183518.455000", "183518.457000", "183518.460000", "183518.462000", "183518.465000", "183518.467000", "183518.469000", "183518.472000", "183518.474000", "183518.477000", "183519.559000"],
      "InstanceNumber": [1, 2, 3, 4, 5, 6, 7, 8, 9, 10, 11, 12, 13, 14, 15, 16, 17, 18, 19, 20, 21, 22, 23, 24, 25, 26, 27, 28, 29, 30, 31, 32, 33, 34, 35, 36, 37, 38, 39, 40, 41, 42, 43, 44, 45, 46, 47, 48, 49, 50, 51, 52, 53, 54, 55, 56, 57, 58, 59, 60, 61, 62, 63, 64, 65, 66, 67, 68, 69, 70, 71, 72, 73, 74, 75, 76, 77, 78, 79, 80, 81, 82, 83, 84, 85, 86, 87, 88, 89, 90, 91, 92, 93, 94, 95, 96, 97, 98, 99, 100, 101, 102, 103, 104, 105, 106, 107, 108, 109, 110, 111, 112, 113, 114, 115, 116, 117, 118, 119, 120, 121, 122, 123, 124, 125, 126, 127, 128, 129, 130, 131, 132, 133, 134, 135, 136, 137, 138, 139, 140, 141, 142, 143, 144, 145, 146, 147, 148, 149, 150, 151, 152, 153, 154, 155, 156, 157, 158, 159, 160, 161, 162, 163, 164, 165, 166, 167, 168, 169, 170, 171, 172, 173, 174, 175, 176, 177, 178, 179, 180, 181, 182, 183, 184, 185, 186, 187, 188, 189, 190],
      "WindowCenter": [4810.0, 4790.0, 4790.0, 4792.0, 4812.0, 4816.0, 4816.0, 4822.0, 4820.0, 4814.0, 4816.0, 4814.0, 4816.0, 4816.0, 4816.0, 4794.0, 4794.0, 4814.0, 4812.0, 4814.0, 4816.0, 4814.0, 4816.0, 4812.0, 4816.0, 4812.0, 4816.0, 4812.0, 4788.0, 4790.0, 4814.0, 4812.0, 4812.0, 4814.0, 4814.0, 4812.0, 4814.0, 4814.0, 4814.0, 4816.0, 4818.0, 4792.0, 4816.0, 4816.0, 4820.0, 4822.0, 4824.0, 4816.0, 4816.0, 4814.0, 4814.0, 4816.0, 4814.0, 4814.0, 4816.0, 4814.0, 4818.0, 4816.0, 4816.0, 4816.0, 4814.0, 4816.0, 4812.0, 4816.0, 4816.0, 4814.0, 4816.0, 4816.0, 4814.0, 4818.0, 4816.0, 4792.0, 4820.0, 4818.0, 4814.0, 4818.0, 4818.0, 4820.0, 4818.0, 4796.0, 4818.0, 4818.0, 4814.0, 4818.0, 4818.0, 4814.0, 4818.0, 4818.0, 4818.0, 4820.0, 4816.0, 4816.0, 4812.0, 4816.0, 4820.0, 4820.0, 4814.0, 4812.0, 4816.0, 4818.0, 4814.0, 4816.0, 4818.0, 4792.0, 4816.0, 4818.0, 4818.0, 4790.0, 4814.0, 4794.0, 4814.0, 4792.0, 4818.0, 4818.0, 4788.0, 4814.0, 4816.0, 4792.0, 4792.0, 4792.0, 4816.0, 4792.0, 4816.0, 4792.0, 4812.0, 4794.0, 4818.0, 4792.0, 4816.0, 4816.0, 4814.0, 4812.0, 4792.0, 4792.0, 4790.0, 4814.0, 4788.0, 4792.0, 4796.0, 4816.0, 4816.0, 4792.0, 4814.0, 4816.0, 4812.0, 4816.0, 4794.0, 4792.0, 4794.0, 4792.0, 4814.0, 4794.0, 4812.0, 4788.0, 4814.0, 4792.0, 4814.0, 4816.0, 4792.0, 4792.0, 4794.0, 4794.0, 4816.0, 4792.0, 4792.0, 4792.0, 4816.0, 4792.0, 4792.0, 4792.0, 4790.0, 4818.0, 4792.0, 4814.0, 4794.0, 4816.0, 4814.0, 4816.0, 4796.0, 4818.0, 4792.0, 4818.0, 4794.0, 4792.0, 4792.0, 4796.0, 4794.0, 4790.0, 4792.0, 4816.0],
      "WindowWidth": [18592.0, 18560.0, 18556.0, 18566.0, 18600.0, 18614.0, 18594.0, 18592.0, 18588.0, 18588.0, 18606.0, 18606.0, 18610.0, 18600.0, 18588.0, 18560.0, 18562.0, 18594.0, 18594.0, 18596.0, 18598.0, 18606.0, 18598.0, 18596.0, 18598.0, 18594.0, 18596.0, 18592.0, 18562.0, 18558.0, 18594.0, 18596.0, 18592.0, 18592.0, 18594.0, 18588.0, 18590.0, 18590.0, 18588.0, 18590.0, 18588.0, 18560.0, 18596.0, 18588.0, 18592.0, 18588.0, 18592.0, 18584.0, 18598.0, 18602.0, 18596.0, 18602.0, 18588.0, 18584.0, 18584.0, 18586.0, 18592.0, 18586.0, 18592.0, 18598.0, 18598.0, 18594.0, 18590.0, 18590.0, 18590.0, 18590.0, 18586.0, 18590.0, 18584.0, 18594.0, 18596.0, 18560.0, 18590.0, 18596.0, 18594.0, 18588.0, 18588.0, 18592.0, 18592.0, 18554.0, 18590.0, 18592.0, 18590.0, 18594.0, 18586.0, 18588.0, 18590.0, 18590.0, 18590.0, 18594.0, 18594.0, 18590.0, 18586.0, 18590.0, 18592.0, 18588.0, 18590.0, 18590.0, 18590.0, 18592.0, 18586.0, 18590.0, 18590.0, 18560.0, 18588.0, 18594.0, 18592.0, 18560.0, 18588.0, 18562.0, 18590.0, 18558.0, 18588.0, 18588.0, 18562.0, 18588.0, 18586.0, 18562.0, 18564.0, 18558.0, 18590.0, 18562.0, 18592.0, 18554.0, 18592.0, 18566.0, 18588.0, 18562.0, 18590.0, 18594.0, 18590.0, 18588.0, 18558.0, 18560.0, 18560.0, 18590.0, 18552.0, 18556.0, 18558.0, 18590.0, 18588.0, 18558.0, 18596.0, 18594.0, 18592.0, 18590.0, 18558.0, 18560.0, 18552.0, 18558.0, 18590.0, 18564.0, 18590.0, 18558.0, 18592.0, 18562.0, 18586.0, 18588.0, 18554.0, 18558.0, 18554.0, 18560.0, 18590.0, 18560.0, 18560.0, 18560.0, 18592.0, 18560.0, 18558.0, 18556.0, 18556.0, 18590.0, 18560.0, 18592.0, 18554.0, 18590.0, 18592.0, 18590.0, 18554.0, 18588.0, 18560.0, 18596.0, 18556.0, 18560.0, 18558.0, 18554.0, 18556.0, 18554.0, 18560.0, 18592.0]
    },
    "slices": {}
  }
}