{
  "AcquisitionMatrixPE": 104,
  "AcquisitionNumber": 1,
  "AcquisitionTime": "11:21:8.242500",
  "BandwidthPerPixelPhaseEncode": 17.17,
  "BaseResolution": 104,
  "BodyPartExamined": "BRAIN",
  "CoilString": "HC1-7;NC1_2",
  "ConsistencyInfo": "N4_VE11C_LATEST_20160120",
  "ConversionSoftware": "dcm2niix",
  "ConversionSoftwareVersion": "v1.0.20190902",
  "DerivedVendorReportedEchoSpacing": 0.000560011,
  "DeviceSerialNumber": "167006",
  "DwellTime": 2.1e-06,
  "EchoTime": 0.037,
  "EchoTrainLength": 104,
  "EffectiveEchoSpacing": 0.000560011,
  "FlipAngle": 52,
  "ImageComments": "Unaliased_MB4_PE3_LB",
  "ImageOrientationPatientDICOM": [0.999524, 0.00797501, 0.0297876, 0.00802483, 0.865425, -0.500973],
  "ImageType": [
    "ORIGINAL",
    "PRIMARY",
    "M",
    "MB",
    "ND",
    "MOSAIC"
],
  "ImagingFrequency": 123.259,
  "InPlanePhaseEncodingDirectionDICOM": "COL",
  "InstitutionAddress": "Chemin_Queen-Mary_4565_Montreal_District_CA_H3W_1W5",
  "InstitutionName": "IUGM",
  "InstitutionalDepartmentName": "Department",
  "MRAcquisitionType": "2D",
  "MagneticFieldStrength": 3,
  "Manufacturer": "Siemens",
  "ManufacturersModelName": "Prisma_fit",
  "Modality": "MR",
  "MultibandAccelerationFactor": 4,
  "PartialFourier": 1,
  "PatientPosition": "HFS",
  "PercentPhaseFOV": 100,
  "PhaseEncodingDirection": "j",
  "PhaseEncodingSteps": 104,
  "PhaseResolution": 1,
  "PixelBandwidth": 2290,
  "ProcedureStepDescription": "memory_things",
  "ProtocolName": "func_task-things_run-4",
  "PulseSequenceDetails": "%CustomerSeq%_cmrr_mbep2d_bold",
  "ReceiveCoilActiveElements": "HC1-7;NC1,2",
  "ReceiveCoilName": "HeadNeck_64",
  "ReconMatrixPE": 104,
  "RepetitionTime": 1.49,
  "SAR": 0.0615673,
  "ScanOptions": "FS",
  "ScanningSequence": "EP",
  "SequenceName": "epfid2d1_104",
  "SequenceVariant": "SK_SS",
  "SeriesDescription": "func_task-things_run-4",
  "SeriesNumber": 22,
  "ShimSetting": [626, -7185, -8865, 292, 38, -181, -69, 4],
  "SliceThickness": 2,
  "SliceTiming": [0, 0.785, 0.1, 0.8825, 0.1975, 0.98, 0.295, 1.0775, 0.3925, 1.1775, 0.49, 1.275, 0.59, 1.3725, 0.6875, 0, 0.785, 0.1, 0.8825, 0.1975, 0.98, 0.295, 1.0775, 0.3925, 1.1775, 0.49, 1.275, 0.59, 1.3725, 0.6875, 0, 0.785, 0.1, 0.8825, 0.1975, 0.98, 0.295, 1.0775, 0.3925, 1.1775, 0.49, 1.275, 0.59, 1.3725, 0.6875, 0, 0.785, 0.1, 0.8825, 0.1975, 0.98, 0.295, 1.0775, 0.3925, 1.1775, 0.49, 1.275, 0.59, 1.3725, 0.6875],
  "SoftwareVersions": "syngo_MR_E11",
  "SpacingBetweenSlices": 2,
  "StationName": "MRC35049",
  "TaskName": "things",
  "TotalReadoutTime": 0.0576811,
  "TxRefAmp": 300.379,
  "WipMemBlock": "5aea0154-c5e7-4403-8961-99baba4df440||Sequence: R016 ve11c/master r/e634e98; Dec 19 2017 11:00:25 by eja",
  "dcmmeta_affine": [
    [-1.9990488290786743, 0.01604965701699257, 0.05954841896891594, 104.7594985961914],
    [-0.015950025990605354, 1.7308509349822998, -1.0019484758377075, -50.735233306884766],
    [0.05957518145442009, 1.0019469261169434, 1.7298997640609741, -98.22508239746094],
    [0.0, 0.0, 0.0, 1.0]
],
  "dcmmeta_reorient_transform": [
    [0.0, -1.0, 0.0, 103.0],
    [1.0, 0.0, 0.0, 0.0],
    [0.0, 0.0, 1.0, 0.0],
    [0.0, 0.0, 0.0, 1.0]
],
  "dcmmeta_shape": [104, 104, 60, 190],
  "dcmmeta_slice_dim": 2,
  "dcmmeta_version": 0.6,
  "global": {
    "const": {
      "AcquisitionMatrix": [104, 0, 0, 104],
      "AngioFlag": "N",
      "BitsAllocated": 16,
      "BitsStored": 16,
      "BodyPartExamined": "BRAIN",
      "Columns": 832,
      "EchoNumbers": 1,
      "EchoTime": 37.0,
      "EchoTrainLength": 104,
      "FlipAngle": 52.0,
      "HighBit": 15,
      "ImageOrientationPatient": [0.99952443623218, 0.00797501311953, 0.02978759037721, 0.00802482868949, 0.86542545135804, -0.5009734426756],
      "ImagePositionPatient": [-839.90848036582, -763.3779495679, 347.99874748994],
      "ImageType": [
        "ORIGINAL",
        "PRIMARY",
        "M",
        "MB",
        "ND",
        "MOSAIC"
],
      "ImagedNucleus": "1H",
      "ImagingFrequency": 123.258911,
      "InPlanePhaseEncodingDirection": "COL",
      "MRAcquisitionType": "2D",
      "MagneticFieldStrength": 3.0,
      "Manufacturer": "SIEMENS",
      "ManufacturerModelName": "Prisma_fit",
      "Modality": "MR",
      "NumberOfAverages": 1.0,
      "NumberOfPhaseEncodingSteps": 104,
      "PercentPhaseFieldOfView": 100.0,
      "PercentSampling": 100.0,
      "PerformedProcedureStepStartTime": "104801.872000",
      "PhotometricInterpretation": "MONOCHROME2",
      "PixelBandwidth": 2290.0,
      "PixelRepresentation": 0,
      "PixelSpacing": [2.0, 2.0],
      "ProtocolName": "func_task-things_run-4",
      "RepetitionTime": 1490.0,
      "Rows": 832,
      "SAR": 0.06156728256807,
      "SamplesPerPixel": 1,
      "ScanOptions": "FS",
      "ScanningSequence": "EP",
      "SequenceName": "epfid2d1_104",
      "SequenceVariant": [
        "SK",
        "SS"
],
      "SeriesDescription": "func_task-things_run-4",
      "SeriesNumber": 22,
      "SeriesTime": "112203.369000",
      "SliceLocation": -56.423598643859,
      "SliceThickness": 2.0,
      "SmallestImagePixelValue": 0,
      "SoftwareVersions": "syngo MR E11",
      "SpacingBetweenSlices": 1.9999999972506,
      "SpecificCharacterSet": "ISO_IR 100",
      "StudyID": "1",
      "StudyTime": "104801.796000",
      "TransmitCoilName": "Body",
      "VariableFlipAngleFlag": "N",
      "WindowCenterWidthExplanation": "Algo1",
      "dBdt": 0.0},
    "slices": {}
  },
  "time": {
    "samples": {
      "AcquisitionNumber": [1, 2, 3, 4, 5, 6, 7, 8, 9, 10, 11, 12, 13, 14, 15, 16, 17, 18, 19, 20, 21, 22, 23, 24, 25, 26, 27, 28, 29, 30, 31, 32, 33, 34, 35, 36, 37, 38, 39, 40, 41, 42, 43, 44, 45, 46, 47, 48, 49, 50, 51, 52, 53, 54, 55, 56, 57, 58, 59, 60, 61, 62, 63, 64, 65, 66, 67, 68, 69, 70, 71, 72, 73, 74, 75, 76, 77, 78, 79, 80, 81, 82, 83, 84, 85, 86, 87, 88, 89, 90, 91, 92, 93, 94, 95, 96, 97, 98, 99, 100, 101, 102, 103, 104, 105, 106, 107, 108, 109, 110, 111, 112, 113, 114, 115, 116, 117, 118, 119, 120, 121, 122, 123, 124, 125, 126, 127, 128, 129, 130, 131, 132, 133, 134, 135, 136, 137, 138, 139, 140, 141, 142, 143, 144, 145, 146, 147, 148, 149, 150, 151, 152, 153, 154, 155, 156, 157, 158, 159, 160, 161, 162, 163, 164, 165, 166, 167, 168, 169, 170, 171, 172, 173, 174, 175, 176, 177, 178, 179, 180, 181, 182, 183, 184, 185, 186, 187, 188, 189, 190],
      "AcquisitionTime": ["112108.242500", "112109.732500", "112111.222500", "112112.712500", "112114.202500", "112115.692500", "112117.182500", "112118.672500", "112120.162500", "112121.652500", "112123.142500", "112124.632500", "112126.122500", "112127.612500", "112129.102500", "112130.592500", "112132.082500", "112133.572500", "112135.062500", "112136.552500", "112138.042500", "112139.532500", "112141.022500", "112142.512500", "112144.002500", "112145.492500", "112146.982500", "112148.472500", "112149.962500", "112151.452500", "112152.942500", "112154.432500", "112155.922500", "112157.412500", "112158.902500", "112200.392500", "112201.882500", "112203.372500", "112204.862500", "112206.352500", "112207.842500", "112209.332500", "112210.822500", "112212.312500", "112213.802500", "112215.292500", "112216.782500", "112218.272500", "112219.762500", "112221.252500", "112222.742500", "112224.232500", "112225.722500", "112227.212500", "112228.702500", "112230.192500", "112231.682500", "112233.172500", "112234.662500", "112236.152500", "112237.642500", "112239.132500", "112240.622500", "112242.112500", "112243.602500", "112245.092500", "112246.582500", "112248.072500", "112249.562500", "112251.052500", "112252.542500", "112254.032500", "112255.522500", "112257.012500", "112258.502500", "112259.992500", "112301.482500", "112302.972500", "112304.462500", "112305.952500", "112307.442500", "112308.932500", "112310.422500", "112311.912500", "112313.402500", "112314.892500", "112316.382500", "112317.872500", "112319.362500", "112320.852500", "112322.342500", "112323.832500", "112325.322500", "112326.812500", "112328.302500", "112329.792500", "112331.282500", "112332.772500", "112334.262500", "112335.752500", "112337.242500", "112338.732500", "112340.222500", "112341.712500", "112343.202500", "112344.692500", "112346.182500", "112347.672500", "112349.162500", "112350.652500", "112352.142500", "112353.632500", "112355.122500", "112356.612500", "112358.102500", "112359.592500", "112401.082500", "112402.572500", "112404.062500", "112405.552500", "112407.042500", "112408.532500", "112410.022500", "112411.512500", "112413.002500", "112414.492500", "112415.982500", "112417.472500", "112418.962500", "112420.452500", "112421.942500", "112423.432500", "112424.922500", "112426.412500", "112427.902500", "112429.392500", "112430.882500", "112432.372500", "112433.862500", "112435.352500", "112436.842500", "112438.332500", "112439.822500", "112441.312500", "112442.802500", "112444.292500", "112445.782500", "112447.272500", "112448.762500", "112450.252500", "112451.742500", "112453.232500", "112454.722500", "112456.212500", "112457.702500", "112459.192500", "112500.682500", "112502.172500", "112503.662500", "112505.152500", "112506.642500", "112508.132500", "112509.622500", "112511.112500", "112512.602500", "112514.092500", "112515.582500", "112517.072500", "112518.562500", "112520.052500", "112521.542500", "112523.032500", "112524.522500", "112526.012500", "112527.502500", "112528.992500", "112530.482500", "112531.972500", "112533.462500", "112534.952500", "112536.442500", "112537.932500", "112539.422500", "112540.912500", "112542.402500", "112543.892500", "112545.382500", "112546.872500", "112548.362500", "112549.852500"],
      "ContentTime": ["112203.373000", "112203.376000", "112223.334000", "112223.338000", "112223.341000", "112223.344000", "112223.348000", "112223.351000", "112223.354000", "112223.357000", "112223.361000", "112223.364000", "112223.367000", "112223.370000", "112223.373000", "112223.378000", "112223.381000", "112223.384000", "112223.387000", "112223.391000", "112223.394000", "112223.397000", "112243.334000", "112243.338000", "112243.341000", "112243.344000", "112243.347000", "112243.350000", "112243.354000", "112243.357000", "112243.360000", "112243.363000", "112243.366000", "112243.385000", "112243.388000", "112243.391000", "112243.395000", "112243.398000", "112243.401000", "112243.405000", "112243.409000", "112243.413000", "112303.334000", "112303.338000", "112303.341000", "112303.344000", "112303.347000", "112303.351000", "112303.354000", "112303.357000", "112303.360000", "112303.364000", "112303.367000", "112303.370000", "112303.373000", "112303.376000", "112303.380000", "112303.383000", "112303.386000", "112303.389000", "112303.392000", "112303.396000", "112303.399000", "112323.334000", "112323.338000", "112323.341000", "112323.344000", "112323.347000", "112323.351000", "112323.354000", "112323.357000", "112323.360000", "112323.363000", "112323.367000", "112323.370000", "112323.373000", "112323.376000", "112323.380000", "112323.383000", "112323.386000", "112323.389000", "112323.393000", "112323.396000", "112343.334000", "112343.338000", "112343.341000", "112343.344000", "112343.347000", "112343.351000", "112343.354000", "112343.358000", "112343.361000", "112343.364000", "112343.368000", "112343.371000", "112343.374000", "112343.377000", "112343.381000", "112343.384000", "112343.387000", "112343.390000", "112343.394000", "112343.397000", "112423.333000", "112423.337000", "112423.340000", "112423.343000", "112423.347000", "112423.350000", "112423.353000", "112423.356000", "112423.360000", "112423.363000", "112423.366000", "112423.369000", "112423.373000", "112423.376000", "112423.379000", "112423.382000", "112423.385000", "112423.389000", "112423.392000", "112423.395000", "112423.398000", "112423.402000", "112423.405000", "112423.408000", "112423.411000", "112423.415000", "112423.418000", "112503.334000", "112503.338000", "112503.356000", "112503.360000", "112503.363000", "112503.366000", "112503.369000", "112503.373000", "112503.376000", "112503.379000", "112503.382000", "112503.386000", "112503.389000", "112503.392000", "112503.395000", "112503.399000", "112503.402000", "112503.405000", "112503.409000", "112503.412000", "112503.415000", "112503.418000", "112503.422000", "112503.425000", "112503.428000", "112503.431000", "112503.435000", "112543.334000", "112543.338000", "112543.341000", "112543.344000", "112543.348000", "112543.351000", "112543.354000", "112543.357000", "112543.360000", "112543.364000", "112543.367000", "112543.370000", "112543.374000", "112543.377000", "112543.380000", "112543.383000", "112543.387000", "112543.390000", "112543.393000", "112543.397000", "112543.400000", "112543.403000", "112543.406000", "112543.410000", "112543.413000", "112543.416000", "112543.419000", "112552.125000", "112552.129000", "112552.132000", "112552.136000", "112552.139000", "112552.142000"],
      "InstanceCreationTime": ["112203.373000", "112203.376000", "112223.334000", "112223.338000", "112223.341000", "112223.344000", "112223.348000", "112223.351000", "112223.354000", "112223.357000", "112223.361000", "112223.364000", "112223.367000", "112223.370000", "112223.373000", "112223.378000", "112223.381000", "112223.384000", "112223.387000", "112223.391000", "112223.394000", "112223.397000", "112243.334000", "112243.338000", "112243.341000", "112243.344000", "112243.347000", "112243.350000", "112243.354000", "112243.357000", "112243.360000", "112243.363000", "112243.366000", "112243.385000", "112243.388000", "112243.391000", "112243.395000", "112243.398000", "112243.401000", "112243.405000", "112243.409000", "112243.413000", "112303.334000", "112303.338000", "112303.341000", "112303.344000", "112303.347000", "112303.351000", "112303.354000", "112303.357000", "112303.360000", "112303.364000", "112303.367000", "112303.370000", "112303.373000", "112303.376000", "112303.380000", "112303.383000", "112303.386000", "112303.389000", "112303.392000", "112303.396000", "112303.399000", "112323.334000", "112323.338000", "112323.341000", "112323.344000", "112323.347000", "112323.351000", "112323.354000", "112323.357000", "112323.360000", "112323.363000", "112323.367000", "112323.370000", "112323.373000", "112323.376000", "112323.380000", "112323.383000", "112323.386000", "112323.389000", "112323.393000", "112323.396000", "112343.334000", "112343.338000", "112343.341000", "112343.344000", "112343.347000", "112343.351000", "112343.354000", "112343.358000", "112343.361000", "112343.364000", "112343.368000", "112343.371000", "112343.374000", "112343.377000", "112343.381000", "112343.384000", "112343.387000", "112343.390000", "112343.394000", "112343.397000", "112423.333000", "112423.337000", "112423.340000", "112423.343000", "112423.347000", "112423.350000", "112423.353000", "112423.356000", "112423.360000", "112423.363000", "112423.366000", "112423.369000", "112423.373000", "112423.376000", "112423.379000", "112423.382000", "112423.385000", "112423.389000", "112423.392000", "112423.395000", "112423.398000", "112423.402000", "112423.405000", "112423.408000", "112423.411000", "112423.415000", "112423.418000", "112503.334000", "112503.338000", "112503.356000", "112503.360000", "112503.363000", "112503.366000", "112503.369000", "112503.373000", "112503.376000", "112503.379000", "112503.382000", "112503.386000", "112503.389000", "112503.392000", "112503.395000", "112503.399000", "112503.402000", "112503.405000", "112503.409000", "112503.412000", "112503.415000", "112503.418000", "112503.422000", "112503.425000", "112503.428000", "112503.431000", "112503.435000", "112543.334000", "112543.338000", "112543.341000", "112543.344000", "112543.348000", "112543.351000", "112543.354000", "112543.357000", "112543.360000", "112543.364000", "112543.367000", "112543.370000", "112543.374000", "112543.377000", "112543.380000", "112543.383000", "112543.387000", "112543.390000", "112543.393000", "112543.397000", "112543.400000", "112543.403000", "112543.406000", "112543.410000", "112543.413000", "112543.416000", "112543.419000", "112552.125000", "112552.129000", "112552.132000", "112552.136000", "112552.139000", "112552.142000"],
      "InstanceNumber": [1, 2, 3, 4, 5, 6, 7, 8, 9, 10, 11, 12, 13, 14, 15, 16, 17, 18, 19, 20, 21, 22, 23, 24, 25, 26, 27, 28, 29, 30, 31, 32, 33, 34, 35, 36, 37, 38, 39, 40, 41, 42, 43, 44, 45, 46, 47, 48, 49, 50, 51, 52, 53, 54, 55, 56, 57, 58, 59, 60, 61, 62, 63, 64, 65, 66, 67, 68, 69, 70, 71, 72, 73, 74, 75, 76, 77, 78, 79, 80, 81, 82, 83, 84, 85, 86, 87, 88, 89, 90, 91, 92, 93, 94, 95, 96, 97, 98, 99, 100, 101, 102, 103, 104, 105, 106, 107, 108, 109, 110, 111, 112, 113, 114, 115, 116, 117, 118, 119, 120, 121, 122, 123, 124, 125, 126, 127, 128, 129, 130, 131, 132, 133, 134, 135, 136, 137, 138, 139, 140, 141, 142, 143, 144, 145, 146, 147, 148, 149, 150, 151, 152, 153, 154, 155, 156, 157, 158, 159, 160, 161, 162, 163, 164, 165, 166, 167, 168, 169, 170, 171, 172, 173, 174, 175, 176, 177, 178, 179, 180, 181, 182, 183, 184, 185, 186, 187, 188, 189, 190],
      "LargestImagePixelValue": [40413, 39496, 40564, 39811, 39232, 39663, 40132, 38351, 39231, 38287, 38054, 38990, 38054, 39659, 37781, 38212, 38407, 38086, 40022, 38634, 38699, 39547, 37762, 38142, 39344, 38269, 37636, 39657, 39534, 37667, 38664, 38144, 37778, 39042, 40079, 38593, 41593, 39397, 40885, 41787, 39092, 37979, 40244, 40831, 39152, 38819, 39087, 38950, 40146, 40842, 39007, 41975, 40752, 41079, 40188, 38743, 40966, 40349, 39592, 40253, 40431, 41811, 41792, 38774, 39879, 39174, 38698, 41768, 39521, 39083, 40380, 38556, 37656, 38853, 39652, 38574, 38918, 40956, 41197, 44212, 41820, 38456, 39837, 41040, 39397, 39496, 39480, 39292, 38206, 42951, 40693, 40048, 40862, 41241, 42635, 41002, 38269, 38986, 40225, 39452, 40001, 39541, 41838, 38685, 38659, 40229, 40828, 40194, 38120, 38548, 40917, 37613, 40570, 42167, 39486, 42086, 38360, 41366, 42154, 37977, 39404, 39612, 38514, 38703, 39923, 38886, 40893, 41310, 39610, 41740, 41256, 39918, 38187, 39236, 42402, 40269, 41234, 39497, 40156, 39293, 40341, 41353, 39471, 38881, 41173, 38911, 40449, 42028, 39647, 40138, 38495, 38651, 40192, 40619, 40622, 38436, 38691, 37449, 38127, 38043, 37407, 37605, 37767, 40495, 38735, 37512, 39632, 40183, 39973, 43056, 41975, 43273, 38781, 37677, 39337, 40220, 38840, 39594, 37832, 38247, 38511, 41598, 40282, 42723, 40933, 39643, 38437, 43339, 42995, 41998],
      "WindowCenter": [10634.0, 10601.0, 10574.0, 10519.0, 10517.0, 10502.0, 10508.0, 10512.0, 10503.0, 10518.0, 10516.0, 10526.0, 10532.0, 10551.0, 10515.0, 10530.0, 10521.0, 10526.0, 10539.0, 10520.0, 10529.0, 10538.0, 10508.0, 10514.0, 10529.0, 10521.0, 10508.0, 10531.0, 10521.0, 10497.0, 10487.0, 10483.0, 10487.0, 10526.0, 10547.0, 10502.0, 10525.0, 10496.0, 10508.0, 10547.0, 10524.0, 10495.0, 10547.0, 10550.0, 10516.0, 10501.0, 10498.0, 10507.0, 10529.0, 10528.0, 10500.0, 10541.0, 10542.0, 10550.0, 10527.0, 10481.0, 10510.0, 10534.0, 10534.0, 10532.0, 10525.0, 10521.0, 10553.0, 10588.0, 10566.0, 10536.0, 10529.0, 10532.0, 10469.0, 10462.0, 10507.0, 10519.0, 10531.0, 10524.0, 10508.0, 10509.0, 10487.0, 10534.0, 10553.0, 10571.0, 10493.0, 10447.0, 10484.0, 10557.0, 10525.0, 10526.0, 10511.0, 10480.0, 10456.0, 10520.0, 10530.0, 10545.0, 10549.0, 10545.0, 10546.0, 10536.0, 10518.0, 10536.0, 10567.0, 10518.0, 10511.0, 10519.0, 10545.0, 10518.0, 10515.0, 10524.0, 10535.0, 10533.0, 10496.0, 10509.0, 10531.0, 10505.0, 10541.0, 10559.0, 10534.0, 10570.0, 10525.0, 10537.0, 10536.0, 10472.0, 10500.0, 10526.0, 10520.0, 10530.0, 10540.0, 10512.0, 10515.0, 10524.0, 10510.0, 10544.0, 10526.0, 10535.0, 10503.0, 10524.0, 10551.0, 10510.0, 10500.0, 10513.0, 10500.0, 10512.0, 10521.0, 10536.0, 10529.0, 10525.0, 10510.0, 10460.0, 10494.0, 10551.0, 10544.0, 10537.0, 10506.0, 10501.0, 10534.0, 10552.0, 10554.0, 10515.0, 10519.0, 10511.0, 10517.0, 10510.0, 10483.0, 10491.0, 10501.0, 10542.0, 10521.0, 10494.0, 10528.0, 10548.0, 10562.0, 10592.0, 10576.0, 10576.0, 10483.0, 10455.0, 10550.0, 10556.0, 10553.0, 10570.0, 10515.0, 10548.0, 10546.0, 10564.0, 10531.0, 10519.0, 10499.0, 10508.0, 10534.0, 10606.0, 10573.0, 10476.0],
      "WindowWidth": [22772.0, 22670.0, 22586.0, 22454.0, 22442.0, 22407.0, 22414.0, 22434.0, 22408.0, 22446.0, 22448.0, 22462.0, 22479.0, 22515.0, 22442.0, 22480.0, 22456.0, 22467.0, 22489.0, 22451.0, 22469.0, 22484.0, 22432.0, 22443.0, 22466.0, 22457.0, 22433.0, 22470.0, 22448.0, 22406.0, 22378.0, 22370.0, 22384.0, 22460.0, 22500.0, 22405.0, 22441.0, 22393.0, 22410.0, 22494.0, 22460.0, 22402.0, 22499.0, 22506.0, 22441.0, 22408.0, 22398.0, 22419.0, 22463.0, 22452.0, 22404.0, 22479.0, 22488.0, 22505.0, 22459.0, 22360.0, 22412.0, 22470.0, 22478.0, 22467.0, 22450.0, 22435.0, 22503.0, 22603.0, 22546.0, 22480.0, 22466.0, 22459.0, 22329.0, 22314.0, 22403.0, 22444.0, 22478.0, 22454.0, 22415.0, 22426.0, 22370.0, 22462.0, 22505.0, 22531.0, 22372.0, 22284.0, 22357.0, 22515.0, 22451.0, 22452.0, 22421.0, 22352.0, 22307.0, 22424.0, 22462.0, 22499.0, 22505.0, 22492.0, 22488.0, 22472.0, 22443.0, 22480.0, 22543.0, 22438.0, 22421.0, 22439.0, 22483.0, 22446.0, 22439.0, 22449.0, 22469.0, 22468.0, 22398.0, 22423.0, 22460.0, 22414.0, 22481.0, 22516.0, 22473.0, 22543.0, 22461.0, 22473.0, 22465.0, 22346.0, 22397.0, 22455.0, 22449.0, 22471.0, 22485.0, 22425.0, 22424.0, 22437.0, 22419.0, 22486.0, 22445.0, 22473.0, 22408.0, 22449.0, 22495.0, 22411.0, 22386.0, 22426.0, 22396.0, 22422.0, 22444.0, 22467.0, 22463.0, 22457.0, 22408.0, 22313.0, 22378.0, 22499.0, 22497.0, 22478.0, 22423.0, 22407.0, 22468.0, 22507.0, 22515.0, 22439.0, 22443.0, 22432.0, 22443.0, 22433.0, 22372.0, 22386.0, 22408.0, 22483.0, 22446.0, 22394.0, 22453.0, 22499.0, 22532.0, 22581.0, 22552.0, 22548.0, 22367.0, 22305.0, 22508.0, 22519.0, 22519.0, 22550.0, 22434.0, 22505.0, 22501.0, 22528.0, 22455.0, 22418.0, 22383.0, 22408.0, 22475.0, 22625.0, 22543.0, 22343.0]
    },
    "slices": {}
  }
}