{
  "AcquisitionMatrixPE": 104,
  "AcquisitionNumber": 1,
  "AcquisitionTime": "11:15:7.115000",
  "BandwidthPerPixelPhaseEncode": 17.17,
  "BaseResolution": 104,
  "BodyPartExamined": "BRAIN",
  "CoilString": "HC1-7;NC1_2",
  "ConsistencyInfo": "N4_VE11C_LATEST_20160120",
  "ConversionSoftware": "dcm2niix",
  "ConversionSoftwareVersion": "v1.0.20190902",
  "DerivedVendorReportedEchoSpacing": 0.000560011,
  "DeviceSerialNumber": "167006",
  "DwellTime": 2.1e-06,
  "EchoTime": 0.037,
  "EchoTrainLength": 104,
  "EffectiveEchoSpacing": 0.000560011,
  "FlipAngle": 52,
  "ImageComments": "Unaliased_MB4_PE3_LB",
  "ImageOrientationPatientDICOM": [0.999524, 0.00797501, 0.0297876, 0.00802483, 0.865425, -0.500973],
  "ImageType": [
    "ORIGINAL",
    "PRIMARY",
    "M",
    "MB",
    "ND",
    "MOSAIC"
],
  "ImagingFrequency": 123.259,
  "InPlanePhaseEncodingDirectionDICOM": "COL",
  "InstitutionAddress": "Chemin_Queen-Mary_4565_Montreal_District_CA_H3W_1W5",
  "InstitutionName": "IUGM",
  "InstitutionalDepartmentName": "Department",
  "MRAcquisitionType": "2D",
  "MagneticFieldStrength": 3,
  "Manufacturer": "Siemens",
  "ManufacturersModelName": "Prisma_fit",
  "Modality": "MR",
  "MultibandAccelerationFactor": 4,
  "PartialFourier": 1,
  "PatientPosition": "HFS",
  "PercentPhaseFOV": 100,
  "PhaseEncodingDirection": "j",
  "PhaseEncodingSteps": 104,
  "PhaseResolution": 1,
  "PixelBandwidth": 2290,
  "ProcedureStepDescription": "memory_things",
  "ProtocolName": "func_task-things_run-3",
  "PulseSequenceDetails": "%CustomerSeq%_cmrr_mbep2d_bold",
  "ReceiveCoilActiveElements": "HC1-7;NC1,2",
  "ReceiveCoilName": "HeadNeck_64",
  "ReconMatrixPE": 104,
  "RepetitionTime": 1.49,
  "SAR": 0.0615673,
  "ScanOptions": "FS",
  "ScanningSequence": "EP",
  "SequenceName": "epfid2d1_104",
  "SequenceVariant": "SK_SS",
  "SeriesDescription": "func_task-things_run-3",
  "SeriesNumber": 19,
  "ShimSetting": [626, -7185, -8865, 292, 38, -181, -69, 4],
  "SliceThickness": 2,
  "SliceTiming": [0, 0.7825, 0.0975, 0.88, 0.195, 0.98, 0.2925, 1.0775, 0.3925, 1.175, 0.49, 1.2725, 0.5875, 1.37, 0.685, 0, 0.7825, 0.0975, 0.88, 0.195, 0.98, 0.2925, 1.0775, 0.3925, 1.175, 0.49, 1.2725, 0.5875, 1.37, 0.685, 0, 0.7825, 0.0975, 0.88, 0.195, 0.98, 0.2925, 1.0775, 0.3925, 1.175, 0.49, 1.2725, 0.5875, 1.37, 0.685, 0, 0.7825, 0.0975, 0.88, 0.195, 0.98, 0.2925, 1.0775, 0.3925, 1.175, 0.49, 1.2725, 0.5875, 1.37, 0.685],
  "SoftwareVersions": "syngo_MR_E11",
  "SpacingBetweenSlices": 2,
  "StationName": "MRC35049",
  "TaskName": "things",
  "TotalReadoutTime": 0.0576811,
  "TxRefAmp": 300.379,
  "WipMemBlock": "7120bf97-85df-49b2-9beb-0bdabb7139fd||Sequence: R016 ve11c/master r/e634e98; Dec 19 2017 11:00:25 by eja",
  "dcmmeta_affine": [
    [-1.9990488290786743, 0.01604965701699257, 0.05954841896891594, 104.7594985961914],
    [-0.015950025990605354, 1.7308509349822998, -1.0019484758377075, -50.735233306884766],
    [0.05957518145442009, 1.0019469261169434, 1.7298997640609741, -98.22508239746094],
    [0.0, 0.0, 0.0, 1.0]
],
  "dcmmeta_reorient_transform": [
    [0.0, -1.0, 0.0, 103.0],
    [1.0, 0.0, 0.0, 0.0],
    [0.0, 0.0, 1.0, 0.0],
    [0.0, 0.0, 0.0, 1.0]
],
  "dcmmeta_shape": [104, 104, 60, 190],
  "dcmmeta_slice_dim": 2,
  "dcmmeta_version": 0.6,
  "global": {
    "const": {
      "AcquisitionMatrix": [104, 0, 0, 104],
      "AngioFlag": "N",
      "BitsAllocated": 16,
      "BitsStored": 16,
      "BodyPartExamined": "BRAIN",
      "Columns": 832,
      "EchoNumbers": 1,
      "EchoTime": 37.0,
      "EchoTrainLength": 104,
      "FlipAngle": 52.0,
      "HighBit": 15,
      "ImageOrientationPatient": [0.99952443623218, 0.00797501311953, 0.02978759037721, 0.00802482868949, 0.86542545135804, -0.5009734426756],
      "ImagePositionPatient": [-839.90848036582, -763.3779495679, 347.99874748994],
      "ImageType": [
        "ORIGINAL",
        "PRIMARY",
        "M",
        "MB",
        "ND",
        "MOSAIC"
],
      "ImagedNucleus": "1H",
      "ImagingFrequency": 123.258903,
      "InPlanePhaseEncodingDirection": "COL",
      "MRAcquisitionType": "2D",
      "MagneticFieldStrength": 3.0,
      "Manufacturer": "SIEMENS",
      "ManufacturerModelName": "Prisma_fit",
      "Modality": "MR",
      "NumberOfAverages": 1.0,
      "NumberOfPhaseEncodingSteps": 104,
      "PercentPhaseFieldOfView": 100.0,
      "PercentSampling": 100.0,
      "PerformedProcedureStepStartTime": "104801.872000",
      "PhotometricInterpretation": "MONOCHROME2",
      "PixelBandwidth": 2290.0,
      "PixelRepresentation": 0,
      "PixelSpacing": [2.0, 2.0],
      "ProtocolName": "func_task-things_run-3",
      "RepetitionTime": 1490.0,
      "Rows": 832,
      "SAR": 0.06156728256807,
      "SamplesPerPixel": 1,
      "ScanOptions": "FS",
      "ScanningSequence": "EP",
      "SequenceName": "epfid2d1_104",
      "SequenceVariant": [
        "SK",
        "SS"
],
      "SeriesDescription": "func_task-things_run-3",
      "SeriesNumber": 19,
      "SeriesTime": "111623.453000",
      "SliceLocation": -56.423598643859,
      "SliceThickness": 2.0,
      "SmallestImagePixelValue": 0,
      "SoftwareVersions": "syngo MR E11",
      "SpacingBetweenSlices": 1.9999999972506,
      "SpecificCharacterSet": "ISO_IR 100",
      "StudyID": "1",
      "StudyTime": "104801.796000",
      "TransmitCoilName": "Body",
      "VariableFlipAngleFlag": "N",
      "WindowCenterWidthExplanation": "Algo1",
      "dBdt": 0.0},
    "slices": {}
  },
  "time": {
    "samples": {
      "AcquisitionNumber": [1, 2, 3, 4, 5, 6, 7, 8, 9, 10, 11, 12, 13, 14, 15, 16, 17, 18, 19, 20, 21, 22, 23, 24, 25, 26, 27, 28, 29, 30, 31, 32, 33, 34, 35, 36, 37, 38, 39, 40, 41, 42, 43, 44, 45, 46, 47, 48, 49, 50, 51, 52, 53, 54, 55, 56, 57, 58, 59, 60, 61, 62, 63, 64, 65, 66, 67, 68, 69, 70, 71, 72, 73, 74, 75, 76, 77, 78, 79, 80, 81, 82, 83, 84, 85, 86, 87, 88, 89, 90, 91, 92, 93, 94, 95, 96, 97, 98, 99, 100, 101, 102, 103, 104, 105, 106, 107, 108, 109, 110, 111, 112, 113, 114, 115, 116, 117, 118, 119, 120, 121, 122, 123, 124, 125, 126, 127, 128, 129, 130, 131, 132, 133, 134, 135, 136, 137, 138, 139, 140, 141, 142, 143, 144, 145, 146, 147, 148, 149, 150, 151, 152, 153, 154, 155, 156, 157, 158, 159, 160, 161, 162, 163, 164, 165, 166, 167, 168, 169, 170, 171, 172, 173, 174, 175, 176, 177, 178, 179, 180, 181, 182, 183, 184, 185, 186, 187, 188, 189, 190],
      "AcquisitionTime": ["111507.115000", "111508.605000", "111510.095000", "111511.585000", "111513.075000", "111514.565000", "111516.055000", "111517.545000", "111519.035000", "111520.525000", "111522.015000", "111523.505000", "111524.995000", "111526.485000", "111527.975000", "111529.465000", "111530.955000", "111532.445000", "111533.935000", "111535.425000", "111536.915000", "111538.405000", "111539.895000", "111541.385000", "111542.875000", "111544.365000", "111545.855000", "111547.345000", "111548.835000", "111550.325000", "111551.815000", "111553.305000", "111554.795000", "111556.285000", "111557.775000", "111559.265000", "111600.755000", "111602.245000", "111603.735000", "111605.225000", "111606.715000", "111608.205000", "111609.695000", "111611.185000", "111612.675000", "111614.165000", "111615.655000", "111617.145000", "111618.635000", "111620.125000", "111621.615000", "111623.105000", "111624.595000", "111626.085000", "111627.575000", "111629.065000", "111630.555000", "111632.045000", "111633.535000", "111635.025000", "111636.515000", "111638.005000", "111639.495000", "111640.985000", "111642.475000", "111643.965000", "111645.455000", "111646.945000", "111648.435000", "111649.925000", "111651.415000", "111652.905000", "111654.395000", "111655.885000", "111657.375000", "111658.865000", "111700.355000", "111701.845000", "111703.335000", "111704.825000", "111706.315000", "111707.805000", "111709.295000", "111710.785000", "111712.275000", "111713.765000", "111715.255000", "111716.745000", "111718.235000", "111719.725000", "111721.215000", "111722.705000", "111724.195000", "111725.685000", "111727.175000", "111728.665000", "111730.155000", "111731.645000", "111733.135000", "111734.625000", "111736.115000", "111737.605000", "111739.095000", "111740.585000", "111742.075000", "111743.565000", "111745.055000", "111746.545000", "111748.035000", "111749.525000", "111751.015000", "111752.505000", "111753.995000", "111755.485000", "111756.975000", "111758.465000", "111759.955000", "111801.445000", "111802.935000", "111804.425000", "111805.915000", "111807.405000", "111808.895000", "111810.385000", "111811.875000", "111813.365000", "111814.855000", "111816.345000", "111817.835000", "111819.325000", "111820.815000", "111822.305000", "111823.795000", "111825.285000", "111826.775000", "111828.265000", "111829.755000", "111831.245000", "111832.735000", "111834.225000", "111835.715000", "111837.205000", "111838.695000", "111840.185000", "111841.675000", "111843.165000", "111844.655000", "111846.145000", "111847.635000", "111849.125000", "111850.615000", "111852.105000", "111853.595000", "111855.085000", "111856.575000", "111858.065000", "111859.555000", "111901.045000", "111902.535000", "111904.025000", "111905.515000", "111907.005000", "111908.495000", "111909.985000", "111911.475000", "111912.965000", "111914.455000", "111915.945000", "111917.435000", "111918.925000", "111920.415000", "111921.905000", "111923.395000", "111924.885000", "111926.375000", "111927.865000", "111929.355000", "111930.845000", "111932.335000", "111933.825000", "111935.315000", "111936.805000", "111938.295000", "111939.785000", "111941.275000", "111942.765000", "111944.255000", "111945.745000", "111947.235000", "111948.725000"],
      "ContentTime": ["111623.457000", "111623.461000", "111623.464000", "111623.467000", "111623.471000", "111623.474000", "111623.477000", "111623.480000", "111623.484000", "111623.487000", "111623.490000", "111623.493000", "111623.496000", "111623.500000", "111623.503000", "111623.506000", "111623.509000", "111623.513000", "111623.516000", "111623.519000", "111623.522000", "111623.526000", "111623.529000", "111643.420000", "111643.424000", "111643.427000", "111643.430000", "111643.433000", "111643.437000", "111643.440000", "111643.443000", "111643.447000", "111643.450000", "111643.461000", "111643.464000", "111643.467000", "111643.471000", "111643.474000", "111643.477000", "111643.480000", "111643.484000", "111643.487000", "111643.490000", "111703.420000", "111703.424000", "111703.427000", "111703.430000", "111703.433000", "111703.437000", "111703.440000", "111703.443000", "111703.446000", "111703.450000", "111703.453000", "111703.456000", "111703.459000", "111703.463000", "111703.466000", "111703.469000", "111703.472000", "111703.475000", "111703.479000", "111703.482000", "111723.420000", "111723.424000", "111723.427000", "111723.430000", "111723.433000", "111723.437000", "111723.440000", "111723.443000", "111723.446000", "111723.450000", "111723.453000", "111723.456000", "111723.460000", "111723.463000", "111723.466000", "111723.469000", "111723.473000", "111723.476000", "111723.479000", "111723.482000", "111723.486000", "111743.419000", "111743.423000", "111743.426000", "111743.429000", "111743.432000", "111743.436000", "111743.439000", "111743.442000", "111743.445000", "111743.449000", "111743.452000", "111743.455000", "111743.458000", "111743.461000", "111743.465000", "111743.468000", "111743.471000", "111743.474000", "111743.478000", "111743.481000", "111823.420000", "111823.424000", "111823.427000", "111823.430000", "111823.433000", "111823.437000", "111823.440000", "111823.443000", "111823.446000", "111823.450000", "111823.453000", "111823.456000", "111823.459000", "111823.463000", "111823.466000", "111823.469000", "111823.473000", "111823.476000", "111823.479000", "111823.482000", "111823.486000", "111823.489000", "111823.492000", "111823.495000", "111823.499000", "111823.502000", "111823.505000", "111903.420000", "111903.432000", "111903.436000", "111903.439000", "111903.443000", "111903.446000", "111903.449000", "111903.453000", "111903.456000", "111903.459000", "111903.462000", "111903.466000", "111903.469000", "111903.472000", "111903.475000", "111903.479000", "111903.482000", "111903.485000", "111903.488000", "111903.492000", "111903.495000", "111903.498000", "111903.502000", "111903.505000", "111903.508000", "111903.512000", "111943.421000", "111943.424000", "111943.428000", "111943.431000", "111943.434000", "111943.438000", "111943.441000", "111943.444000", "111943.447000", "111943.451000", "111943.454000", "111943.457000", "111943.461000", "111943.464000", "111943.467000", "111943.470000", "111943.474000", "111943.477000", "111943.480000", "111943.483000", "111943.487000", "111943.490000", "111943.493000", "111943.496000", "111943.499000", "111943.503000", "111943.506000", "111951.313000", "111951.316000", "111951.319000", "111951.323000", "111951.326000", "111951.329000"],
      "InstanceCreationTime": ["111623.457000", "111623.461000", "111623.464000", "111623.467000", "111623.471000", "111623.474000", "111623.477000", "111623.480000", "111623.484000", "111623.487000", "111623.490000", "111623.493000", "111623.496000", "111623.500000", "111623.503000", "111623.506000", "111623.509000", "111623.513000", "111623.516000", "111623.519000", "111623.522000", "111623.526000", "111623.529000", "111643.420000", "111643.424000", "111643.427000", "111643.430000", "111643.433000", "111643.437000", "111643.440000", "111643.443000", "111643.447000", "111643.450000", "111643.461000", "111643.464000", "111643.467000", "111643.471000", "111643.474000", "111643.477000", "111643.480000", "111643.484000", "111643.487000", "111643.490000", "111703.420000", "111703.424000", "111703.427000", "111703.430000", "111703.433000", "111703.437000", "111703.440000", "111703.443000", "111703.446000", "111703.450000", "111703.453000", "111703.456000", "111703.459000", "111703.463000", "111703.466000", "111703.469000", "111703.472000", "111703.475000", "111703.479000", "111703.482000", "111723.420000", "111723.424000", "111723.427000", "111723.430000", "111723.433000", "111723.437000", "111723.440000", "111723.443000", "111723.446000", "111723.450000", "111723.453000", "111723.456000", "111723.460000", "111723.463000", "111723.466000", "111723.469000", "111723.473000", "111723.476000", "111723.479000", "111723.482000", "111723.486000", "111743.419000", "111743.423000", "111743.426000", "111743.429000", "111743.432000", "111743.436000", "111743.439000", "111743.442000", "111743.445000", "111743.449000", "111743.452000", "111743.455000", "111743.458000", "111743.461000", "111743.465000", "111743.468000", "111743.471000", "111743.474000", "111743.478000", "111743.481000", "111823.420000", "111823.424000", "111823.427000", "111823.430000", "111823.433000", "111823.437000", "111823.440000", "111823.443000", "111823.446000", "111823.450000", "111823.453000", "111823.456000", "111823.459000", "111823.463000", "111823.466000", "111823.469000", "111823.473000", "111823.476000", "111823.479000", "111823.482000", "111823.486000", "111823.489000", "111823.492000", "111823.495000", "111823.499000", "111823.502000", "111823.505000", "111903.420000", "111903.432000", "111903.436000", "111903.439000", "111903.443000", "111903.446000", "111903.449000", "111903.453000", "111903.456000", "111903.459000", "111903.462000", "111903.466000", "111903.469000", "111903.472000", "111903.475000", "111903.479000", "111903.482000", "111903.485000", "111903.488000", "111903.492000", "111903.495000", "111903.498000", "111903.502000", "111903.505000", "111903.508000", "111903.512000", "111943.421000", "111943.424000", "111943.428000", "111943.431000", "111943.434000", "111943.438000", "111943.441000", "111943.444000", "111943.447000", "111943.451000", "111943.454000", "111943.457000", "111943.461000", "111943.464000", "111943.467000", "111943.470000", "111943.474000", "111943.477000", "111943.480000", "111943.483000", "111943.487000", "111943.490000", "111943.493000", "111943.496000", "111943.499000", "111943.503000", "111943.506000", "111951.313000", "111951.316000", "111951.319000", "111951.323000", "111951.326000", "111951.329000"],
      "InstanceNumber": [1, 2, 3, 4, 5, 6, 7, 8, 9, 10, 11, 12, 13, 14, 15, 16, 17, 18, 19, 20, 21, 22, 23, 24, 25, 26, 27, 28, 29, 30, 31, 32, 33, 34, 35, 36, 37, 38, 39, 40, 41, 42, 43, 44, 45, 46, 47, 48, 49, 50, 51, 52, 53, 54, 55, 56, 57, 58, 59, 60, 61, 62, 63, 64, 65, 66, 67, 68, 69, 70, 71, 72, 73, 74, 75, 76, 77, 78, 79, 80, 81, 82, 83, 84, 85, 86, 87, 88, 89, 90, 91, 92, 93, 94, 95, 96, 97, 98, 99, 100, 101, 102, 103, 104, 105, 106, 107, 108, 109, 110, 111, 112, 113, 114, 115, 116, 117, 118, 119, 120, 121, 122, 123, 124, 125, 126, 127, 128, 129, 130, 131, 132, 133, 134, 135, 136, 137, 138, 139, 140, 141, 142, 143, 144, 145, 146, 147, 148, 149, 150, 151, 152, 153, 154, 155, 156, 157, 158, 159, 160, 161, 162, 163, 164, 165, 166, 167, 168, 169, 170, 171, 172, 173, 174, 175, 176, 177, 178, 179, 180, 181, 182, 183, 184, 185, 186, 187, 188, 189, 190],
      "LargestImagePixelValue": [44237, 42539, 46204, 45222, 44434, 44960, 45073, 46429, 44525, 45875, 45383, 43362, 43115, 45161, 43278, 44863, 45211, 45529, 45314, 44222, 43893, 44449, 44189, 43778, 43673, 43900, 43655, 44062, 43840, 43630, 44426, 44163, 43172, 45632, 43364, 42382, 44017, 43163, 41785, 43807, 42778, 44193, 45427, 43438, 43480, 42945, 43632, 43959, 44243, 44398, 43650, 44848, 46251, 44267, 44149, 43773, 39848, 46024, 45544, 45160, 43568, 44750, 43814, 43216, 43452, 43374, 43192, 42365, 43327, 43715, 43480, 43051, 43239, 43316, 43708, 43731, 43317, 43487, 43298, 43645, 44514, 44514, 44232, 43339, 44738, 43813, 43436, 44890, 43503, 40182, 45274, 44189, 44421, 44120, 43078, 43964, 43844, 43566, 41487, 43265, 43363, 43122, 42193, 44369, 44144, 42995, 43512, 42528, 43199, 42157, 43514, 42990, 43077, 44430, 43737, 44010, 40543, 43837, 45675, 45483, 44346, 42920, 44263, 43665, 43887, 44427, 44430, 43613, 44077, 43313, 43648, 43769, 42745, 43214, 42609, 42928, 41801, 43144, 41706, 43472, 43192, 41508, 42283, 43165, 44086, 43622, 42650, 42816, 43690, 43650, 44707, 44012, 42059, 44998, 42849, 43265, 43019, 42969, 41557, 41700, 41662, 41283, 42142, 43026, 41615, 42167, 41508, 40676, 41155, 40747, 40693, 40313, 41156, 41848, 40120, 41253, 40834, 41287, 40730, 41378, 41579, 41355, 40984, 42498, 41289, 41912, 41886, 41150, 45423, 45326],
      "WindowCenter": [10686.0, 10636.0, 10643.0, 10625.0, 10593.0, 10616.0, 10598.0, 10634.0, 10601.0, 10622.0, 10592.0, 10585.0, 10646.0, 10609.0, 10557.0, 10583.0, 10574.0, 10596.0, 10611.0, 10591.0, 10567.0, 10569.0, 10568.0, 10580.0, 10567.0, 10567.0, 10564.0, 10588.0, 10582.0, 10584.0, 10614.0, 10613.0, 10580.0, 10560.0, 10521.0, 10538.0, 10573.0, 10573.0, 10556.0, 10561.0, 10522.0, 10538.0, 10608.0, 10572.0, 10566.0, 10542.0, 10531.0, 10565.0, 10598.0, 10592.0, 10574.0, 10578.0, 10563.0, 10548.0, 10566.0, 10561.0, 10539.0, 10620.0, 10623.0, 10594.0, 10576.0, 10583.0, 10554.0, 10562.0, 10551.0, 10577.0, 10574.0, 10563.0, 10567.0, 10591.0, 10556.0, 10548.0, 10534.0, 10535.0, 10549.0, 10562.0, 10560.0, 10573.0, 10569.0, 10558.0, 10574.0, 10588.0, 10553.0, 10565.0, 10584.0, 10596.0, 10596.0, 10615.0, 10586.0, 10542.0, 10584.0, 10574.0, 10577.0, 10634.0, 10552.0, 10535.0, 10549.0, 10569.0, 10567.0, 10604.0, 10576.0, 10555.0, 10592.0, 10600.0, 10617.0, 10564.0, 10546.0, 10552.0, 10567.0, 10579.0, 10593.0, 10561.0, 10566.0, 10594.0, 10599.0, 10586.0, 10548.0, 10605.0, 10624.0, 10611.0, 10589.0, 10570.0, 10590.0, 10594.0, 10600.0, 10597.0, 10616.0, 10602.0, 10596.0, 10595.0, 10584.0, 10579.0, 10586.0, 10586.0, 10559.0, 10607.0, 10575.0, 10560.0, 10552.0, 10567.0, 10558.0, 10554.0, 10544.0, 10564.0, 10579.0, 10565.0, 10544.0, 10542.0, 10569.0, 10584.0, 10594.0, 10590.0, 10570.0, 10630.0, 10605.0, 10614.0, 10608.0, 10606.0, 10604.0, 10618.0, 10600.0, 10591.0, 10605.0, 10626.0, 10619.0, 10605.0, 10573.0, 10567.0, 10587.0, 10586.0, 10587.0, 10573.0, 10579.0, 10612.0, 10586.0, 10611.0, 10614.0, 10612.0, 10581.0, 10592.0, 10617.0, 10629.0, 10607.0, 10611.0, 10600.0, 10616.0, 10627.0, 10596.0, 10618.0, 10630.0],
      "WindowWidth": [22883.0, 22738.0, 22715.0, 22670.0, 22590.0, 22637.0, 22594.0, 22670.0, 22604.0, 22642.0, 22579.0, 22571.0, 22714.0, 22618.0, 22507.0, 22559.0, 22539.0, 22582.0, 22621.0, 22581.0, 22532.0, 22535.0, 22529.0, 22559.0, 22533.0, 22539.0, 22526.0, 22577.0, 22567.0, 22572.0, 22635.0, 22635.0, 22564.0, 22511.0, 22430.0, 22471.0, 22542.0, 22544.0, 22515.0, 22514.0, 22433.0, 22459.0, 22613.0, 22537.0, 22528.0, 22476.0, 22445.0, 22520.0, 22599.0, 22578.0, 22543.0, 22548.0, 22507.0, 22481.0, 22520.0, 22517.0, 22486.0, 22635.0, 22643.0, 22582.0, 22552.0, 22558.0, 22500.0, 22517.0, 22493.0, 22549.0, 22545.0, 22528.0, 22531.0, 22583.0, 22503.0, 22484.0, 22453.0, 22457.0, 22484.0, 22520.0, 22516.0, 22539.0, 22533.0, 22511.0, 22536.0, 22578.0, 22495.0, 22522.0, 22560.0, 22589.0, 22593.0, 22628.0, 22568.0, 22488.0, 22558.0, 22548.0, 22541.0, 22679.0, 22500.0, 22453.0, 22482.0, 22532.0, 22536.0, 22612.0, 22551.0, 22503.0, 22590.0, 22593.0, 22634.0, 22522.0, 22477.0, 22494.0, 22530.0, 22554.0, 22583.0, 22517.0, 22525.0, 22580.0, 22597.0, 22564.0, 22496.0, 22608.0, 22649.0, 22617.0, 22571.0, 22536.0, 22576.0, 22588.0, 22602.0, 22588.0, 22638.0, 22603.0, 22586.0, 22594.0, 22568.0, 22549.0, 22571.0, 22572.0, 22511.0, 22619.0, 22551.0, 22511.0, 22499.0, 22525.0, 22502.0, 22506.0, 22478.0, 22516.0, 22550.0, 22523.0, 22482.0, 22473.0, 22525.0, 22562.0, 22578.0, 22575.0, 22542.0, 22663.0, 22619.0, 22638.0, 22625.0, 22619.0, 22621.0, 22654.0, 22613.0, 22591.0, 22620.0, 22660.0, 22652.0, 22619.0, 22549.0, 22538.0, 22579.0, 22581.0, 22587.0, 22557.0, 22563.0, 22632.0, 22589.0, 22636.0, 22645.0, 22640.0, 22575.0, 22593.0, 22646.0, 22677.0, 22631.0, 22627.0, 22608.0, 22642.0, 22666.0, 22604.0, 22639.0, 22676.0]
    },
    "slices": {}
  }
}