{
  "AcquisitionMatrixPE": 104,
  "AcquisitionNumber": 1,
  "AcquisitionTime": "11:09:4.430000",
  "BandwidthPerPixelPhaseEncode": 17.17,
  "BaseResolution": 104,
  "BodyPartExamined": "BRAIN",
  "CoilString": "HC1-7;NC1_2",
  "ConsistencyInfo": "N4_VE11C_LATEST_20160120",
  "ConversionSoftware": "dcm2niix",
  "ConversionSoftwareVersion": "v1.0.20190902",
  "DerivedVendorReportedEchoSpacing": 0.000560011,
  "DeviceSerialNumber": "167006",
  "DwellTime": 2.1e-06,
  "EchoTime": 0.037,
  "EchoTrainLength": 104,
  "EffectiveEchoSpacing": 0.000560011,
  "FlipAngle": 52,
  "ImageComments": "Unaliased_MB4_PE3_LB",
  "ImageOrientationPatientDICOM": [0.999524, 0.00797501, 0.0297876, 0.00802483, 0.865425, -0.500973],
  "ImageType": [
    "ORIGINAL",
    "PRIMARY",
    "P",
    "MB",
    "ND",
    "MOSAIC"
],
  "ImagingFrequency": 123.259,
  "InPlanePhaseEncodingDirectionDICOM": "COL",
  "InstitutionAddress": "Chemin_Queen-Mary_4565_Montreal_District_CA_H3W_1W5",
  "InstitutionName": "IUGM",
  "InstitutionalDepartmentName": "Department",
  "MRAcquisitionType": "2D",
  "MagneticFieldStrength": 3,
  "Manufacturer": "Siemens",
  "ManufacturersModelName": "Prisma_fit",
  "Modality": "MR",
  "MultibandAccelerationFactor": 4,
  "PartialFourier": 1,
  "PatientPosition": "HFS",
  "PercentPhaseFOV": 100,
  "PhaseEncodingDirection": "j",
  "PhaseEncodingSteps": 104,
  "PhaseResolution": 1,
  "PixelBandwidth": 2290,
  "ProcedureStepDescription": "memory_things",
  "ProtocolName": "func_task-things_run-2",
  "PulseSequenceDetails": "%CustomerSeq%_cmrr_mbep2d_bold",
  "ReceiveCoilActiveElements": "HC1-7;NC1,2",
  "ReceiveCoilName": "HeadNeck_64",
  "ReconMatrixPE": 104,
  "RepetitionTime": 1.49,
  "SAR": 0.0615673,
  "ScanOptions": "FS",
  "ScanningSequence": "EP",
  "SequenceName": "epfid2d1_104",
  "SequenceVariant": "SK_SS",
  "SeriesDescription": "func_task-things_run-2",
  "SeriesNumber": 17,
  "ShimSetting": [626, -7185, -8865, 292, 38, -181, -69, 4],
  "SliceThickness": 2,
  "SliceTiming": [0, 0.7825, 0.0975, 0.88, 0.195, 0.98, 0.2925, 1.0775, 0.39, 1.175, 0.49, 1.2725, 0.5875, 1.37, 0.685, 0, 0.7825, 0.0975, 0.88, 0.195, 0.98, 0.2925, 1.0775, 0.39, 1.175, 0.49, 1.2725, 0.5875, 1.37, 0.685, 0, 0.7825, 0.0975, 0.88, 0.195, 0.98, 0.2925, 1.0775, 0.39, 1.175, 0.49, 1.2725, 0.5875, 1.37, 0.685, 0, 0.7825, 0.0975, 0.88, 0.195, 0.98, 0.2925, 1.0775, 0.39, 1.175, 0.49, 1.2725, 0.5875, 1.37, 0.685],
  "SoftwareVersions": "syngo_MR_E11",
  "SpacingBetweenSlices": 2,
  "StationName": "MRC35049",
  "TaskName": "things",
  "TotalReadoutTime": 0.0576811,
  "TxRefAmp": 300.379,
  "WipMemBlock": "5e45fb67-7802-4073-a16f-9ab35ae80b96||Sequence: R016 ve11c/master r/e634e98; Dec 19 2017 11:00:25 by eja",
  "dcmmeta_affine": [
    [-1.9990488290786743, 0.01604965701699257, 0.05954841896891594, 104.7594985961914],
    [-0.015950025990605354, 1.7308509349822998, -1.0019484758377075, -50.735233306884766],
    [0.05957518145442009, 1.0019469261169434, 1.7298997640609741, -98.22508239746094],
    [0.0, 0.0, 0.0, 1.0]
],
  "dcmmeta_reorient_transform": [
    [0.0, -1.0, 0.0, 103.0],
    [1.0, 0.0, 0.0, 0.0],
    [0.0, 0.0, 1.0, 0.0],
    [0.0, 0.0, 0.0, 1.0]
],
  "dcmmeta_shape": [104, 104, 60, 190],
  "dcmmeta_slice_dim": 2,
  "dcmmeta_version": 0.6,
  "global": {
    "const": {
      "AcquisitionMatrix": [104, 0, 0, 104],
      "AngioFlag": "N",
      "BitsAllocated": 16,
      "BitsStored": 16,
      "BodyPartExamined": "BRAIN",
      "Columns": 832,
      "EchoNumbers": 1,
      "EchoTime": 37.0,
      "EchoTrainLength": 104,
      "FlipAngle": 52.0,
      "HighBit": 15,
      "ImageOrientationPatient": [0.99952443623218, 0.00797501311953, 0.02978759037721, 0.00802482868949, 0.86542545135804, -0.5009734426756],
      "ImagePositionPatient": [-839.90848036582, -763.3779495679, 347.99874748994],
      "ImageType": [
        "ORIGINAL",
        "PRIMARY",
        "P",
        "MB",
        "ND",
        "MOSAIC"
],
      "ImagedNucleus": "1H",
      "ImagingFrequency": 123.258899,
      "InPlanePhaseEncodingDirection": "COL",
      "LargestImagePixelValue": 4095,
      "MRAcquisitionType": "2D",
      "MagneticFieldStrength": 3.0,
      "Manufacturer": "SIEMENS",
      "ManufacturerModelName": "Prisma_fit",
      "Modality": "MR",
      "NumberOfAverages": 1.0,
      "NumberOfPhaseEncodingSteps": 104,
      "PercentPhaseFieldOfView": 100.0,
      "PercentSampling": 100.0,
      "PerformedProcedureStepStartTime": "104801.872000",
      "PhotometricInterpretation": "MONOCHROME2",
      "PixelBandwidth": 2290.0,
      "PixelRepresentation": 0,
      "PixelSpacing": [2.0, 2.0],
      "ProtocolName": "func_task-things_run-2",
      "RepetitionTime": 1490.0,
      "RescaleIntercept": -4096.0,
      "RescaleSlope": 2.0,
      "RescaleType": "US",
      "Rows": 832,
      "SAR": 0.06156728256807,
      "SamplesPerPixel": 1,
      "ScanOptions": "FS",
      "ScanningSequence": "EP",
      "SequenceName": "epfid2d1_104",
      "SequenceVariant": [
        "SK",
        "SS"
],
      "SeriesDescription": "func_task-things_run-2",
      "SeriesNumber": 17,
      "SeriesTime": "111017.750000",
      "SliceLocation": -56.423598643859,
      "SliceThickness": 2.0,
      "SmallestImagePixelValue": 0,
      "SoftwareVersions": "syngo MR E11",
      "SpacingBetweenSlices": 1.9999999972506,
      "SpecificCharacterSet": "ISO_IR 100",
      "StudyID": "1",
      "StudyTime": "104801.796000",
      "TransmitCoilName": "Body",
      "VariableFlipAngleFlag": "N",
      "WindowCenterWidthExplanation": "Algo1",
      "dBdt": 0.0},
    "slices": {}
  },
  "time": {
    "samples": {
      "AcquisitionNumber": [1, 2, 3, 4, 5, 6, 7, 8, 9, 10, 11, 12, 13, 14, 15, 16, 17, 18, 19, 20, 21, 22, 23, 24, 25, 26, 27, 28, 29, 30, 31, 32, 33, 34, 35, 36, 37, 38, 39, 40, 41, 42, 43, 44, 45, 46, 47, 48, 49, 50, 51, 52, 53, 54, 55, 56, 57, 58, 59, 60, 61, 62, 63, 64, 65, 66, 67, 68, 69, 70, 71, 72, 73, 74, 75, 76, 77, 78, 79, 80, 81, 82, 83, 84, 85, 86, 87, 88, 89, 90, 91, 92, 93, 94, 95, 96, 97, 98, 99, 100, 101, 102, 103, 104, 105, 106, 107, 108, 109, 110, 111, 112, 113, 114, 115, 116, 117, 118, 119, 120, 121, 122, 123, 124, 125, 126, 127, 128, 129, 130, 131, 132, 133, 134, 135, 136, 137, 138, 139, 140, 141, 142, 143, 144, 145, 146, 147, 148, 149, 150, 151, 152, 153, 154, 155, 156, 157, 158, 159, 160, 161, 162, 163, 164, 165, 166, 167, 168, 169, 170, 171, 172, 173, 174, 175, 176, 177, 178, 179, 180, 181, 182, 183, 184, 185, 186, 187, 188, 189, 190],
      "AcquisitionTime": ["110904.430000", "110905.920000", "110907.410000", "110908.900000", "110910.390000", "110911.880000", "110913.370000", "110914.860000", "110916.350000", "110917.840000", "110919.330000", "110920.820000", "110922.310000", "110923.800000", "110925.290000", "110926.780000", "110928.270000", "110929.760000", "110931.250000", "110932.740000", "110934.230000", "110935.720000", "110937.210000", "110938.700000", "110940.190000", "110941.680000", "110943.170000", "110944.660000", "110946.150000", "110947.640000", "110949.130000", "110950.620000", "110952.110000", "110953.600000", "110955.090000", "110956.580000", "110958.070000", "110959.560000", "111001.050000", "111002.540000", "111004.030000", "111005.520000", "111007.010000", "111008.500000", "111009.990000", "111011.480000", "111012.970000", "111014.460000", "111015.950000", "111017.440000", "111018.930000", "111020.420000", "111021.910000", "111023.400000", "111024.890000", "111026.380000", "111027.870000", "111029.360000", "111030.850000", "111032.340000", "111033.830000", "111035.320000", "111036.810000", "111038.300000", "111039.790000", "111041.280000", "111042.770000", "111044.260000", "111045.750000", "111047.240000", "111048.730000", "111050.220000", "111051.710000", "111053.200000", "111054.690000", "111056.180000", "111057.670000", "111059.160000", "111100.650000", "111102.140000", "111103.630000", "111105.120000", "111106.610000", "111108.100000", "111109.590000", "111111.080000", "111112.570000", "111114.060000", "111115.550000", "111117.040000", "111118.530000", "111120.020000", "111121.510000", "111123.000000", "111124.490000", "111125.980000", "111127.470000", "111128.960000", "111130.450000", "111131.940000", "111133.430000", "111134.920000", "111136.410000", "111137.900000", "111139.390000", "111140.880000", "111142.370000", "111143.860000", "111145.350000", "111146.840000", "111148.330000", "111149.820000", "111151.310000", "111152.800000", "111154.290000", "111155.780000", "111157.270000", "111158.760000", "111200.250000", "111201.740000", "111203.230000", "111204.720000", "111206.210000", "111207.700000", "111209.190000", "111210.680000", "111212.170000", "111213.660000", "111215.150000", "111216.640000", "111218.130000", "111219.620000", "111221.110000", "111222.600000", "111224.090000", "111225.580000", "111227.070000", "111228.560000", "111230.050000", "111231.540000", "111233.030000", "111234.520000", "111236.010000", "111237.500000", "111238.990000", "111240.480000", "111241.970000", "111243.460000", "111244.950000", "111246.440000", "111247.930000", "111249.420000", "111250.910000", "111252.400000", "111253.890000", "111255.380000", "111256.870000", "111258.360000", "111259.850000", "111301.340000", "111302.830000", "111304.320000", "111305.810000", "111307.300000", "111308.790000", "111310.280000", "111311.770000", "111313.260000", "111314.750000", "111316.240000", "111317.730000", "111319.220000", "111320.710000", "111322.200000", "111323.690000", "111325.180000", "111326.670000", "111328.160000", "111329.650000", "111331.140000", "111332.630000", "111334.120000", "111335.610000", "111337.100000", "111338.590000", "111340.080000", "111341.570000", "111343.060000", "111344.550000", "111346.040000"],
      "ContentTime": ["111017.752000", "111017.755000", "111017.757000", "111017.766000", "111017.769000", "111017.771000", "111017.774000", "111017.776000", "111017.779000", "111017.781000", "111017.784000", "111017.786000", "111017.789000", "111017.791000", "111017.794000", "111017.796000", "111017.799000", "111017.801000", "111017.804000", "111017.806000", "111037.755000", "111037.758000", "111037.761000", "111037.763000", "111037.766000", "111037.768000", "111037.770000", "111037.773000", "111037.775000", "111037.778000", "111037.780000", "111037.783000", "111037.785000", "111037.788000", "111037.790000", "111037.792000", "111037.795000", "111037.797000", "111037.800000", "111037.802000", "111057.719000", "111057.722000", "111057.724000", "111057.727000", "111057.729000", "111057.732000", "111057.734000", "111057.737000", "111057.739000", "111057.742000", "111057.744000", "111057.747000", "111057.749000", "111057.752000", "111057.754000", "111057.757000", "111057.759000", "111057.762000", "111057.764000", "111057.766000", "111117.707000", "111117.710000", "111117.712000", "111117.715000", "111117.717000", "111117.720000", "111117.722000", "111117.725000", "111117.727000", "111117.730000", "111117.732000", "111117.735000", "111117.737000", "111117.740000", "111117.742000", "111117.745000", "111117.747000", "111117.750000", "111117.752000", "111117.755000", "111117.757000", "111137.707000", "111137.709000", "111137.712000", "111137.714000", "111137.717000", "111137.719000", "111137.722000", "111137.724000", "111137.727000", "111137.729000", "111137.732000", "111137.734000", "111137.737000", "111137.739000", "111137.742000", "111137.744000", "111137.747000", "111137.749000", "111137.752000", "111137.754000", "111217.725000", "111217.728000", "111217.730000", "111217.733000", "111217.735000", "111217.738000", "111217.740000", "111217.743000", "111217.745000", "111217.748000", "111217.750000", "111217.753000", "111217.755000", "111217.758000", "111217.760000", "111217.802000", "111217.804000", "111217.807000", "111217.809000", "111217.812000", "111217.814000", "111217.817000", "111217.819000", "111217.822000", "111217.825000", "111217.827000", "111217.830000", "111217.832000", "111257.721000", "111257.724000", "111257.726000", "111257.729000", "111257.731000", "111257.734000", "111257.736000", "111257.739000", "111257.741000", "111257.744000", "111257.746000", "111257.750000", "111257.752000", "111257.756000", "111257.760000", "111257.763000", "111257.766000", "111257.769000", "111257.771000", "111257.774000", "111257.777000", "111257.779000", "111257.782000", "111257.784000", "111257.787000", "111257.789000", "111337.763000", "111337.765000", "111337.768000", "111337.770000", "111337.773000", "111337.775000", "111337.778000", "111337.780000", "111337.783000", "111337.785000", "111337.788000", "111337.790000", "111337.793000", "111337.795000", "111337.798000", "111337.800000", "111337.803000", "111337.805000", "111337.808000", "111337.810000", "111337.813000", "111337.815000", "111337.818000", "111337.820000", "111337.823000", "111337.825000", "111337.828000", "111348.555000", "111348.558000", "111348.560000", "111348.563000", "111348.565000", "111348.568000", "111348.571000", "111348.573000"],
      "InstanceCreationTime": ["111017.752000", "111017.755000", "111017.757000", "111017.766000", "111017.769000", "111017.771000", "111017.774000", "111017.776000", "111017.779000", "111017.781000", "111017.784000", "111017.786000", "111017.789000", "111017.791000", "111017.794000", "111017.796000", "111017.799000", "111017.801000", "111017.804000", "111017.806000", "111037.755000", "111037.758000", "111037.761000", "111037.763000", "111037.766000", "111037.768000", "111037.770000", "111037.773000", "111037.775000", "111037.778000", "111037.780000", "111037.783000", "111037.785000", "111037.788000", "111037.790000", "111037.792000", "111037.795000", "111037.797000", "111037.800000", "111037.802000", "111057.719000", "111057.722000", "111057.724000", "111057.727000", "111057.729000", "111057.732000", "111057.734000", "111057.737000", "111057.739000", "111057.742000", "111057.744000", "111057.747000", "111057.749000", "111057.752000", "111057.754000", "111057.757000", "111057.759000", "111057.762000", "111057.764000", "111057.766000", "111117.707000", "111117.710000", "111117.712000", "111117.715000", "111117.717000", "111117.720000", "111117.722000", "111117.725000", "111117.727000", "111117.730000", "111117.732000", "111117.735000", "111117.737000", "111117.740000", "111117.742000", "111117.745000", "111117.747000", "111117.750000", "111117.752000", "111117.755000", "111117.757000", "111137.707000", "111137.709000", "111137.712000", "111137.714000", "111137.717000", "111137.719000", "111137.722000", "111137.724000", "111137.727000", "111137.729000", "111137.732000", "111137.734000", "111137.737000", "111137.739000", "111137.742000", "111137.744000", "111137.747000", "111137.749000", "111137.752000", "111137.754000", "111217.725000", "111217.728000", "111217.730000", "111217.733000", "111217.735000", "111217.738000", "111217.740000", "111217.743000", "111217.745000", "111217.748000", "111217.750000", "111217.753000", "111217.755000", "111217.758000", "111217.760000", "111217.802000", "111217.804000", "111217.807000", "111217.809000", "111217.812000", "111217.814000", "111217.817000", "111217.819000", "111217.822000", "111217.825000", "111217.827000", "111217.830000", "111217.832000", "111257.721000", "111257.724000", "111257.726000", "111257.729000", "111257.731000", "111257.734000", "111257.736000", "111257.739000", "111257.741000", "111257.744000", "111257.746000", "111257.750000", "111257.752000", "111257.756000", "111257.760000", "111257.763000", "111257.766000", "111257.769000", "111257.771000", "111257.774000", "111257.777000", "111257.779000", "111257.782000", "111257.784000", "111257.787000", "111257.789000", "111337.763000", "111337.765000", "111337.768000", "111337.770000", "111337.773000", "111337.775000", "111337.778000", "111337.780000", "111337.783000", "111337.785000", "111337.788000", "111337.790000", "111337.793000", "111337.795000", "111337.798000", "111337.800000", "111337.803000", "111337.805000", "111337.808000", "111337.810000", "111337.813000", "111337.815000", "111337.818000", "111337.820000", "111337.823000", "111337.825000", "111337.828000", "111348.555000", "111348.558000", "111348.560000", "111348.563000", "111348.565000", "111348.568000", "111348.571000", "111348.573000"],
      "InstanceNumber": [1, 2, 3, 4, 5, 6, 7, 8, 9, 10, 11, 12, 13, 14, 15, 16, 17, 18, 19, 20, 21, 22, 23, 24, 25, 26, 27, 28, 29, 30, 31, 32, 33, 34, 35, 36, 37, 38, 39, 40, 41, 42, 43, 44, 45, 46, 47, 48, 49, 50, 51, 52, 53, 54, 55, 56, 57, 58, 59, 60, 61, 62, 63, 64, 65, 66, 67, 68, 69, 70, 71, 72, 73, 74, 75, 76, 77, 78, 79, 80, 81, 82, 83, 84, 85, 86, 87, 88, 89, 90, 91, 92, 93, 94, 95, 96, 97, 98, 99, 100, 101, 102, 103, 104, 105, 106, 107, 108, 109, 110, 111, 112, 113, 114, 115, 116, 117, 118, 119, 120, 121, 122, 123, 124, 125, 126, 127, 128, 129, 130, 131, 132, 133, 134, 135, 136, 137, 138, 139, 140, 141, 142, 143, 144, 145, 146, 147, 148, 149, 150, 151, 152, 153, 154, 155, 156, 157, 158, 159, 160, 161, 162, 163, 164, 165, 166, 167, 168, 169, 170, 171, 172, 173, 174, 175, 176, 177, 178, 179, 180, 181, 182, 183, 184, 185, 186, 187, 188, 189, 190],
      "WindowCenter": [4788.0, 4786.0, 4788.0, 4790.0, 4790.0, 4790.0, 4786.0, 4796.0, 4790.0, 4786.0, 4790.0, 4786.0, 4760.0, 4792.0, 4792.0, 4790.0, 4798.0, 4762.0, 4788.0, 4786.0, 4790.0, 4788.0, 4794.0, 4788.0, 4790.0, 4790.0, 4790.0, 4790.0, 4786.0, 4790.0, 4784.0, 4786.0, 4760.0, 4798.0, 4796.0, 4792.0, 4794.0, 4788.0, 4794.0, 4784.0, 4788.0, 4786.0, 4786.0, 4794.0, 4766.0, 4794.0, 4796.0, 4764.0, 4790.0, 4762.0, 4792.0, 4788.0, 4792.0, 4768.0, 4766.0, 4794.0, 4784.0, 4764.0, 4784.0, 4790.0, 4784.0, 4794.0, 4796.0, 4790.0, 4796.0, 4762.0, 4792.0, 4796.0, 4764.0, 4788.0, 4764.0, 4760.0, 4784.0, 4762.0, 4786.0, 4788.0, 4796.0, 4798.0, 4800.0, 4792.0, 4826.0, 4798.0, 4784.0, 4790.0, 4788.0, 4790.0, 4790.0, 4784.0, 4764.0, 4800.0, 4802.0, 4826.0, 4824.0, 4792.0, 4796.0, 4762.0, 4786.0, 4786.0, 4786.0, 4790.0, 4786.0, 4792.0, 4794.0, 4796.0, 4798.0, 4766.0, 4794.0, 4792.0, 4762.0, 4790.0, 4788.0, 4760.0, 4766.0, 4790.0, 4764.0, 4798.0, 4792.0, 4790.0, 4794.0, 4796.0, 4764.0, 4786.0, 4786.0, 4784.0, 4798.0, 4792.0, 4798.0, 4858.0, 4798.0, 4790.0, 4794.0, 4784.0, 4786.0, 4790.0, 4786.0, 4762.0, 4792.0, 4794.0, 4766.0, 4762.0, 4786.0, 4760.0, 4798.0, 4826.0, 4792.0, 4798.0, 4794.0, 4762.0, 4786.0, 4790.0, 4782.0, 4790.0, 4790.0, 4768.0, 4798.0, 4798.0, 4768.0, 4762.0, 4760.0, 4788.0, 4822.0, 4792.0, 4792.0, 4798.0, 4782.0, 4790.0, 4790.0, 4760.0, 4762.0, 4764.0, 4768.0, 4762.0, 4796.0, 4792.0, 4794.0, 4798.0, 4792.0, 4792.0, 4794.0, 4784.0, 4784.0, 4788.0, 4786.0, 4762.0, 4784.0, 4788.0, 4854.0, 4910.0, 4886.0, 4796.0],
      "WindowWidth": [18534.0, 18540.0, 18534.0, 18532.0, 18538.0, 18532.0, 18530.0, 18538.0, 18536.0, 18532.0, 18534.0, 18544.0, 18504.0, 18534.0, 18540.0, 18536.0, 18538.0, 18500.0, 18536.0, 18538.0, 18534.0, 18536.0, 18536.0, 18536.0, 18538.0, 18536.0, 18538.0, 18534.0, 18540.0, 18532.0, 18538.0, 18546.0, 18516.0, 18540.0, 18538.0, 18542.0, 18534.0, 18534.0, 18538.0, 18542.0, 18540.0, 18538.0, 18542.0, 18534.0, 18506.0, 18540.0, 18532.0, 18506.0, 18534.0, 18508.0, 18536.0, 18536.0, 18542.0, 18502.0, 18504.0, 18530.0, 18534.0, 18504.0, 18544.0, 18534.0, 18536.0, 18538.0, 18540.0, 18536.0, 18532.0, 18510.0, 18538.0, 18528.0, 18510.0, 18538.0, 18510.0, 18512.0, 18540.0, 18510.0, 18538.0, 18540.0, 18540.0, 18546.0, 18540.0, 18540.0, 18570.0, 18536.0, 18542.0, 18540.0, 18552.0, 18566.0, 18566.0, 18542.0, 18508.0, 18542.0, 18544.0, 18574.0, 18568.0, 18538.0, 18536.0, 18510.0, 18548.0, 18544.0, 18560.0, 18532.0, 18540.0, 18540.0, 18536.0, 18542.0, 18542.0, 18506.0, 18534.0, 18536.0, 18506.0, 18534.0, 18534.0, 18512.0, 18502.0, 18534.0, 18512.0, 18536.0, 18536.0, 18542.0, 18536.0, 18536.0, 18508.0, 18544.0, 18554.0, 18550.0, 18538.0, 18540.0, 18542.0, 18612.0, 18538.0, 18538.0, 18532.0, 18546.0, 18556.0, 18532.0, 18530.0, 18508.0, 18530.0, 18540.0, 18512.0, 18512.0, 18540.0, 18508.0, 18538.0, 18568.0, 18538.0, 18536.0, 18534.0, 18512.0, 18542.0, 18552.0, 18556.0, 18538.0, 18532.0, 18510.0, 18544.0, 18534.0, 18510.0, 18512.0, 18514.0, 18540.0, 18574.0, 18536.0, 18542.0, 18536.0, 18538.0, 18540.0, 18534.0, 18512.0, 18500.0, 18508.0, 18512.0, 18506.0, 18536.0, 18540.0, 18546.0, 18536.0, 18536.0, 18540.0, 18534.0, 18542.0, 18538.0, 18532.0, 18538.0, 18510.0, 18536.0, 18536.0, 18612.0, 18716.0, 18660.0, 18530.0]
    },
    "slices": {}
  }
}