{
  "AcquisitionMatrixPE": 104,
  "AcquisitionNumber": 1,
  "AcquisitionTime": "11:27:21.820000",
  "BandwidthPerPixelPhaseEncode": 17.17,
  "BaseResolution": 104,
  "BodyPartExamined": "BRAIN",
  "CoilString": "HC1-7;NC1_2",
  "ConsistencyInfo": "N4_VE11C_LATEST_20160120",
  "ConversionSoftware": "dcm2niix",
  "ConversionSoftwareVersion": "v1.0.20190902",
  "DerivedVendorReportedEchoSpacing": 0.000560011,
  "DeviceSerialNumber": "167006",
  "DwellTime": 2.1e-06,
  "EchoTime": 0.037,
  "EchoTrainLength": 104,
  "EffectiveEchoSpacing": 0.000560011,
  "FlipAngle": 52,
  "ImageComments": "Unaliased_MB4_PE3_LB",
  "ImageOrientationPatientDICOM": [0.999524, 0.00797501, 0.0297876, 0.00802483, 0.865425, -0.500973],
  "ImageType": [
    "ORIGINAL",
    "PRIMARY",
    "M",
    "MB",
    "ND",
    "MOSAIC"
],
  "ImagingFrequency": 123.259,
  "InPlanePhaseEncodingDirectionDICOM": "COL",
  "InstitutionAddress": "Chemin_Queen-Mary_4565_Montreal_District_CA_H3W_1W5",
  "InstitutionName": "IUGM",
  "InstitutionalDepartmentName": "Department",
  "MRAcquisitionType": "2D",
  "MagneticFieldStrength": 3,
  "Manufacturer": "Siemens",
  "ManufacturersModelName": "Prisma_fit",
  "Modality": "MR",
  "MultibandAccelerationFactor": 4,
  "PartialFourier": 1,
  "PatientPosition": "HFS",
  "PercentPhaseFOV": 100,
  "PhaseEncodingDirection": "j",
  "PhaseEncodingSteps": 104,
  "PhaseResolution": 1,
  "PixelBandwidth": 2290,
  "ProcedureStepDescription": "memory_things",
  "ProtocolName": "func_task-things_run-5",
  "PulseSequenceDetails": "%CustomerSeq%_cmrr_mbep2d_bold",
  "ReceiveCoilActiveElements": "HC1-7;NC1,2",
  "ReceiveCoilName": "HeadNeck_64",
  "ReconMatrixPE": 104,
  "RepetitionTime": 1.49,
  "SAR": 0.0615673,
  "ScanOptions": "FS",
  "ScanningSequence": "EP",
  "SequenceName": "epfid2d1_104",
  "SequenceVariant": "SK_SS",
  "SeriesDescription": "func_task-things_run-5",
  "SeriesNumber": 25,
  "ShimSetting": [626, -7185, -8865, 292, 38, -181, -69, 4],
  "SliceThickness": 2,
  "SliceTiming": [0, 0.785, 0.0975, 0.8825, 0.195, 0.98, 0.295, 1.0775, 0.3925, 1.175, 0.49, 1.275, 0.5875, 1.3725, 0.685, 0, 0.785, 0.0975, 0.8825, 0.195, 0.98, 0.295, 1.0775, 0.3925, 1.175, 0.49, 1.275, 0.5875, 1.3725, 0.685, 0, 0.785, 0.0975, 0.8825, 0.195, 0.98, 0.295, 1.0775, 0.3925, 1.175, 0.49, 1.275, 0.5875, 1.3725, 0.685, 0, 0.785, 0.0975, 0.8825, 0.195, 0.98, 0.295, 1.0775, 0.3925, 1.175, 0.49, 1.275, 0.5875, 1.3725, 0.685],
  "SoftwareVersions": "syngo_MR_E11",
  "SpacingBetweenSlices": 2,
  "StationName": "MRC35049",
  "TaskName": "things",
  "TotalReadoutTime": 0.0576811,
  "TxRefAmp": 300.379,
  "WipMemBlock": "8ba9d296-ca4d-4aac-abb5-da51aa859778||Sequence: R016 ve11c/master r/e634e98; Dec 19 2017 11:00:25 by eja",
  "dcmmeta_affine": [
    [-1.9990488290786743, 0.01604965701699257, 0.05954841896891594, 104.7594985961914],
    [-0.015950025990605354, 1.7308509349822998, -1.0019484758377075, -50.735233306884766],
    [0.05957518145442009, 1.0019469261169434, 1.7298997640609741, -98.22508239746094],
    [0.0, 0.0, 0.0, 1.0]
],
  "dcmmeta_reorient_transform": [
    [0.0, -1.0, 0.0, 103.0],
    [1.0, 0.0, 0.0, 0.0],
    [0.0, 0.0, 1.0, 0.0],
    [0.0, 0.0, 0.0, 1.0]
],
  "dcmmeta_shape": [104, 104, 60, 190],
  "dcmmeta_slice_dim": 2,
  "dcmmeta_version": 0.6,
  "global": {
    "const": {
      "AcquisitionMatrix": [104, 0, 0, 104],
      "AngioFlag": "N",
      "BitsAllocated": 16,
      "BitsStored": 16,
      "BodyPartExamined": "BRAIN",
      "Columns": 832,
      "EchoNumbers": 1,
      "EchoTime": 37.0,
      "EchoTrainLength": 104,
      "FlipAngle": 52.0,
      "HighBit": 15,
      "ImageOrientationPatient": [0.99952443623218, 0.00797501311953, 0.02978759037721, 0.00802482868949, 0.86542545135804, -0.5009734426756],
      "ImagePositionPatient": [-839.90848036582, -763.3779495679, 347.99874748994],
      "ImageType": [
        "ORIGINAL",
        "PRIMARY",
        "M",
        "MB",
        "ND",
        "MOSAIC"
],
      "ImagedNucleus": "1H",
      "ImagingFrequency": 123.258906,
      "InPlanePhaseEncodingDirection": "COL",
      "MRAcquisitionType": "2D",
      "MagneticFieldStrength": 3.0,
      "Manufacturer": "SIEMENS",
      "ManufacturerModelName": "Prisma_fit",
      "Modality": "MR",
      "NumberOfAverages": 1.0,
      "NumberOfPhaseEncodingSteps": 104,
      "PercentPhaseFieldOfView": 100.0,
      "PercentSampling": 100.0,
      "PerformedProcedureStepStartTime": "104801.872000",
      "PhotometricInterpretation": "MONOCHROME2",
      "PixelBandwidth": 2290.0,
      "PixelRepresentation": 0,
      "PixelSpacing": [2.0, 2.0],
      "ProtocolName": "func_task-things_run-5",
      "RepetitionTime": 1490.0,
      "Rows": 832,
      "SAR": 0.06156728256807,
      "SamplesPerPixel": 1,
      "ScanOptions": "FS",
      "ScanningSequence": "EP",
      "SequenceName": "epfid2d1_104",
      "SequenceVariant": [
        "SK",
        "SS"
],
      "SeriesDescription": "func_task-things_run-5",
      "SeriesNumber": 25,
      "SeriesTime": "112837.620000",
      "SliceLocation": -56.423598643859,
      "SliceThickness": 2.0,
      "SmallestImagePixelValue": 0,
      "SoftwareVersions": "syngo MR E11",
      "SpacingBetweenSlices": 1.9999999972506,
      "SpecificCharacterSet": "ISO_IR 100",
      "StudyID": "1",
      "StudyTime": "104801.796000",
      "TransmitCoilName": "Body",
      "VariableFlipAngleFlag": "N",
      "WindowCenterWidthExplanation": "Algo1",
      "dBdt": 0.0},
    "slices": {}
  },
  "time": {
    "samples": {
      "AcquisitionNumber": [1, 2, 3, 4, 5, 6, 7, 8, 9, 10, 11, 12, 13, 14, 15, 16, 17, 18, 19, 20, 21, 22, 23, 24, 25, 26, 27, 28, 29, 30, 31, 32, 33, 34, 35, 36, 37, 38, 39, 40, 41, 42, 43, 44, 45, 46, 47, 48, 49, 50, 51, 52, 53, 54, 55, 56, 57, 58, 59, 60, 61, 62, 63, 64, 65, 66, 67, 68, 69, 70, 71, 72, 73, 74, 75, 76, 77, 78, 79, 80, 81, 82, 83, 84, 85, 86, 87, 88, 89, 90, 91, 92, 93, 94, 95, 96, 97, 98, 99, 100, 101, 102, 103, 104, 105, 106, 107, 108, 109, 110, 111, 112, 113, 114, 115, 116, 117, 118, 119, 120, 121, 122, 123, 124, 125, 126, 127, 128, 129, 130, 131, 132, 133, 134, 135, 136, 137, 138, 139, 140, 141, 142, 143, 144, 145, 146, 147, 148, 149, 150, 151, 152, 153, 154, 155, 156, 157, 158, 159, 160, 161, 162, 163, 164, 165, 166, 167, 168, 169, 170, 171, 172, 173, 174, 175, 176, 177, 178, 179, 180, 181, 182, 183, 184, 185, 186, 187, 188, 189, 190],
      "AcquisitionTime": ["112721.820000", "112723.310000", "112724.800000", "112726.290000", "112727.780000", "112729.270000", "112730.760000", "112732.250000", "112733.740000", "112735.230000", "112736.720000", "112738.210000", "112739.700000", "112741.190000", "112742.680000", "112744.170000", "112745.660000", "112747.150000", "112748.640000", "112750.130000", "112751.620000", "112753.110000", "112754.600000", "112756.090000", "112757.580000", "112759.070000", "112800.560000", "112802.050000", "112803.540000", "112805.030000", "112806.520000", "112808.010000", "112809.500000", "112810.990000", "112812.480000", "112813.970000", "112815.460000", "112816.950000", "112818.440000", "112819.930000", "112821.420000", "112822.910000", "112824.400000", "112825.890000", "112827.380000", "112828.870000", "112830.360000", "112831.850000", "112833.340000", "112834.830000", "112836.320000", "112837.810000", "112839.300000", "112840.790000", "112842.280000", "112843.770000", "112845.260000", "112846.750000", "112848.240000", "112849.730000", "112851.220000", "112852.710000", "112854.200000", "112855.690000", "112857.180000", "112858.670000", "112900.160000", "112901.650000", "112903.140000", "112904.630000", "112906.120000", "112907.610000", "112909.100000", "112910.590000", "112912.080000", "112913.570000", "112915.060000", "112916.550000", "112918.040000", "112919.530000", "112921.020000", "112922.510000", "112924.000000", "112925.490000", "112926.980000", "112928.470000", "112929.960000", "112931.450000", "112932.940000", "112934.430000", "112935.920000", "112937.410000", "112938.900000", "112940.390000", "112941.880000", "112943.370000", "112944.860000", "112946.350000", "112947.840000", "112949.330000", "112950.820000", "112952.310000", "112953.800000", "112955.290000", "112956.780000", "112958.270000", "112959.760000", "113001.250000", "113002.740000", "113004.230000", "113005.720000", "113007.210000", "113008.700000", "113010.190000", "113011.680000", "113013.170000", "113014.660000", "113016.150000", "113017.640000", "113019.130000", "113020.620000", "113022.110000", "113023.600000", "113025.090000", "113026.580000", "113028.070000", "113029.560000", "113031.050000", "113032.540000", "113034.030000", "113035.520000", "113037.010000", "113038.500000", "113039.990000", "113041.480000", "113042.970000", "113044.460000", "113045.950000", "113047.440000", "113048.930000", "113050.420000", "113051.910000", "113053.400000", "113054.890000", "113056.380000", "113057.870000", "113059.360000", "113100.850000", "113102.340000", "113103.830000", "113105.320000", "113106.810000", "113108.300000", "113109.790000", "113111.280000", "113112.770000", "113114.260000", "113115.750000", "113117.240000", "113118.730000", "113120.220000", "113121.710000", "113123.200000", "113124.690000", "113126.180000", "113127.670000", "113129.160000", "113130.650000", "113132.140000", "113133.630000", "113135.120000", "113136.610000", "113138.100000", "113139.590000", "113141.080000", "113142.570000", "113144.060000", "113145.550000", "113147.040000", "113148.530000", "113150.020000", "113151.510000", "113153.000000", "113154.490000", "113155.980000", "113157.470000", "113158.960000", "113200.450000", "113201.940000", "113203.430000"],
      "ContentTime": ["112837.624000", "112837.628000", "112837.640000", "112837.643000", "112837.647000", "112837.650000", "112837.653000", "112837.656000", "112837.660000", "112837.663000", "112837.666000", "112837.669000", "112837.673000", "112837.676000", "112837.679000", "112837.682000", "112837.685000", "112837.689000", "112837.692000", "112837.695000", "112837.699000", "112837.702000", "112837.705000", "112857.594000", "112857.598000", "112857.601000", "112857.604000", "112857.607000", "112857.611000", "112857.614000", "112857.617000", "112857.620000", "112857.624000", "112857.627000", "112857.630000", "112857.633000", "112857.636000", "112857.640000", "112857.643000", "112857.646000", "112857.649000", "112857.653000", "112857.656000", "112917.594000", "112917.598000", "112917.615000", "112917.618000", "112917.622000", "112917.625000", "112917.628000", "112917.631000", "112917.635000", "112917.638000", "112917.641000", "112917.644000", "112917.648000", "112917.651000", "112917.654000", "112917.657000", "112917.661000", "112917.664000", "112917.667000", "112917.670000", "112937.594000", "112937.598000", "112937.601000", "112937.604000", "112937.608000", "112937.611000", "112937.614000", "112937.617000", "112937.621000", "112937.624000", "112937.627000", "112937.630000", "112937.634000", "112937.637000", "112937.640000", "112937.643000", "112937.647000", "112937.650000", "112937.653000", "112937.656000", "112937.660000", "112957.593000", "112957.597000", "112957.600000", "112957.603000", "112957.607000", "112957.610000", "112957.613000", "112957.616000", "112957.620000", "112957.623000", "112957.626000", "112957.629000", "112957.633000", "112957.636000", "112957.639000", "112957.642000", "112957.646000", "112957.649000", "112957.652000", "112957.655000", "113037.594000", "113037.598000", "113037.601000", "113037.604000", "113037.608000", "113037.611000", "113037.614000", "113037.617000", "113037.621000", "113037.624000", "113037.627000", "113037.634000", "113037.638000", "113037.641000", "113037.644000", "113037.647000", "113037.651000", "113037.654000", "113037.657000", "113037.661000", "113037.665000", "113037.669000", "113037.673000", "113037.676000", "113037.680000", "113037.684000", "113117.594000", "113117.598000", "113117.601000", "113117.604000", "113117.608000", "113117.611000", "113117.614000", "113117.617000", "113117.621000", "113117.624000", "113117.627000", "113117.630000", "113117.634000", "113117.637000", "113117.640000", "113117.643000", "113117.647000", "113117.662000", "113117.665000", "113117.668000", "113117.672000", "113117.675000", "113117.678000", "113117.681000", "113117.684000", "113117.688000", "113117.691000", "113157.594000", "113157.598000", "113157.601000", "113157.604000", "113157.608000", "113157.611000", "113157.614000", "113157.617000", "113157.620000", "113157.624000", "113157.627000", "113157.630000", "113157.634000", "113157.637000", "113157.640000", "113157.643000", "113157.647000", "113157.650000", "113157.653000", "113157.656000", "113157.660000", "113157.663000", "113157.666000", "113157.669000", "113157.673000", "113157.676000", "113157.679000", "113205.651000", "113205.655000", "113205.659000", "113205.662000", "113205.665000", "113205.669000"],
      "InstanceCreationTime": ["112837.624000", "112837.628000", "112837.640000", "112837.643000", "112837.647000", "112837.650000", "112837.653000", "112837.656000", "112837.660000", "112837.663000", "112837.666000", "112837.669000", "112837.673000", "112837.676000", "112837.679000", "112837.682000", "112837.685000", "112837.689000", "112837.692000", "112837.695000", "112837.699000", "112837.702000", "112837.705000", "112857.594000", "112857.598000", "112857.601000", "112857.604000", "112857.607000", "112857.611000", "112857.614000", "112857.617000", "112857.620000", "112857.624000", "112857.627000", "112857.630000", "112857.633000", "112857.636000", "112857.640000", "112857.643000", "112857.646000", "112857.649000", "112857.653000", "112857.656000", "112917.594000", "112917.598000", "112917.615000", "112917.618000", "112917.622000", "112917.625000", "112917.628000", "112917.631000", "112917.635000", "112917.638000", "112917.641000", "112917.644000", "112917.648000", "112917.651000", "112917.654000", "112917.657000", "112917.661000", "112917.664000", "112917.667000", "112917.670000", "112937.594000", "112937.598000", "112937.601000", "112937.604000", "112937.608000", "112937.611000", "112937.614000", "112937.617000", "112937.621000", "112937.624000", "112937.627000", "112937.630000", "112937.634000", "112937.637000", "112937.640000", "112937.643000", "112937.647000", "112937.650000", "112937.653000", "112937.656000", "112937.660000", "112957.593000", "112957.597000", "112957.600000", "112957.603000", "112957.607000", "112957.610000", "112957.613000", "112957.616000", "112957.620000", "112957.623000", "112957.626000", "112957.629000", "112957.633000", "112957.636000", "112957.639000", "112957.642000", "112957.646000", "112957.649000", "112957.652000", "112957.655000", "113037.594000", "113037.598000", "113037.601000", "113037.604000", "113037.608000", "113037.611000", "113037.614000", "113037.617000", "113037.621000", "113037.624000", "113037.627000", "113037.634000", "113037.638000", "113037.641000", "113037.644000", "113037.647000", "113037.651000", "113037.654000", "113037.657000", "113037.661000", "113037.665000", "113037.669000", "113037.673000", "113037.676000", "113037.680000", "113037.684000", "113117.594000", "113117.598000", "113117.601000", "113117.604000", "113117.608000", "113117.611000", "113117.614000", "113117.617000", "113117.621000", "113117.624000", "113117.627000", "113117.630000", "113117.634000", "113117.637000", "113117.640000", "113117.643000", "113117.647000", "113117.662000", "113117.665000", "113117.668000", "113117.672000", "113117.675000", "113117.678000", "113117.681000", "113117.684000", "113117.688000", "113117.691000", "113157.594000", "113157.598000", "113157.601000", "113157.604000", "113157.608000", "113157.611000", "113157.614000", "113157.617000", "113157.620000", "113157.624000", "113157.627000", "113157.630000", "113157.634000", "113157.637000", "113157.640000", "113157.643000", "113157.647000", "113157.650000", "113157.653000", "113157.656000", "113157.660000", "113157.663000", "113157.666000", "113157.669000", "113157.673000", "113157.676000", "113157.679000", "113205.651000", "113205.655000", "113205.659000", "113205.662000", "113205.665000", "113205.669000"],
      "InstanceNumber": [1, 2, 3, 4, 5, 6, 7, 8, 9, 10, 11, 12, 13, 14, 15, 16, 17, 18, 19, 20, 21, 22, 23, 24, 25, 26, 27, 28, 29, 30, 31, 32, 33, 34, 35, 36, 37, 38, 39, 40, 41, 42, 43, 44, 45, 46, 47, 48, 49, 50, 51, 52, 53, 54, 55, 56, 57, 58, 59, 60, 61, 62, 63, 64, 65, 66, 67, 68, 69, 70, 71, 72, 73, 74, 75, 76, 77, 78, 79, 80, 81, 82, 83, 84, 85, 86, 87, 88, 89, 90, 91, 92, 93, 94, 95, 96, 97, 98, 99, 100, 101, 102, 103, 104, 105, 106, 107, 108, 109, 110, 111, 112, 113, 114, 115, 116, 117, 118, 119, 120, 121, 122, 123, 124, 125, 126, 127, 128, 129, 130, 131, 132, 133, 134, 135, 136, 137, 138, 139, 140, 141, 142, 143, 144, 145, 146, 147, 148, 149, 150, 151, 152, 153, 154, 155, 156, 157, 158, 159, 160, 161, 162, 163, 164, 165, 166, 167, 168, 169, 170, 171, 172, 173, 174, 175, 176, 177, 178, 179, 180, 181, 182, 183, 184, 185, 186, 187, 188, 189, 190],
      "LargestImagePixelValue": [43157, 43990, 45433, 44525, 44660, 45685, 45052, 44612, 44182, 45621, 46218, 44061, 45187, 43839, 44309, 45614, 45719, 46137, 45216, 43204, 45297, 44449, 45545, 43405, 45434, 46428, 40072, 43271, 46055, 44290, 45333, 45992, 45922, 46474, 46843, 46165, 41837, 42818, 45503, 46222, 43287, 43941, 45928, 43633, 44266, 45859, 44180, 43470, 44678, 42998, 44170, 44423, 45903, 41117, 43904, 43489, 46051, 44778, 45166, 44438, 44337, 44422, 44011, 44536, 43712, 44024, 46010, 44948, 43532, 46018, 39119, 43862, 43044, 43881, 44917, 45180, 45032, 45095, 44088, 44488, 44167, 44916, 43377, 45137, 45712, 45453, 43106, 43826, 43982, 43395, 44179, 43452, 40576, 43463, 43785, 44689, 45345, 45831, 45783, 42242, 43263, 43166, 45227, 42564, 43354, 42952, 42537, 43067, 42035, 38809, 43863, 43227, 42837, 44034, 43242, 43059, 44139, 43010, 43745, 43389, 44362, 45211, 44489, 45485, 44115, 44463, 45963, 44809, 43182, 45371, 43988, 44849, 44808, 45303, 41139, 43038, 43248, 43335, 45932, 44274, 45903, 44310, 45700, 45165, 44266, 44127, 44539, 43446, 47068, 44748, 46370, 45022, 46024, 43920, 46479, 47191, 45739, 44299, 44886, 47288, 45963, 43937, 46265, 45463, 44756, 43746, 43298, 41664, 42141, 41495, 41042, 41905, 42605, 42028, 41578, 44341, 42897, 43479, 41454, 45147, 41350, 44497, 44835, 45156, 46150, 45899, 45297, 44137, 43686, 45069],
      "WindowCenter": [10635.0, 10562.0, 10540.0, 10514.0, 10542.0, 10578.0, 10558.0, 10559.0, 10566.0, 10571.0, 10555.0, 10555.0, 10569.0, 10535.0, 10561.0, 10571.0, 10558.0, 10581.0, 10581.0, 10583.0, 10598.0, 10590.0, 10601.0, 10594.0, 10594.0, 10593.0, 10534.0, 10596.0, 10601.0, 10580.0, 10578.0, 10546.0, 10535.0, 10561.0, 10565.0, 10572.0, 10536.0, 10557.0, 10599.0, 10582.0, 10562.0, 10552.0, 10588.0, 10578.0, 10570.0, 10585.0, 10557.0, 10572.0, 10563.0, 10552.0, 10556.0, 10554.0, 10556.0, 10514.0, 10567.0, 10581.0, 10586.0, 10547.0, 10514.0, 10523.0, 10543.0, 10577.0, 10578.0, 10576.0, 10559.0, 10549.0, 10563.0, 10567.0, 10544.0, 10587.0, 10512.0, 10564.0, 10563.0, 10561.0, 10545.0, 10540.0, 10534.0, 10528.0, 10513.0, 10547.0, 10565.0, 10562.0, 10556.0, 10545.0, 10545.0, 10549.0, 10534.0, 10542.0, 10551.0, 10543.0, 10557.0, 10561.0, 10547.0, 10642.0, 10609.0, 10578.0, 10553.0, 10534.0, 10542.0, 10539.0, 10582.0, 10566.0, 10560.0, 10546.0, 10556.0, 10554.0, 10540.0, 10562.0, 10533.0, 10489.0, 10561.0, 10560.0, 10558.0, 10541.0, 10519.0, 10527.0, 10550.0, 10528.0, 10553.0, 10552.0, 10576.0, 10569.0, 10558.0, 10559.0, 10556.0, 10559.0, 10579.0, 10577.0, 10562.0, 10582.0, 10571.0, 10571.0, 10574.0, 10554.0, 10530.0, 10562.0, 10598.0, 10614.0, 10595.0, 10540.0, 10556.0, 10537.0, 10562.0, 10586.0, 10610.0, 10598.0, 10557.0, 10523.0, 10588.0, 10588.0, 10599.0, 10571.0, 10597.0, 10585.0, 10605.0, 10618.0, 10646.0, 10611.0, 10590.0, 10667.0, 10629.0, 10597.0, 10625.0, 10626.0, 10596.0, 10570.0, 10565.0, 10535.0, 10584.0, 10546.0, 10514.0, 10581.0, 10574.0, 10563.0, 10561.0, 10582.0, 10550.0, 10546.0, 10524.0, 10588.0, 10523.0, 10572.0, 10553.0, 10572.0, 10585.0, 10558.0, 10555.0, 10565.0, 10571.0, 10582.0],
      "WindowWidth": [22779.0, 22563.0, 22480.0, 22420.0, 22474.0, 22549.0, 22510.0, 22506.0, 22526.0, 22525.0, 22492.0, 22497.0, 22526.0, 22456.0, 22512.0, 22531.0, 22498.0, 22546.0, 22551.0, 22565.0, 22587.0, 22577.0, 22597.0, 22588.0, 22580.0, 22572.0, 22474.0, 22605.0, 22588.0, 22550.0, 22537.0, 22464.0, 22434.0, 22495.0, 22503.0, 22523.0, 22461.0, 22504.0, 22590.0, 22544.0, 22514.0, 22491.0, 22553.0, 22544.0, 22528.0, 22557.0, 22497.0, 22537.0, 22513.0, 22492.0, 22498.0, 22490.0, 22487.0, 22420.0, 22518.0, 22555.0, 22557.0, 22477.0, 22401.0, 22424.0, 22466.0, 22541.0, 22548.0, 22548.0, 22506.0, 22481.0, 22502.0, 22512.0, 22471.0, 22556.0, 22429.0, 22519.0, 22514.0, 22509.0, 22468.0, 22456.0, 22441.0, 22432.0, 22400.0, 22470.0, 22516.0, 22503.0, 22497.0, 22465.0, 22461.0, 22483.0, 22448.0, 22469.0, 22489.0, 22474.0, 22505.0, 22517.0, 22498.0, 22701.0, 22615.0, 22543.0, 22483.0, 22435.0, 22453.0, 22465.0, 22559.0, 22525.0, 22505.0, 22478.0, 22501.0, 22493.0, 22468.0, 22515.0, 22451.0, 22372.0, 22511.0, 22522.0, 22504.0, 22460.0, 22414.0, 22436.0, 22482.0, 22439.0, 22487.0, 22490.0, 22540.0, 22519.0, 22498.0, 22494.0, 22492.0, 22505.0, 22537.0, 22537.0, 22513.0, 22543.0, 22534.0, 22529.0, 22539.0, 22489.0, 22458.0, 22517.0, 22593.0, 22631.0, 22574.0, 22455.0, 22483.0, 22446.0, 22497.0, 22554.0, 22612.0, 22590.0, 22493.0, 22426.0, 22546.0, 22560.0, 22581.0, 22526.0, 22575.0, 22561.0, 22595.0, 22620.0, 22694.0, 22628.0, 22569.0, 22731.0, 22651.0, 22589.0, 22635.0, 22643.0, 22579.0, 22523.0, 22518.0, 22460.0, 22571.0, 22496.0, 22420.0, 22562.0, 22538.0, 22518.0, 22523.0, 22548.0, 22486.0, 22479.0, 22432.0, 22559.0, 22436.0, 22527.0, 22485.0, 22529.0, 22555.0, 22490.0, 22487.0, 22512.0, 22540.0, 22570.0]
    },
    "slices": {}
  }
}