{
  "AcquisitionMatrixPE": 104,
  "AcquisitionNumber": 1,
  "AcquisitionTime": "13:43:31.530000",
  "BandwidthPerPixelPhaseEncode": 17.17,
  "BaseResolution": 104,
  "BodyPartExamined": "BRAIN",
  "CoilString": "HC1-7;NC1_2",
  "ConsistencyInfo": "N4_VE11C_LATEST_20160120",
  "ConversionSoftware": "dcm2niix",
  "ConversionSoftwareVersion": "v1.0.20190902",
  "DerivedVendorReportedEchoSpacing": 0.000560011,
  "DeviceSerialNumber": "167006",
  "DwellTime": 2.1e-06,
  "EchoTime": 0.037,
  "EchoTrainLength": 104,
  "EffectiveEchoSpacing": 0.000560011,
  "FlipAngle": 52,
  "HeudiconvVersion": "0.10.0",
  "ImageComments": "Unaliased_MB4_PE3_LB",
  "ImageOrientationPatientDICOM": [0.996763, 0.065153, 0.0471097, -0.045437, 0.939875, -0.338482],
  "ImageType": [
    "ORIGINAL",
    "PRIMARY",
    "P",
    "MB",
    "ND",
    "MOSAIC"
],
  "ImagingFrequency": 123.259,
  "InPlanePhaseEncodingDirectionDICOM": "COL",
  "InstitutionAddress": "Chemin_Queen-Mary_4565_Montreal_District_CA_H3W_1W5",
  "InstitutionName": "IUGM",
  "InstitutionalDepartmentName": "Department",
  "MRAcquisitionType": "2D",
  "MagneticFieldStrength": 3,
  "Manufacturer": "Siemens",
  "ManufacturersModelName": "Prisma_fit",
  "Modality": "MR",
  "MultibandAccelerationFactor": 4,
  "PartialFourier": 1,
  "PatientPosition": "HFS",
  "PercentPhaseFOV": 100,
  "PhaseEncodingDirection": "j",
  "PhaseEncodingSteps": 104,
  "PhaseResolution": 1,
  "PixelBandwidth": 2290,
  "ProcedureStepDescription": "memory_things",
  "ProtocolName": "func_task-things_run-2",
  "PulseSequenceDetails": "%CustomerSeq%_cmrr_mbep2d_bold",
  "ReceiveCoilActiveElements": "HC1-7;NC1,2",
  "ReceiveCoilName": "HeadNeck_64",
  "ReconMatrixPE": 104,
  "RepetitionTime": 1.49,
  "SAR": 0.0477861,
  "ScanOptions": "FS",
  "ScanningSequence": "EP",
  "SequenceName": "epfid2d1_104",
  "SequenceVariant": "SK_SS",
  "SeriesDescription": "func_task-things_run-2",
  "SeriesNumber": 14,
  "ShimSetting": [639, -7184, -8820, 628, 106, 19, -52, -10],
  "SliceThickness": 2,
  "SliceTiming": [0, 0.785, 0.0975, 0.8825, 0.195, 0.98, 0.295, 1.0775, 0.3925, 1.175, 0.49, 1.275, 0.5875, 1.3725, 0.685, 0, 0.785, 0.0975, 0.8825, 0.195, 0.98, 0.295, 1.0775, 0.3925, 1.175, 0.49, 1.275, 0.5875, 1.3725, 0.685, 0, 0.785, 0.0975, 0.8825, 0.195, 0.98, 0.295, 1.0775, 0.3925, 1.175, 0.49, 1.275, 0.5875, 1.3725, 0.685, 0, 0.785, 0.0975, 0.8825, 0.195, 0.98, 0.295, 1.0775, 0.3925, 1.175, 0.49, 1.275, 0.5875, 1.3725, 0.685],
  "SoftwareVersions": "syngo_MR_E11",
  "SpacingBetweenSlices": 2,
  "StationName": "MRC35049",
  "TaskName": "things",
  "TotalReadoutTime": 0.0576811,
  "TxRefAmp": 269.474,
  "WipMemBlock": "74866d84-1226-461e-874b-225dc813812e||Sequence: R016 ve11c/master r/e634e98; Dec 19 2017 11:00:25 by eja",
  "dcmmeta_affine": [
    [-1.9935252666473389, -0.09087403118610382, 0.1326608508825302, 107.69255828857422],
    [-0.13030609488487244, 1.8797502517700195, -0.6704918742179871, -54.45651626586914],
    [0.09421948343515396, 0.676964521408081, 1.8795855045318604, -61.48628616333008],
    [0.0, 0.0, 0.0, 1.0]
],
  "dcmmeta_reorient_transform": [
    [0.0, -1.0, 0.0, 103.0],
    [1.0, 0.0, 0.0, 0.0],
    [0.0, 0.0, 1.0, 0.0],
    [0.0, 0.0, 0.0, 1.0]
],
  "dcmmeta_shape": [104, 104, 60, 190],
  "dcmmeta_slice_dim": 2,
  "dcmmeta_version": 0.6,
  "global": {
    "const": {
      "AcquisitionMatrix": [104, 0, 0, 104],
      "AngioFlag": "N",
      "BitsAllocated": 16,
      "BitsStored": 16,
      "BodyPartExamined": "BRAIN",
      "Columns": 832,
      "EchoNumbers": 1,
      "EchoTime": 37.0,
      "EchoTrainLength": 104,
      "FlipAngle": 52.0,
      "HighBit": 15,
      "ImageOrientationPatient": [0.99676263576522, 0.0651530510922, 0.04710974289634, -0.0454370161968, 0.9398751214251, -0.3384822501776],
      "ImagePositionPatient": [-790.8975853117, -870.81827000925, 220.36024431056],
      "ImageType": [
        "ORIGINAL",
        "PRIMARY",
        "P",
        "MB",
        "ND",
        "MOSAIC"
],
      "ImagedNucleus": "1H",
      "ImagingFrequency": 123.2589,
      "InPlanePhaseEncodingDirection": "COL",
      "LargestImagePixelValue": 4095,
      "MRAcquisitionType": "2D",
      "MagneticFieldStrength": 3.0,
      "Manufacturer": "SIEMENS",
      "ManufacturerModelName": "Prisma_fit",
      "Modality": "MR",
      "NumberOfAverages": 1.0,
      "NumberOfPhaseEncodingSteps": 104,
      "PercentPhaseFieldOfView": 100.0,
      "PercentSampling": 100.0,
      "PerformedProcedureStepStartTime": "131238.484000",
      "PhotometricInterpretation": "MONOCHROME2",
      "PixelBandwidth": 2290.0,
      "PixelRepresentation": 0,
      "PixelSpacing": [2.0, 2.0],
      "ProtocolName": "func_task-things_run-2",
      "RepetitionTime": 1490.0,
      "RescaleIntercept": -4096.0,
      "RescaleSlope": 2.0,
      "RescaleType": "US",
      "Rows": 832,
      "SAR": 0.0477860910207,
      "SamplesPerPixel": 1,
      "ScanOptions": "FS",
      "ScanningSequence": "EP",
      "SequenceName": "epfid2d1_104",
      "SequenceVariant": [
        "SK",
        "SS"
],
      "SeriesDescription": "func_task-things_run-2",
      "SeriesNumber": 14,
      "SeriesTime": "134444.876000",
      "SliceLocation": -32.384746747528,
      "SliceThickness": 2.0,
      "SmallestImagePixelValue": 0,
      "SoftwareVersions": "syngo MR E11",
      "SpacingBetweenSlices": 1.9999999725299,
      "SpecificCharacterSet": "ISO_IR 100",
      "StudyID": "1",
      "StudyTime": "131238.261000",
      "TransmitCoilName": "Body",
      "VariableFlipAngleFlag": "N",
      "WindowCenterWidthExplanation": "Algo1",
      "dBdt": 0.0},
    "slices": {}
  },
  "time": {
    "samples": {
      "AcquisitionNumber": [1, 2, 3, 4, 5, 6, 7, 8, 9, 10, 11, 12, 13, 14, 15, 16, 17, 18, 19, 20, 21, 22, 23, 24, 25, 26, 27, 28, 29, 30, 31, 32, 33, 34, 35, 36, 37, 38, 39, 40, 41, 42, 43, 44, 45, 46, 47, 48, 49, 50, 51, 52, 53, 54, 55, 56, 57, 58, 59, 60, 61, 62, 63, 64, 65, 66, 67, 68, 69, 70, 71, 72, 73, 74, 75, 76, 77, 78, 79, 80, 81, 82, 83, 84, 85, 86, 87, 88, 89, 90, 91, 92, 93, 94, 95, 96, 97, 98, 99, 100, 101, 102, 103, 104, 105, 106, 107, 108, 109, 110, 111, 112, 113, 114, 115, 116, 117, 118, 119, 120, 121, 122, 123, 124, 125, 126, 127, 128, 129, 130, 131, 132, 133, 134, 135, 136, 137, 138, 139, 140, 141, 142, 143, 144, 145, 146, 147, 148, 149, 150, 151, 152, 153, 154, 155, 156, 157, 158, 159, 160, 161, 162, 163, 164, 165, 166, 167, 168, 169, 170, 171, 172, 173, 174, 175, 176, 177, 178, 179, 180, 181, 182, 183, 184, 185, 186, 187, 188, 189, 190],
      "AcquisitionTime": ["134331.530000", "134333.020000", "134334.510000", "134336.000000", "134337.490000", "134338.980000", "134340.470000", "134341.960000", "134343.450000", "134344.940000", "134346.430000", "134347.920000", "134349.410000", "134350.900000", "134352.390000", "134353.880000", "134355.370000", "134356.860000", "134358.350000", "134359.840000", "134401.330000", "134402.820000", "134404.310000", "134405.800000", "134407.290000", "134408.780000", "134410.270000", "134411.760000", "134413.250000", "134414.740000", "134416.230000", "134417.720000", "134419.210000", "134420.700000", "134422.190000", "134423.680000", "134425.170000", "134426.660000", "134428.150000", "134429.640000", "134431.130000", "134432.620000", "134434.110000", "134435.600000", "134437.090000", "134438.580000", "134440.070000", "134441.560000", "134443.050000", "134444.540000", "134446.030000", "134447.520000", "134449.010000", "134450.500000", "134451.990000", "134453.480000", "134454.970000", "134456.460000", "134457.950000", "134459.440000", "134500.930000", "134502.420000", "134503.910000", "134505.400000", "134506.890000", "134508.380000", "134509.870000", "134511.360000", "134512.850000", "134514.340000", "134515.830000", "134517.320000", "134518.810000", "134520.300000", "134521.790000", "134523.280000", "134524.770000", "134526.260000", "134527.750000", "134529.240000", "134530.730000", "134532.220000", "134533.710000", "134535.200000", "134536.690000", "134538.180000", "134539.670000", "134541.160000", "134542.650000", "134544.140000", "134545.630000", "134547.120000", "134548.610000", "134550.100000", "134551.590000", "134553.080000", "134554.570000", "134556.060000", "134557.550000", "134559.040000", "134600.530000", "134602.020000", "134603.510000", "134605.000000", "134606.490000", "134607.980000", "134609.470000", "134610.960000", "134612.450000", "134613.940000", "134615.430000", "134616.920000", "134618.410000", "134619.900000", "134621.390000", "134622.880000", "134624.370000", "134625.860000", "134627.350000", "134628.840000", "134630.330000", "134631.820000", "134633.310000", "134634.800000", "134636.290000", "134637.780000", "134639.270000", "134640.760000", "134642.250000", "134643.740000", "134645.230000", "134646.720000", "134648.210000", "134649.700000", "134651.190000", "134652.680000", "134654.170000", "134655.660000", "134657.150000", "134658.640000", "134700.130000", "134701.620000", "134703.110000", "134704.600000", "134706.090000", "134707.580000", "134709.070000", "134710.560000", "134712.050000", "134713.540000", "134715.030000", "134716.520000", "134718.010000", "134719.500000", "134720.990000", "134722.480000", "134723.970000", "134725.460000", "134726.950000", "134728.440000", "134729.930000", "134731.420000", "134732.910000", "134734.400000", "134735.890000", "134737.380000", "134738.870000", "134740.360000", "134741.850000", "134743.340000", "134744.830000", "134746.320000", "134747.810000", "134749.300000", "134750.790000", "134752.280000", "134753.770000", "134755.260000", "134756.750000", "134758.240000", "134759.730000", "134801.220000", "134802.710000", "134804.200000", "134805.690000", "134807.180000", "134808.670000", "134810.160000", "134811.650000", "134813.140000"],
      "ContentTime": ["134444.879000", "134444.882000", "134444.884000", "134444.887000", "134444.889000", "134444.892000", "134444.894000", "134444.897000", "134444.899000", "134444.902000", "134444.904000", "134444.907000", "134444.909000", "134444.912000", "134444.914000", "134444.917000", "134444.919000", "134444.922000", "134444.924000", "134444.927000", "134504.803000", "134504.805000", "134504.808000", "134504.810000", "134504.819000", "134504.821000", "134504.824000", "134504.826000", "134504.829000", "134504.831000", "134504.834000", "134504.837000", "134504.839000", "134504.842000", "134504.844000", "134504.847000", "134504.849000", "134504.852000", "134504.854000", "134504.857000", "134524.813000", "134524.822000", "134524.824000", "134524.827000", "134524.829000", "134524.832000", "134524.834000", "134524.837000", "134524.839000", "134524.842000", "134524.844000", "134524.847000", "134524.849000", "134524.852000", "134524.854000", "134524.857000", "134524.859000", "134524.861000", "134524.864000", "134524.866000", "134544.807000", "134544.810000", "134544.812000", "134544.815000", "134544.817000", "134544.820000", "134544.822000", "134544.825000", "134544.827000", "134544.830000", "134544.832000", "134544.835000", "134544.837000", "134544.839000", "134544.842000", "134544.844000", "134544.847000", "134544.849000", "134544.852000", "134544.854000", "134604.822000", "134604.825000", "134604.827000", "134604.830000", "134604.832000", "134604.835000", "134604.837000", "134604.840000", "134604.842000", "134604.845000", "134604.847000", "134604.860000", "134604.862000", "134604.865000", "134604.867000", "134604.870000", "134604.872000", "134604.874000", "134604.877000", "134604.879000", "134644.853000", "134644.856000", "134644.858000", "134644.861000", "134644.863000", "134644.865000", "134644.868000", "134644.870000", "134644.873000", "134644.875000", "134644.878000", "134644.880000", "134644.883000", "134644.885000", "134644.888000", "134644.890000", "134644.893000", "134644.895000", "134644.898000", "134644.900000", "134644.903000", "134644.905000", "134644.908000", "134644.910000", "134644.913000", "134644.915000", "134644.918000", "134644.920000", "134644.923000", "134724.855000", "134724.858000", "134724.861000", "134724.863000", "134724.866000", "134724.868000", "134724.871000", "134724.873000", "134724.876000", "134724.878000", "134724.881000", "134724.883000", "134724.886000", "134724.888000", "134724.891000", "134724.893000", "134724.896000", "134724.898000", "134724.901000", "134724.903000", "134724.906000", "134724.908000", "134724.911000", "134724.913000", "134724.916000", "134724.918000", "134804.851000", "134804.854000", "134804.857000", "134804.859000", "134804.862000", "134804.865000", "134804.867000", "134804.870000", "134804.872000", "134804.875000", "134804.877000", "134804.880000", "134804.882000", "134804.885000", "134804.887000", "134804.890000", "134804.892000", "134804.895000", "134804.897000", "134804.900000", "134804.902000", "134804.905000", "134804.907000", "134804.910000", "134804.912000", "134804.915000", "134804.917000", "134815.562000", "134815.565000", "134815.568000", "134815.570000", "134815.573000", "134815.575000", "134815.578000", "134815.580000"],
      "InstanceCreationTime": ["134444.879000", "134444.882000", "134444.884000", "134444.887000", "134444.889000", "134444.892000", "134444.894000", "134444.897000", "134444.899000", "134444.902000", "134444.904000", "134444.907000", "134444.909000", "134444.912000", "134444.914000", "134444.917000", "134444.919000", "134444.922000", "134444.924000", "134444.927000", "134504.803000", "134504.805000", "134504.808000", "134504.810000", "134504.819000", "134504.821000", "134504.824000", "134504.826000", "134504.829000", "134504.831000", "134504.834000", "134504.837000", "134504.839000", "134504.842000", "134504.844000", "134504.847000", "134504.849000", "134504.852000", "134504.854000", "134504.857000", "134524.813000", "134524.822000", "134524.824000", "134524.827000", "134524.829000", "134524.832000", "134524.834000", "134524.837000", "134524.839000", "134524.842000", "134524.844000", "134524.847000", "134524.849000", "134524.852000", "134524.854000", "134524.857000", "134524.859000", "134524.861000", "134524.864000", "134524.866000", "134544.807000", "134544.810000", "134544.812000", "134544.815000", "134544.817000", "134544.820000", "134544.822000", "134544.825000", "134544.827000", "134544.830000", "134544.832000", "134544.835000", "134544.837000", "134544.839000", "134544.842000", "134544.844000", "134544.847000", "134544.849000", "134544.852000", "134544.854000", "134604.822000", "134604.825000", "134604.827000", "134604.830000", "134604.832000", "134604.835000", "134604.837000", "134604.840000", "134604.842000", "134604.845000", "134604.847000", "134604.860000", "134604.862000", "134604.865000", "134604.867000", "134604.870000", "134604.872000", "134604.874000", "134604.877000", "134604.879000", "134644.853000", "134644.856000", "134644.858000", "134644.861000", "134644.863000", "134644.865000", "134644.868000", "134644.870000", "134644.873000", "134644.875000", "134644.878000", "134644.880000", "134644.883000", "134644.885000", "134644.888000", "134644.890000", "134644.893000", "134644.895000", "134644.898000", "134644.900000", "134644.903000", "134644.905000", "134644.908000", "134644.910000", "134644.913000", "134644.915000", "134644.918000", "134644.920000", "134644.923000", "134724.855000", "134724.858000", "134724.861000", "134724.863000", "134724.866000", "134724.868000", "134724.871000", "134724.873000", "134724.876000", "134724.878000", "134724.881000", "134724.883000", "134724.886000", "134724.888000", "134724.891000", "134724.893000", "134724.896000", "134724.898000", "134724.901000", "134724.903000", "134724.906000", "134724.908000", "134724.911000", "134724.913000", "134724.916000", "134724.918000", "134804.851000", "134804.854000", "134804.857000", "134804.859000", "134804.862000", "134804.865000", "134804.867000", "134804.870000", "134804.872000", "134804.875000", "134804.877000", "134804.880000", "134804.882000", "134804.885000", "134804.887000", "134804.890000", "134804.892000", "134804.895000", "134804.897000", "134804.900000", "134804.902000", "134804.905000", "134804.907000", "134804.910000", "134804.912000", "134804.915000", "134804.917000", "134815.562000", "134815.565000", "134815.568000", "134815.570000", "134815.573000", "134815.575000", "134815.578000", "134815.580000"],
      "InstanceNumber": [1, 2, 3, 4, 5, 6, 7, 8, 9, 10, 11, 12, 13, 14, 15, 16, 17, 18, 19, 20, 21, 22, 23, 24, 25, 26, 27, 28, 29, 30, 31, 32, 33, 34, 35, 36, 37, 38, 39, 40, 41, 42, 43, 44, 45, 46, 47, 48, 49, 50, 51, 52, 53, 54, 55, 56, 57, 58, 59, 60, 61, 62, 63, 64, 65, 66, 67, 68, 69, 70, 71, 72, 73, 74, 75, 76, 77, 78, 79, 80, 81, 82, 83, 84, 85, 86, 87, 88, 89, 90, 91, 92, 93, 94, 95, 96, 97, 98, 99, 100, 101, 102, 103, 104, 105, 106, 107, 108, 109, 110, 111, 112, 113, 114, 115, 116, 117, 118, 119, 120, 121, 122, 123, 124, 125, 126, 127, 128, 129, 130, 131, 132, 133, 134, 135, 136, 137, 138, 139, 140, 141, 142, 143, 144, 145, 146, 147, 148, 149, 150, 151, 152, 153, 154, 155, 156, 157, 158, 159, 160, 161, 162, 163, 164, 165, 166, 167, 168, 169, 170, 171, 172, 173, 174, 175, 176, 177, 178, 179, 180, 181, 182, 183, 184, 185, 186, 187, 188, 189, 190],
      "WindowCenter": [4778.0, 4784.0, 4780.0, 4776.0, 4780.0, 4782.0, 4780.0, 4780.0, 4780.0, 4778.0, 4780.0, 4776.0, 4778.0, 4780.0, 4780.0, 4778.0, 4780.0, 4780.0, 4778.0, 4780.0, 4778.0, 4778.0, 4780.0, 4782.0, 4780.0, 4782.0, 4774.0, 4778.0, 4780.0, 4778.0, 4776.0, 4780.0, 4782.0, 4778.0, 4782.0, 4780.0, 4780.0, 4778.0, 4778.0, 4780.0, 4780.0, 4780.0, 4778.0, 4778.0, 4784.0, 4778.0, 4780.0, 4776.0, 4778.0, 4778.0, 4780.0, 4780.0, 4780.0, 4778.0, 4780.0, 4778.0, 4778.0, 4780.0, 4782.0, 4780.0, 4780.0, 4780.0, 4778.0, 4778.0, 4778.0, 4776.0, 4782.0, 4780.0, 4782.0, 4780.0, 4778.0, 4780.0, 4778.0, 4778.0, 4778.0, 4778.0, 4780.0, 4778.0, 4780.0, 4782.0, 4780.0, 4782.0, 4784.0, 4780.0, 4782.0, 4776.0, 4778.0, 4776.0, 4780.0, 4776.0, 4780.0, 4780.0, 4780.0, 4776.0, 4778.0, 4778.0, 4778.0, 4780.0, 4778.0, 4776.0, 4780.0, 4776.0, 4780.0, 4778.0, 4780.0, 4782.0, 4786.0, 4780.0, 4780.0, 4784.0, 4778.0, 4778.0, 4782.0, 4776.0, 4780.0, 4782.0, 4776.0, 4782.0, 4758.0, 4776.0, 4756.0, 4780.0, 4780.0, 4778.0, 4778.0, 4778.0, 4780.0, 4778.0, 4778.0, 4776.0, 4778.0, 4780.0, 4780.0, 4780.0, 4782.0, 4780.0, 4780.0, 4778.0, 4776.0, 4776.0, 4778.0, 4774.0, 4754.0, 4778.0, 4780.0, 4778.0, 4780.0, 4778.0, 4778.0, 4778.0, 4776.0, 4780.0, 4778.0, 4782.0, 4782.0, 4780.0, 4778.0, 4782.0, 4780.0, 4778.0, 4778.0, 4778.0, 4782.0, 4780.0, 4780.0, 4780.0, 4778.0, 4778.0, 4780.0, 4782.0, 4776.0, 4778.0, 4778.0, 4778.0, 4780.0, 4780.0, 4780.0, 4780.0, 4776.0, 4782.0, 4776.0, 4774.0, 4774.0, 4774.0, 4778.0, 4778.0, 4778.0, 4778.0, 4780.0, 4778.0],
      "WindowWidth": [18564.0, 18566.0, 18564.0, 18566.0, 18566.0, 18564.0, 18562.0, 18554.0, 18564.0, 18570.0, 18576.0, 18574.0, 18574.0, 18570.0, 18566.0, 18560.0, 18572.0, 18568.0, 18566.0, 18572.0, 18566.0, 18564.0, 18564.0, 18570.0, 18568.0, 18564.0, 18566.0, 18570.0, 18574.0, 18572.0, 18572.0, 18564.0, 18566.0, 18562.0, 18566.0, 18570.0, 18572.0, 18576.0, 18572.0, 18568.0, 18566.0, 18564.0, 18564.0, 18564.0, 18572.0, 18568.0, 18572.0, 18564.0, 18568.0, 18568.0, 18564.0, 18566.0, 18564.0, 18566.0, 18568.0, 18564.0, 18570.0, 18570.0, 18572.0, 18570.0, 18568.0, 18570.0, 18568.0, 18574.0, 18566.0, 18568.0, 18570.0, 18566.0, 18568.0, 18568.0, 18566.0, 18564.0, 18566.0, 18560.0, 18572.0, 18570.0, 18574.0, 18570.0, 18572.0, 18568.0, 18564.0, 18558.0, 18562.0, 18566.0, 18572.0, 18568.0, 18580.0, 18574.0, 18568.0, 18572.0, 18566.0, 18562.0, 18566.0, 18562.0, 18566.0, 18570.0, 18570.0, 18574.0, 18574.0, 18568.0, 18570.0, 18566.0, 18572.0, 18566.0, 18560.0, 18566.0, 18564.0, 18562.0, 18566.0, 18568.0, 18570.0, 18564.0, 18566.0, 18564.0, 18564.0, 18566.0, 18562.0, 18568.0, 18532.0, 18564.0, 18534.0, 18572.0, 18568.0, 18564.0, 18574.0, 18564.0, 18568.0, 18564.0, 18574.0, 18572.0, 18574.0, 18568.0, 18568.0, 18564.0, 18572.0, 18566.0, 18568.0, 18572.0, 18568.0, 18574.0, 18572.0, 18564.0, 18534.0, 18568.0, 18564.0, 18564.0, 18572.0, 18570.0, 18570.0, 18574.0, 18572.0, 18576.0, 18568.0, 18570.0, 18568.0, 18572.0, 18568.0, 18572.0, 18570.0, 18566.0, 18564.0, 18570.0, 18568.0, 18574.0, 18576.0, 18568.0, 18562.0, 18570.0, 18564.0, 18576.0, 18568.0, 18570.0, 18576.0, 18574.0, 18566.0, 18568.0, 18564.0, 18564.0, 18568.0, 18568.0, 18564.0, 18574.0, 18568.0, 18568.0, 18564.0, 18566.0, 18570.0, 18568.0, 18570.0, 18570.0]
    },
    "slices": {}
  }
}