{
  "AcquisitionMatrixPE": 104,
  "AcquisitionNumber": 1,
  "AcquisitionTime": "14:03:32.297500",
  "BandwidthPerPixelPhaseEncode": 17.17,
  "BaseResolution": 104,
  "BodyPartExamined": "BRAIN",
  "CoilString": "HC1-7;NC1_2",
  "ConsistencyInfo": "N4_VE11C_LATEST_20160120",
  "ConversionSoftware": "dcm2niix",
  "ConversionSoftwareVersion": "v1.0.20190902",
  "DerivedVendorReportedEchoSpacing": 0.000560011,
  "DeviceSerialNumber": "167006",
  "DwellTime": 2.1e-06,
  "EchoTime": 0.037,
  "EchoTrainLength": 104,
  "EffectiveEchoSpacing": 0.000560011,
  "FlipAngle": 52,
  "HeudiconvVersion": "0.10.0",
  "ImageComments": "Unaliased_MB4_PE3_LB",
  "ImageOrientationPatientDICOM": [0.996763, 0.065153, 0.0471097, -0.045437, 0.939875, -0.338482],
  "ImageType": [
    "ORIGINAL",
    "PRIMARY",
    "M",
    "MB",
    "ND",
    "MOSAIC"
],
  "ImagingFrequency": 123.259,
  "InPlanePhaseEncodingDirectionDICOM": "COL",
  "InstitutionAddress": "Chemin_Queen-Mary_4565_Montreal_District_CA_H3W_1W5",
  "InstitutionName": "IUGM",
  "InstitutionalDepartmentName": "Department",
  "MRAcquisitionType": "2D",
  "MagneticFieldStrength": 3,
  "Manufacturer": "Siemens",
  "ManufacturersModelName": "Prisma_fit",
  "Modality": "MR",
  "MultibandAccelerationFactor": 4,
  "PartialFourier": 1,
  "PatientPosition": "HFS",
  "PercentPhaseFOV": 100,
  "PhaseEncodingDirection": "j",
  "PhaseEncodingSteps": 104,
  "PhaseResolution": 1,
  "PixelBandwidth": 2290,
  "ProcedureStepDescription": "memory_things",
  "ProtocolName": "func_task-things_run-4",
  "PulseSequenceDetails": "%CustomerSeq%_cmrr_mbep2d_bold",
  "ReceiveCoilActiveElements": "HC1-7;NC1,2",
  "ReceiveCoilName": "HeadNeck_64",
  "ReconMatrixPE": 104,
  "RepetitionTime": 1.49,
  "SAR": 0.0477861,
  "ScanOptions": "FS",
  "ScanningSequence": "EP",
  "SequenceName": "epfid2d1_104",
  "SequenceVariant": "SK_SS",
  "SeriesDescription": "func_task-things_run-4",
  "SeriesNumber": 19,
  "ShimSetting": [639, -7184, -8820, 628, 106, 19, -52, -10],
  "SliceThickness": 2,
  "SliceTiming": [0, 0.785, 0.1, 0.8825, 0.1975, 0.98, 0.295, 1.08, 0.3925, 1.1775, 0.49, 1.275, 0.59, 1.3725, 0.6875, 0, 0.785, 0.1, 0.8825, 0.1975, 0.98, 0.295, 1.08, 0.3925, 1.1775, 0.49, 1.275, 0.59, 1.3725, 0.6875, 0, 0.785, 0.1, 0.8825, 0.1975, 0.98, 0.295, 1.08, 0.3925, 1.1775, 0.49, 1.275, 0.59, 1.3725, 0.6875, 0, 0.785, 0.1, 0.8825, 0.1975, 0.98, 0.295, 1.08, 0.3925, 1.1775, 0.49, 1.275, 0.59, 1.3725, 0.6875],
  "SoftwareVersions": "syngo_MR_E11",
  "SpacingBetweenSlices": 2,
  "StationName": "MRC35049",
  "TaskName": "things",
  "TotalReadoutTime": 0.0576811,
  "TxRefAmp": 269.474,
  "WipMemBlock": "fde68a89-b880-4d7c-97af-817de9ce7fd6||Sequence: R016 ve11c/master r/e634e98; Dec 19 2017 11:00:25 by eja",
  "dcmmeta_affine": [
    [-1.9935252666473389, -0.09087403118610382, 0.1326608508825302, 107.69255828857422],
    [-0.13030609488487244, 1.8797502517700195, -0.6704918742179871, -54.45651626586914],
    [0.09421948343515396, 0.676964521408081, 1.8795855045318604, -61.48628616333008],
    [0.0, 0.0, 0.0, 1.0]
],
  "dcmmeta_reorient_transform": [
    [0.0, -1.0, 0.0, 103.0],
    [1.0, 0.0, 0.0, 0.0],
    [0.0, 0.0, 1.0, 0.0],
    [0.0, 0.0, 0.0, 1.0]
],
  "dcmmeta_shape": [104, 104, 60, 190],
  "dcmmeta_slice_dim": 2,
  "dcmmeta_version": 0.6,
  "global": {
    "const": {
      "AcquisitionMatrix": [104, 0, 0, 104],
      "AngioFlag": "N",
      "BitsAllocated": 16,
      "BitsStored": 16,
      "BodyPartExamined": "BRAIN",
      "Columns": 832,
      "EchoNumbers": 1,
      "EchoTime": 37.0,
      "EchoTrainLength": 104,
      "FlipAngle": 52.0,
      "HighBit": 15,
      "ImageOrientationPatient": [0.99676263576522, 0.0651530510922, 0.04710974289634, -0.0454370161968, 0.9398751214251, -0.3384822501776],
      "ImagePositionPatient": [-790.8975853117, -870.81827000925, 220.36024431056],
      "ImageType": [
        "ORIGINAL",
        "PRIMARY",
        "M",
        "MB",
        "ND",
        "MOSAIC"
],
      "ImagedNucleus": "1H",
      "ImagingFrequency": 123.258906,
      "InPlanePhaseEncodingDirection": "COL",
      "MRAcquisitionType": "2D",
      "MagneticFieldStrength": 3.0,
      "Manufacturer": "SIEMENS",
      "ManufacturerModelName": "Prisma_fit",
      "Modality": "MR",
      "NumberOfAverages": 1.0,
      "NumberOfPhaseEncodingSteps": 104,
      "PercentPhaseFieldOfView": 100.0,
      "PercentSampling": 100.0,
      "PerformedProcedureStepStartTime": "131238.484000",
      "PhotometricInterpretation": "MONOCHROME2",
      "PixelBandwidth": 2290.0,
      "PixelRepresentation": 0,
      "PixelSpacing": [2.0, 2.0],
      "ProtocolName": "func_task-things_run-4",
      "RepetitionTime": 1490.0,
      "Rows": 832,
      "SAR": 0.0477860910207,
      "SamplesPerPixel": 1,
      "ScanOptions": "FS",
      "ScanningSequence": "EP",
      "SequenceName": "epfid2d1_104",
      "SequenceVariant": [
        "SK",
        "SS"
],
      "SeriesDescription": "func_task-things_run-4",
      "SeriesNumber": 19,
      "SeriesTime": "140501.894000",
      "SliceLocation": -32.384746747528,
      "SliceThickness": 2.0,
      "SmallestImagePixelValue": 0,
      "SoftwareVersions": "syngo MR E11",
      "SpacingBetweenSlices": 1.9999999725299,
      "SpecificCharacterSet": "ISO_IR 100",
      "StudyID": "1",
      "StudyTime": "131238.261000",
      "TransmitCoilName": "Body",
      "VariableFlipAngleFlag": "N",
      "WindowCenterWidthExplanation": "Algo1",
      "dBdt": 0.0},
    "slices": {}
  },
  "time": {
    "samples": {
      "AcquisitionNumber": [1, 2, 3, 4, 5, 6, 7, 8, 9, 10, 11, 12, 13, 14, 15, 16, 17, 18, 19, 20, 21, 22, 23, 24, 25, 26, 27, 28, 29, 30, 31, 32, 33, 34, 35, 36, 37, 38, 39, 40, 41, 42, 43, 44, 45, 46, 47, 48, 49, 50, 51, 52, 53, 54, 55, 56, 57, 58, 59, 60, 61, 62, 63, 64, 65, 66, 67, 68, 69, 70, 71, 72, 73, 74, 75, 76, 77, 78, 79, 80, 81, 82, 83, 84, 85, 86, 87, 88, 89, 90, 91, 92, 93, 94, 95, 96, 97, 98, 99, 100, 101, 102, 103, 104, 105, 106, 107, 108, 109, 110, 111, 112, 113, 114, 115, 116, 117, 118, 119, 120, 121, 122, 123, 124, 125, 126, 127, 128, 129, 130, 131, 132, 133, 134, 135, 136, 137, 138, 139, 140, 141, 142, 143, 144, 145, 146, 147, 148, 149, 150, 151, 152, 153, 154, 155, 156, 157, 158, 159, 160, 161, 162, 163, 164, 165, 166, 167, 168, 169, 170, 171, 172, 173, 174, 175, 176, 177, 178, 179, 180, 181, 182, 183, 184, 185, 186, 187, 188, 189, 190],
      "AcquisitionTime": ["140332.297500", "140333.787500", "140335.277500", "140336.767500", "140338.257500", "140339.747500", "140341.237500", "140342.727500", "140344.217500", "140345.707500", "140347.197500", "140348.687500", "140350.177500", "140351.667500", "140353.157500", "140354.647500", "140356.137500", "140357.627500", "140359.117500", "140400.607500", "140402.097500", "140403.587500", "140405.077500", "140406.567500", "140408.057500", "140409.547500", "140411.037500", "140412.527500", "140414.017500", "140415.507500", "140416.997500", "140418.487500", "140419.977500", "140421.467500", "140422.957500", "140424.447500", "140425.937500", "140427.427500", "140428.917500", "140430.407500", "140431.897500", "140433.387500", "140434.877500", "140436.367500", "140437.857500", "140439.347500", "140440.837500", "140442.327500", "140443.817500", "140445.307500", "140446.797500", "140448.287500", "140449.777500", "140451.267500", "140452.757500", "140454.247500", "140455.737500", "140457.227500", "140458.717500", "140500.207500", "140501.697500", "140503.187500", "140504.677500", "140506.167500", "140507.657500", "140509.147500", "140510.637500", "140512.127500", "140513.617500", "140515.107500", "140516.597500", "140518.087500", "140519.577500", "140521.067500", "140522.557500", "140524.047500", "140525.537500", "140527.027500", "140528.517500", "140530.007500", "140531.497500", "140532.987500", "140534.477500", "140535.967500", "140537.457500", "140538.947500", "140540.437500", "140541.927500", "140543.417500", "140544.907500", "140546.397500", "140547.887500", "140549.377500", "140550.867500", "140552.357500", "140553.847500", "140555.337500", "140556.827500", "140558.317500", "140559.807500", "140601.297500", "140602.787500", "140604.277500", "140605.767500", "140607.257500", "140608.747500", "140610.237500", "140611.727500", "140613.217500", "140614.707500", "140616.197500", "140617.687500", "140619.177500", "140620.667500", "140622.157500", "140623.647500", "140625.137500", "140626.627500", "140628.117500", "140629.607500", "140631.097500", "140632.587500", "140634.077500", "140635.567500", "140637.057500", "140638.547500", "140640.037500", "140641.527500", "140643.017500", "140644.507500", "140645.997500", "140647.487500", "140648.977500", "140650.467500", "140651.957500", "140653.447500", "140654.937500", "140656.427500", "140657.917500", "140659.407500", "140700.897500", "140702.387500", "140703.877500", "140705.367500", "140706.857500", "140708.347500", "140709.837500", "140711.327500", "140712.817500", "140714.307500", "140715.797500", "140717.287500", "140718.777500", "140720.267500", "140721.757500", "140723.247500", "140724.737500", "140726.227500", "140727.717500", "140729.207500", "140730.697500", "140732.187500", "140733.677500", "140735.167500", "140736.657500", "140738.147500", "140739.637500", "140741.127500", "140742.617500", "140744.107500", "140745.597500", "140747.087500", "140748.577500", "140750.067500", "140751.557500", "140753.047500", "140754.537500", "140756.027500", "140757.517500", "140759.007500", "140800.497500", "140801.987500", "140803.477500", "140804.967500", "140806.457500", "140807.947500", "140809.437500", "140810.927500", "140812.417500", "140813.907500"],
      "ContentTime": ["140501.897000", "140501.900000", "140501.904000", "140501.907000", "140501.910000", "140501.914000", "140501.925000", "140501.928000", "140501.932000", "140501.935000", "140501.938000", "140501.947000", "140501.950000", "140501.954000", "140501.957000", "140501.960000", "140501.964000", "140501.967000", "140501.970000", "140501.973000", "140501.977000", "140501.980000", "140501.983000", "140501.987000", "140501.990000", "140501.993000", "140501.996000", "140502.001000", "140502.004000", "140502.008000", "140502.011000", "140502.014000", "140502.017000", "140502.021000", "140502.024000", "140502.027000", "140521.859000", "140521.863000", "140521.866000", "140521.870000", "140521.873000", "140521.876000", "140521.879000", "140521.883000", "140521.886000", "140521.889000", "140521.893000", "140521.896000", "140521.899000", "140521.903000", "140521.906000", "140521.909000", "140521.913000", "140521.916000", "140521.919000", "140521.922000", "140541.860000", "140541.865000", "140541.868000", "140541.872000", "140541.877000", "140541.880000", "140541.884000", "140541.887000", "140541.890000", "140541.894000", "140541.897000", "140541.901000", "140541.904000", "140541.907000", "140541.911000", "140541.914000", "140541.917000", "140541.921000", "140541.924000", "140541.927000", "140601.859000", "140601.863000", "140601.866000", "140601.870000", "140601.873000", "140601.876000", "140601.879000", "140601.883000", "140601.891000", "140601.895000", "140601.898000", "140601.901000", "140601.905000", "140601.908000", "140601.912000", "140601.915000", "140601.918000", "140601.922000", "140601.925000", "140601.929000", "140601.932000", "140641.859000", "140641.863000", "140641.866000", "140641.870000", "140641.873000", "140641.876000", "140641.880000", "140641.883000", "140641.886000", "140641.890000", "140641.893000", "140641.896000", "140641.899000", "140641.903000", "140641.906000", "140641.909000", "140641.913000", "140641.931000", "140641.935000", "140641.938000", "140641.941000", "140641.945000", "140641.948000", "140641.951000", "140641.955000", "140641.958000", "140641.962000", "140641.965000", "140641.968000", "140721.859000", "140721.863000", "140721.866000", "140721.870000", "140721.873000", "140721.876000", "140721.880000", "140721.883000", "140721.886000", "140721.890000", "140721.893000", "140721.896000", "140721.900000", "140721.903000", "140721.906000", "140721.910000", "140721.913000", "140721.916000", "140721.920000", "140721.923000", "140721.926000", "140721.929000", "140721.933000", "140721.936000", "140721.940000", "140721.943000", "140721.946000", "140801.859000", "140801.863000", "140801.866000", "140801.870000", "140801.873000", "140801.876000", "140801.880000", "140801.883000", "140801.886000", "140801.890000", "140801.893000", "140801.896000", "140801.900000", "140801.903000", "140801.906000", "140801.910000", "140801.913000", "140801.916000", "140801.920000", "140801.923000", "140801.926000", "140801.930000", "140801.933000", "140801.936000", "140801.940000", "140801.943000", "140801.946000", "140816.503000", "140816.506000", "140816.510000", "140816.513000", "140816.516000", "140816.520000", "140816.523000", "140816.527000", "140816.530000", "140816.533000"],
      "InstanceCreationTime": ["140501.897000", "140501.900000", "140501.904000", "140501.907000", "140501.910000", "140501.914000", "140501.925000", "140501.928000", "140501.932000", "140501.935000", "140501.938000", "140501.947000", "140501.950000", "140501.954000", "140501.957000", "140501.960000", "140501.964000", "140501.967000", "140501.970000", "140501.973000", "140501.977000", "140501.980000", "140501.983000", "140501.987000", "140501.990000", "140501.993000", "140501.996000", "140502.001000", "140502.004000", "140502.008000", "140502.011000", "140502.014000", "140502.017000", "140502.021000", "140502.024000", "140502.027000", "140521.859000", "140521.863000", "140521.866000", "140521.870000", "140521.873000", "140521.876000", "140521.879000", "140521.883000", "140521.886000", "140521.889000", "140521.893000", "140521.896000", "140521.899000", "140521.903000", "140521.906000", "140521.909000", "140521.913000", "140521.916000", "140521.919000", "140521.922000", "140541.860000", "140541.865000", "140541.868000", "140541.872000", "140541.877000", "140541.880000", "140541.884000", "140541.887000", "140541.890000", "140541.894000", "140541.897000", "140541.901000", "140541.904000", "140541.907000", "140541.911000", "140541.914000", "140541.917000", "140541.921000", "140541.924000", "140541.927000", "140601.859000", "140601.863000", "140601.866000", "140601.870000", "140601.873000", "140601.876000", "140601.879000", "140601.883000", "140601.891000", "140601.895000", "140601.898000", "140601.901000", "140601.905000", "140601.908000", "140601.912000", "140601.915000", "140601.918000", "140601.922000", "140601.925000", "140601.929000", "140601.932000", "140641.859000", "140641.863000", "140641.866000", "140641.870000", "140641.873000", "140641.876000", "140641.880000", "140641.883000", "140641.886000", "140641.890000", "140641.893000", "140641.896000", "140641.899000", "140641.903000", "140641.906000", "140641.909000", "140641.913000", "140641.931000", "140641.935000", "140641.938000", "140641.941000", "140641.945000", "140641.948000", "140641.951000", "140641.955000", "140641.958000", "140641.962000", "140641.965000", "140641.968000", "140721.859000", "140721.863000", "140721.866000", "140721.870000", "140721.873000", "140721.876000", "140721.880000", "140721.883000", "140721.886000", "140721.890000", "140721.893000", "140721.896000", "140721.900000", "140721.903000", "140721.906000", "140721.910000", "140721.913000", "140721.916000", "140721.920000", "140721.923000", "140721.926000", "140721.929000", "140721.933000", "140721.936000", "140721.940000", "140721.943000", "140721.946000", "140801.859000", "140801.863000", "140801.866000", "140801.870000", "140801.873000", "140801.876000", "140801.880000", "140801.883000", "140801.886000", "140801.890000", "140801.893000", "140801.896000", "140801.900000", "140801.903000", "140801.906000", "140801.910000", "140801.913000", "140801.916000", "140801.920000", "140801.923000", "140801.926000", "140801.930000", "140801.933000", "140801.936000", "140801.940000", "140801.943000", "140801.946000", "140816.503000", "140816.506000", "140816.510000", "140816.513000", "140816.516000", "140816.520000", "140816.523000", "140816.527000", "140816.530000", "140816.533000"],
      "InstanceNumber": [1, 2, 3, 4, 5, 6, 7, 8, 9, 10, 11, 12, 13, 14, 15, 16, 17, 18, 19, 20, 21, 22, 23, 24, 25, 26, 27, 28, 29, 30, 31, 32, 33, 34, 35, 36, 37, 38, 39, 40, 41, 42, 43, 44, 45, 46, 47, 48, 49, 50, 51, 52, 53, 54, 55, 56, 57, 58, 59, 60, 61, 62, 63, 64, 65, 66, 67, 68, 69, 70, 71, 72, 73, 74, 75, 76, 77, 78, 79, 80, 81, 82, 83, 84, 85, 86, 87, 88, 89, 90, 91, 92, 93, 94, 95, 96, 97, 98, 99, 100, 101, 102, 103, 104, 105, 106, 107, 108, 109, 110, 111, 112, 113, 114, 115, 116, 117, 118, 119, 120, 121, 122, 123, 124, 125, 126, 127, 128, 129, 130, 131, 132, 133, 134, 135, 136, 137, 138, 139, 140, 141, 142, 143, 144, 145, 146, 147, 148, 149, 150, 151, 152, 153, 154, 155, 156, 157, 158, 159, 160, 161, 162, 163, 164, 165, 166, 167, 168, 169, 170, 171, 172, 173, 174, 175, 176, 177, 178, 179, 180, 181, 182, 183, 184, 185, 186, 187, 188, 189, 190],
      "LargestImagePixelValue": [46107, 43931, 43258, 42254, 42280, 42904, 43536, 44618, 43541, 43565, 43173, 43188, 43571, 43982, 42867, 43475, 43940, 44957, 44425, 43549, 42592, 42569, 43381, 45104, 44229, 43618, 43380, 44730, 43664, 43999, 44026, 45701, 44858, 44711, 44291, 44183, 43537, 42631, 43837, 44422, 45037, 45136, 44569, 45308, 45632, 45349, 44500, 43841, 43312, 43422, 43949, 44121, 44513, 44920, 44416, 45374, 44397, 44068, 43913, 44233, 44848, 44658, 43772, 43249, 43716, 43425, 44943, 44391, 43685, 43886, 43390, 44452, 44186, 44109, 44074, 44116, 44320, 43547, 43861, 44430, 43287, 44291, 43578, 43662, 44606, 44598, 43953, 43044, 42185, 43172, 43200, 43817, 43440, 43692, 43775, 44008, 44897, 44362, 43511, 43359, 43784, 43782, 42816, 41832, 42062, 41518, 42066, 42955, 42884, 42228, 41882, 42387, 42128, 41450, 41565, 41169, 43027, 43287, 43305, 42894, 42861, 43082, 42255, 42555, 42290, 42734, 42777, 43070, 42841, 43358, 42902, 42411, 41912, 42072, 42898, 42460, 42576, 43030, 43376, 41846, 42349, 42740, 42198, 41315, 42110, 42529, 41285, 42055, 41257, 41735, 41122, 41980, 42305, 41578, 42096, 42152, 44693, 41938, 41365, 42319, 42124, 40593, 41899, 41645, 41150, 42070, 41045, 41267, 40917, 41113, 41981, 41885, 42263, 41802, 41895, 41969, 41385, 41900, 41925, 41561, 41726, 41521, 41049, 39936, 39630, 39242, 38890, 41559, 39437, 39316],
      "WindowCenter": [10446.0, 10405.0, 10370.0, 10350.0, 10337.0, 10356.0, 10382.0, 10392.0, 10361.0, 10335.0, 10323.0, 10329.0, 10341.0, 10348.0, 10337.0, 10359.0, 10370.0, 10371.0, 10347.0, 10333.0, 10338.0, 10364.0, 10386.0, 10406.0, 10371.0, 10333.0, 10321.0, 10337.0, 10336.0, 10338.0, 10357.0, 10393.0, 10371.0, 10343.0, 10323.0, 10332.0, 10341.0, 10337.0, 10341.0, 10338.0, 10339.0, 10337.0, 10313.0, 10307.0, 10322.0, 10358.0, 10367.0, 10339.0, 10324.0, 10336.0, 10346.0, 10339.0, 10344.0, 10356.0, 10341.0, 10335.0, 10329.0, 10331.0, 10344.0, 10371.0, 10378.0, 10353.0, 10328.0, 10319.0, 10350.0, 10375.0, 10371.0, 10341.0, 10325.0, 10324.0, 10335.0, 10350.0, 10345.0, 10346.0, 10344.0, 10327.0, 10322.0, 10317.0, 10326.0, 10348.0, 10332.0, 10325.0, 10294.0, 10324.0, 10382.0, 10380.0, 10354.0, 10324.0, 10302.0, 10305.0, 10304.0, 10308.0, 10310.0, 10310.0, 10308.0, 10308.0, 10330.0, 10347.0, 10330.0, 10321.0, 10334.0, 10362.0, 10362.0, 10352.0, 10349.0, 10364.0, 10361.0, 10373.0, 10364.0, 10327.0, 10305.0, 10324.0, 10348.0, 10347.0, 10331.0, 10311.0, 10317.0, 10313.0, 10330.0, 10335.0, 10327.0, 10317.0, 10308.0, 10315.0, 10334.0, 10358.0, 10360.0, 10361.0, 10368.0, 10352.0, 10336.0, 10342.0, 10360.0, 10379.0, 10399.0, 10378.0, 10365.0, 10353.0, 10366.0, 10366.0, 10359.0, 10370.0, 10376.0, 10366.0, 10369.0, 10366.0, 10348.0, 10349.0, 10356.0, 10371.0, 10371.0, 10377.0, 10385.0, 10364.0, 10359.0, 10354.0, 10372.0, 10340.0, 10336.0, 10341.0, 10342.0, 10316.0, 10334.0, 10350.0, 10356.0, 10362.0, 10341.0, 10337.0, 10339.0, 10336.0, 10349.0, 10367.0, 10387.0, 10364.0, 10334.0, 10316.0, 10301.0, 10329.0, 10351.0, 10346.0, 10338.0, 10326.0, 10312.0, 10306.0, 10308.0, 10306.0, 10309.0, 10344.0, 10322.0, 10324.0],
      "WindowWidth": [22190.0, 22088.0, 21996.0, 21954.0, 21915.0, 21951.0, 22010.0, 22026.0, 21954.0, 21895.0, 21866.0, 21878.0, 21909.0, 21924.0, 21903.0, 21949.0, 21978.0, 21976.0, 21925.0, 21895.0, 21912.0, 21972.0, 22012.0, 22055.0, 21977.0, 21887.0, 21858.0, 21887.0, 21893.0, 21899.0, 21944.0, 22022.0, 21976.0, 21908.0, 21864.0, 21885.0, 21913.0, 21904.0, 21906.0, 21894.0, 21895.0, 21890.0, 21835.0, 21820.0, 21855.0, 21942.0, 21965.0, 21897.0, 21867.0, 21892.0, 21920.0, 21906.0, 21912.0, 21938.0, 21901.0, 21883.0, 21872.0, 21881.0, 21910.0, 21975.0, 21992.0, 21932.0, 21875.0, 21854.0, 21927.0, 21992.0, 21975.0, 21905.0, 21866.0, 21867.0, 21896.0, 21926.0, 21914.0, 21919.0, 21913.0, 21874.0, 21862.0, 21853.0, 21875.0, 21919.0, 21890.0, 21865.0, 21800.0, 21865.0, 22002.0, 22000.0, 21935.0, 21868.0, 21822.0, 21824.0, 21824.0, 21829.0, 21833.0, 21833.0, 21829.0, 21830.0, 21877.0, 21920.0, 21884.0, 21864.0, 21892.0, 21961.0, 21962.0, 21948.0, 21934.0, 21984.0, 21967.0, 21987.0, 21969.0, 21888.0, 21836.0, 21875.0, 21935.0, 21937.0, 21896.0, 21848.0, 21855.0, 21844.0, 21889.0, 21899.0, 21880.0, 21857.0, 21837.0, 21852.0, 21897.0, 21963.0, 21955.0, 21958.0, 21971.0, 21938.0, 21899.0, 21915.0, 21970.0, 22009.0, 22048.0, 22005.0, 21969.0, 21938.0, 21968.0, 21975.0, 21956.0, 21977.0, 21999.0, 21976.0, 21978.0, 21971.0, 21942.0, 21941.0, 21960.0, 21992.0, 21990.0, 21998.0, 22017.0, 21970.0, 21956.0, 21949.0, 21987.0, 21914.0, 21907.0, 21915.0, 21922.0, 21863.0, 21902.0, 21938.0, 21953.0, 21966.0, 21918.0, 21909.0, 21918.0, 21909.0, 21931.0, 21970.0, 22019.0, 21966.0, 21895.0, 21857.0, 21822.0, 21888.0, 21941.0, 21928.0, 21911.0, 21879.0, 21849.0, 21838.0, 21846.0, 21847.0, 21856.0, 21924.0, 21882.0, 21887.0]
    },
    "slices": {}
  }
}