{
  "AcquisitionMatrixPE": 104,
  "AcquisitionNumber": 1,
  "AcquisitionTime": "13:37:12.002500",
  "BandwidthPerPixelPhaseEncode": 17.17,
  "BaseResolution": 104,
  "BodyPartExamined": "BRAIN",
  "CoilString": "HC1-7;NC1_2",
  "ConsistencyInfo": "N4_VE11C_LATEST_20160120",
  "ConversionSoftware": "dcm2niix",
  "ConversionSoftwareVersion": "v1.0.20190902",
  "DerivedVendorReportedEchoSpacing": 0.000560011,
  "DeviceSerialNumber": "167006",
  "DwellTime": 2.1e-06,
  "EchoTime": 0.037,
  "EchoTrainLength": 104,
  "EffectiveEchoSpacing": 0.000560011,
  "FlipAngle": 52,
  "HeudiconvVersion": "0.10.0",
  "ImageComments": "Unaliased_MB4_PE3_LB",
  "ImageOrientationPatientDICOM": [0.996763, 0.065153, 0.0471097, -0.045437, 0.939875, -0.338482],
  "ImageType": [
    "ORIGINAL",
    "PRIMARY",
    "M",
    "MB",
    "ND",
    "MOSAIC"
],
  "ImagingFrequency": 123.259,
  "InPlanePhaseEncodingDirectionDICOM": "COL",
  "InstitutionAddress": "Chemin_Queen-Mary_4565_Montreal_District_CA_H3W_1W5",
  "InstitutionName": "IUGM",
  "InstitutionalDepartmentName": "Department",
  "MRAcquisitionType": "2D",
  "MagneticFieldStrength": 3,
  "Manufacturer": "Siemens",
  "ManufacturersModelName": "Prisma_fit",
  "Modality": "MR",
  "MultibandAccelerationFactor": 4,
  "PartialFourier": 1,
  "PatientPosition": "HFS",
  "PercentPhaseFOV": 100,
  "PhaseEncodingDirection": "j",
  "PhaseEncodingSteps": 104,
  "PhaseResolution": 1,
  "PixelBandwidth": 2290,
  "ProcedureStepDescription": "memory_things",
  "ProtocolName": "func_task-things_run-1",
  "PulseSequenceDetails": "%CustomerSeq%_cmrr_mbep2d_bold",
  "ReceiveCoilActiveElements": "HC1-7;NC1,2",
  "ReceiveCoilName": "HeadNeck_64",
  "ReconMatrixPE": 104,
  "RepetitionTime": 1.49,
  "SAR": 0.0477861,
  "ScanOptions": "FS",
  "ScanningSequence": "EP",
  "SequenceName": "epfid2d1_104",
  "SequenceVariant": "SK_SS",
  "SeriesDescription": "func_task-things_run-1",
  "SeriesNumber": 10,
  "ShimSetting": [639, -7184, -8820, 628, 106, 19, -52, -10],
  "SliceThickness": 2,
  "SliceTiming": [0, 0.785, 0.0975, 0.8825, 0.195, 0.98, 0.295, 1.0775, 0.3925, 1.175, 0.49, 1.275, 0.5875, 1.3725, 0.685, 0, 0.785, 0.0975, 0.8825, 0.195, 0.98, 0.295, 1.0775, 0.3925, 1.175, 0.49, 1.275, 0.5875, 1.3725, 0.685, 0, 0.785, 0.0975, 0.8825, 0.195, 0.98, 0.295, 1.0775, 0.3925, 1.175, 0.49, 1.275, 0.5875, 1.3725, 0.685, 0, 0.785, 0.0975, 0.8825, 0.195, 0.98, 0.295, 1.0775, 0.3925, 1.175, 0.49, 1.275, 0.5875, 1.3725, 0.685],
  "SoftwareVersions": "syngo_MR_E11",
  "SpacingBetweenSlices": 2,
  "StationName": "MRC35049",
  "TaskName": "things",
  "TotalReadoutTime": 0.0576811,
  "TxRefAmp": 269.474,
  "WipMemBlock": "35053281-de74-429a-8220-3c9a7c90f7d3||Sequence: R016 ve11c/master r/e634e98; Dec 19 2017 11:00:25 by eja",
  "dcmmeta_affine": [
    [-1.9935252666473389, -0.09087403118610382, 0.1326608508825302, 107.69255828857422],
    [-0.13030609488487244, 1.8797502517700195, -0.6704918742179871, -54.45651626586914],
    [0.09421948343515396, 0.676964521408081, 1.8795855045318604, -61.48628616333008],
    [0.0, 0.0, 0.0, 1.0]
],
  "dcmmeta_reorient_transform": [
    [0.0, -1.0, 0.0, 103.0],
    [1.0, 0.0, 0.0, 0.0],
    [0.0, 0.0, 1.0, 0.0],
    [0.0, 0.0, 0.0, 1.0]
],
  "dcmmeta_shape": [104, 104, 60, 190],
  "dcmmeta_slice_dim": 2,
  "dcmmeta_version": 0.6,
  "global": {
    "const": {
      "AcquisitionMatrix": [104, 0, 0, 104],
      "AngioFlag": "N",
      "BitsAllocated": 16,
      "BitsStored": 16,
      "BodyPartExamined": "BRAIN",
      "Columns": 832,
      "EchoNumbers": 1,
      "EchoTime": 37.0,
      "EchoTrainLength": 104,
      "FlipAngle": 52.0,
      "HighBit": 15,
      "ImageOrientationPatient": [0.99676263576522, 0.0651530510922, 0.04710974289634, -0.0454370161968, 0.9398751214251, -0.3384822501776],
      "ImagePositionPatient": [-790.8975853117, -870.81827000925, 220.36024431056],
      "ImageType": [
        "ORIGINAL",
        "PRIMARY",
        "M",
        "MB",
        "ND",
        "MOSAIC"
],
      "ImagedNucleus": "1H",
      "ImagingFrequency": 123.258896,
      "InPlanePhaseEncodingDirection": "COL",
      "MRAcquisitionType": "2D",
      "MagneticFieldStrength": 3.0,
      "Manufacturer": "SIEMENS",
      "ManufacturerModelName": "Prisma_fit",
      "Modality": "MR",
      "NumberOfAverages": 1.0,
      "NumberOfPhaseEncodingSteps": 104,
      "PercentPhaseFieldOfView": 100.0,
      "PercentSampling": 100.0,
      "PerformedProcedureStepStartTime": "131238.484000",
      "PhotometricInterpretation": "MONOCHROME2",
      "PixelBandwidth": 2290.0,
      "PixelRepresentation": 0,
      "PixelSpacing": [2.0, 2.0],
      "ProtocolName": "func_task-things_run-1",
      "RepetitionTime": 1490.0,
      "Rows": 832,
      "SAR": 0.0477860910207,
      "SamplesPerPixel": 1,
      "ScanOptions": "FS",
      "ScanningSequence": "EP",
      "SequenceName": "epfid2d1_104",
      "SequenceVariant": [
        "SK",
        "SS"
],
      "SeriesDescription": "func_task-things_run-1",
      "SeriesNumber": 10,
      "SeriesTime": "133821.893000",
      "SliceLocation": -32.384746747528,
      "SliceThickness": 2.0,
      "SmallestImagePixelValue": 0,
      "SoftwareVersions": "syngo MR E11",
      "SpacingBetweenSlices": 1.9999999725299,
      "SpecificCharacterSet": "ISO_IR 100",
      "StudyID": "1",
      "StudyTime": "131238.261000",
      "TransmitCoilName": "Body",
      "VariableFlipAngleFlag": "N",
      "WindowCenterWidthExplanation": "Algo1",
      "dBdt": 0.0},
    "slices": {}
  },
  "time": {
    "samples": {
      "AcquisitionNumber": [1, 2, 3, 4, 5, 6, 7, 8, 9, 10, 11, 12, 13, 14, 15, 16, 17, 18, 19, 20, 21, 22, 23, 24, 25, 26, 27, 28, 29, 30, 31, 32, 33, 34, 35, 36, 37, 38, 39, 40, 41, 42, 43, 44, 45, 46, 47, 48, 49, 50, 51, 52, 53, 54, 55, 56, 57, 58, 59, 60, 61, 62, 63, 64, 65, 66, 67, 68, 69, 70, 71, 72, 73, 74, 75, 76, 77, 78, 79, 80, 81, 82, 83, 84, 85, 86, 87, 88, 89, 90, 91, 92, 93, 94, 95, 96, 97, 98, 99, 100, 101, 102, 103, 104, 105, 106, 107, 108, 109, 110, 111, 112, 113, 114, 115, 116, 117, 118, 119, 120, 121, 122, 123, 124, 125, 126, 127, 128, 129, 130, 131, 132, 133, 134, 135, 136, 137, 138, 139, 140, 141, 142, 143, 144, 145, 146, 147, 148, 149, 150, 151, 152, 153, 154, 155, 156, 157, 158, 159, 160, 161, 162, 163, 164, 165, 166, 167, 168, 169, 170, 171, 172, 173, 174, 175, 176, 177, 178, 179, 180, 181, 182, 183, 184, 185, 186, 187, 188, 189, 190],
      "AcquisitionTime": ["133712.002500", "133713.492500", "133714.982500", "133716.472500", "133717.962500", "133719.452500", "133720.942500", "133722.432500", "133723.922500", "133725.412500", "133726.902500", "133728.392500", "133729.882500", "133731.372500", "133732.862500", "133734.352500", "133735.842500", "133737.332500", "133738.822500", "133740.312500", "133741.802500", "133743.292500", "133744.782500", "133746.272500", "133747.762500", "133749.252500", "133750.742500", "133752.232500", "133753.722500", "133755.212500", "133756.702500", "133758.192500", "133759.682500", "133801.172500", "133802.662500", "133804.152500", "133805.642500", "133807.132500", "133808.622500", "133810.112500", "133811.602500", "133813.092500", "133814.582500", "133816.072500", "133817.562500", "133819.052500", "133820.542500", "133822.032500", "133823.522500", "133825.012500", "133826.502500", "133827.992500", "133829.482500", "133830.972500", "133832.462500", "133833.952500", "133835.442500", "133836.932500", "133838.422500", "133839.912500", "133841.402500", "133842.892500", "133844.382500", "133845.872500", "133847.362500", "133848.852500", "133850.342500", "133851.832500", "133853.322500", "133854.812500", "133856.302500", "133857.792500", "133859.282500", "133900.772500", "133902.262500", "133903.752500", "133905.242500", "133906.732500", "133908.222500", "133909.712500", "133911.202500", "133912.692500", "133914.182500", "133915.672500", "133917.162500", "133918.652500", "133920.142500", "133921.632500", "133923.122500", "133924.612500", "133926.102500", "133927.592500", "133929.082500", "133930.572500", "133932.062500", "133933.552500", "133935.042500", "133936.532500", "133938.022500", "133939.512500", "133941.002500", "133942.492500", "133943.982500", "133945.472500", "133946.962500", "133948.452500", "133949.942500", "133951.432500", "133952.922500", "133954.412500", "133955.902500", "133957.392500", "133958.882500", "134000.372500", "134001.862500", "134003.352500", "134004.842500", "134006.332500", "134007.822500", "134009.312500", "134010.802500", "134012.292500", "134013.782500", "134015.272500", "134016.762500", "134018.252500", "134019.742500", "134021.232500", "134022.722500", "134024.212500", "134025.702500", "134027.192500", "134028.682500", "134030.172500", "134031.662500", "134033.152500", "134034.642500", "134036.132500", "134037.622500", "134039.112500", "134040.602500", "134042.092500", "134043.582500", "134045.072500", "134046.562500", "134048.052500", "134049.542500", "134051.032500", "134052.522500", "134054.012500", "134055.502500", "134056.992500", "134058.482500", "134059.972500", "134101.462500", "134102.952500", "134104.442500", "134105.932500", "134107.422500", "134108.912500", "134110.402500", "134111.892500", "134113.382500", "134114.872500", "134116.362500", "134117.852500", "134119.342500", "134120.832500", "134122.322500", "134123.812500", "134125.302500", "134126.792500", "134128.282500", "134129.772500", "134131.262500", "134132.752500", "134134.242500", "134135.732500", "134137.222500", "134138.712500", "134140.202500", "134141.692500", "134143.182500", "134144.672500", "134146.162500", "134147.652500", "134149.142500", "134150.632500", "134152.122500", "134153.612500"],
      "ContentTime": ["133821.897000", "133821.900000", "133821.904000", "133821.907000", "133821.910000", "133821.914000", "133821.917000", "133821.927000", "133821.931000", "133821.934000", "133821.937000", "133821.942000", "133821.945000", "133821.949000", "133821.952000", "133821.955000", "133841.859000", "133841.863000", "133841.866000", "133841.870000", "133841.873000", "133841.876000", "133841.879000", "133841.887000", "133841.890000", "133841.894000", "133841.897000", "133841.900000", "133841.903000", "133841.907000", "133841.910000", "133841.913000", "133841.917000", "133841.920000", "133841.923000", "133841.927000", "133901.859000", "133901.863000", "133901.866000", "133901.869000", "133901.873000", "133901.876000", "133901.883000", "133901.886000", "133901.890000", "133901.893000", "133901.896000", "133901.900000", "133901.903000", "133901.906000", "133901.910000", "133901.913000", "133901.917000", "133901.920000", "133901.923000", "133901.927000", "133921.859000", "133921.863000", "133921.866000", "133921.869000", "133921.873000", "133921.876000", "133921.879000", "133921.883000", "133921.886000", "133921.889000", "133921.893000", "133921.896000", "133921.899000", "133921.903000", "133921.906000", "133921.909000", "133921.912000", "133921.916000", "133921.919000", "133921.922000", "133921.926000", "133941.859000", "133941.913000", "133941.916000", "133941.919000", "133941.923000", "133941.926000", "133941.929000", "133941.932000", "133941.936000", "133941.947000", "133941.951000", "133941.954000", "133941.957000", "133941.961000", "133941.964000", "133941.967000", "133941.971000", "133941.974000", "133941.977000", "133941.981000", "134021.859000", "134021.912000", "134021.915000", "134021.918000", "134021.921000", "134021.925000", "134021.928000", "134021.931000", "134021.935000", "134021.938000", "134021.941000", "134021.945000", "134021.948000", "134021.951000", "134021.955000", "134021.958000", "134021.961000", "134021.965000", "134021.968000", "134021.971000", "134021.975000", "134021.978000", "134021.981000", "134021.985000", "134021.988000", "134021.991000", "134021.995000", "134021.998000", "134022.003000", "134022.006000", "134101.859000", "134101.863000", "134101.866000", "134101.869000", "134101.873000", "134101.876000", "134101.879000", "134101.883000", "134101.886000", "134101.889000", "134101.893000", "134101.896000", "134101.899000", "134101.903000", "134101.906000", "134101.910000", "134101.913000", "134101.916000", "134101.920000", "134101.923000", "134101.926000", "134101.930000", "134101.933000", "134101.936000", "134101.940000", "134101.943000", "134101.946000", "134141.859000", "134141.863000", "134141.866000", "134141.870000", "134141.873000", "134141.876000", "134141.880000", "134141.900000", "134141.903000", "134141.907000", "134141.910000", "134141.913000", "134141.918000", "134141.922000", "134141.927000", "134141.930000", "134141.933000", "134141.937000", "134141.940000", "134141.943000", "134141.947000", "134141.950000", "134141.953000", "134141.957000", "134141.960000", "134141.963000", "134155.380000", "134155.384000", "134155.388000", "134155.391000", "134155.394000", "134155.398000", "134155.401000", "134155.405000", "134155.408000", "134155.411000"],
      "InstanceCreationTime": ["133821.897000", "133821.900000", "133821.904000", "133821.907000", "133821.910000", "133821.914000", "133821.917000", "133821.927000", "133821.931000", "133821.934000", "133821.937000", "133821.942000", "133821.945000", "133821.949000", "133821.952000", "133821.955000", "133841.859000", "133841.863000", "133841.866000", "133841.870000", "133841.873000", "133841.876000", "133841.879000", "133841.887000", "133841.890000", "133841.894000", "133841.897000", "133841.900000", "133841.903000", "133841.907000", "133841.910000", "133841.913000", "133841.917000", "133841.920000", "133841.923000", "133841.927000", "133901.859000", "133901.863000", "133901.866000", "133901.869000", "133901.873000", "133901.876000", "133901.883000", "133901.886000", "133901.890000", "133901.893000", "133901.896000", "133901.900000", "133901.903000", "133901.906000", "133901.910000", "133901.913000", "133901.917000", "133901.920000", "133901.923000", "133901.927000", "133921.859000", "133921.863000", "133921.866000", "133921.869000", "133921.873000", "133921.876000", "133921.879000", "133921.883000", "133921.886000", "133921.889000", "133921.893000", "133921.896000", "133921.899000", "133921.903000", "133921.906000", "133921.909000", "133921.912000", "133921.916000", "133921.919000", "133921.922000", "133921.926000", "133941.859000", "133941.913000", "133941.916000", "133941.919000", "133941.923000", "133941.926000", "133941.929000", "133941.932000", "133941.936000", "133941.947000", "133941.951000", "133941.954000", "133941.957000", "133941.961000", "133941.964000", "133941.967000", "133941.971000", "133941.974000", "133941.977000", "133941.981000", "134021.859000", "134021.912000", "134021.915000", "134021.918000", "134021.921000", "134021.925000", "134021.928000", "134021.931000", "134021.935000", "134021.938000", "134021.941000", "134021.945000", "134021.948000", "134021.951000", "134021.955000", "134021.958000", "134021.961000", "134021.965000", "134021.968000", "134021.971000", "134021.975000", "134021.978000", "134021.981000", "134021.985000", "134021.988000", "134021.991000", "134021.995000", "134021.998000", "134022.003000", "134022.006000", "134101.859000", "134101.863000", "134101.866000", "134101.869000", "134101.873000", "134101.876000", "134101.879000", "134101.883000", "134101.886000", "134101.889000", "134101.893000", "134101.896000", "134101.899000", "134101.903000", "134101.906000", "134101.910000", "134101.913000", "134101.916000", "134101.920000", "134101.923000", "134101.926000", "134101.930000", "134101.933000", "134101.936000", "134101.940000", "134101.943000", "134101.946000", "134141.859000", "134141.863000", "134141.866000", "134141.870000", "134141.873000", "134141.876000", "134141.880000", "134141.900000", "134141.903000", "134141.907000", "134141.910000", "134141.913000", "134141.918000", "134141.922000", "134141.927000", "134141.930000", "134141.933000", "134141.937000", "134141.940000", "134141.943000", "134141.947000", "134141.950000", "134141.953000", "134141.957000", "134141.960000", "134141.963000", "134155.380000", "134155.384000", "134155.388000", "134155.391000", "134155.394000", "134155.398000", "134155.401000", "134155.405000", "134155.408000", "134155.411000"],
      "InstanceNumber": [1, 2, 3, 4, 5, 6, 7, 8, 9, 10, 11, 12, 13, 14, 15, 16, 17, 18, 19, 20, 21, 22, 23, 24, 25, 26, 27, 28, 29, 30, 31, 32, 33, 34, 35, 36, 37, 38, 39, 40, 41, 42, 43, 44, 45, 46, 47, 48, 49, 50, 51, 52, 53, 54, 55, 56, 57, 58, 59, 60, 61, 62, 63, 64, 65, 66, 67, 68, 69, 70, 71, 72, 73, 74, 75, 76, 77, 78, 79, 80, 81, 82, 83, 84, 85, 86, 87, 88, 89, 90, 91, 92, 93, 94, 95, 96, 97, 98, 99, 100, 101, 102, 103, 104, 105, 106, 107, 108, 109, 110, 111, 112, 113, 114, 115, 116, 117, 118, 119, 120, 121, 122, 123, 124, 125, 126, 127, 128, 129, 130, 131, 132, 133, 134, 135, 136, 137, 138, 139, 140, 141, 142, 143, 144, 145, 146, 147, 148, 149, 150, 151, 152, 153, 154, 155, 156, 157, 158, 159, 160, 161, 162, 163, 164, 165, 166, 167, 168, 169, 170, 171, 172, 173, 174, 175, 176, 177, 178, 179, 180, 181, 182, 183, 184, 185, 186, 187, 188, 189, 190],
      "LargestImagePixelValue": [45572, 44281, 43170, 43343, 42804, 42468, 41911, 42419, 42404, 42548, 43081, 42671, 42609, 42558, 42395, 42309, 42358, 41662, 41725, 42010, 40861, 41204, 41353, 41103, 41215, 41049, 41569, 40926, 40808, 44304, 41210, 41957, 41632, 41727, 41720, 42147, 41797, 42072, 41876, 41984, 41862, 41332, 40731, 40634, 48172, 41311, 41513, 41661, 41041, 41399, 40420, 41312, 40898, 41298, 41501, 41860, 41486, 41378, 46420, 40013, 42632, 41229, 41179, 40992, 42034, 40693, 42229, 42441, 41699, 40453, 40515, 40759, 41781, 41760, 42135, 44055, 41967, 40954, 41886, 40969, 40935, 41520, 41224, 41463, 40875, 40918, 40741, 41129, 43648, 40006, 40285, 40570, 40736, 40069, 41367, 42413, 40787, 41469, 40417, 41972, 41650, 39859, 41123, 40771, 39429, 48283, 40689, 41713, 41378, 40767, 41250, 41228, 41098, 41838, 42028, 40144, 41340, 40711, 40269, 40290, 40584, 40720, 41258, 40982, 40210, 44004, 39795, 41220, 41270, 41515, 41953, 40803, 40796, 39690, 46198, 39903, 39447, 42289, 40455, 38701, 38417, 38674, 40097, 38947, 40645, 41048, 39975, 40971, 41357, 40764, 41495, 40706, 40471, 39012, 39555, 38466, 45955, 39291, 39169, 39520, 43289, 40526, 47936, 46943, 39107, 40317, 39111, 41144, 41525, 40847, 41739, 41571, 41192, 41246, 40734, 40210, 39619, 39601, 40558, 40256, 43575, 43328, 44193, 39531, 40287, 38929, 38462, 39311, 39812, 39843],
      "WindowCenter": [10565.0, 10508.0, 10484.0, 10474.0, 10456.0, 10430.0, 10431.0, 10452.0, 10490.0, 10510.0, 10516.0, 10503.0, 10521.0, 10538.0, 10533.0, 10533.0, 10533.0, 10512.0, 10522.0, 10525.0, 10540.0, 10561.0, 10555.0, 10525.0, 10529.0, 10531.0, 10537.0, 10542.0, 10530.0, 10556.0, 10530.0, 10543.0, 10552.0, 10532.0, 10496.0, 10501.0, 10514.0, 10513.0, 10506.0, 10504.0, 10504.0, 10492.0, 10492.0, 10495.0, 10586.0, 10519.0, 10523.0, 10525.0, 10514.0, 10520.0, 10498.0, 10508.0, 10518.0, 10518.0, 10516.0, 10528.0, 10517.0, 10508.0, 10559.0, 10484.0, 10507.0, 10498.0, 10504.0, 10502.0, 10500.0, 10486.0, 10500.0, 10516.0, 10506.0, 10496.0, 10516.0, 10478.0, 10473.0, 10473.0, 10509.0, 10533.0, 10521.0, 10518.0, 10529.0, 10504.0, 10498.0, 10506.0, 10489.0, 10485.0, 10480.0, 10486.0, 10491.0, 10489.0, 10515.0, 10479.0, 10477.0, 10486.0, 10507.0, 10490.0, 10488.0, 10506.0, 10488.0, 10509.0, 10497.0, 10512.0, 10498.0, 10460.0, 10484.0, 10500.0, 10500.0, 10579.0, 10503.0, 10503.0, 10512.0, 10511.0, 10526.0, 10513.0, 10496.0, 10497.0, 10485.0, 10462.0, 10492.0, 10521.0, 10508.0, 10478.0, 10459.0, 10446.0, 10447.0, 10451.0, 10477.0, 10518.0, 10473.0, 10487.0, 10498.0, 10522.0, 10511.0, 10500.0, 10486.0, 10453.0, 10503.0, 10452.0, 10470.0, 10520.0, 10503.0, 10476.0, 10462.0, 10467.0, 10502.0, 10486.0, 10490.0, 10494.0, 10467.0, 10470.0, 10479.0, 10473.0, 10481.0, 10472.0, 10466.0, 10442.0, 10452.0, 10455.0, 10541.0, 10482.0, 10474.0, 10471.0, 10513.0, 10468.0, 10518.0, 10497.0, 10439.0, 10465.0, 10492.0, 10499.0, 10481.0, 10474.0, 10478.0, 10469.0, 10436.0, 10425.0, 10419.0, 10414.0, 10425.0, 10420.0, 10448.0, 10417.0, 10442.0, 10463.0, 10472.0, 10423.0, 10434.0, 10443.0, 10454.0, 10474.0, 10476.0, 10454.0],
      "WindowWidth": [22465.0, 22310.0, 22247.0, 22218.0, 22174.0, 22115.0, 22121.0, 22170.0, 22260.0, 22307.0, 22316.0, 22290.0, 22333.0, 22374.0, 22367.0, 22364.0, 22361.0, 22314.0, 22333.0, 22344.0, 22393.0, 22428.0, 22421.0, 22348.0, 22355.0, 22363.0, 22377.0, 22396.0, 22360.0, 22413.0, 22361.0, 22388.0, 22411.0, 22366.0, 22282.0, 22285.0, 22322.0, 22316.0, 22296.0, 22292.0, 22296.0, 22267.0, 22268.0, 22279.0, 22473.0, 22338.0, 22343.0, 22350.0, 22328.0, 22342.0, 22290.0, 22312.0, 22333.0, 22332.0, 22324.0, 22351.0, 22331.0, 22310.0, 22420.0, 22257.0, 22300.0, 22280.0, 22291.0, 22291.0, 22290.0, 22256.0, 22281.0, 22324.0, 22297.0, 22281.0, 22333.0, 22237.0, 22215.0, 22220.0, 22315.0, 22361.0, 22332.0, 22327.0, 22350.0, 22297.0, 22279.0, 22301.0, 22258.0, 22249.0, 22238.0, 22254.0, 22273.0, 22259.0, 22314.0, 22239.0, 22232.0, 22253.0, 22301.0, 22267.0, 22257.0, 22295.0, 22263.0, 22314.0, 22284.0, 22309.0, 22277.0, 22188.0, 22241.0, 22289.0, 22292.0, 22454.0, 22292.0, 22285.0, 22314.0, 22314.0, 22348.0, 22315.0, 22280.0, 22283.0, 22251.0, 22202.0, 22261.0, 22339.0, 22306.0, 22228.0, 22188.0, 22161.0, 22153.0, 22171.0, 22243.0, 22323.0, 22230.0, 22250.0, 22282.0, 22333.0, 22304.0, 22285.0, 22259.0, 22184.0, 22275.0, 22184.0, 22227.0, 22333.0, 22299.0, 22234.0, 22204.0, 22216.0, 22295.0, 22259.0, 22259.0, 22268.0, 22211.0, 22212.0, 22234.0, 22220.0, 22232.0, 22221.0, 22209.0, 22160.0, 22178.0, 22192.0, 22369.0, 22244.0, 22228.0, 22216.0, 22317.0, 22216.0, 22308.0, 22264.0, 22149.0, 22207.0, 22271.0, 22280.0, 22234.0, 22220.0, 22229.0, 22207.0, 22134.0, 22104.0, 22098.0, 22087.0, 22115.0, 22096.0, 22173.0, 22087.0, 22143.0, 22194.0, 22215.0, 22110.0, 22129.0, 22155.0, 22186.0, 22229.0, 22235.0, 22174.0]
    },
    "slices": {}
  }
}