{
  "AcquisitionMatrixPE": 104,
  "AcquisitionNumber": 1,
  "AcquisitionTime": "14:22:1.140000",
  "BandwidthPerPixelPhaseEncode": 17.17,
  "BaseResolution": 104,
  "BodyPartExamined": "BRAIN",
  "CoilString": "HC1-7;NC1_2",
  "ConsistencyInfo": "N4_VE11C_LATEST_20160120",
  "ConversionSoftware": "dcm2niix",
  "ConversionSoftwareVersion": "v1.0.20190902",
  "DerivedVendorReportedEchoSpacing": 0.000560011,
  "DeviceSerialNumber": "167006",
  "DwellTime": 2.1e-06,
  "EchoTime": 0.037,
  "EchoTrainLength": 104,
  "EffectiveEchoSpacing": 0.000560011,
  "FlipAngle": 52,
  "HeudiconvVersion": "0.10.0",
  "ImageComments": "Unaliased_MB4_PE3_LB",
  "ImageOrientationPatientDICOM": [0.996763, 0.065153, 0.0471097, -0.045437, 0.939875, -0.338482],
  "ImageType": [
    "ORIGINAL",
    "PRIMARY",
    "P",
    "MB",
    "ND",
    "MOSAIC"
],
  "ImagingFrequency": 123.259,
  "InPlanePhaseEncodingDirectionDICOM": "COL",
  "InstitutionAddress": "Chemin_Queen-Mary_4565_Montreal_District_CA_H3W_1W5",
  "InstitutionName": "IUGM",
  "InstitutionalDepartmentName": "Department",
  "MRAcquisitionType": "2D",
  "MagneticFieldStrength": 3,
  "Manufacturer": "Siemens",
  "ManufacturersModelName": "Prisma_fit",
  "Modality": "MR",
  "MultibandAccelerationFactor": 4,
  "PartialFourier": 1,
  "PatientPosition": "HFS",
  "PercentPhaseFOV": 100,
  "PhaseEncodingDirection": "j",
  "PhaseEncodingSteps": 104,
  "PhaseResolution": 1,
  "PixelBandwidth": 2290,
  "ProcedureStepDescription": "memory_things",
  "ProtocolName": "func_task-things_run-6",
  "PulseSequenceDetails": "%CustomerSeq%_cmrr_mbep2d_bold",
  "ReceiveCoilActiveElements": "HC1-7;NC1,2",
  "ReceiveCoilName": "HeadNeck_64",
  "ReconMatrixPE": 104,
  "RepetitionTime": 1.49,
  "SAR": 0.0477861,
  "ScanOptions": "FS",
  "ScanningSequence": "EP",
  "SequenceName": "epfid2d1_104",
  "SequenceVariant": "SK_SS",
  "SeriesDescription": "func_task-things_run-6",
  "SeriesNumber": 26,
  "ShimSetting": [639, -7184, -8820, 628, 106, 19, -52, -10],
  "SliceThickness": 2,
  "SliceTiming": [0, 0.7825, 0.0975, 0.8825, 0.195, 0.98, 0.2925, 1.0775, 0.3925, 1.175, 0.49, 1.2725, 0.5875, 1.37, 0.685, 0, 0.7825, 0.0975, 0.8825, 0.195, 0.98, 0.2925, 1.0775, 0.3925, 1.175, 0.49, 1.2725, 0.5875, 1.37, 0.685, 0, 0.7825, 0.0975, 0.8825, 0.195, 0.98, 0.2925, 1.0775, 0.3925, 1.175, 0.49, 1.2725, 0.5875, 1.37, 0.685, 0, 0.7825, 0.0975, 0.8825, 0.195, 0.98, 0.2925, 1.0775, 0.3925, 1.175, 0.49, 1.2725, 0.5875, 1.37, 0.685],
  "SoftwareVersions": "syngo_MR_E11",
  "SpacingBetweenSlices": 2,
  "StationName": "MRC35049",
  "TaskName": "things",
  "TotalReadoutTime": 0.0576811,
  "TxRefAmp": 269.474,
  "WipMemBlock": "a744dbe3-ff8e-4855-91d6-259b19beb704||Sequence: R016 ve11c/master r/e634e98; Dec 19 2017 11:00:25 by eja",
  "dcmmeta_affine": [
    [-1.9935252666473389, -0.09087403118610382, 0.1326608508825302, 107.69255828857422],
    [-0.13030609488487244, 1.8797502517700195, -0.6704918742179871, -54.45651626586914],
    [0.09421948343515396, 0.676964521408081, 1.8795855045318604, -61.48628616333008],
    [0.0, 0.0, 0.0, 1.0]
],
  "dcmmeta_reorient_transform": [
    [0.0, -1.0, 0.0, 103.0],
    [1.0, 0.0, 0.0, 0.0],
    [0.0, 0.0, 1.0, 0.0],
    [0.0, 0.0, 0.0, 1.0]
],
  "dcmmeta_shape": [104, 104, 60, 190],
  "dcmmeta_slice_dim": 2,
  "dcmmeta_version": 0.6,
  "global": {
    "const": {
      "AcquisitionMatrix": [104, 0, 0, 104],
      "AngioFlag": "N",
      "BitsAllocated": 16,
      "BitsStored": 16,
      "BodyPartExamined": "BRAIN",
      "Columns": 832,
      "EchoNumbers": 1,
      "EchoTime": 37.0,
      "EchoTrainLength": 104,
      "FlipAngle": 52.0,
      "HighBit": 15,
      "ImageOrientationPatient": [0.99676263576522, 0.0651530510922, 0.04710974289634, -0.0454370161968, 0.9398751214251, -0.3384822501776],
      "ImagePositionPatient": [-790.8975853117, -870.81827000925, 220.36024431056],
      "ImageType": [
        "ORIGINAL",
        "PRIMARY",
        "P",
        "MB",
        "ND",
        "MOSAIC"
],
      "ImagedNucleus": "1H",
      "ImagingFrequency": 123.258907,
      "InPlanePhaseEncodingDirection": "COL",
      "LargestImagePixelValue": 4095,
      "MRAcquisitionType": "2D",
      "MagneticFieldStrength": 3.0,
      "Manufacturer": "SIEMENS",
      "ManufacturerModelName": "Prisma_fit",
      "Modality": "MR",
      "NumberOfAverages": 1.0,
      "NumberOfPhaseEncodingSteps": 104,
      "PercentPhaseFieldOfView": 100.0,
      "PercentSampling": 100.0,
      "PerformedProcedureStepStartTime": "131238.484000",
      "PhotometricInterpretation": "MONOCHROME2",
      "PixelBandwidth": 2290.0,
      "PixelRepresentation": 0,
      "PixelSpacing": [2.0, 2.0],
      "ProtocolName": "func_task-things_run-6",
      "RepetitionTime": 1490.0,
      "RescaleIntercept": -4096.0,
      "RescaleSlope": 2.0,
      "RescaleType": "US",
      "Rows": 832,
      "SAR": 0.0477860910207,
      "SamplesPerPixel": 1,
      "ScanOptions": "FS",
      "ScanningSequence": "EP",
      "SequenceName": "epfid2d1_104",
      "SequenceVariant": [
        "SK",
        "SS"
],
      "SeriesDescription": "func_task-things_run-6",
      "SeriesNumber": 26,
      "SeriesTime": "142319.392000",
      "SliceLocation": -32.384746747528,
      "SliceThickness": 2.0,
      "SmallestImagePixelValue": 0,
      "SoftwareVersions": "syngo MR E11",
      "SpacingBetweenSlices": 1.9999999725299,
      "SpecificCharacterSet": "ISO_IR 100",
      "StudyID": "1",
      "StudyTime": "131238.261000",
      "TransmitCoilName": "Body",
      "VariableFlipAngleFlag": "N",
      "WindowCenterWidthExplanation": "Algo1",
      "dBdt": 0.0},
    "slices": {}
  },
  "time": {
    "samples": {
      "AcquisitionNumber": [1, 2, 3, 4, 5, 6, 7, 8, 9, 10, 11, 12, 13, 14, 15, 16, 17, 18, 19, 20, 21, 22, 23, 24, 25, 26, 27, 28, 29, 30, 31, 32, 33, 34, 35, 36, 37, 38, 39, 40, 41, 42, 43, 44, 45, 46, 47, 48, 49, 50, 51, 52, 53, 54, 55, 56, 57, 58, 59, 60, 61, 62, 63, 64, 65, 66, 67, 68, 69, 70, 71, 72, 73, 74, 75, 76, 77, 78, 79, 80, 81, 82, 83, 84, 85, 86, 87, 88, 89, 90, 91, 92, 93, 94, 95, 96, 97, 98, 99, 100, 101, 102, 103, 104, 105, 106, 107, 108, 109, 110, 111, 112, 113, 114, 115, 116, 117, 118, 119, 120, 121, 122, 123, 124, 125, 126, 127, 128, 129, 130, 131, 132, 133, 134, 135, 136, 137, 138, 139, 140, 141, 142, 143, 144, 145, 146, 147, 148, 149, 150, 151, 152, 153, 154, 155, 156, 157, 158, 159, 160, 161, 162, 163, 164, 165, 166, 167, 168, 169, 170, 171, 172, 173, 174, 175, 176, 177, 178, 179, 180, 181, 182, 183, 184, 185, 186, 187, 188, 189, 190],
      "AcquisitionTime": ["142201.140000", "142202.630000", "142204.120000", "142205.610000", "142207.100000", "142208.590000", "142210.080000", "142211.570000", "142213.060000", "142214.550000", "142216.040000", "142217.530000", "142219.020000", "142220.510000", "142222.000000", "142223.490000", "142224.980000", "142226.470000", "142227.960000", "142229.450000", "142230.940000", "142232.430000", "142233.920000", "142235.410000", "142236.900000", "142238.390000", "142239.880000", "142241.370000", "142242.860000", "142244.350000", "142245.840000", "142247.330000", "142248.820000", "142250.310000", "142251.800000", "142253.290000", "142254.780000", "142256.270000", "142257.760000", "142259.250000", "142300.740000", "142302.230000", "142303.720000", "142305.210000", "142306.700000", "142308.190000", "142309.680000", "142311.170000", "142312.660000", "142314.150000", "142315.640000", "142317.130000", "142318.620000", "142320.110000", "142321.600000", "142323.090000", "142324.580000", "142326.070000", "142327.560000", "142329.050000", "142330.540000", "142332.030000", "142333.520000", "142335.010000", "142336.500000", "142337.990000", "142339.480000", "142340.970000", "142342.460000", "142343.950000", "142345.440000", "142346.930000", "142348.420000", "142349.910000", "142351.400000", "142352.890000", "142354.380000", "142355.870000", "142357.360000", "142358.850000", "142400.340000", "142401.830000", "142403.320000", "142404.810000", "142406.300000", "142407.790000", "142409.280000", "142410.770000", "142412.260000", "142413.750000", "142415.240000", "142416.730000", "142418.220000", "142419.710000", "142421.200000", "142422.690000", "142424.180000", "142425.670000", "142427.160000", "142428.650000", "142430.140000", "142431.630000", "142433.120000", "142434.610000", "142436.100000", "142437.590000", "142439.080000", "142440.570000", "142442.060000", "142443.550000", "142445.040000", "142446.530000", "142448.020000", "142449.510000", "142451.000000", "142452.490000", "142453.980000", "142455.470000", "142456.960000", "142458.450000", "142459.940000", "142501.430000", "142502.920000", "142504.410000", "142505.900000", "142507.390000", "142508.880000", "142510.370000", "142511.860000", "142513.350000", "142514.840000", "142516.330000", "142517.820000", "142519.310000", "142520.800000", "142522.290000", "142523.780000", "142525.270000", "142526.760000", "142528.250000", "142529.740000", "142531.230000", "142532.720000", "142534.210000", "142535.700000", "142537.190000", "142538.680000", "142540.170000", "142541.660000", "142543.150000", "142544.640000", "142546.130000", "142547.620000", "142549.110000", "142550.600000", "142552.090000", "142553.580000", "142555.070000", "142556.560000", "142558.050000", "142559.540000", "142601.030000", "142602.520000", "142604.010000", "142605.500000", "142606.990000", "142608.480000", "142609.970000", "142611.460000", "142612.950000", "142614.440000", "142615.930000", "142617.420000", "142618.910000", "142620.400000", "142621.890000", "142623.380000", "142624.870000", "142626.360000", "142627.850000", "142629.340000", "142630.830000", "142632.320000", "142633.810000", "142635.300000", "142636.790000", "142638.280000", "142639.770000", "142641.260000", "142642.750000"],
      "ContentTime": ["142319.394000", "142319.397000", "142319.399000", "142319.402000", "142319.404000", "142319.407000", "142319.409000", "142319.412000", "142319.414000", "142319.417000", "142319.419000", "142319.422000", "142319.424000", "142319.427000", "142319.429000", "142319.432000", "142319.443000", "142319.445000", "142319.448000", "142319.450000", "142319.453000", "142319.455000", "142319.458000", "142319.460000", "142319.463000", "142339.329000", "142339.331000", "142339.334000", "142339.336000", "142339.339000", "142339.341000", "142339.344000", "142339.346000", "142339.348000", "142339.351000", "142339.353000", "142339.356000", "142339.358000", "142339.361000", "142339.363000", "142339.366000", "142339.368000", "142339.371000", "142339.373000", "142339.382000", "142359.327000", "142359.330000", "142359.333000", "142359.335000", "142359.338000", "142359.340000", "142359.343000", "142359.345000", "142359.347000", "142359.350000", "142359.352000", "142359.355000", "142359.358000", "142359.360000", "142359.362000", "142359.365000", "142359.367000", "142359.370000", "142359.372000", "142359.375000", "142419.319000", "142419.322000", "142419.324000", "142419.327000", "142419.329000", "142419.332000", "142419.334000", "142419.337000", "142419.339000", "142419.342000", "142419.344000", "142419.347000", "142419.349000", "142419.352000", "142419.354000", "142419.363000", "142419.365000", "142419.368000", "142419.370000", "142419.373000", "142439.312000", "142439.315000", "142439.318000", "142439.320000", "142439.323000", "142439.325000", "142439.328000", "142439.330000", "142439.333000", "142439.335000", "142439.338000", "142439.340000", "142439.343000", "142439.345000", "142439.348000", "142439.350000", "142439.353000", "142439.355000", "142439.358000", "142439.360000", "142459.282000", "142459.284000", "142459.287000", "142459.289000", "142459.292000", "142459.294000", "142459.297000", "142459.299000", "142459.302000", "142459.304000", "142459.307000", "142459.310000", "142459.312000", "142539.365000", "142539.367000", "142539.370000", "142539.373000", "142539.375000", "142539.377000", "142539.380000", "142539.382000", "142539.385000", "142539.387000", "142539.390000", "142539.392000", "142539.395000", "142539.397000", "142539.400000", "142539.402000", "142539.405000", "142539.407000", "142539.410000", "142539.412000", "142539.416000", "142539.418000", "142539.421000", "142539.423000", "142539.426000", "142539.429000", "142539.431000", "142619.355000", "142619.357000", "142619.360000", "142619.363000", "142619.365000", "142619.368000", "142619.370000", "142619.373000", "142619.375000", "142619.378000", "142619.380000", "142619.383000", "142619.385000", "142619.388000", "142619.390000", "142619.393000", "142619.395000", "142619.398000", "142619.400000", "142619.403000", "142619.405000", "142619.408000", "142619.410000", "142619.413000", "142619.415000", "142619.418000", "142619.420000", "142645.280000", "142645.283000", "142645.286000", "142645.288000", "142645.290000", "142645.293000", "142645.296000", "142645.298000", "142645.301000", "142645.303000", "142645.306000", "142645.308000", "142645.311000", "142645.313000", "142645.316000", "142645.318000", "142645.321000", "142645.323000"],
      "InstanceCreationTime": ["142319.394000", "142319.397000", "142319.399000", "142319.402000", "142319.404000", "142319.407000", "142319.409000", "142319.412000", "142319.414000", "142319.417000", "142319.419000", "142319.422000", "142319.424000", "142319.427000", "142319.429000", "142319.432000", "142319.443000", "142319.445000", "142319.448000", "142319.450000", "142319.453000", "142319.455000", "142319.458000", "142319.460000", "142319.463000", "142339.329000", "142339.331000", "142339.334000", "142339.336000", "142339.339000", "142339.341000", "142339.344000", "142339.346000", "142339.348000", "142339.351000", "142339.353000", "142339.356000", "142339.358000", "142339.361000", "142339.363000", "142339.366000", "142339.368000", "142339.371000", "142339.373000", "142339.382000", "142359.327000", "142359.330000", "142359.333000", "142359.335000", "142359.338000", "142359.340000", "142359.343000", "142359.345000", "142359.347000", "142359.350000", "142359.352000", "142359.355000", "142359.358000", "142359.360000", "142359.362000", "142359.365000", "142359.367000", "142359.370000", "142359.372000", "142359.375000", "142419.319000", "142419.322000", "142419.324000", "142419.327000", "142419.329000", "142419.332000", "142419.334000", "142419.337000", "142419.339000", "142419.342000", "142419.344000", "142419.347000", "142419.349000", "142419.352000", "142419.354000", "142419.363000", "142419.365000", "142419.368000", "142419.370000", "142419.373000", "142439.312000", "142439.315000", "142439.318000", "142439.320000", "142439.323000", "142439.325000", "142439.328000", "142439.330000", "142439.333000", "142439.335000", "142439.338000", "142439.340000", "142439.343000", "142439.345000", "142439.348000", "142439.350000", "142439.353000", "142439.355000", "142439.358000", "142439.360000", "142459.282000", "142459.284000", "142459.287000", "142459.289000", "142459.292000", "142459.294000", "142459.297000", "142459.299000", "142459.302000", "142459.304000", "142459.307000", "142459.310000", "142459.312000", "142539.365000", "142539.367000", "142539.370000", "142539.373000", "142539.375000", "142539.377000", "142539.380000", "142539.382000", "142539.385000", "142539.387000", "142539.390000", "142539.392000", "142539.395000", "142539.397000", "142539.400000", "142539.402000", "142539.405000", "142539.407000", "142539.410000", "142539.412000", "142539.416000", "142539.418000", "142539.421000", "142539.423000", "142539.426000", "142539.429000", "142539.431000", "142619.355000", "142619.357000", "142619.360000", "142619.363000", "142619.365000", "142619.368000", "142619.370000", "142619.373000", "142619.375000", "142619.378000", "142619.380000", "142619.383000", "142619.385000", "142619.388000", "142619.390000", "142619.393000", "142619.395000", "142619.398000", "142619.400000", "142619.403000", "142619.405000", "142619.408000", "142619.410000", "142619.413000", "142619.415000", "142619.418000", "142619.420000", "142645.280000", "142645.283000", "142645.286000", "142645.288000", "142645.290000", "142645.293000", "142645.296000", "142645.298000", "142645.301000", "142645.303000", "142645.306000", "142645.308000", "142645.311000", "142645.313000", "142645.316000", "142645.318000", "142645.321000", "142645.323000"],
      "InstanceNumber": [1, 2, 3, 4, 5, 6, 7, 8, 9, 10, 11, 12, 13, 14, 15, 16, 17, 18, 19, 20, 21, 22, 23, 24, 25, 26, 27, 28, 29, 30, 31, 32, 33, 34, 35, 36, 37, 38, 39, 40, 41, 42, 43, 44, 45, 46, 47, 48, 49, 50, 51, 52, 53, 54, 55, 56, 57, 58, 59, 60, 61, 62, 63, 64, 65, 66, 67, 68, 69, 70, 71, 72, 73, 74, 75, 76, 77, 78, 79, 80, 81, 82, 83, 84, 85, 86, 87, 88, 89, 90, 91, 92, 93, 94, 95, 96, 97, 98, 99, 100, 101, 102, 103, 104, 105, 106, 107, 108, 109, 110, 111, 112, 113, 114, 115, 116, 117, 118, 119, 120, 121, 122, 123, 124, 125, 126, 127, 128, 129, 130, 131, 132, 133, 134, 135, 136, 137, 138, 139, 140, 141, 142, 143, 144, 145, 146, 147, 148, 149, 150, 151, 152, 153, 154, 155, 156, 157, 158, 159, 160, 161, 162, 163, 164, 165, 166, 167, 168, 169, 170, 171, 172, 173, 174, 175, 176, 177, 178, 179, 180, 181, 182, 183, 184, 185, 186, 187, 188, 189, 190],
      "WindowCenter": [4774.0, 4776.0, 4780.0, 4780.0, 4772.0, 4798.0, 4794.0, 4776.0, 4758.0, 4778.0, 4774.0, 4772.0, 4798.0, 4796.0, 4774.0, 4770.0, 4752.0, 4762.0, 4780.0, 4772.0, 4794.0, 4796.0, 4772.0, 4778.0, 4778.0, 4780.0, 4776.0, 4774.0, 4774.0, 4784.0, 4792.0, 4790.0, 4784.0, 4800.0, 4832.0, 4864.0, 4830.0, 4796.0, 4778.0, 4792.0, 4794.0, 4784.0, 4774.0, 4772.0, 4802.0, 4798.0, 4776.0, 4774.0, 4774.0, 4774.0, 4774.0, 4774.0, 4776.0, 4776.0, 4780.0, 4782.0, 4776.0, 4776.0, 4800.0, 4798.0, 4778.0, 4776.0, 4776.0, 4774.0, 4772.0, 4774.0, 4772.0, 4772.0, 4772.0, 4756.0, 4752.0, 4770.0, 4774.0, 4772.0, 4774.0, 4782.0, 4758.0, 4774.0, 4800.0, 4798.0, 4800.0, 4772.0, 4774.0, 4778.0, 4788.0, 4784.0, 4774.0, 4776.0, 4798.0, 4798.0, 4774.0, 4772.0, 4778.0, 4782.0, 4758.0, 4776.0, 4772.0, 4776.0, 4786.0, 4788.0, 4782.0, 4778.0, 4800.0, 4806.0, 4800.0, 4796.0, 4774.0, 4788.0, 4790.0, 4760.0, 4776.0, 4776.0, 4774.0, 4778.0, 4776.0, 4776.0, 4772.0, 4778.0, 4784.0, 4776.0, 4774.0, 4780.0, 4774.0, 4774.0, 4774.0, 4782.0, 4776.0, 4754.0, 4778.0, 4784.0, 4786.0, 4780.0, 4800.0, 4804.0, 4802.0, 4776.0, 4776.0, 4778.0, 4788.0, 4790.0, 4780.0, 4776.0, 4776.0, 4778.0, 4802.0, 4798.0, 4800.0, 4774.0, 4756.0, 4780.0, 4780.0, 4776.0, 4778.0, 4774.0, 4778.0, 4772.0, 4774.0, 4774.0, 4774.0, 4774.0, 4776.0, 4778.0, 4780.0, 4778.0, 4774.0, 4778.0, 4776.0, 4774.0, 4776.0, 4774.0, 4774.0, 4776.0, 4776.0, 4776.0, 4774.0, 4774.0, 4774.0, 4774.0, 4776.0, 4780.0, 4772.0, 4778.0, 4774.0, 4774.0, 4772.0, 4776.0, 4776.0, 4776.0, 4782.0, 4778.0],
      "WindowWidth": [18582.0, 18572.0, 18570.0, 18570.0, 18574.0, 18614.0, 18610.0, 18572.0, 18528.0, 18560.0, 18580.0, 18578.0, 18616.0, 18616.0, 18582.0, 18574.0, 18542.0, 18534.0, 18562.0, 18570.0, 18614.0, 18612.0, 18578.0, 18576.0, 18564.0, 18572.0, 18578.0, 18582.0, 18574.0, 18560.0, 18556.0, 18556.0, 18564.0, 18618.0, 18658.0, 18686.0, 18660.0, 18612.0, 18572.0, 18554.0, 18556.0, 18560.0, 18566.0, 18578.0, 18620.0, 18614.0, 18582.0, 18580.0, 18584.0, 18574.0, 18572.0, 18566.0, 18570.0, 18564.0, 18562.0, 18564.0, 18568.0, 18582.0, 18616.0, 18612.0, 18566.0, 18566.0, 18568.0, 18578.0, 18576.0, 18576.0, 18576.0, 18578.0, 18570.0, 18532.0, 18532.0, 18572.0, 18578.0, 18580.0, 18566.0, 18554.0, 18526.0, 18568.0, 18616.0, 18616.0, 18618.0, 18578.0, 18578.0, 18566.0, 18558.0, 18558.0, 18566.0, 18582.0, 18620.0, 18616.0, 18584.0, 18576.0, 18576.0, 18564.0, 18528.0, 18564.0, 18570.0, 18562.0, 18562.0, 18558.0, 18558.0, 18566.0, 18612.0, 18624.0, 18620.0, 18612.0, 18568.0, 18562.0, 18560.0, 18526.0, 18564.0, 18576.0, 18582.0, 18582.0, 18578.0, 18578.0, 18570.0, 18562.0, 18560.0, 18562.0, 18570.0, 18580.0, 18578.0, 18578.0, 18570.0, 18566.0, 18562.0, 18536.0, 18558.0, 18556.0, 18562.0, 18572.0, 18622.0, 18624.0, 18618.0, 18582.0, 18574.0, 18564.0, 18564.0, 18560.0, 18560.0, 18568.0, 18568.0, 18578.0, 18618.0, 18620.0, 18612.0, 18560.0, 18534.0, 18564.0, 18564.0, 18566.0, 18570.0, 18570.0, 18572.0, 18574.0, 18568.0, 18566.0, 18568.0, 18572.0, 18568.0, 18562.0, 18560.0, 18572.0, 18574.0, 18570.0, 18572.0, 18574.0, 18576.0, 18572.0, 18570.0, 18568.0, 18570.0, 18566.0, 18568.0, 18568.0, 18570.0, 18572.0, 18562.0, 18562.0, 18566.0, 18582.0, 18570.0, 18564.0, 18566.0, 18570.0, 18568.0, 18566.0, 18558.0, 18564.0]
    },
    "slices": {}
  }
}