{
  "AcquisitionMatrixPE": 104,
  "AcquisitionNumber": 1,
  "AcquisitionTime": "13:37:12.002500",
  "BandwidthPerPixelPhaseEncode": 17.17,
  "BaseResolution": 104,
  "BodyPartExamined": "BRAIN",
  "CoilString": "HC1-7;NC1_2",
  "ConsistencyInfo": "N4_VE11C_LATEST_20160120",
  "ConversionSoftware": "dcm2niix",
  "ConversionSoftwareVersion": "v1.0.20190902",
  "DerivedVendorReportedEchoSpacing": 0.000560011,
  "DeviceSerialNumber": "167006",
  "DwellTime": 2.1e-06,
  "EchoTime": 0.037,
  "EchoTrainLength": 104,
  "EffectiveEchoSpacing": 0.000560011,
  "FlipAngle": 52,
  "HeudiconvVersion": "0.10.0",
  "ImageComments": "Unaliased_MB4_PE3_LB",
  "ImageOrientationPatientDICOM": [0.996763, 0.065153, 0.0471097, -0.045437, 0.939875, -0.338482],
  "ImageType": [
    "ORIGINAL",
    "PRIMARY",
    "P",
    "MB",
    "ND",
    "MOSAIC"
],
  "ImagingFrequency": 123.259,
  "InPlanePhaseEncodingDirectionDICOM": "COL",
  "InstitutionAddress": "Chemin_Queen-Mary_4565_Montreal_District_CA_H3W_1W5",
  "InstitutionName": "IUGM",
  "InstitutionalDepartmentName": "Department",
  "MRAcquisitionType": "2D",
  "MagneticFieldStrength": 3,
  "Manufacturer": "Siemens",
  "ManufacturersModelName": "Prisma_fit",
  "Modality": "MR",
  "MultibandAccelerationFactor": 4,
  "PartialFourier": 1,
  "PatientPosition": "HFS",
  "PercentPhaseFOV": 100,
  "PhaseEncodingDirection": "j",
  "PhaseEncodingSteps": 104,
  "PhaseResolution": 1,
  "PixelBandwidth": 2290,
  "ProcedureStepDescription": "memory_things",
  "ProtocolName": "func_task-things_run-1",
  "PulseSequenceDetails": "%CustomerSeq%_cmrr_mbep2d_bold",
  "ReceiveCoilActiveElements": "HC1-7;NC1,2",
  "ReceiveCoilName": "HeadNeck_64",
  "ReconMatrixPE": 104,
  "RepetitionTime": 1.49,
  "SAR": 0.0477861,
  "ScanOptions": "FS",
  "ScanningSequence": "EP",
  "SequenceName": "epfid2d1_104",
  "SequenceVariant": "SK_SS",
  "SeriesDescription": "func_task-things_run-1",
  "SeriesNumber": 11,
  "ShimSetting": [639, -7184, -8820, 628, 106, 19, -52, -10],
  "SliceThickness": 2,
  "SliceTiming": [0, 0.785, 0.0975, 0.8825, 0.195, 0.98, 0.295, 1.0775, 0.3925, 1.175, 0.49, 1.275, 0.5875, 1.3725, 0.685, 0, 0.785, 0.0975, 0.8825, 0.195, 0.98, 0.295, 1.0775, 0.3925, 1.175, 0.49, 1.275, 0.5875, 1.3725, 0.685, 0, 0.785, 0.0975, 0.8825, 0.195, 0.98, 0.295, 1.0775, 0.3925, 1.175, 0.49, 1.275, 0.5875, 1.3725, 0.685, 0, 0.785, 0.0975, 0.8825, 0.195, 0.98, 0.295, 1.0775, 0.3925, 1.175, 0.49, 1.275, 0.5875, 1.3725, 0.685],
  "SoftwareVersions": "syngo_MR_E11",
  "SpacingBetweenSlices": 2,
  "StationName": "MRC35049",
  "TaskName": "things",
  "TotalReadoutTime": 0.0576811,
  "TxRefAmp": 269.474,
  "WipMemBlock": "35053281-de74-429a-8220-3c9a7c90f7d3||Sequence: R016 ve11c/master r/e634e98; Dec 19 2017 11:00:25 by eja",
  "dcmmeta_affine": [
    [-1.9935252666473389, -0.09087403118610382, 0.1326608508825302, 107.69255828857422],
    [-0.13030609488487244, 1.8797502517700195, -0.6704918742179871, -54.45651626586914],
    [0.09421948343515396, 0.676964521408081, 1.8795855045318604, -61.48628616333008],
    [0.0, 0.0, 0.0, 1.0]
],
  "dcmmeta_reorient_transform": [
    [0.0, -1.0, 0.0, 103.0],
    [1.0, 0.0, 0.0, 0.0],
    [0.0, 0.0, 1.0, 0.0],
    [0.0, 0.0, 0.0, 1.0]
],
  "dcmmeta_shape": [104, 104, 60, 190],
  "dcmmeta_slice_dim": 2,
  "dcmmeta_version": 0.6,
  "global": {
    "const": {
      "AcquisitionMatrix": [104, 0, 0, 104],
      "AngioFlag": "N",
      "BitsAllocated": 16,
      "BitsStored": 16,
      "BodyPartExamined": "BRAIN",
      "Columns": 832,
      "EchoNumbers": 1,
      "EchoTime": 37.0,
      "EchoTrainLength": 104,
      "FlipAngle": 52.0,
      "HighBit": 15,
      "ImageOrientationPatient": [0.99676263576522, 0.0651530510922, 0.04710974289634, -0.0454370161968, 0.9398751214251, -0.3384822501776],
      "ImagePositionPatient": [-790.8975853117, -870.81827000925, 220.36024431056],
      "ImageType": [
        "ORIGINAL",
        "PRIMARY",
        "P",
        "MB",
        "ND",
        "MOSAIC"
],
      "ImagedNucleus": "1H",
      "ImagingFrequency": 123.258896,
      "InPlanePhaseEncodingDirection": "COL",
      "LargestImagePixelValue": 4095,
      "MRAcquisitionType": "2D",
      "MagneticFieldStrength": 3.0,
      "Manufacturer": "SIEMENS",
      "ManufacturerModelName": "Prisma_fit",
      "Modality": "MR",
      "NumberOfAverages": 1.0,
      "NumberOfPhaseEncodingSteps": 104,
      "PercentPhaseFieldOfView": 100.0,
      "PercentSampling": 100.0,
      "PerformedProcedureStepStartTime": "131238.484000",
      "PhotometricInterpretation": "MONOCHROME2",
      "PixelBandwidth": 2290.0,
      "PixelRepresentation": 0,
      "PixelSpacing": [2.0, 2.0],
      "ProtocolName": "func_task-things_run-1",
      "RepetitionTime": 1490.0,
      "RescaleIntercept": -4096.0,
      "RescaleSlope": 2.0,
      "RescaleType": "US",
      "Rows": 832,
      "SAR": 0.0477860910207,
      "SamplesPerPixel": 1,
      "ScanOptions": "FS",
      "ScanningSequence": "EP",
      "SequenceName": "epfid2d1_104",
      "SequenceVariant": [
        "SK",
        "SS"
],
      "SeriesDescription": "func_task-things_run-1",
      "SeriesNumber": 11,
      "SeriesTime": "133822.015000",
      "SliceLocation": -32.384746747528,
      "SliceThickness": 2.0,
      "SmallestImagePixelValue": 0,
      "SoftwareVersions": "syngo MR E11",
      "SpacingBetweenSlices": 1.9999999725299,
      "SpecificCharacterSet": "ISO_IR 100",
      "StudyID": "1",
      "StudyTime": "131238.261000",
      "TransmitCoilName": "Body",
      "VariableFlipAngleFlag": "N",
      "WindowCenterWidthExplanation": "Algo1",
      "dBdt": 0.0},
    "slices": {}
  },
  "time": {
    "samples": {
      "AcquisitionNumber": [1, 2, 3, 4, 5, 6, 7, 8, 9, 10, 11, 12, 13, 14, 15, 16, 17, 18, 19, 20, 21, 22, 23, 24, 25, 26, 27, 28, 29, 30, 31, 32, 33, 34, 35, 36, 37, 38, 39, 40, 41, 42, 43, 44, 45, 46, 47, 48, 49, 50, 51, 52, 53, 54, 55, 56, 57, 58, 59, 60, 61, 62, 63, 64, 65, 66, 67, 68, 69, 70, 71, 72, 73, 74, 75, 76, 77, 78, 79, 80, 81, 82, 83, 84, 85, 86, 87, 88, 89, 90, 91, 92, 93, 94, 95, 96, 97, 98, 99, 100, 101, 102, 103, 104, 105, 106, 107, 108, 109, 110, 111, 112, 113, 114, 115, 116, 117, 118, 119, 120, 121, 122, 123, 124, 125, 126, 127, 128, 129, 130, 131, 132, 133, 134, 135, 136, 137, 138, 139, 140, 141, 142, 143, 144, 145, 146, 147, 148, 149, 150, 151, 152, 153, 154, 155, 156, 157, 158, 159, 160, 161, 162, 163, 164, 165, 166, 167, 168, 169, 170, 171, 172, 173, 174, 175, 176, 177, 178, 179, 180, 181, 182, 183, 184, 185, 186, 187, 188, 189, 190],
      "AcquisitionTime": ["133712.002500", "133713.492500", "133714.982500", "133716.472500", "133717.962500", "133719.452500", "133720.942500", "133722.432500", "133723.922500", "133725.412500", "133726.902500", "133728.392500", "133729.882500", "133731.372500", "133732.862500", "133734.352500", "133735.842500", "133737.332500", "133738.822500", "133740.312500", "133741.802500", "133743.292500", "133744.782500", "133746.272500", "133747.762500", "133749.252500", "133750.742500", "133752.232500", "133753.722500", "133755.212500", "133756.702500", "133758.192500", "133759.682500", "133801.172500", "133802.662500", "133804.152500", "133805.642500", "133807.132500", "133808.622500", "133810.112500", "133811.602500", "133813.092500", "133814.582500", "133816.072500", "133817.562500", "133819.052500", "133820.542500", "133822.032500", "133823.522500", "133825.012500", "133826.502500", "133827.992500", "133829.482500", "133830.972500", "133832.462500", "133833.952500", "133835.442500", "133836.932500", "133838.422500", "133839.912500", "133841.402500", "133842.892500", "133844.382500", "133845.872500", "133847.362500", "133848.852500", "133850.342500", "133851.832500", "133853.322500", "133854.812500", "133856.302500", "133857.792500", "133859.282500", "133900.772500", "133902.262500", "133903.752500", "133905.242500", "133906.732500", "133908.222500", "133909.712500", "133911.202500", "133912.692500", "133914.182500", "133915.672500", "133917.162500", "133918.652500", "133920.142500", "133921.632500", "133923.122500", "133924.612500", "133926.102500", "133927.592500", "133929.082500", "133930.572500", "133932.062500", "133933.552500", "133935.042500", "133936.532500", "133938.022500", "133939.512500", "133941.002500", "133942.492500", "133943.982500", "133945.472500", "133946.962500", "133948.452500", "133949.942500", "133951.432500", "133952.922500", "133954.412500", "133955.902500", "133957.392500", "133958.882500", "134000.372500", "134001.862500", "134003.352500", "134004.842500", "134006.332500", "134007.822500", "134009.312500", "134010.802500", "134012.292500", "134013.782500", "134015.272500", "134016.762500", "134018.252500", "134019.742500", "134021.232500", "134022.722500", "134024.212500", "134025.702500", "134027.192500", "134028.682500", "134030.172500", "134031.662500", "134033.152500", "134034.642500", "134036.132500", "134037.622500", "134039.112500", "134040.602500", "134042.092500", "134043.582500", "134045.072500", "134046.562500", "134048.052500", "134049.542500", "134051.032500", "134052.522500", "134054.012500", "134055.502500", "134056.992500", "134058.482500", "134059.972500", "134101.462500", "134102.952500", "134104.442500", "134105.932500", "134107.422500", "134108.912500", "134110.402500", "134111.892500", "134113.382500", "134114.872500", "134116.362500", "134117.852500", "134119.342500", "134120.832500", "134122.322500", "134123.812500", "134125.302500", "134126.792500", "134128.282500", "134129.772500", "134131.262500", "134132.752500", "134134.242500", "134135.732500", "134137.222500", "134138.712500", "134140.202500", "134141.692500", "134143.182500", "134144.672500", "134146.162500", "134147.652500", "134149.142500", "134150.632500", "134152.122500", "134153.612500"],
      "ContentTime": ["133822.017000", "133822.019000", "133822.022000", "133822.024000", "133822.027000", "133822.029000", "133822.032000", "133822.034000", "133822.037000", "133822.039000", "133822.042000", "133822.044000", "133822.047000", "133822.050000", "133822.061000", "133822.069000", "133841.964000", "133841.967000", "133841.969000", "133841.972000", "133841.974000", "133841.977000", "133841.979000", "133841.981000", "133841.984000", "133841.986000", "133841.989000", "133841.991000", "133841.994000", "133841.996000", "133842.000000", "133842.002000", "133842.005000", "133842.007000", "133842.010000", "133842.012000", "133901.980000", "133901.982000", "133901.985000", "133901.987000", "133901.990000", "133901.992000", "133901.995000", "133901.998000", "133902.001000", "133902.004000", "133902.006000", "133902.009000", "133902.012000", "133902.015000", "133902.017000", "133902.020000", "133902.022000", "133902.025000", "133902.027000", "133902.030000", "133921.995000", "133921.997000", "133922.001000", "133922.003000", "133922.006000", "133922.008000", "133922.011000", "133922.013000", "133922.016000", "133922.018000", "133922.021000", "133922.023000", "133922.026000", "133922.028000", "133922.031000", "133922.033000", "133922.036000", "133922.038000", "133922.041000", "133922.043000", "133922.046000", "133942.045000", "133942.048000", "133942.050000", "133942.053000", "133942.055000", "133942.058000", "133942.060000", "133942.062000", "133942.065000", "133942.067000", "133942.070000", "133942.072000", "133942.075000", "133942.078000", "133942.080000", "133942.082000", "133942.085000", "133942.087000", "133942.090000", "133942.092000", "134022.059000", "134022.061000", "134022.064000", "134022.066000", "134022.069000", "134022.071000", "134022.074000", "134022.076000", "134022.079000", "134022.081000", "134022.084000", "134022.086000", "134022.089000", "134022.091000", "134022.094000", "134022.096000", "134022.099000", "134022.101000", "134022.104000", "134022.106000", "134022.109000", "134022.111000", "134022.114000", "134022.117000", "134022.119000", "134022.121000", "134022.124000", "134022.126000", "134022.129000", "134022.131000", "134102.021000", "134102.024000", "134102.027000", "134102.029000", "134102.032000", "134102.034000", "134102.037000", "134102.039000", "134102.042000", "134102.044000", "134102.047000", "134102.049000", "134102.052000", "134102.061000", "134102.063000", "134102.066000", "134102.068000", "134102.071000", "134102.073000", "134102.076000", "134102.078000", "134102.081000", "134102.084000", "134102.086000", "134102.089000", "134102.091000", "134102.094000", "134142.034000", "134142.037000", "134142.039000", "134142.042000", "134142.045000", "134142.047000", "134142.050000", "134142.052000", "134142.055000", "134142.057000", "134142.060000", "134142.062000", "134142.065000", "134142.067000", "134142.069000", "134142.072000", "134142.074000", "134142.077000", "134142.080000", "134142.082000", "134142.085000", "134142.087000", "134142.090000", "134142.092000", "134142.095000", "134142.097000", "134155.456000", "134155.458000", "134155.461000", "134155.464000", "134155.466000", "134155.469000", "134155.471000", "134155.474000", "134155.476000", "134155.479000"],
      "InstanceCreationTime": ["133822.017000", "133822.019000", "133822.022000", "133822.024000", "133822.027000", "133822.029000", "133822.032000", "133822.034000", "133822.037000", "133822.039000", "133822.042000", "133822.044000", "133822.047000", "133822.050000", "133822.061000", "133822.069000", "133841.964000", "133841.967000", "133841.969000", "133841.972000", "133841.974000", "133841.977000", "133841.979000", "133841.981000", "133841.984000", "133841.986000", "133841.989000", "133841.991000", "133841.994000", "133841.996000", "133842.000000", "133842.002000", "133842.005000", "133842.007000", "133842.010000", "133842.012000", "133901.980000", "133901.982000", "133901.985000", "133901.987000", "133901.990000", "133901.992000", "133901.995000", "133901.998000", "133902.001000", "133902.004000", "133902.006000", "133902.009000", "133902.012000", "133902.015000", "133902.017000", "133902.020000", "133902.022000", "133902.025000", "133902.027000", "133902.030000", "133921.995000", "133921.997000", "133922.001000", "133922.003000", "133922.006000", "133922.008000", "133922.011000", "133922.013000", "133922.016000", "133922.018000", "133922.021000", "133922.023000", "133922.026000", "133922.028000", "133922.031000", "133922.033000", "133922.036000", "133922.038000", "133922.041000", "133922.043000", "133922.046000", "133942.045000", "133942.048000", "133942.050000", "133942.053000", "133942.055000", "133942.058000", "133942.060000", "133942.062000", "133942.065000", "133942.067000", "133942.070000", "133942.072000", "133942.075000", "133942.078000", "133942.080000", "133942.082000", "133942.085000", "133942.087000", "133942.090000", "133942.092000", "134022.059000", "134022.061000", "134022.064000", "134022.066000", "134022.069000", "134022.071000", "134022.074000", "134022.076000", "134022.079000", "134022.081000", "134022.084000", "134022.086000", "134022.089000", "134022.091000", "134022.094000", "134022.096000", "134022.099000", "134022.101000", "134022.104000", "134022.106000", "134022.109000", "134022.111000", "134022.114000", "134022.117000", "134022.119000", "134022.121000", "134022.124000", "134022.126000", "134022.129000", "134022.131000", "134102.021000", "134102.024000", "134102.027000", "134102.029000", "134102.032000", "134102.034000", "134102.037000", "134102.039000", "134102.042000", "134102.044000", "134102.047000", "134102.049000", "134102.052000", "134102.061000", "134102.063000", "134102.066000", "134102.068000", "134102.071000", "134102.073000", "134102.076000", "134102.078000", "134102.081000", "134102.084000", "134102.086000", "134102.089000", "134102.091000", "134102.094000", "134142.034000", "134142.037000", "134142.039000", "134142.042000", "134142.045000", "134142.047000", "134142.050000", "134142.052000", "134142.055000", "134142.057000", "134142.060000", "134142.062000", "134142.065000", "134142.067000", "134142.069000", "134142.072000", "134142.074000", "134142.077000", "134142.080000", "134142.082000", "134142.085000", "134142.087000", "134142.090000", "134142.092000", "134142.095000", "134142.097000", "134155.456000", "134155.458000", "134155.461000", "134155.464000", "134155.466000", "134155.469000", "134155.471000", "134155.474000", "134155.476000", "134155.479000"],
      "InstanceNumber": [1, 2, 3, 4, 5, 6, 7, 8, 9, 10, 11, 12, 13, 14, 15, 16, 17, 18, 19, 20, 21, 22, 23, 24, 25, 26, 27, 28, 29, 30, 31, 32, 33, 34, 35, 36, 37, 38, 39, 40, 41, 42, 43, 44, 45, 46, 47, 48, 49, 50, 51, 52, 53, 54, 55, 56, 57, 58, 59, 60, 61, 62, 63, 64, 65, 66, 67, 68, 69, 70, 71, 72, 73, 74, 75, 76, 77, 78, 79, 80, 81, 82, 83, 84, 85, 86, 87, 88, 89, 90, 91, 92, 93, 94, 95, 96, 97, 98, 99, 100, 101, 102, 103, 104, 105, 106, 107, 108, 109, 110, 111, 112, 113, 114, 115, 116, 117, 118, 119, 120, 121, 122, 123, 124, 125, 126, 127, 128, 129, 130, 131, 132, 133, 134, 135, 136, 137, 138, 139, 140, 141, 142, 143, 144, 145, 146, 147, 148, 149, 150, 151, 152, 153, 154, 155, 156, 157, 158, 159, 160, 161, 162, 163, 164, 165, 166, 167, 168, 169, 170, 171, 172, 173, 174, 175, 176, 177, 178, 179, 180, 181, 182, 183, 184, 185, 186, 187, 188, 189, 190],
      "WindowCenter": [4782.0, 4780.0, 4778.0, 4780.0, 4780.0, 4782.0, 4776.0, 4778.0, 4778.0, 4780.0, 4782.0, 4778.0, 4780.0, 4780.0, 4778.0, 4778.0, 4778.0, 4778.0, 4780.0, 4782.0, 4778.0, 4782.0, 4778.0, 4778.0, 4774.0, 4780.0, 4778.0, 4778.0, 4782.0, 4776.0, 4780.0, 4782.0, 4780.0, 4780.0, 4780.0, 4778.0, 4778.0, 4778.0, 4780.0, 4778.0, 4782.0, 4780.0, 4756.0, 4780.0, 4778.0, 4776.0, 4780.0, 4778.0, 4782.0, 4778.0, 4782.0, 4778.0, 4780.0, 4776.0, 4778.0, 4778.0, 4782.0, 4782.0, 4778.0, 4780.0, 4758.0, 4758.0, 4778.0, 4780.0, 4778.0, 4776.0, 4778.0, 4778.0, 4758.0, 4778.0, 4780.0, 4782.0, 4776.0, 4758.0, 4778.0, 4776.0, 4778.0, 4776.0, 4776.0, 4784.0, 4778.0, 4778.0, 4778.0, 4780.0, 4776.0, 4778.0, 4778.0, 4752.0, 4778.0, 4778.0, 4778.0, 4776.0, 4776.0, 4758.0, 4780.0, 4778.0, 4778.0, 4780.0, 4784.0, 4758.0, 4758.0, 4760.0, 4782.0, 4758.0, 4780.0, 4776.0, 4776.0, 4778.0, 4776.0, 4756.0, 4778.0, 4758.0, 4782.0, 4778.0, 4776.0, 4782.0, 4758.0, 4756.0, 4782.0, 4756.0, 4756.0, 4778.0, 4780.0, 4782.0, 4778.0, 4782.0, 4756.0, 4756.0, 4780.0, 4782.0, 4778.0, 4782.0, 4778.0, 4780.0, 4756.0, 4782.0, 4780.0, 4778.0, 4780.0, 4782.0, 4784.0, 4780.0, 4780.0, 4780.0, 4778.0, 4778.0, 4782.0, 4782.0, 4778.0, 4782.0, 4780.0, 4780.0, 4778.0, 4760.0, 4782.0, 4782.0, 4782.0, 4780.0, 4780.0, 4780.0, 4780.0, 4780.0, 4778.0, 4776.0, 4782.0, 4784.0, 4786.0, 4786.0, 4790.0, 4788.0, 4778.0, 4778.0, 4778.0, 4778.0, 4780.0, 4762.0, 4786.0, 4764.0, 4786.0, 4782.0, 4784.0, 4782.0, 4776.0, 4778.0, 4778.0, 4758.0, 4786.0, 4786.0, 4784.0, 4784.0],
      "WindowWidth": [18568.0, 18560.0, 18568.0, 18572.0, 18570.0, 18570.0, 18560.0, 18560.0, 18564.0, 18570.0, 18570.0, 18558.0, 18570.0, 18562.0, 18566.0, 18568.0, 18570.0, 18562.0, 18568.0, 18564.0, 18558.0, 18568.0, 18564.0, 18566.0, 18566.0, 18566.0, 18564.0, 18566.0, 18570.0, 18562.0, 18556.0, 18558.0, 18570.0, 18574.0, 18562.0, 18558.0, 18562.0, 18558.0, 18558.0, 18560.0, 18560.0, 18564.0, 18534.0, 18564.0, 18564.0, 18562.0, 18564.0, 18562.0, 18562.0, 18566.0, 18566.0, 18562.0, 18570.0, 18562.0, 18560.0, 18568.0, 18564.0, 18562.0, 18562.0, 18560.0, 18538.0, 18534.0, 18568.0, 18570.0, 18570.0, 18572.0, 18560.0, 18568.0, 18532.0, 18564.0, 18562.0, 18574.0, 18568.0, 18530.0, 18566.0, 18568.0, 18564.0, 18568.0, 18566.0, 18562.0, 18562.0, 18566.0, 18560.0, 18562.0, 18564.0, 18564.0, 18566.0, 18532.0, 18572.0, 18572.0, 18562.0, 18568.0, 18566.0, 18538.0, 18562.0, 18566.0, 18568.0, 18560.0, 18560.0, 18526.0, 18526.0, 18530.0, 18562.0, 18536.0, 18564.0, 18568.0, 18566.0, 18570.0, 18562.0, 18526.0, 18564.0, 18530.0, 18562.0, 18564.0, 18562.0, 18562.0, 18530.0, 18536.0, 18566.0, 18534.0, 18532.0, 18566.0, 18562.0, 18564.0, 18566.0, 18562.0, 18536.0, 18528.0, 18558.0, 18560.0, 18564.0, 18566.0, 18568.0, 18572.0, 18530.0, 18570.0, 18568.0, 18562.0, 18566.0, 18566.0, 18562.0, 18558.0, 18564.0, 18562.0, 18570.0, 18564.0, 18562.0, 18564.0, 18566.0, 18562.0, 18566.0, 18564.0, 18566.0, 18532.0, 18568.0, 18566.0, 18566.0, 18570.0, 18564.0, 18568.0, 18566.0, 18564.0, 18564.0, 18566.0, 18560.0, 18562.0, 18566.0, 18556.0, 18552.0, 18558.0, 18562.0, 18572.0, 18562.0, 18562.0, 18562.0, 18528.0, 18556.0, 18530.0, 18558.0, 18560.0, 18564.0, 18566.0, 18570.0, 18572.0, 18566.0, 18534.0, 18560.0, 18556.0, 18556.0, 18554.0]
    },
    "slices": {}
  }
}