{
  "AcquisitionMatrixPE": 104,
  "AcquisitionNumber": 1,
  "AcquisitionTime": "14:15:54.657500",
  "BandwidthPerPixelPhaseEncode": 17.17,
  "BaseResolution": 104,
  "BodyPartExamined": "BRAIN",
  "CoilString": "HC1-7;NC1_2",
  "ConsistencyInfo": "N4_VE11C_LATEST_20160120",
  "ConversionSoftware": "dcm2niix",
  "ConversionSoftwareVersion": "v1.0.20190902",
  "DerivedVendorReportedEchoSpacing": 0.000560011,
  "DeviceSerialNumber": "167006",
  "DwellTime": 2.1e-06,
  "EchoTime": 0.037,
  "EchoTrainLength": 104,
  "EffectiveEchoSpacing": 0.000560011,
  "FlipAngle": 52,
  "HeudiconvVersion": "0.10.0",
  "ImageComments": "Unaliased_MB4_PE3_LB",
  "ImageOrientationPatientDICOM": [0.996763, 0.065153, 0.0471097, -0.045437, 0.939875, -0.338482],
  "ImageType": [
    "ORIGINAL",
    "PRIMARY",
    "M",
    "MB",
    "ND",
    "MOSAIC"
],
  "ImagingFrequency": 123.259,
  "InPlanePhaseEncodingDirectionDICOM": "COL",
  "InstitutionAddress": "Chemin_Queen-Mary_4565_Montreal_District_CA_H3W_1W5",
  "InstitutionName": "IUGM",
  "InstitutionalDepartmentName": "Department",
  "MRAcquisitionType": "2D",
  "MagneticFieldStrength": 3,
  "Manufacturer": "Siemens",
  "ManufacturersModelName": "Prisma_fit",
  "Modality": "MR",
  "MultibandAccelerationFactor": 4,
  "PartialFourier": 1,
  "PatientPosition": "HFS",
  "PercentPhaseFOV": 100,
  "PhaseEncodingDirection": "j",
  "PhaseEncodingSteps": 104,
  "PhaseResolution": 1,
  "PixelBandwidth": 2290,
  "ProcedureStepDescription": "memory_things",
  "ProtocolName": "func_task-things_run-5",
  "PulseSequenceDetails": "%CustomerSeq%_cmrr_mbep2d_bold",
  "ReceiveCoilActiveElements": "HC1-7;NC1,2",
  "ReceiveCoilName": "HeadNeck_64",
  "ReconMatrixPE": 104,
  "RepetitionTime": 1.49,
  "SAR": 0.0477861,
  "ScanOptions": "FS",
  "ScanningSequence": "EP",
  "SequenceName": "epfid2d1_104",
  "SequenceVariant": "SK_SS",
  "SeriesDescription": "func_task-things_run-5",
  "SeriesNumber": 22,
  "ShimSetting": [639, -7184, -8820, 628, 106, 19, -52, -10],
  "SliceThickness": 2,
  "SliceTiming": [0, 0.785, 0.1, 0.8825, 0.1975, 0.98, 0.295, 1.0775, 0.3925, 1.1775, 0.49, 1.275, 0.5875, 1.3725, 0.6875, 0, 0.785, 0.1, 0.8825, 0.1975, 0.98, 0.295, 1.0775, 0.3925, 1.1775, 0.49, 1.275, 0.5875, 1.3725, 0.6875, 0, 0.785, 0.1, 0.8825, 0.1975, 0.98, 0.295, 1.0775, 0.3925, 1.1775, 0.49, 1.275, 0.5875, 1.3725, 0.6875, 0, 0.785, 0.1, 0.8825, 0.1975, 0.98, 0.295, 1.0775, 0.3925, 1.1775, 0.49, 1.275, 0.5875, 1.3725, 0.6875],
  "SoftwareVersions": "syngo_MR_E11",
  "SpacingBetweenSlices": 2,
  "StationName": "MRC35049",
  "TaskName": "things",
  "TotalReadoutTime": 0.0576811,
  "TxRefAmp": 269.474,
  "WipMemBlock": "eafc8f88-9c57-46ce-9ef0-18cee34819b4||Sequence: R016 ve11c/master r/e634e98; Dec 19 2017 11:00:25 by eja",
  "dcmmeta_affine": [
    [-1.9935252666473389, -0.09087403118610382, 0.1326608508825302, 107.69255828857422],
    [-0.13030609488487244, 1.8797502517700195, -0.6704918742179871, -54.45651626586914],
    [0.09421948343515396, 0.676964521408081, 1.8795855045318604, -61.48628616333008],
    [0.0, 0.0, 0.0, 1.0]
],
  "dcmmeta_reorient_transform": [
    [0.0, -1.0, 0.0, 103.0],
    [1.0, 0.0, 0.0, 0.0],
    [0.0, 0.0, 1.0, 0.0],
    [0.0, 0.0, 0.0, 1.0]
],
  "dcmmeta_shape": [104, 104, 60, 190],
  "dcmmeta_slice_dim": 2,
  "dcmmeta_version": 0.6,
  "global": {
    "const": {
      "AcquisitionMatrix": [104, 0, 0, 104],
      "AngioFlag": "N",
      "BitsAllocated": 16,
      "BitsStored": 16,
      "BodyPartExamined": "BRAIN",
      "Columns": 832,
      "EchoNumbers": 1,
      "EchoTime": 37.0,
      "EchoTrainLength": 104,
      "FlipAngle": 52.0,
      "HighBit": 15,
      "ImageOrientationPatient": [0.99676263576522, 0.0651530510922, 0.04710974289634, -0.0454370161968, 0.9398751214251, -0.3384822501776],
      "ImagePositionPatient": [-790.8975853117, -870.81827000925, 220.36024431056],
      "ImageType": [
        "ORIGINAL",
        "PRIMARY",
        "M",
        "MB",
        "ND",
        "MOSAIC"
],
      "ImagedNucleus": "1H",
      "ImagingFrequency": 123.258908,
      "InPlanePhaseEncodingDirection": "COL",
      "MRAcquisitionType": "2D",
      "MagneticFieldStrength": 3.0,
      "Manufacturer": "SIEMENS",
      "ManufacturerModelName": "Prisma_fit",
      "Modality": "MR",
      "NumberOfAverages": 1.0,
      "NumberOfPhaseEncodingSteps": 104,
      "PercentPhaseFieldOfView": 100.0,
      "PercentSampling": 100.0,
      "PerformedProcedureStepStartTime": "131238.484000",
      "PhotometricInterpretation": "MONOCHROME2",
      "PixelBandwidth": 2290.0,
      "PixelRepresentation": 0,
      "PixelSpacing": [2.0, 2.0],
      "ProtocolName": "func_task-things_run-5",
      "RepetitionTime": 1490.0,
      "Rows": 832,
      "SAR": 0.0477860910207,
      "SamplesPerPixel": 1,
      "ScanOptions": "FS",
      "ScanningSequence": "EP",
      "SequenceName": "epfid2d1_104",
      "SequenceVariant": [
        "SK",
        "SS"
],
      "SeriesDescription": "func_task-things_run-5",
      "SeriesNumber": 22,
      "SeriesTime": "141704.745000",
      "SliceLocation": -32.384746747528,
      "SliceThickness": 2.0,
      "SmallestImagePixelValue": 0,
      "SoftwareVersions": "syngo MR E11",
      "SpacingBetweenSlices": 1.9999999725299,
      "SpecificCharacterSet": "ISO_IR 100",
      "StudyID": "1",
      "StudyTime": "131238.261000",
      "TransmitCoilName": "Body",
      "VariableFlipAngleFlag": "N",
      "WindowCenterWidthExplanation": "Algo1",
      "dBdt": 0.0},
    "slices": {}
  },
  "time": {
    "samples": {
      "AcquisitionNumber": [1, 2, 3, 4, 5, 6, 7, 8, 9, 10, 11, 12, 13, 14, 15, 16, 17, 18, 19, 20, 21, 22, 23, 24, 25, 26, 27, 28, 29, 30, 31, 32, 33, 34, 35, 36, 37, 38, 39, 40, 41, 42, 43, 44, 45, 46, 47, 48, 49, 50, 51, 52, 53, 54, 55, 56, 57, 58, 59, 60, 61, 62, 63, 64, 65, 66, 67, 68, 69, 70, 71, 72, 73, 74, 75, 76, 77, 78, 79, 80, 81, 82, 83, 84, 85, 86, 87, 88, 89, 90, 91, 92, 93, 94, 95, 96, 97, 98, 99, 100, 101, 102, 103, 104, 105, 106, 107, 108, 109, 110, 111, 112, 113, 114, 115, 116, 117, 118, 119, 120, 121, 122, 123, 124, 125, 126, 127, 128, 129, 130, 131, 132, 133, 134, 135, 136, 137, 138, 139, 140, 141, 142, 143, 144, 145, 146, 147, 148, 149, 150, 151, 152, 153, 154, 155, 156, 157, 158, 159, 160, 161, 162, 163, 164, 165, 166, 167, 168, 169, 170, 171, 172, 173, 174, 175, 176, 177, 178, 179, 180, 181, 182, 183, 184, 185, 186, 187, 188, 189, 190],
      "AcquisitionTime": ["141554.657500", "141556.147500", "141557.637500", "141559.127500", "141600.617500", "141602.107500", "141603.597500", "141605.087500", "141606.577500", "141608.067500", "141609.557500", "141611.047500", "141612.537500", "141614.027500", "141615.517500", "141617.007500", "141618.497500", "141619.987500", "141621.477500", "141622.967500", "141624.457500", "141625.947500", "141627.437500", "141628.927500", "141630.417500", "141631.907500", "141633.397500", "141634.887500", "141636.377500", "141637.867500", "141639.357500", "141640.847500", "141642.337500", "141643.827500", "141645.317500", "141646.807500", "141648.297500", "141649.787500", "141651.277500", "141652.767500", "141654.257500", "141655.747500", "141657.237500", "141658.727500", "141700.217500", "141701.707500", "141703.197500", "141704.687500", "141706.177500", "141707.667500", "141709.157500", "141710.647500", "141712.137500", "141713.627500", "141715.117500", "141716.607500", "141718.097500", "141719.587500", "141721.077500", "141722.567500", "141724.057500", "141725.547500", "141727.037500", "141728.527500", "141730.017500", "141731.507500", "141732.997500", "141734.487500", "141735.977500", "141737.467500", "141738.957500", "141740.447500", "141741.937500", "141743.427500", "141744.917500", "141746.407500", "141747.897500", "141749.387500", "141750.877500", "141752.367500", "141753.857500", "141755.347500", "141756.837500", "141758.327500", "141759.817500", "141801.307500", "141802.797500", "141804.287500", "141805.777500", "141807.267500", "141808.757500", "141810.247500", "141811.737500", "141813.227500", "141814.717500", "141816.207500", "141817.697500", "141819.187500", "141820.677500", "141822.167500", "141823.657500", "141825.147500", "141826.637500", "141828.127500", "141829.617500", "141831.107500", "141832.597500", "141834.087500", "141835.577500", "141837.067500", "141838.557500", "141840.047500", "141841.537500", "141843.027500", "141844.517500", "141846.007500", "141847.497500", "141848.987500", "141850.477500", "141851.967500", "141853.457500", "141854.947500", "141856.437500", "141857.927500", "141859.417500", "141900.907500", "141902.397500", "141903.887500", "141905.377500", "141906.867500", "141908.357500", "141909.847500", "141911.337500", "141912.827500", "141914.317500", "141915.807500", "141917.297500", "141918.787500", "141920.277500", "141921.767500", "141923.257500", "141924.747500", "141926.237500", "141927.727500", "141929.217500", "141930.707500", "141932.197500", "141933.687500", "141935.177500", "141936.667500", "141938.157500", "141939.647500", "141941.137500", "141942.627500", "141944.117500", "141945.607500", "141947.097500", "141948.587500", "141950.077500", "141951.567500", "141953.057500", "141954.547500", "141956.037500", "141957.527500", "141959.017500", "142000.507500", "142001.997500", "142003.487500", "142004.977500", "142006.467500", "142007.957500", "142009.447500", "142010.937500", "142012.427500", "142013.917500", "142015.407500", "142016.897500", "142018.387500", "142019.877500", "142021.367500", "142022.857500", "142024.347500", "142025.837500", "142027.327500", "142028.817500", "142030.307500", "142031.797500", "142033.287500", "142034.777500", "142036.267500"],
      "ContentTime": ["141704.749000", "141704.753000", "141704.763000", "141704.766000", "141704.769000", "141704.773000", "141704.776000", "141704.779000", "141704.783000", "141704.786000", "141704.789000", "141704.792000", "141704.796000", "141704.815000", "141724.703000", "141724.707000", "141724.710000", "141724.713000", "141724.717000", "141724.721000", "141724.724000", "141724.738000", "141724.742000", "141724.745000", "141724.748000", "141724.751000", "141724.755000", "141724.758000", "141724.761000", "141724.765000", "141724.768000", "141724.781000", "141724.784000", "141724.788000", "141744.704000", "141744.708000", "141744.711000", "141744.714000", "141744.717000", "141744.721000", "141744.724000", "141744.728000", "141744.731000", "141744.734000", "141744.738000", "141744.741000", "141744.745000", "141744.748000", "141744.751000", "141744.755000", "141744.758000", "141744.761000", "141744.764000", "141744.768000", "141804.704000", "141804.708000", "141804.711000", "141804.714000", "141804.718000", "141804.721000", "141804.724000", "141804.727000", "141804.731000", "141804.734000", "141804.737000", "141804.741000", "141804.744000", "141804.747000", "141804.751000", "141804.754000", "141804.757000", "141804.760000", "141804.764000", "141804.767000", "141804.770000", "141824.704000", "141824.708000", "141824.711000", "141824.714000", "141824.718000", "141824.721000", "141824.724000", "141824.727000", "141824.731000", "141824.734000", "141824.737000", "141824.741000", "141824.744000", "141824.747000", "141824.751000", "141824.754000", "141824.757000", "141824.761000", "141824.764000", "141824.767000", "141904.703000", "141904.707000", "141904.710000", "141904.713000", "141904.717000", "141904.720000", "141904.723000", "141904.727000", "141904.730000", "141904.733000", "141904.736000", "141904.740000", "141904.743000", "141904.746000", "141904.750000", "141904.753000", "141904.756000", "141904.760000", "141904.763000", "141904.783000", "141904.786000", "141904.790000", "141904.793000", "141904.796000", "141904.799000", "141904.803000", "141904.806000", "141904.809000", "141904.813000", "141904.816000", "141904.819000", "141904.823000", "141944.703000", "141944.708000", "141944.711000", "141944.715000", "141944.718000", "141944.721000", "141944.725000", "141944.728000", "141944.731000", "141944.734000", "141944.738000", "141944.741000", "141944.744000", "141944.748000", "141944.751000", "141944.754000", "141944.758000", "141944.761000", "141944.764000", "141944.767000", "141944.771000", "141944.774000", "141944.778000", "141944.781000", "141944.785000", "141944.788000", "142024.704000", "142024.708000", "142024.711000", "142024.714000", "142024.718000", "142024.721000", "142024.724000", "142024.728000", "142024.731000", "142024.734000", "142024.738000", "142024.741000", "142024.744000", "142024.747000", "142024.751000", "142024.754000", "142024.757000", "142024.761000", "142024.764000", "142024.767000", "142024.771000", "142024.774000", "142024.777000", "142024.781000", "142024.784000", "142024.787000", "142024.791000", "142038.614000", "142038.618000", "142038.621000", "142038.625000", "142038.628000", "142038.631000", "142038.635000", "142038.638000", "142038.641000", "142038.645000"],
      "InstanceCreationTime": ["141704.749000", "141704.753000", "141704.763000", "141704.766000", "141704.769000", "141704.773000", "141704.776000", "141704.779000", "141704.783000", "141704.786000", "141704.789000", "141704.792000", "141704.796000", "141704.815000", "141724.703000", "141724.707000", "141724.710000", "141724.713000", "141724.717000", "141724.721000", "141724.724000", "141724.738000", "141724.742000", "141724.745000", "141724.748000", "141724.751000", "141724.755000", "141724.758000", "141724.761000", "141724.765000", "141724.768000", "141724.781000", "141724.784000", "141724.788000", "141744.704000", "141744.708000", "141744.711000", "141744.714000", "141744.717000", "141744.721000", "141744.724000", "141744.728000", "141744.731000", "141744.734000", "141744.738000", "141744.741000", "141744.745000", "141744.748000", "141744.751000", "141744.755000", "141744.758000", "141744.761000", "141744.764000", "141744.768000", "141804.704000", "141804.708000", "141804.711000", "141804.714000", "141804.718000", "141804.721000", "141804.724000", "141804.727000", "141804.731000", "141804.734000", "141804.737000", "141804.741000", "141804.744000", "141804.747000", "141804.751000", "141804.754000", "141804.757000", "141804.760000", "141804.764000", "141804.767000", "141804.770000", "141824.704000", "141824.708000", "141824.711000", "141824.714000", "141824.718000", "141824.721000", "141824.724000", "141824.727000", "141824.731000", "141824.734000", "141824.737000", "141824.741000", "141824.744000", "141824.747000", "141824.751000", "141824.754000", "141824.757000", "141824.761000", "141824.764000", "141824.767000", "141904.703000", "141904.707000", "141904.710000", "141904.713000", "141904.717000", "141904.720000", "141904.723000", "141904.727000", "141904.730000", "141904.733000", "141904.736000", "141904.740000", "141904.743000", "141904.746000", "141904.750000", "141904.753000", "141904.756000", "141904.760000", "141904.763000", "141904.783000", "141904.786000", "141904.790000", "141904.793000", "141904.796000", "141904.799000", "141904.803000", "141904.806000", "141904.809000", "141904.813000", "141904.816000", "141904.819000", "141904.823000", "141944.703000", "141944.708000", "141944.711000", "141944.715000", "141944.718000", "141944.721000", "141944.725000", "141944.728000", "141944.731000", "141944.734000", "141944.738000", "141944.741000", "141944.744000", "141944.748000", "141944.751000", "141944.754000", "141944.758000", "141944.761000", "141944.764000", "141944.767000", "141944.771000", "141944.774000", "141944.778000", "141944.781000", "141944.785000", "141944.788000", "142024.704000", "142024.708000", "142024.711000", "142024.714000", "142024.718000", "142024.721000", "142024.724000", "142024.728000", "142024.731000", "142024.734000", "142024.738000", "142024.741000", "142024.744000", "142024.747000", "142024.751000", "142024.754000", "142024.757000", "142024.761000", "142024.764000", "142024.767000", "142024.771000", "142024.774000", "142024.777000", "142024.781000", "142024.784000", "142024.787000", "142024.791000", "142038.614000", "142038.618000", "142038.621000", "142038.625000", "142038.628000", "142038.631000", "142038.635000", "142038.638000", "142038.641000", "142038.645000"],
      "InstanceNumber": [1, 2, 3, 4, 5, 6, 7, 8, 9, 10, 11, 12, 13, 14, 15, 16, 17, 18, 19, 20, 21, 22, 23, 24, 25, 26, 27, 28, 29, 30, 31, 32, 33, 34, 35, 36, 37, 38, 39, 40, 41, 42, 43, 44, 45, 46, 47, 48, 49, 50, 51, 52, 53, 54, 55, 56, 57, 58, 59, 60, 61, 62, 63, 64, 65, 66, 67, 68, 69, 70, 71, 72, 73, 74, 75, 76, 77, 78, 79, 80, 81, 82, 83, 84, 85, 86, 87, 88, 89, 90, 91, 92, 93, 94, 95, 96, 97, 98, 99, 100, 101, 102, 103, 104, 105, 106, 107, 108, 109, 110, 111, 112, 113, 114, 115, 116, 117, 118, 119, 120, 121, 122, 123, 124, 125, 126, 127, 128, 129, 130, 131, 132, 133, 134, 135, 136, 137, 138, 139, 140, 141, 142, 143, 144, 145, 146, 147, 148, 149, 150, 151, 152, 153, 154, 155, 156, 157, 158, 159, 160, 161, 162, 163, 164, 165, 166, 167, 168, 169, 170, 171, 172, 173, 174, 175, 176, 177, 178, 179, 180, 181, 182, 183, 184, 185, 186, 187, 188, 189, 190],
      "LargestImagePixelValue": [40631, 39856, 39517, 39457, 39645, 39305, 42074, 39826, 39596, 43473, 39272, 38923, 39827, 39441, 38446, 40263, 40032, 39411, 39149, 38953, 39586, 40201, 39792, 39470, 39768, 39646, 39236, 40155, 39352, 39134, 39409, 40435, 39357, 39140, 39835, 40515, 41055, 39867, 39154, 39061, 39055, 38966, 39103, 39771, 39999, 40486, 39834, 39917, 40099, 38837, 39678, 39787, 39971, 41094, 41292, 40998, 40682, 40463, 40883, 40199, 39793, 39928, 41333, 41025, 40846, 40800, 40266, 41461, 40552, 40591, 39963, 39527, 39661, 40390, 39978, 40302, 41903, 40971, 40775, 41151, 40683, 42346, 41429, 41403, 40685, 40034, 40239, 40550, 40713, 41145, 40916, 40753, 41289, 40355, 40000, 41324, 40881, 40826, 40207, 41063, 40411, 40115, 41531, 44929, 40434, 40587, 40590, 40163, 39894, 40074, 41172, 40350, 40680, 39971, 41667, 40101, 40265, 42276, 40559, 40817, 40791, 39535, 39530, 42066, 40594, 40348, 39473, 39715, 39781, 39864, 39077, 41487, 39668, 39872, 40401, 40452, 40180, 39858, 40184, 40249, 39868, 40039, 39710, 40059, 39781, 39693, 39722, 39772, 40061, 40240, 40407, 40388, 40051, 41493, 39931, 39688, 39681, 39789, 45143, 39653, 42128, 39414, 39570, 39579, 40016, 41763, 40459, 40248, 39349, 38792, 39579, 42144, 39541, 39710, 40096, 40357, 40131, 39730, 40300, 39928, 40032, 39937, 39165, 45202, 39730, 39334, 41267, 39860, 42052, 40248],
      "WindowCenter": [10337.0, 10281.0, 10247.0, 10243.0, 10247.0, 10240.0, 10238.0, 10228.0, 10257.0, 10299.0, 10243.0, 10235.0, 10258.0, 10268.0, 10258.0, 10257.0, 10248.0, 10261.0, 10255.0, 10241.0, 10243.0, 10256.0, 10265.0, 10276.0, 10278.0, 10278.0, 10270.0, 10264.0, 10251.0, 10269.0, 10294.0, 10300.0, 10282.0, 10280.0, 10277.0, 10284.0, 10294.0, 10319.0, 10321.0, 10301.0, 10282.0, 10261.0, 10260.0, 10268.0, 10275.0, 10279.0, 10260.0, 10255.0, 10248.0, 10262.0, 10297.0, 10286.0, 10273.0, 10274.0, 10289.0, 10304.0, 10309.0, 10287.0, 10282.0, 10247.0, 10240.0, 10263.0, 10275.0, 10263.0, 10261.0, 10272.0, 10282.0, 10299.0, 10265.0, 10252.0, 10241.0, 10243.0, 10260.0, 10295.0, 10280.0, 10268.0, 10275.0, 10280.0, 10284.0, 10282.0, 10270.0, 10293.0, 10292.0, 10282.0, 10279.0, 10284.0, 10270.0, 10267.0, 10263.0, 10260.0, 10252.0, 10253.0, 10272.0, 10286.0, 10278.0, 10277.0, 10261.0, 10265.0, 10284.0, 10298.0, 10285.0, 10268.0, 10277.0, 10340.0, 10290.0, 10295.0, 10294.0, 10280.0, 10271.0, 10259.0, 10269.0, 10275.0, 10284.0, 10264.0, 10280.0, 10270.0, 10277.0, 10319.0, 10304.0, 10309.0, 10303.0, 10284.0, 10282.0, 10315.0, 10303.0, 10288.0, 10268.0, 10271.0, 10280.0, 10291.0, 10276.0, 10297.0, 10282.0, 10292.0, 10297.0, 10307.0, 10306.0, 10301.0, 10307.0, 10291.0, 10275.0, 10282.0, 10279.0, 10286.0, 10291.0, 10300.0, 10303.0, 10293.0, 10289.0, 10289.0, 10287.0, 10297.0, 10310.0, 10328.0, 10280.0, 10278.0, 10294.0, 10308.0, 10352.0, 10283.0, 10285.0, 10256.0, 10250.0, 10265.0, 10303.0, 10342.0, 10318.0, 10310.0, 10278.0, 10253.0, 10252.0, 10309.0, 10265.0, 10268.0, 10293.0, 10321.0, 10320.0, 10303.0, 10306.0, 10289.0, 10280.0, 10269.0, 10259.0, 10331.0, 10275.0, 10259.0, 10276.0, 10282.0, 10310.0, 10283.0],
      "WindowWidth": [21947.0, 21802.0, 21720.0, 21705.0, 21705.0, 21689.0, 21685.0, 21660.0, 21731.0, 21820.0, 21701.0, 21683.0, 21735.0, 21753.0, 21734.0, 21721.0, 21697.0, 21739.0, 21728.0, 21694.0, 21694.0, 21722.0, 21750.0, 21771.0, 21777.0, 21778.0, 21757.0, 21740.0, 21721.0, 21762.0, 21823.0, 21831.0, 21794.0, 21789.0, 21777.0, 21784.0, 21806.0, 21873.0, 21885.0, 21838.0, 21790.0, 21740.0, 21740.0, 21757.0, 21769.0, 21775.0, 21739.0, 21721.0, 21705.0, 21749.0, 21828.0, 21803.0, 21766.0, 21763.0, 21798.0, 21834.0, 21847.0, 21798.0, 21794.0, 21707.0, 21697.0, 21750.0, 21772.0, 21740.0, 21733.0, 21762.0, 21790.0, 21817.0, 21743.0, 21712.0, 21685.0, 21695.0, 21737.0, 21819.0, 21783.0, 21754.0, 21762.0, 21783.0, 21792.0, 21785.0, 21751.0, 21804.0, 21805.0, 21781.0, 21778.0, 21802.0, 21759.0, 21750.0, 21743.0, 21730.0, 21714.0, 21715.0, 21761.0, 21797.0, 21777.0, 21769.0, 21733.0, 21752.0, 21801.0, 21823.0, 21793.0, 21756.0, 21770.0, 21916.0, 21809.0, 21822.0, 21817.0, 21784.0, 21761.0, 21731.0, 21748.0, 21767.0, 21792.0, 21747.0, 21782.0, 21765.0, 21779.0, 21873.0, 21843.0, 21846.0, 21833.0, 21797.0, 21789.0, 21866.0, 21832.0, 21799.0, 21761.0, 21763.0, 21785.0, 21812.0, 21777.0, 21820.0, 21795.0, 21819.0, 21823.0, 21849.0, 21847.0, 21836.0, 21848.0, 21810.0, 21777.0, 21796.0, 21782.0, 21797.0, 21812.0, 21836.0, 21844.0, 21819.0, 21810.0, 21808.0, 21801.0, 21823.0, 21854.0, 21895.0, 21781.0, 21777.0, 21814.0, 21849.0, 21939.0, 21790.0, 21787.0, 21730.0, 21712.0, 21745.0, 21835.0, 21928.0, 21871.0, 21852.0, 21780.0, 21723.0, 21715.0, 21842.0, 21746.0, 21751.0, 21808.0, 21873.0, 21872.0, 21829.0, 21834.0, 21799.0, 21778.0, 21750.0, 21732.0, 21882.0, 21768.0, 21734.0, 21767.0, 21785.0, 21848.0, 21788.0]
    },
    "slices": {}
  }
}