{
  "AcquisitionMatrixPE": 104,
  "AcquisitionNumber": 1,
  "AcquisitionTime": "14:22:1.140000",
  "BandwidthPerPixelPhaseEncode": 17.17,
  "BaseResolution": 104,
  "BodyPartExamined": "BRAIN",
  "CoilString": "HC1-7;NC1_2",
  "ConsistencyInfo": "N4_VE11C_LATEST_20160120",
  "ConversionSoftware": "dcm2niix",
  "ConversionSoftwareVersion": "v1.0.20190902",
  "DerivedVendorReportedEchoSpacing": 0.000560011,
  "DeviceSerialNumber": "167006",
  "DwellTime": 2.1e-06,
  "EchoTime": 0.037,
  "EchoTrainLength": 104,
  "EffectiveEchoSpacing": 0.000560011,
  "FlipAngle": 52,
  "HeudiconvVersion": "0.10.0",
  "ImageComments": "Unaliased_MB4_PE3_LB",
  "ImageOrientationPatientDICOM": [0.996763, 0.065153, 0.0471097, -0.045437, 0.939875, -0.338482],
  "ImageType": [
    "ORIGINAL",
    "PRIMARY",
    "M",
    "MB",
    "ND",
    "MOSAIC"
],
  "ImagingFrequency": 123.259,
  "InPlanePhaseEncodingDirectionDICOM": "COL",
  "InstitutionAddress": "Chemin_Queen-Mary_4565_Montreal_District_CA_H3W_1W5",
  "InstitutionName": "IUGM",
  "InstitutionalDepartmentName": "Department",
  "MRAcquisitionType": "2D",
  "MagneticFieldStrength": 3,
  "Manufacturer": "Siemens",
  "ManufacturersModelName": "Prisma_fit",
  "Modality": "MR",
  "MultibandAccelerationFactor": 4,
  "PartialFourier": 1,
  "PatientPosition": "HFS",
  "PercentPhaseFOV": 100,
  "PhaseEncodingDirection": "j",
  "PhaseEncodingSteps": 104,
  "PhaseResolution": 1,
  "PixelBandwidth": 2290,
  "ProcedureStepDescription": "memory_things",
  "ProtocolName": "func_task-things_run-6",
  "PulseSequenceDetails": "%CustomerSeq%_cmrr_mbep2d_bold",
  "ReceiveCoilActiveElements": "HC1-7;NC1,2",
  "ReceiveCoilName": "HeadNeck_64",
  "ReconMatrixPE": 104,
  "RepetitionTime": 1.49,
  "SAR": 0.0477861,
  "ScanOptions": "FS",
  "ScanningSequence": "EP",
  "SequenceName": "epfid2d1_104",
  "SequenceVariant": "SK_SS",
  "SeriesDescription": "func_task-things_run-6",
  "SeriesNumber": 25,
  "ShimSetting": [639, -7184, -8820, 628, 106, 19, -52, -10],
  "SliceThickness": 2,
  "SliceTiming": [0, 0.7825, 0.0975, 0.8825, 0.195, 0.98, 0.2925, 1.0775, 0.3925, 1.175, 0.49, 1.2725, 0.5875, 1.37, 0.685, 0, 0.7825, 0.0975, 0.8825, 0.195, 0.98, 0.2925, 1.0775, 0.3925, 1.175, 0.49, 1.2725, 0.5875, 1.37, 0.685, 0, 0.7825, 0.0975, 0.8825, 0.195, 0.98, 0.2925, 1.0775, 0.3925, 1.175, 0.49, 1.2725, 0.5875, 1.37, 0.685, 0, 0.7825, 0.0975, 0.8825, 0.195, 0.98, 0.2925, 1.0775, 0.3925, 1.175, 0.49, 1.2725, 0.5875, 1.37, 0.685],
  "SoftwareVersions": "syngo_MR_E11",
  "SpacingBetweenSlices": 2,
  "StationName": "MRC35049",
  "TaskName": "things",
  "TotalReadoutTime": 0.0576811,
  "TxRefAmp": 269.474,
  "WipMemBlock": "a744dbe3-ff8e-4855-91d6-259b19beb704||Sequence: R016 ve11c/master r/e634e98; Dec 19 2017 11:00:25 by eja",
  "dcmmeta_affine": [
    [-1.9935252666473389, -0.09087403118610382, 0.1326608508825302, 107.69255828857422],
    [-0.13030609488487244, 1.8797502517700195, -0.6704918742179871, -54.45651626586914],
    [0.09421948343515396, 0.676964521408081, 1.8795855045318604, -61.48628616333008],
    [0.0, 0.0, 0.0, 1.0]
],
  "dcmmeta_reorient_transform": [
    [0.0, -1.0, 0.0, 103.0],
    [1.0, 0.0, 0.0, 0.0],
    [0.0, 0.0, 1.0, 0.0],
    [0.0, 0.0, 0.0, 1.0]
],
  "dcmmeta_shape": [104, 104, 60, 190],
  "dcmmeta_slice_dim": 2,
  "dcmmeta_version": 0.6,
  "global": {
    "const": {
      "AcquisitionMatrix": [104, 0, 0, 104],
      "AngioFlag": "N",
      "BitsAllocated": 16,
      "BitsStored": 16,
      "BodyPartExamined": "BRAIN",
      "Columns": 832,
      "EchoNumbers": 1,
      "EchoTime": 37.0,
      "EchoTrainLength": 104,
      "FlipAngle": 52.0,
      "HighBit": 15,
      "ImageOrientationPatient": [0.99676263576522, 0.0651530510922, 0.04710974289634, -0.0454370161968, 0.9398751214251, -0.3384822501776],
      "ImagePositionPatient": [-790.8975853117, -870.81827000925, 220.36024431056],
      "ImageType": [
        "ORIGINAL",
        "PRIMARY",
        "M",
        "MB",
        "ND",
        "MOSAIC"
],
      "ImagedNucleus": "1H",
      "ImagingFrequency": 123.258907,
      "InPlanePhaseEncodingDirection": "COL",
      "MRAcquisitionType": "2D",
      "MagneticFieldStrength": 3.0,
      "Manufacturer": "SIEMENS",
      "ManufacturerModelName": "Prisma_fit",
      "Modality": "MR",
      "NumberOfAverages": 1.0,
      "NumberOfPhaseEncodingSteps": 104,
      "PercentPhaseFieldOfView": 100.0,
      "PercentSampling": 100.0,
      "PerformedProcedureStepStartTime": "131238.484000",
      "PhotometricInterpretation": "MONOCHROME2",
      "PixelBandwidth": 2290.0,
      "PixelRepresentation": 0,
      "PixelSpacing": [2.0, 2.0],
      "ProtocolName": "func_task-things_run-6",
      "RepetitionTime": 1490.0,
      "Rows": 832,
      "SAR": 0.0477860910207,
      "SamplesPerPixel": 1,
      "ScanOptions": "FS",
      "ScanningSequence": "EP",
      "SequenceName": "epfid2d1_104",
      "SequenceVariant": [
        "SK",
        "SS"
],
      "SeriesDescription": "func_task-things_run-6",
      "SeriesNumber": 25,
      "SeriesTime": "142319.246000",
      "SliceLocation": -32.384746747528,
      "SliceThickness": 2.0,
      "SmallestImagePixelValue": 0,
      "SoftwareVersions": "syngo MR E11",
      "SpacingBetweenSlices": 1.9999999725299,
      "SpecificCharacterSet": "ISO_IR 100",
      "StudyID": "1",
      "StudyTime": "131238.261000",
      "TransmitCoilName": "Body",
      "VariableFlipAngleFlag": "N",
      "WindowCenterWidthExplanation": "Algo1",
      "dBdt": 0.0},
    "slices": {}
  },
  "time": {
    "samples": {
      "AcquisitionNumber": [1, 2, 3, 4, 5, 6, 7, 8, 9, 10, 11, 12, 13, 14, 15, 16, 17, 18, 19, 20, 21, 22, 23, 24, 25, 26, 27, 28, 29, 30, 31, 32, 33, 34, 35, 36, 37, 38, 39, 40, 41, 42, 43, 44, 45, 46, 47, 48, 49, 50, 51, 52, 53, 54, 55, 56, 57, 58, 59, 60, 61, 62, 63, 64, 65, 66, 67, 68, 69, 70, 71, 72, 73, 74, 75, 76, 77, 78, 79, 80, 81, 82, 83, 84, 85, 86, 87, 88, 89, 90, 91, 92, 93, 94, 95, 96, 97, 98, 99, 100, 101, 102, 103, 104, 105, 106, 107, 108, 109, 110, 111, 112, 113, 114, 115, 116, 117, 118, 119, 120, 121, 122, 123, 124, 125, 126, 127, 128, 129, 130, 131, 132, 133, 134, 135, 136, 137, 138, 139, 140, 141, 142, 143, 144, 145, 146, 147, 148, 149, 150, 151, 152, 153, 154, 155, 156, 157, 158, 159, 160, 161, 162, 163, 164, 165, 166, 167, 168, 169, 170, 171, 172, 173, 174, 175, 176, 177, 178, 179, 180, 181, 182, 183, 184, 185, 186, 187, 188, 189, 190],
      "AcquisitionTime": ["142201.140000", "142202.630000", "142204.120000", "142205.610000", "142207.100000", "142208.590000", "142210.080000", "142211.570000", "142213.060000", "142214.550000", "142216.040000", "142217.530000", "142219.020000", "142220.510000", "142222.000000", "142223.490000", "142224.980000", "142226.470000", "142227.960000", "142229.450000", "142230.940000", "142232.430000", "142233.920000", "142235.410000", "142236.900000", "142238.390000", "142239.880000", "142241.370000", "142242.860000", "142244.350000", "142245.840000", "142247.330000", "142248.820000", "142250.310000", "142251.800000", "142253.290000", "142254.780000", "142256.270000", "142257.760000", "142259.250000", "142300.740000", "142302.230000", "142303.720000", "142305.210000", "142306.700000", "142308.190000", "142309.680000", "142311.170000", "142312.660000", "142314.150000", "142315.640000", "142317.130000", "142318.620000", "142320.110000", "142321.600000", "142323.090000", "142324.580000", "142326.070000", "142327.560000", "142329.050000", "142330.540000", "142332.030000", "142333.520000", "142335.010000", "142336.500000", "142337.990000", "142339.480000", "142340.970000", "142342.460000", "142343.950000", "142345.440000", "142346.930000", "142348.420000", "142349.910000", "142351.400000", "142352.890000", "142354.380000", "142355.870000", "142357.360000", "142358.850000", "142400.340000", "142401.830000", "142403.320000", "142404.810000", "142406.300000", "142407.790000", "142409.280000", "142410.770000", "142412.260000", "142413.750000", "142415.240000", "142416.730000", "142418.220000", "142419.710000", "142421.200000", "142422.690000", "142424.180000", "142425.670000", "142427.160000", "142428.650000", "142430.140000", "142431.630000", "142433.120000", "142434.610000", "142436.100000", "142437.590000", "142439.080000", "142440.570000", "142442.060000", "142443.550000", "142445.040000", "142446.530000", "142448.020000", "142449.510000", "142451.000000", "142452.490000", "142453.980000", "142455.470000", "142456.960000", "142458.450000", "142459.940000", "142501.430000", "142502.920000", "142504.410000", "142505.900000", "142507.390000", "142508.880000", "142510.370000", "142511.860000", "142513.350000", "142514.840000", "142516.330000", "142517.820000", "142519.310000", "142520.800000", "142522.290000", "142523.780000", "142525.270000", "142526.760000", "142528.250000", "142529.740000", "142531.230000", "142532.720000", "142534.210000", "142535.700000", "142537.190000", "142538.680000", "142540.170000", "142541.660000", "142543.150000", "142544.640000", "142546.130000", "142547.620000", "142549.110000", "142550.600000", "142552.090000", "142553.580000", "142555.070000", "142556.560000", "142558.050000", "142559.540000", "142601.030000", "142602.520000", "142604.010000", "142605.500000", "142606.990000", "142608.480000", "142609.970000", "142611.460000", "142612.950000", "142614.440000", "142615.930000", "142617.420000", "142618.910000", "142620.400000", "142621.890000", "142623.380000", "142624.870000", "142626.360000", "142627.850000", "142629.340000", "142630.830000", "142632.320000", "142633.810000", "142635.300000", "142636.790000", "142638.280000", "142639.770000", "142641.260000", "142642.750000"],
      "ContentTime": ["142319.249000", "142319.253000", "142319.256000", "142319.260000", "142319.263000", "142319.266000", "142319.270000", "142319.273000", "142319.276000", "142319.279000", "142319.283000", "142319.286000", "142319.289000", "142319.293000", "142319.296000", "142319.299000", "142319.303000", "142319.306000", "142319.309000", "142319.312000", "142319.316000", "142319.340000", "142319.343000", "142319.347000", "142319.350000", "142339.213000", "142339.217000", "142339.220000", "142339.223000", "142339.227000", "142339.230000", "142339.233000", "142339.237000", "142339.240000", "142339.243000", "142339.247000", "142339.250000", "142339.253000", "142339.256000", "142339.260000", "142339.263000", "142339.266000", "142339.270000", "142339.273000", "142339.276000", "142359.213000", "142359.217000", "142359.220000", "142359.224000", "142359.227000", "142359.230000", "142359.234000", "142359.237000", "142359.240000", "142359.244000", "142359.247000", "142359.250000", "142359.254000", "142359.257000", "142359.260000", "142359.263000", "142359.267000", "142359.270000", "142359.273000", "142359.277000", "142419.213000", "142419.217000", "142419.220000", "142419.223000", "142419.227000", "142419.230000", "142419.233000", "142419.237000", "142419.240000", "142419.243000", "142419.247000", "142419.250000", "142419.253000", "142419.257000", "142419.260000", "142419.263000", "142419.267000", "142419.270000", "142419.273000", "142419.276000", "142439.213000", "142439.217000", "142439.220000", "142439.223000", "142439.227000", "142439.230000", "142439.233000", "142439.237000", "142439.240000", "142439.243000", "142439.247000", "142439.250000", "142439.253000", "142439.256000", "142439.260000", "142439.263000", "142439.267000", "142439.270000", "142439.273000", "142439.276000", "142459.213000", "142459.217000", "142459.220000", "142459.224000", "142459.227000", "142459.230000", "142459.233000", "142459.237000", "142459.240000", "142459.244000", "142459.247000", "142459.250000", "142459.253000", "142539.213000", "142539.232000", "142539.235000", "142539.239000", "142539.242000", "142539.245000", "142539.249000", "142539.252000", "142539.255000", "142539.259000", "142539.262000", "142539.265000", "142539.269000", "142539.272000", "142539.275000", "142539.278000", "142539.282000", "142539.285000", "142539.288000", "142539.292000", "142539.295000", "142539.298000", "142539.302000", "142539.305000", "142539.308000", "142539.312000", "142539.315000", "142619.213000", "142619.217000", "142619.220000", "142619.224000", "142619.227000", "142619.230000", "142619.234000", "142619.237000", "142619.240000", "142619.244000", "142619.247000", "142619.250000", "142619.254000", "142619.257000", "142619.260000", "142619.264000", "142619.267000", "142619.270000", "142619.274000", "142619.277000", "142619.280000", "142619.284000", "142619.287000", "142619.290000", "142619.294000", "142619.297000", "142619.301000", "142645.169000", "142645.173000", "142645.176000", "142645.179000", "142645.183000", "142645.186000", "142645.189000", "142645.193000", "142645.196000", "142645.199000", "142645.203000", "142645.206000", "142645.209000", "142645.213000", "142645.216000", "142645.219000", "142645.223000", "142645.226000"],
      "InstanceCreationTime": ["142319.249000", "142319.253000", "142319.256000", "142319.260000", "142319.263000", "142319.266000", "142319.270000", "142319.273000", "142319.276000", "142319.279000", "142319.283000", "142319.286000", "142319.289000", "142319.293000", "142319.296000", "142319.299000", "142319.303000", "142319.306000", "142319.309000", "142319.312000", "142319.316000", "142319.340000", "142319.343000", "142319.347000", "142319.350000", "142339.213000", "142339.217000", "142339.220000", "142339.223000", "142339.227000", "142339.230000", "142339.233000", "142339.237000", "142339.240000", "142339.243000", "142339.247000", "142339.250000", "142339.253000", "142339.256000", "142339.260000", "142339.263000", "142339.266000", "142339.270000", "142339.273000", "142339.276000", "142359.213000", "142359.217000", "142359.220000", "142359.224000", "142359.227000", "142359.230000", "142359.234000", "142359.237000", "142359.240000", "142359.244000", "142359.247000", "142359.250000", "142359.254000", "142359.257000", "142359.260000", "142359.263000", "142359.267000", "142359.270000", "142359.273000", "142359.277000", "142419.213000", "142419.217000", "142419.220000", "142419.223000", "142419.227000", "142419.230000", "142419.233000", "142419.237000", "142419.240000", "142419.243000", "142419.247000", "142419.250000", "142419.253000", "142419.257000", "142419.260000", "142419.263000", "142419.267000", "142419.270000", "142419.273000", "142419.276000", "142439.213000", "142439.217000", "142439.220000", "142439.223000", "142439.227000", "142439.230000", "142439.233000", "142439.237000", "142439.240000", "142439.243000", "142439.247000", "142439.250000", "142439.253000", "142439.256000", "142439.260000", "142439.263000", "142439.267000", "142439.270000", "142439.273000", "142439.276000", "142459.213000", "142459.217000", "142459.220000", "142459.224000", "142459.227000", "142459.230000", "142459.233000", "142459.237000", "142459.240000", "142459.244000", "142459.247000", "142459.250000", "142459.253000", "142539.213000", "142539.232000", "142539.235000", "142539.239000", "142539.242000", "142539.245000", "142539.249000", "142539.252000", "142539.255000", "142539.259000", "142539.262000", "142539.265000", "142539.269000", "142539.272000", "142539.275000", "142539.278000", "142539.282000", "142539.285000", "142539.288000", "142539.292000", "142539.295000", "142539.298000", "142539.302000", "142539.305000", "142539.308000", "142539.312000", "142539.315000", "142619.213000", "142619.217000", "142619.220000", "142619.224000", "142619.227000", "142619.230000", "142619.234000", "142619.237000", "142619.240000", "142619.244000", "142619.247000", "142619.250000", "142619.254000", "142619.257000", "142619.260000", "142619.264000", "142619.267000", "142619.270000", "142619.274000", "142619.277000", "142619.280000", "142619.284000", "142619.287000", "142619.290000", "142619.294000", "142619.297000", "142619.301000", "142645.169000", "142645.173000", "142645.176000", "142645.179000", "142645.183000", "142645.186000", "142645.189000", "142645.193000", "142645.196000", "142645.199000", "142645.203000", "142645.206000", "142645.209000", "142645.213000", "142645.216000", "142645.219000", "142645.223000", "142645.226000"],
      "InstanceNumber": [1, 2, 3, 4, 5, 6, 7, 8, 9, 10, 11, 12, 13, 14, 15, 16, 17, 18, 19, 20, 21, 22, 23, 24, 25, 26, 27, 28, 29, 30, 31, 32, 33, 34, 35, 36, 37, 38, 39, 40, 41, 42, 43, 44, 45, 46, 47, 48, 49, 50, 51, 52, 53, 54, 55, 56, 57, 58, 59, 60, 61, 62, 63, 64, 65, 66, 67, 68, 69, 70, 71, 72, 73, 74, 75, 76, 77, 78, 79, 80, 81, 82, 83, 84, 85, 86, 87, 88, 89, 90, 91, 92, 93, 94, 95, 96, 97, 98, 99, 100, 101, 102, 103, 104, 105, 106, 107, 108, 109, 110, 111, 112, 113, 114, 115, 116, 117, 118, 119, 120, 121, 122, 123, 124, 125, 126, 127, 128, 129, 130, 131, 132, 133, 134, 135, 136, 137, 138, 139, 140, 141, 142, 143, 144, 145, 146, 147, 148, 149, 150, 151, 152, 153, 154, 155, 156, 157, 158, 159, 160, 161, 162, 163, 164, 165, 166, 167, 168, 169, 170, 171, 172, 173, 174, 175, 176, 177, 178, 179, 180, 181, 182, 183, 184, 185, 186, 187, 188, 189, 190],
      "LargestImagePixelValue": [41715, 40822, 40372, 41282, 41432, 41126, 40327, 40694, 42395, 40753, 40805, 41691, 42391, 42362, 43592, 44180, 43869, 42105, 41510, 42103, 41088, 42616, 43425, 42428, 42173, 41225, 41058, 42256, 43350, 43363, 41862, 39960, 42270, 41487, 41149, 41597, 44073, 44367, 46022, 45275, 42814, 41898, 41039, 41759, 40939, 42268, 42072, 41539, 42515, 42692, 43699, 43232, 42649, 42387, 42046, 41081, 41794, 41000, 42336, 43180, 43057, 41752, 41676, 42730, 42887, 42829, 42966, 43370, 43296, 43126, 41446, 41559, 41933, 41728, 42222, 42568, 41445, 42357, 41019, 41140, 41536, 47141, 43658, 43815, 42400, 41600, 41734, 40991, 40892, 41278, 41862, 41946, 43974, 44083, 41738, 41364, 41395, 43245, 40159, 42764, 41730, 41875, 42382, 40829, 39687, 40984, 41385, 42935, 40887, 41294, 42338, 41591, 41356, 41243, 41661, 41945, 42457, 42813, 41571, 41617, 41762, 41438, 42435, 44764, 43201, 43773, 41562, 41958, 43066, 42810, 41152, 41693, 41379, 43286, 43915, 42395, 43905, 43518, 45511, 44106, 42051, 41461, 42787, 42172, 43372, 43089, 43431, 43682, 43904, 44385, 43295, 42176, 41179, 41552, 42802, 42217, 42939, 42853, 42589, 43106, 43396, 44414, 43195, 41981, 42431, 43017, 42285, 41853, 43080, 41615, 42361, 42462, 43136, 43014, 40783, 42146, 41320, 42501, 43183, 42695, 41141, 42216, 42701, 43433, 42016, 43026, 42640, 43801, 43881, 42204],
      "WindowCenter": [10365.0, 10307.0, 10280.0, 10296.0, 10289.0, 10275.0, 10252.0, 10259.0, 10309.0, 10319.0, 10334.0, 10313.0, 10291.0, 10278.0, 10295.0, 10322.0, 10317.0, 10298.0, 10284.0, 10296.0, 10277.0, 10290.0, 10303.0, 10301.0, 10306.0, 10296.0, 10294.0, 10288.0, 10294.0, 10313.0, 10326.0, 10318.0, 10339.0, 10302.0, 10271.0, 10251.0, 10266.0, 10273.0, 10300.0, 10306.0, 10284.0, 10272.0, 10247.0, 10237.0, 10231.0, 10267.0, 10289.0, 10289.0, 10283.0, 10262.0, 10256.0, 10267.0, 10277.0, 10291.0, 10295.0, 10283.0, 10295.0, 10275.0, 10274.0, 10269.0, 10284.0, 10287.0, 10297.0, 10292.0, 10271.0, 10267.0, 10279.0, 10295.0, 10304.0, 10299.0, 10280.0, 10288.0, 10278.0, 10268.0, 10289.0, 10320.0, 10325.0, 10314.0, 10275.0, 10261.0, 10266.0, 10322.0, 10294.0, 10301.0, 10285.0, 10279.0, 10269.0, 10244.0, 10217.0, 10236.0, 10262.0, 10275.0, 10299.0, 10299.0, 10278.0, 10279.0, 10271.0, 10278.0, 10260.0, 10299.0, 10298.0, 10305.0, 10305.0, 10279.0, 10241.0, 10233.0, 10235.0, 10264.0, 10276.0, 10297.0, 10292.0, 10265.0, 10248.0, 10254.0, 10281.0, 10296.0, 10293.0, 10281.0, 10267.0, 10281.0, 10303.0, 10290.0, 10281.0, 10297.0, 10267.0, 10274.0, 10258.0, 10266.0, 10278.0, 10273.0, 10265.0, 10278.0, 10254.0, 10254.0, 10261.0, 10280.0, 10317.0, 10314.0, 10333.0, 10300.0, 10285.0, 10271.0, 10278.0, 10290.0, 10319.0, 10331.0, 10321.0, 10317.0, 10306.0, 10315.0, 10312.0, 10316.0, 10323.0, 10318.0, 10320.0, 10302.0, 10301.0, 10291.0, 10299.0, 10324.0, 10328.0, 10331.0, 10319.0, 10321.0, 10327.0, 10313.0, 10292.0, 10299.0, 10312.0, 10287.0, 10289.0, 10298.0, 10316.0, 10323.0, 10300.0, 10300.0, 10287.0, 10316.0, 10330.0, 10328.0, 10318.0, 10304.0, 10279.0, 10269.0, 10268.0, 10310.0, 10326.0, 10339.0, 10314.0, 10286.0],
      "WindowWidth": [22012.0, 21862.0, 21791.0, 21816.0, 21800.0, 21764.0, 21716.0, 21730.0, 21843.0, 21869.0, 21901.0, 21847.0, 21797.0, 21768.0, 21802.0, 21872.0, 21848.0, 21809.0, 21779.0, 21806.0, 21771.0, 21787.0, 21813.0, 21814.0, 21828.0, 21812.0, 21806.0, 21793.0, 21798.0, 21838.0, 21876.0, 21872.0, 21907.0, 21827.0, 21755.0, 21706.0, 21733.0, 21741.0, 21794.0, 21811.0, 21772.0, 21753.0, 21699.0, 21669.0, 21660.0, 21740.0, 21789.0, 21795.0, 21774.0, 21723.0, 21706.0, 21739.0, 21764.0, 21797.0, 21810.0, 21783.0, 21806.0, 21769.0, 21757.0, 21743.0, 21772.0, 21789.0, 21813.0, 21793.0, 21744.0, 21735.0, 21768.0, 21801.0, 21825.0, 21811.0, 21775.0, 21795.0, 21772.0, 21750.0, 21792.0, 21868.0, 21878.0, 21850.0, 21765.0, 21730.0, 21740.0, 21867.0, 21798.0, 21812.0, 21779.0, 21768.0, 21749.0, 21693.0, 21633.0, 21672.0, 21731.0, 21762.0, 21805.0, 21801.0, 21766.0, 21771.0, 21755.0, 21763.0, 21733.0, 21814.0, 21814.0, 21828.0, 21825.0, 21773.0, 21690.0, 21667.0, 21667.0, 21725.0, 21767.0, 21816.0, 21798.0, 21739.0, 21701.0, 21714.0, 21790.0, 21812.0, 21798.0, 21765.0, 21737.0, 21771.0, 21824.0, 21796.0, 21768.0, 21807.0, 21735.0, 21747.0, 21721.0, 21738.0, 21756.0, 21748.0, 21737.0, 21766.0, 21715.0, 21701.0, 21714.0, 21767.0, 21844.0, 21837.0, 21881.0, 21801.0, 21779.0, 21756.0, 21764.0, 21796.0, 21859.0, 21888.0, 21855.0, 21844.0, 21815.0, 21840.0, 21836.0, 21852.0, 21875.0, 21866.0, 21862.0, 21817.0, 21823.0, 21795.0, 21820.0, 21875.0, 21877.0, 21876.0, 21853.0, 21865.0, 21878.0, 21854.0, 21794.0, 21812.0, 21836.0, 21795.0, 21787.0, 21809.0, 21859.0, 21867.0, 21824.0, 21814.0, 21792.0, 21862.0, 21883.0, 21878.0, 21864.0, 21825.0, 21764.0, 21734.0, 21742.0, 21837.0, 21874.0, 21904.0, 21840.0, 21781.0]
    },
    "slices": {}
  }
}