{
  "AcquisitionMatrixPE": 104,
  "AcquisitionNumber": 1,
  "AcquisitionTime": "15:23:38.222500",
  "BandwidthPerPixelPhaseEncode": 17.17,
  "BaseResolution": 104,
  "BodyPartExamined": "BRAIN",
  "CoilString": "HC1-7;NC1_2",
  "ConsistencyInfo": "N4_VE11C_LATEST_20160120",
  "ConversionSoftware": "dcm2niix",
  "ConversionSoftwareVersion": "v1.0.20190902",
  "DerivedVendorReportedEchoSpacing": 0.000560011,
  "DeviceSerialNumber": "167006",
  "DwellTime": 2.1e-06,
  "EchoTime": 0.037,
  "EchoTrainLength": 104,
  "EffectiveEchoSpacing": 0.000560011,
  "FlipAngle": 52,
  "ImageComments": "Unaliased_MB4_PE3_LB",
  "ImageOrientationPatientDICOM": [0.998475, -0.0482636, 0.0268185, 0.0540754, 0.952919, -0.298364],
  "ImageType": [
    "ORIGINAL",
    "PRIMARY",
    "P",
    "MB",
    "ND",
    "MOSAIC"
],
  "ImagingFrequency": 123.259,
  "InPlanePhaseEncodingDirectionDICOM": "COL",
  "InstitutionAddress": "Chemin_Queen-Mary_4565_Montreal_District_CA_H3W_1W5",
  "InstitutionName": "IUGM",
  "InstitutionalDepartmentName": "Department",
  "MRAcquisitionType": "2D",
  "MagneticFieldStrength": 3,
  "Manufacturer": "Siemens",
  "ManufacturersModelName": "Prisma_fit",
  "Modality": "MR",
  "MultibandAccelerationFactor": 4,
  "PartialFourier": 1,
  "PatientPosition": "HFS",
  "PercentPhaseFOV": 100,
  "PhaseEncodingDirection": "j",
  "PhaseEncodingSteps": 104,
  "PhaseResolution": 1,
  "PixelBandwidth": 2290,
  "ProcedureStepDescription": "memory_things",
  "ProtocolName": "func_task-things_run-3",
  "PulseSequenceDetails": "%CustomerSeq%_cmrr_mbep2d_bold",
  "ReceiveCoilActiveElements": "HC1-7;NC1,2",
  "ReceiveCoilName": "HeadNeck_64",
  "ReconMatrixPE": 104,
  "RepetitionTime": 1.49,
  "SAR": 0.0314208,
  "ScanOptions": "FS",
  "ScanningSequence": "EP",
  "SequenceName": "epfid2d1_104",
  "SequenceVariant": "SK_SS",
  "SeriesDescription": "func_task-things_run-3",
  "SeriesNumber": 17,
  "ShimSetting": [628, -7253, -8828, 584, 8, -267, 14, -50],
  "SliceThickness": 2,
  "SliceTiming": [0, 0.785, 0.0975, 0.8825, 0.195, 0.98, 0.295, 1.0775, 0.3925, 1.175, 0.49, 1.275, 0.5875, 1.3725, 0.685, 0, 0.785, 0.0975, 0.8825, 0.195, 0.98, 0.295, 1.0775, 0.3925, 1.175, 0.49, 1.275, 0.5875, 1.3725, 0.685, 0, 0.785, 0.0975, 0.8825, 0.195, 0.98, 0.295, 1.0775, 0.3925, 1.175, 0.49, 1.275, 0.5875, 1.3725, 0.685, 0, 0.785, 0.0975, 0.8825, 0.195, 0.98, 0.295, 1.0775, 0.3925, 1.175, 0.49, 1.275, 0.5875, 1.3725, 0.685],
  "SoftwareVersions": "syngo_MR_E11",
  "SpacingBetweenSlices": 2,
  "StationName": "MRC35049",
  "TaskName": "things",
  "TotalReadoutTime": 0.0576811,
  "TxRefAmp": 222.377,
  "WipMemBlock": "e9401e56-033b-4ff7-854c-7c99a4c37042||Sequence: R016 ve11c/master r/e634e98; Dec 19 2017 11:00:25 by eja",
  "dcmmeta_affine": [
    [-1.9969490766525269, 0.1081508919596672, 0.02231154963374138, 101.47847747802734],
    [0.09652712196111679, 1.9058380126953125, -0.598718523979187, -70.62773132324219],
    [0.0536370687186718, 0.5967283248901367, 1.908150553703308, -66.50906372070312],
    [0.0, 0.0, 0.0, 1.0]
],
  "dcmmeta_reorient_transform": [
    [0.0, -1.0, 0.0, 103.0],
    [1.0, 0.0, 0.0, 0.0],
    [0.0, 0.0, 1.0, 0.0],
    [0.0, 0.0, 0.0, 1.0]
],
  "dcmmeta_shape": [104, 104, 60, 190],
  "dcmmeta_slice_dim": 2,
  "dcmmeta_version": 0.6,
  "global": {
    "const": {
      "AcquisitionMatrix": [104, 0, 0, 104],
      "AngioFlag": "N",
      "BitsAllocated": 16,
      "BitsStored": 16,
      "BodyPartExamined": "BRAIN",
      "Columns": 832,
      "EchoNumbers": 1,
      "EchoTime": 37.0,
      "EchoTrainLength": 104,
      "FlipAngle": 52.0,
      "HighBit": 15,
      "ImageOrientationPatient": [0.99847453391032, -0.048263561471, 0.02681853401474, 0.05407544575715, 0.952919027257, -0.2983641628241],
      "ImagePositionPatient": [-878.87440223998, -784.26276975992, 192.63917041428],
      "ImageType": [
        "ORIGINAL",
        "PRIMARY",
        "P",
        "MB",
        "ND",
        "MOSAIC"
],
      "ImagedNucleus": "1H",
      "ImagingFrequency": 123.258893,
      "InPlanePhaseEncodingDirection": "COL",
      "LargestImagePixelValue": 4095,
      "MRAcquisitionType": "2D",
      "MagneticFieldStrength": 3.0,
      "Manufacturer": "SIEMENS",
      "ManufacturerModelName": "Prisma_fit",
      "Modality": "MR",
      "NumberOfAverages": 1.0,
      "NumberOfPhaseEncodingSteps": 104,
      "PercentPhaseFieldOfView": 100.0,
      "PercentSampling": 100.0,
      "PerformedProcedureStepStartTime": "145410.088000",
      "PhotometricInterpretation": "MONOCHROME2",
      "PixelBandwidth": 2290.0,
      "PixelRepresentation": 0,
      "PixelSpacing": [2.0, 2.0],
      "ProtocolName": "func_task-things_run-3",
      "RepetitionTime": 1490.0,
      "RescaleIntercept": -4096.0,
      "RescaleSlope": 2.0,
      "RescaleType": "US",
      "Rows": 832,
      "SAR": 0.0314208218215,
      "SamplesPerPixel": 1,
      "ScanOptions": "FS",
      "ScanningSequence": "EP",
      "SequenceName": "epfid2d1_104",
      "SequenceVariant": [
        "SK",
        "SS"
],
      "SeriesDescription": "func_task-things_run-3",
      "SeriesNumber": 17,
      "SeriesTime": "152508.291000",
      "SliceLocation": -41.17951866527,
      "SliceThickness": 2.0,
      "SmallestImagePixelValue": 0,
      "SoftwareVersions": "syngo MR E11",
      "SpacingBetweenSlices": 2.0000000388683,
      "SpecificCharacterSet": "ISO_IR 100",
      "StudyID": "1",
      "StudyTime": "145410.017000",
      "TransmitCoilName": "Body",
      "VariableFlipAngleFlag": "N",
      "WindowCenterWidthExplanation": "Algo1",
      "dBdt": 0.0},
    "slices": {}
  },
  "time": {
    "samples": {
      "AcquisitionNumber": [1, 2, 3, 4, 5, 6, 7, 8, 9, 10, 11, 12, 13, 14, 15, 16, 17, 18, 19, 20, 21, 22, 23, 24, 25, 26, 27, 28, 29, 30, 31, 32, 33, 34, 35, 36, 37, 38, 39, 40, 41, 42, 43, 44, 45, 46, 47, 48, 49, 50, 51, 52, 53, 54, 55, 56, 57, 58, 59, 60, 61, 62, 63, 64, 65, 66, 67, 68, 69, 70, 71, 72, 73, 74, 75, 76, 77, 78, 79, 80, 81, 82, 83, 84, 85, 86, 87, 88, 89, 90, 91, 92, 93, 94, 95, 96, 97, 98, 99, 100, 101, 102, 103, 104, 105, 106, 107, 108, 109, 110, 111, 112, 113, 114, 115, 116, 117, 118, 119, 120, 121, 122, 123, 124, 125, 126, 127, 128, 129, 130, 131, 132, 133, 134, 135, 136, 137, 138, 139, 140, 141, 142, 143, 144, 145, 146, 147, 148, 149, 150, 151, 152, 153, 154, 155, 156, 157, 158, 159, 160, 161, 162, 163, 164, 165, 166, 167, 168, 169, 170, 171, 172, 173, 174, 175, 176, 177, 178, 179, 180, 181, 182, 183, 184, 185, 186, 187, 188, 189, 190],
      "AcquisitionTime": ["152338.222500", "152339.712500", "152341.202500", "152342.692500", "152344.182500", "152345.672500", "152347.162500", "152348.652500", "152350.142500", "152351.632500", "152353.122500", "152354.612500", "152356.102500", "152357.592500", "152359.082500", "152400.572500", "152402.062500", "152403.552500", "152405.042500", "152406.532500", "152408.022500", "152409.512500", "152411.002500", "152412.492500", "152413.982500", "152415.472500", "152416.962500", "152418.452500", "152419.942500", "152421.432500", "152422.922500", "152424.412500", "152425.902500", "152427.392500", "152428.882500", "152430.372500", "152431.862500", "152433.352500", "152434.842500", "152436.332500", "152437.822500", "152439.312500", "152440.802500", "152442.292500", "152443.782500", "152445.272500", "152446.762500", "152448.252500", "152449.742500", "152451.232500", "152452.722500", "152454.212500", "152455.702500", "152457.192500", "152458.682500", "152500.172500", "152501.662500", "152503.152500", "152504.642500", "152506.132500", "152507.622500", "152509.112500", "152510.602500", "152512.092500", "152513.582500", "152515.072500", "152516.562500", "152518.052500", "152519.542500", "152521.032500", "152522.522500", "152524.012500", "152525.502500", "152526.992500", "152528.482500", "152529.972500", "152531.462500", "152532.952500", "152534.442500", "152535.932500", "152537.422500", "152538.912500", "152540.402500", "152541.892500", "152543.382500", "152544.872500", "152546.362500", "152547.852500", "152549.342500", "152550.832500", "152552.322500", "152553.812500", "152555.302500", "152556.792500", "152558.282500", "152559.772500", "152601.262500", "152602.752500", "152604.242500", "152605.732500", "152607.222500", "152608.712500", "152610.202500", "152611.692500", "152613.182500", "152614.672500", "152616.162500", "152617.652500", "152619.142500", "152620.632500", "152622.122500", "152623.612500", "152625.102500", "152626.592500", "152628.082500", "152629.572500", "152631.062500", "152632.552500", "152634.042500", "152635.532500", "152637.022500", "152638.512500", "152640.002500", "152641.492500", "152642.982500", "152644.472500", "152645.962500", "152647.452500", "152648.942500", "152650.432500", "152651.922500", "152653.412500", "152654.902500", "152656.392500", "152657.882500", "152659.372500", "152700.862500", "152702.352500", "152703.842500", "152705.332500", "152706.822500", "152708.312500", "152709.802500", "152711.292500", "152712.782500", "152714.272500", "152715.762500", "152717.252500", "152718.742500", "152720.232500", "152721.722500", "152723.212500", "152724.702500", "152726.192500", "152727.682500", "152729.172500", "152730.662500", "152732.152500", "152733.642500", "152735.132500", "152736.622500", "152738.112500", "152739.602500", "152741.092500", "152742.582500", "152744.072500", "152745.562500", "152747.052500", "152748.542500", "152750.032500", "152751.522500", "152753.012500", "152754.502500", "152755.992500", "152757.482500", "152758.972500", "152800.462500", "152801.952500", "152803.442500", "152804.932500", "152806.422500", "152807.912500", "152809.402500", "152810.892500", "152812.382500", "152813.872500", "152815.362500", "152816.852500", "152818.342500", "152819.832500"],
      "ContentTime": ["152508.293000", "152508.296000", "152508.298000", "152508.301000", "152508.303000", "152508.307000", "152508.310000", "152508.312000", "152508.315000", "152508.317000", "152508.320000", "152508.322000", "152508.325000", "152508.328000", "152508.339000", "152508.342000", "152508.344000", "152508.347000", "152508.349000", "152508.352000", "152508.354000", "152508.357000", "152508.359000", "152508.362000", "152508.364000", "152508.366000", "152508.369000", "152508.371000", "152508.374000", "152508.376000", "152508.379000", "152508.381000", "152508.384000", "152508.386000", "152508.389000", "152508.392000", "152508.394000", "152528.164000", "152528.167000", "152528.170000", "152528.172000", "152528.175000", "152528.177000", "152528.180000", "152528.182000", "152528.185000", "152528.187000", "152528.190000", "152528.192000", "152528.195000", "152528.197000", "152528.200000", "152528.202000", "152528.205000", "152528.207000", "152528.210000", "152528.212000", "152528.215000", "152548.158000", "152548.160000", "152548.163000", "152548.165000", "152548.168000", "152548.171000", "152548.173000", "152548.175000", "152548.178000", "152548.180000", "152548.183000", "152548.185000", "152548.188000", "152548.190000", "152548.193000", "152548.195000", "152548.198000", "152548.200000", "152548.203000", "152548.205000", "152608.158000", "152608.160000", "152608.163000", "152608.165000", "152608.168000", "152608.170000", "152608.173000", "152608.175000", "152608.178000", "152608.180000", "152608.183000", "152608.185000", "152608.188000", "152608.190000", "152608.193000", "152608.195000", "152608.198000", "152608.200000", "152608.203000", "152608.205000", "152648.205000", "152648.207000", "152648.210000", "152648.212000", "152648.215000", "152648.218000", "152648.220000", "152648.223000", "152648.225000", "152648.228000", "152648.231000", "152648.233000", "152648.236000", "152648.238000", "152648.241000", "152648.243000", "152648.245000", "152648.248000", "152648.251000", "152648.253000", "152648.256000", "152648.266000", "152648.268000", "152648.271000", "152648.273000", "152648.276000", "152648.278000", "152648.281000", "152728.184000", "152728.187000", "152728.189000", "152728.192000", "152728.194000", "152728.197000", "152728.199000", "152728.202000", "152728.204000", "152728.207000", "152728.209000", "152728.214000", "152728.217000", "152728.219000", "152728.222000", "152728.224000", "152728.227000", "152728.229000", "152728.232000", "152728.234000", "152728.236000", "152728.239000", "152728.242000", "152728.244000", "152728.247000", "152728.249000", "152728.252000", "152808.197000", "152808.200000", "152808.203000", "152808.205000", "152808.208000", "152808.210000", "152808.212000", "152808.215000", "152808.217000", "152808.220000", "152808.223000", "152808.225000", "152808.227000", "152808.230000", "152808.232000", "152808.235000", "152808.238000", "152808.240000", "152808.243000", "152808.245000", "152808.248000", "152808.250000", "152808.253000", "152808.255000", "152808.258000", "152808.260000", "152808.263000", "152822.309000", "152822.312000", "152822.314000", "152822.317000", "152822.319000", "152822.322000", "152822.324000", "152822.327000", "152822.329000", "152822.332000"],
      "InstanceCreationTime": ["152508.293000", "152508.296000", "152508.298000", "152508.301000", "152508.303000", "152508.307000", "152508.310000", "152508.312000", "152508.315000", "152508.317000", "152508.320000", "152508.322000", "152508.325000", "152508.328000", "152508.339000", "152508.342000", "152508.344000", "152508.347000", "152508.349000", "152508.352000", "152508.354000", "152508.357000", "152508.359000", "152508.362000", "152508.364000", "152508.366000", "152508.369000", "152508.371000", "152508.374000", "152508.376000", "152508.379000", "152508.381000", "152508.384000", "152508.386000", "152508.389000", "152508.392000", "152508.394000", "152528.164000", "152528.167000", "152528.170000", "152528.172000", "152528.175000", "152528.177000", "152528.180000", "152528.182000", "152528.185000", "152528.187000", "152528.190000", "152528.192000", "152528.195000", "152528.197000", "152528.200000", "152528.202000", "152528.205000", "152528.207000", "152528.210000", "152528.212000", "152528.215000", "152548.158000", "152548.160000", "152548.163000", "152548.165000", "152548.168000", "152548.171000", "152548.173000", "152548.175000", "152548.178000", "152548.180000", "152548.183000", "152548.185000", "152548.188000", "152548.190000", "152548.193000", "152548.195000", "152548.198000", "152548.200000", "152548.203000", "152548.205000", "152608.158000", "152608.160000", "152608.163000", "152608.165000", "152608.168000", "152608.170000", "152608.173000", "152608.175000", "152608.178000", "152608.180000", "152608.183000", "152608.185000", "152608.188000", "152608.190000", "152608.193000", "152608.195000", "152608.198000", "152608.200000", "152608.203000", "152608.205000", "152648.205000", "152648.207000", "152648.210000", "152648.212000", "152648.215000", "152648.218000", "152648.220000", "152648.223000", "152648.225000", "152648.228000", "152648.231000", "152648.233000", "152648.236000", "152648.238000", "152648.241000", "152648.243000", "152648.245000", "152648.248000", "152648.251000", "152648.253000", "152648.256000", "152648.266000", "152648.268000", "152648.271000", "152648.273000", "152648.276000", "152648.278000", "152648.281000", "152728.184000", "152728.187000", "152728.189000", "152728.192000", "152728.194000", "152728.197000", "152728.199000", "152728.202000", "152728.204000", "152728.207000", "152728.209000", "152728.214000", "152728.217000", "152728.219000", "152728.222000", "152728.224000", "152728.227000", "152728.229000", "152728.232000", "152728.234000", "152728.236000", "152728.239000", "152728.242000", "152728.244000", "152728.247000", "152728.249000", "152728.252000", "152808.197000", "152808.200000", "152808.203000", "152808.205000", "152808.208000", "152808.210000", "152808.212000", "152808.215000", "152808.217000", "152808.220000", "152808.223000", "152808.225000", "152808.227000", "152808.230000", "152808.232000", "152808.235000", "152808.238000", "152808.240000", "152808.243000", "152808.245000", "152808.248000", "152808.250000", "152808.253000", "152808.255000", "152808.258000", "152808.260000", "152808.263000", "152822.309000", "152822.312000", "152822.314000", "152822.317000", "152822.319000", "152822.322000", "152822.324000", "152822.327000", "152822.329000", "152822.332000"],
      "InstanceNumber": [1, 2, 3, 4, 5, 6, 7, 8, 9, 10, 11, 12, 13, 14, 15, 16, 17, 18, 19, 20, 21, 22, 23, 24, 25, 26, 27, 28, 29, 30, 31, 32, 33, 34, 35, 36, 37, 38, 39, 40, 41, 42, 43, 44, 45, 46, 47, 48, 49, 50, 51, 52, 53, 54, 55, 56, 57, 58, 59, 60, 61, 62, 63, 64, 65, 66, 67, 68, 69, 70, 71, 72, 73, 74, 75, 76, 77, 78, 79, 80, 81, 82, 83, 84, 85, 86, 87, 88, 89, 90, 91, 92, 93, 94, 95, 96, 97, 98, 99, 100, 101, 102, 103, 104, 105, 106, 107, 108, 109, 110, 111, 112, 113, 114, 115, 116, 117, 118, 119, 120, 121, 122, 123, 124, 125, 126, 127, 128, 129, 130, 131, 132, 133, 134, 135, 136, 137, 138, 139, 140, 141, 142, 143, 144, 145, 146, 147, 148, 149, 150, 151, 152, 153, 154, 155, 156, 157, 158, 159, 160, 161, 162, 163, 164, 165, 166, 167, 168, 169, 170, 171, 172, 173, 174, 175, 176, 177, 178, 179, 180, 181, 182, 183, 184, 185, 186, 187, 188, 189, 190],
      "WindowCenter": [4902.0, 4840.0, 4836.0, 4866.0, 4870.0, 4878.0, 4882.0, 4860.0, 4860.0, 4880.0, 4860.0, 4802.0, 4868.0, 4878.0, 4880.0, 4904.0, 4902.0, 4902.0, 4878.0, 4898.0, 4862.0, 4872.0, 4874.0, 4882.0, 4884.0, 4884.0, 4880.0, 4880.0, 4874.0, 4804.0, 4794.0, 4894.0, 4866.0, 4912.0, 4860.0, 4886.0, 4886.0, 4884.0, 4902.0, 4868.0, 4864.0, 4832.0, 4772.0, 4832.0, 4898.0, 4886.0, 4886.0, 4906.0, 4910.0, 4898.0, 4866.0, 4858.0, 4864.0, 4890.0, 4870.0, 4826.0, 4806.0, 4806.0, 4888.0, 4858.0, 4882.0, 4884.0, 4908.0, 4856.0, 4826.0, 4822.0, 4798.0, 4804.0, 4864.0, 4868.0, 4908.0, 4904.0, 4910.0, 4900.0, 4894.0, 4830.0, 4822.0, 4824.0, 4828.0, 4830.0, 4836.0, 4864.0, 4898.0, 4894.0, 4860.0, 4830.0, 4802.0, 4834.0, 4910.0, 4906.0, 4906.0, 4892.0, 4860.0, 4828.0, 4800.0, 4800.0, 4828.0, 4834.0, 4864.0, 4868.0, 4874.0, 4874.0, 4866.0, 4858.0, 4830.0, 4824.0, 4804.0, 4826.0, 4836.0, 4872.0, 4874.0, 4866.0, 4834.0, 4828.0, 4832.0, 4828.0, 4824.0, 4830.0, 4830.0, 4860.0, 4864.0, 4868.0, 4866.0, 4864.0, 4834.0, 4802.0, 4824.0, 4830.0, 4860.0, 4864.0, 4866.0, 4866.0, 4826.0, 4792.0, 4832.0, 4874.0, 4880.0, 4910.0, 4898.0, 4836.0, 4826.0, 4802.0, 4798.0, 4800.0, 4858.0, 4900.0, 4874.0, 4868.0, 4832.0, 4836.0, 4834.0, 4838.0, 4866.0, 4868.0, 4830.0, 4822.0, 4830.0, 4802.0, 4826.0, 4830.0, 4836.0, 4836.0, 4834.0, 4834.0, 4836.0, 4870.0, 4876.0, 4826.0, 4798.0, 4802.0, 4800.0, 4828.0, 4860.0, 4832.0, 4830.0, 4864.0, 4866.0, 4862.0, 4826.0, 4800.0, 4800.0, 4826.0, 4830.0, 4868.0, 4864.0, 4862.0, 4836.0, 4836.0, 4828.0, 4802.0],
      "WindowWidth": [18710.0, 18644.0, 18652.0, 18674.0, 18682.0, 18678.0, 18664.0, 18628.0, 18626.0, 18660.0, 18682.0, 18612.0, 18690.0, 18680.0, 18674.0, 18706.0, 18702.0, 18708.0, 18678.0, 18708.0, 18680.0, 18684.0, 18672.0, 18672.0, 18670.0, 18668.0, 18672.0, 18678.0, 18672.0, 18618.0, 18606.0, 18708.0, 18680.0, 18704.0, 18620.0, 18656.0, 18666.0, 18674.0, 18718.0, 18678.0, 18680.0, 18650.0, 18566.0, 18640.0, 18714.0, 18666.0, 18674.0, 18706.0, 18710.0, 18720.0, 18684.0, 18676.0, 18684.0, 18712.0, 18682.0, 18642.0, 18610.0, 18598.0, 18670.0, 18624.0, 18672.0, 18676.0, 18706.0, 18676.0, 18644.0, 18634.0, 18602.0, 18606.0, 18678.0, 18690.0, 18724.0, 18724.0, 18706.0, 18716.0, 18712.0, 18640.0, 18634.0, 18636.0, 18640.0, 18640.0, 18646.0, 18672.0, 18720.0, 18712.0, 18682.0, 18638.0, 18600.0, 18628.0, 18714.0, 18722.0, 18712.0, 18718.0, 18674.0, 18638.0, 18598.0, 18604.0, 18634.0, 18638.0, 18680.0, 18680.0, 18694.0, 18684.0, 18680.0, 18672.0, 18638.0, 18636.0, 18606.0, 18638.0, 18640.0, 18686.0, 18688.0, 18684.0, 18644.0, 18640.0, 18644.0, 18634.0, 18636.0, 18636.0, 18636.0, 18676.0, 18678.0, 18682.0, 18682.0, 18682.0, 18646.0, 18602.0, 18632.0, 18640.0, 18678.0, 18686.0, 18686.0, 18684.0, 18646.0, 18606.0, 18640.0, 18688.0, 18680.0, 18710.0, 18716.0, 18642.0, 18638.0, 18602.0, 18602.0, 18604.0, 18678.0, 18722.0, 18686.0, 18686.0, 18642.0, 18650.0, 18642.0, 18650.0, 18684.0, 18696.0, 18654.0, 18640.0, 18642.0, 18604.0, 18640.0, 18642.0, 18652.0, 18652.0, 18648.0, 18648.0, 18652.0, 18684.0, 18694.0, 18630.0, 18602.0, 18602.0, 18600.0, 18638.0, 18678.0, 18640.0, 18646.0, 18682.0, 18686.0, 18680.0, 18642.0, 18604.0, 18600.0, 18638.0, 18638.0, 18684.0, 18682.0, 18680.0, 18650.0, 18654.0, 18636.0, 18606.0]
    },
    "slices": {}
  }
}