{
  "AcquisitionMatrixPE": 104,
  "AcquisitionNumber": 1,
  "AcquisitionTime": "15:11:1.897500",
  "BandwidthPerPixelPhaseEncode": 17.17,
  "BaseResolution": 104,
  "BodyPartExamined": "BRAIN",
  "CoilString": "HC1-7;NC1_2",
  "ConsistencyInfo": "N4_VE11C_LATEST_20160120",
  "ConversionSoftware": "dcm2niix",
  "ConversionSoftwareVersion": "v1.0.20190902",
  "DerivedVendorReportedEchoSpacing": 0.000560011,
  "DeviceSerialNumber": "167006",
  "DwellTime": 2.1e-06,
  "EchoTime": 0.037,
  "EchoTrainLength": 104,
  "EffectiveEchoSpacing": 0.000560011,
  "FlipAngle": 52,
  "ImageComments": "Unaliased_MB4_PE3_LB",
  "ImageOrientationPatientDICOM": [0.998475, -0.0482636, 0.0268185, 0.0540754, 0.952919, -0.298364],
  "ImageType": [
    "ORIGINAL",
    "PRIMARY",
    "M",
    "MB",
    "ND",
    "MOSAIC"
],
  "ImagingFrequency": 123.259,
  "InPlanePhaseEncodingDirectionDICOM": "COL",
  "InstitutionAddress": "Chemin_Queen-Mary_4565_Montreal_District_CA_H3W_1W5",
  "InstitutionName": "IUGM",
  "InstitutionalDepartmentName": "Department",
  "MRAcquisitionType": "2D",
  "MagneticFieldStrength": 3,
  "Manufacturer": "Siemens",
  "ManufacturersModelName": "Prisma_fit",
  "Modality": "MR",
  "MultibandAccelerationFactor": 4,
  "PartialFourier": 1,
  "PatientPosition": "HFS",
  "PercentPhaseFOV": 100,
  "PhaseEncodingDirection": "j",
  "PhaseEncodingSteps": 104,
  "PhaseResolution": 1,
  "PixelBandwidth": 2290,
  "ProcedureStepDescription": "memory_things",
  "ProtocolName": "func_task-things_run-1",
  "PulseSequenceDetails": "%CustomerSeq%_cmrr_mbep2d_bold",
  "ReceiveCoilActiveElements": "HC1-7;NC1,2",
  "ReceiveCoilName": "HeadNeck_64",
  "ReconMatrixPE": 104,
  "RepetitionTime": 1.49,
  "SAR": 0.0314208,
  "ScanOptions": "FS",
  "ScanningSequence": "EP",
  "SequenceName": "epfid2d1_104",
  "SequenceVariant": "SK_SS",
  "SeriesDescription": "func_task-things_run-1",
  "SeriesNumber": 10,
  "ShimSetting": [628, -7253, -8828, 584, 8, -267, 14, -50],
  "SliceThickness": 2,
  "SliceTiming": [0, 0.7825, 0.0975, 0.8825, 0.195, 0.98, 0.2925, 1.0775, 0.3925, 1.175, 0.49, 1.2725, 0.5875, 1.3725, 0.685, 0, 0.7825, 0.0975, 0.8825, 0.195, 0.98, 0.2925, 1.0775, 0.3925, 1.175, 0.49, 1.2725, 0.5875, 1.3725, 0.685, 0, 0.7825, 0.0975, 0.8825, 0.195, 0.98, 0.2925, 1.0775, 0.3925, 1.175, 0.49, 1.2725, 0.5875, 1.3725, 0.685, 0, 0.7825, 0.0975, 0.8825, 0.195, 0.98, 0.2925, 1.0775, 0.3925, 1.175, 0.49, 1.2725, 0.5875, 1.3725, 0.685],
  "SoftwareVersions": "syngo_MR_E11",
  "SpacingBetweenSlices": 2,
  "StationName": "MRC35049",
  "TaskName": "things",
  "TotalReadoutTime": 0.0576811,
  "TxRefAmp": 222.377,
  "WipMemBlock": "51c853eb-dd67-46d1-b45b-84ca06e9e837||Sequence: R016 ve11c/master r/e634e98; Dec 19 2017 11:00:25 by eja",
  "dcmmeta_affine": [
    [-1.9969490766525269, 0.1081508919596672, 0.02231154963374138, 101.47847747802734],
    [0.09652712196111679, 1.9058380126953125, -0.598718523979187, -70.62773132324219],
    [0.0536370687186718, 0.5967283248901367, 1.908150553703308, -66.50906372070312],
    [0.0, 0.0, 0.0, 1.0]
],
  "dcmmeta_reorient_transform": [
    [0.0, -1.0, 0.0, 103.0],
    [1.0, 0.0, 0.0, 0.0],
    [0.0, 0.0, 1.0, 0.0],
    [0.0, 0.0, 0.0, 1.0]
],
  "dcmmeta_shape": [104, 104, 60, 190],
  "dcmmeta_slice_dim": 2,
  "dcmmeta_version": 0.6,
  "global": {
    "const": {
      "AcquisitionMatrix": [104, 0, 0, 104],
      "AngioFlag": "N",
      "BitsAllocated": 16,
      "BitsStored": 16,
      "BodyPartExamined": "BRAIN",
      "Columns": 832,
      "EchoNumbers": 1,
      "EchoTime": 37.0,
      "EchoTrainLength": 104,
      "FlipAngle": 52.0,
      "HighBit": 15,
      "ImageOrientationPatient": [0.99847453391032, -0.048263561471, 0.02681853401474, 0.05407544575715, 0.952919027257, -0.2983641628241],
      "ImagePositionPatient": [-878.87440223998, -784.26276975992, 192.63917041428],
      "ImageType": [
        "ORIGINAL",
        "PRIMARY",
        "M",
        "MB",
        "ND",
        "MOSAIC"
],
      "ImagedNucleus": "1H",
      "ImagingFrequency": 123.258884,
      "InPlanePhaseEncodingDirection": "COL",
      "MRAcquisitionType": "2D",
      "MagneticFieldStrength": 3.0,
      "Manufacturer": "SIEMENS",
      "ManufacturerModelName": "Prisma_fit",
      "Modality": "MR",
      "NumberOfAverages": 1.0,
      "NumberOfPhaseEncodingSteps": 104,
      "PercentPhaseFieldOfView": 100.0,
      "PercentSampling": 100.0,
      "PerformedProcedureStepStartTime": "145410.088000",
      "PhotometricInterpretation": "MONOCHROME2",
      "PixelBandwidth": 2290.0,
      "PixelRepresentation": 0,
      "PixelSpacing": [2.0, 2.0],
      "ProtocolName": "func_task-things_run-1",
      "RepetitionTime": 1490.0,
      "Rows": 832,
      "SAR": 0.0314208218215,
      "SamplesPerPixel": 1,
      "ScanOptions": "FS",
      "ScanningSequence": "EP",
      "SequenceName": "epfid2d1_104",
      "SequenceVariant": [
        "SK",
        "SS"
],
      "SeriesDescription": "func_task-things_run-1",
      "SeriesNumber": 10,
      "SeriesTime": "151217.634000",
      "SliceLocation": -41.17951866527,
      "SliceThickness": 2.0,
      "SmallestImagePixelValue": 0,
      "SoftwareVersions": "syngo MR E11",
      "SpacingBetweenSlices": 2.0000000388683,
      "SpecificCharacterSet": "ISO_IR 100",
      "StudyID": "1",
      "StudyTime": "145410.017000",
      "TransmitCoilName": "Body",
      "VariableFlipAngleFlag": "N",
      "WindowCenterWidthExplanation": "Algo1",
      "dBdt": 0.0},
    "slices": {}
  },
  "time": {
    "samples": {
      "AcquisitionNumber": [1, 2, 3, 4, 5, 6, 7, 8, 9, 10, 11, 12, 13, 14, 15, 16, 17, 18, 19, 20, 21, 22, 23, 24, 25, 26, 27, 28, 29, 30, 31, 32, 33, 34, 35, 36, 37, 38, 39, 40, 41, 42, 43, 44, 45, 46, 47, 48, 49, 50, 51, 52, 53, 54, 55, 56, 57, 58, 59, 60, 61, 62, 63, 64, 65, 66, 67, 68, 69, 70, 71, 72, 73, 74, 75, 76, 77, 78, 79, 80, 81, 82, 83, 84, 85, 86, 87, 88, 89, 90, 91, 92, 93, 94, 95, 96, 97, 98, 99, 100, 101, 102, 103, 104, 105, 106, 107, 108, 109, 110, 111, 112, 113, 114, 115, 116, 117, 118, 119, 120, 121, 122, 123, 124, 125, 126, 127, 128, 129, 130, 131, 132, 133, 134, 135, 136, 137, 138, 139, 140, 141, 142, 143, 144, 145, 146, 147, 148, 149, 150, 151, 152, 153, 154, 155, 156, 157, 158, 159, 160, 161, 162, 163, 164, 165, 166, 167, 168, 169, 170, 171, 172, 173, 174, 175, 176, 177, 178, 179, 180, 181, 182, 183, 184, 185, 186, 187, 188, 189, 190],
      "AcquisitionTime": ["151101.897500", "151103.387500", "151104.877500", "151106.367500", "151107.857500", "151109.347500", "151110.837500", "151112.327500", "151113.817500", "151115.307500", "151116.797500", "151118.287500", "151119.777500", "151121.267500", "151122.757500", "151124.247500", "151125.737500", "151127.227500", "151128.717500", "151130.207500", "151131.697500", "151133.187500", "151134.677500", "151136.167500", "151137.657500", "151139.147500", "151140.637500", "151142.127500", "151143.617500", "151145.107500", "151146.597500", "151148.087500", "151149.577500", "151151.067500", "151152.557500", "151154.047500", "151155.537500", "151157.027500", "151158.517500", "151200.007500", "151201.497500", "151202.987500", "151204.477500", "151205.967500", "151207.457500", "151208.947500", "151210.437500", "151211.927500", "151213.417500", "151214.907500", "151216.397500", "151217.887500", "151219.377500", "151220.867500", "151222.357500", "151223.847500", "151225.337500", "151226.827500", "151228.317500", "151229.807500", "151231.297500", "151232.787500", "151234.277500", "151235.767500", "151237.257500", "151238.747500", "151240.237500", "151241.727500", "151243.217500", "151244.707500", "151246.197500", "151247.687500", "151249.177500", "151250.667500", "151252.157500", "151253.647500", "151255.137500", "151256.627500", "151258.117500", "151259.607500", "151301.097500", "151302.587500", "151304.077500", "151305.567500", "151307.057500", "151308.547500", "151310.037500", "151311.527500", "151313.017500", "151314.507500", "151315.997500", "151317.487500", "151318.977500", "151320.467500", "151321.957500", "151323.447500", "151324.937500", "151326.427500", "151327.917500", "151329.407500", "151330.897500", "151332.387500", "151333.877500", "151335.367500", "151336.857500", "151338.347500", "151339.837500", "151341.327500", "151342.817500", "151344.307500", "151345.797500", "151347.287500", "151348.777500", "151350.267500", "151351.757500", "151353.247500", "151354.737500", "151356.227500", "151357.717500", "151359.207500", "151400.697500", "151402.187500", "151403.677500", "151405.167500", "151406.657500", "151408.147500", "151409.637500", "151411.127500", "151412.617500", "151414.107500", "151415.597500", "151417.087500", "151418.577500", "151420.067500", "151421.557500", "151423.047500", "151424.537500", "151426.027500", "151427.517500", "151429.007500", "151430.497500", "151431.987500", "151433.477500", "151434.967500", "151436.457500", "151437.947500", "151439.437500", "151440.927500", "151442.417500", "151443.907500", "151445.397500", "151446.887500", "151448.377500", "151449.867500", "151451.357500", "151452.847500", "151454.337500", "151455.827500", "151457.317500", "151458.807500", "151500.297500", "151501.787500", "151503.277500", "151504.767500", "151506.257500", "151507.747500", "151509.237500", "151510.727500", "151512.217500", "151513.707500", "151515.197500", "151516.687500", "151518.177500", "151519.667500", "151521.157500", "151522.647500", "151524.137500", "151525.627500", "151527.117500", "151528.607500", "151530.097500", "151531.587500", "151533.077500", "151534.567500", "151536.057500", "151537.547500", "151539.037500", "151540.527500", "151542.017500", "151543.507500"],
      "ContentTime": ["151217.637000", "151217.641000", "151217.653000", "151217.657000", "151217.660000", "151217.663000", "151217.667000", "151217.670000", "151217.673000", "151217.676000", "151217.680000", "151217.683000", "151217.686000", "151217.699000", "151217.702000", "151217.706000", "151217.709000", "151217.712000", "151217.715000", "151217.719000", "151217.722000", "151237.596000", "151237.600000", "151237.603000", "151237.606000", "151237.610000", "151237.613000", "151237.616000", "151237.619000", "151237.623000", "151237.626000", "151237.629000", "151237.633000", "151237.636000", "151237.639000", "151237.643000", "151237.646000", "151237.649000", "151237.653000", "151237.656000", "151237.659000", "151257.596000", "151257.600000", "151257.603000", "151257.606000", "151257.610000", "151257.613000", "151257.616000", "151257.620000", "151257.623000", "151257.626000", "151257.629000", "151257.633000", "151257.636000", "151257.639000", "151257.643000", "151257.646000", "151257.649000", "151257.652000", "151257.656000", "151257.667000", "151257.670000", "151317.595000", "151317.599000", "151317.602000", "151317.605000", "151317.609000", "151317.612000", "151317.615000", "151317.619000", "151317.622000", "151317.625000", "151317.628000", "151317.632000", "151317.635000", "151317.638000", "151317.642000", "151317.645000", "151317.648000", "151317.651000", "151317.655000", "151317.658000", "151337.596000", "151337.600000", "151337.603000", "151337.606000", "151337.610000", "151337.613000", "151337.616000", "151337.620000", "151337.623000", "151337.626000", "151337.629000", "151337.633000", "151337.636000", "151337.639000", "151337.643000", "151337.646000", "151337.649000", "151337.652000", "151337.656000", "151337.659000", "151417.596000", "151417.600000", "151417.603000", "151417.606000", "151417.617000", "151417.621000", "151417.624000", "151417.627000", "151417.631000", "151417.634000", "151417.637000", "151417.641000", "151417.644000", "151417.648000", "151417.651000", "151417.654000", "151417.658000", "151417.661000", "151417.664000", "151417.668000", "151417.671000", "151417.674000", "151417.678000", "151417.681000", "151417.684000", "151417.688000", "151417.691000", "151417.694000", "151457.596000", "151457.600000", "151457.603000", "151457.607000", "151457.610000", "151457.613000", "151457.617000", "151457.620000", "151457.623000", "151457.627000", "151457.630000", "151457.633000", "151457.637000", "151457.640000", "151457.643000", "151457.647000", "151457.650000", "151457.653000", "151457.656000", "151457.660000", "151457.663000", "151457.666000", "151457.670000", "151457.673000", "151457.676000", "151457.680000", "151457.683000", "151537.595000", "151537.599000", "151537.602000", "151537.606000", "151537.609000", "151537.613000", "151537.617000", "151537.620000", "151537.624000", "151537.627000", "151537.630000", "151537.634000", "151537.637000", "151537.640000", "151537.644000", "151537.647000", "151537.650000", "151537.654000", "151537.657000", "151537.661000", "151537.664000", "151537.667000", "151537.671000", "151537.674000", "151537.677000", "151537.681000", "151537.684000", "151545.710000", "151545.713000", "151545.717000", "151545.720000", "151545.723000", "151545.727000"],
      "InstanceCreationTime": ["151217.637000", "151217.641000", "151217.653000", "151217.657000", "151217.660000", "151217.663000", "151217.667000", "151217.670000", "151217.673000", "151217.676000", "151217.680000", "151217.683000", "151217.686000", "151217.699000", "151217.702000", "151217.706000", "151217.709000", "151217.712000", "151217.715000", "151217.719000", "151217.722000", "151237.596000", "151237.600000", "151237.603000", "151237.606000", "151237.610000", "151237.613000", "151237.616000", "151237.619000", "151237.623000", "151237.626000", "151237.629000", "151237.633000", "151237.636000", "151237.639000", "151237.643000", "151237.646000", "151237.649000", "151237.653000", "151237.656000", "151237.659000", "151257.596000", "151257.600000", "151257.603000", "151257.606000", "151257.610000", "151257.613000", "151257.616000", "151257.620000", "151257.623000", "151257.626000", "151257.629000", "151257.633000", "151257.636000", "151257.639000", "151257.643000", "151257.646000", "151257.649000", "151257.652000", "151257.656000", "151257.667000", "151257.670000", "151317.595000", "151317.599000", "151317.602000", "151317.605000", "151317.609000", "151317.612000", "151317.615000", "151317.619000", "151317.622000", "151317.625000", "151317.628000", "151317.632000", "151317.635000", "151317.638000", "151317.642000", "151317.645000", "151317.648000", "151317.651000", "151317.655000", "151317.658000", "151337.596000", "151337.600000", "151337.603000", "151337.606000", "151337.610000", "151337.613000", "151337.616000", "151337.620000", "151337.623000", "151337.626000", "151337.629000", "151337.633000", "151337.636000", "151337.639000", "151337.643000", "151337.646000", "151337.649000", "151337.652000", "151337.656000", "151337.659000", "151417.596000", "151417.600000", "151417.603000", "151417.606000", "151417.617000", "151417.621000", "151417.624000", "151417.627000", "151417.631000", "151417.634000", "151417.637000", "151417.641000", "151417.644000", "151417.648000", "151417.651000", "151417.654000", "151417.658000", "151417.661000", "151417.664000", "151417.668000", "151417.671000", "151417.674000", "151417.678000", "151417.681000", "151417.684000", "151417.688000", "151417.691000", "151417.694000", "151457.596000", "151457.600000", "151457.603000", "151457.607000", "151457.610000", "151457.613000", "151457.617000", "151457.620000", "151457.623000", "151457.627000", "151457.630000", "151457.633000", "151457.637000", "151457.640000", "151457.643000", "151457.647000", "151457.650000", "151457.653000", "151457.656000", "151457.660000", "151457.663000", "151457.666000", "151457.670000", "151457.673000", "151457.676000", "151457.680000", "151457.683000", "151537.595000", "151537.599000", "151537.602000", "151537.606000", "151537.609000", "151537.613000", "151537.617000", "151537.620000", "151537.624000", "151537.627000", "151537.630000", "151537.634000", "151537.637000", "151537.640000", "151537.644000", "151537.647000", "151537.650000", "151537.654000", "151537.657000", "151537.661000", "151537.664000", "151537.667000", "151537.671000", "151537.674000", "151537.677000", "151537.681000", "151537.684000", "151545.710000", "151545.713000", "151545.717000", "151545.720000", "151545.723000", "151545.727000"],
      "InstanceNumber": [1, 2, 3, 4, 5, 6, 7, 8, 9, 10, 11, 12, 13, 14, 15, 16, 17, 18, 19, 20, 21, 22, 23, 24, 25, 26, 27, 28, 29, 30, 31, 32, 33, 34, 35, 36, 37, 38, 39, 40, 41, 42, 43, 44, 45, 46, 47, 48, 49, 50, 51, 52, 53, 54, 55, 56, 57, 58, 59, 60, 61, 62, 63, 64, 65, 66, 67, 68, 69, 70, 71, 72, 73, 74, 75, 76, 77, 78, 79, 80, 81, 82, 83, 84, 85, 86, 87, 88, 89, 90, 91, 92, 93, 94, 95, 96, 97, 98, 99, 100, 101, 102, 103, 104, 105, 106, 107, 108, 109, 110, 111, 112, 113, 114, 115, 116, 117, 118, 119, 120, 121, 122, 123, 124, 125, 126, 127, 128, 129, 130, 131, 132, 133, 134, 135, 136, 137, 138, 139, 140, 141, 142, 143, 144, 145, 146, 147, 148, 149, 150, 151, 152, 153, 154, 155, 156, 157, 158, 159, 160, 161, 162, 163, 164, 165, 166, 167, 168, 169, 170, 171, 172, 173, 174, 175, 176, 177, 178, 179, 180, 181, 182, 183, 184, 185, 186, 187, 188, 189, 190],
      "LargestImagePixelValue": [44810, 43629, 42002, 41758, 43167, 43141, 41681, 41077, 41632, 41664, 41507, 42111, 41449, 42527, 42282, 42189, 42792, 41613, 41054, 42041, 41303, 40831, 41772, 41639, 42275, 41600, 41693, 42347, 41726, 41659, 42809, 43104, 42190, 41684, 41221, 41232, 41102, 41249, 41797, 42018, 41441, 42325, 41973, 41397, 41640, 42121, 41054, 42125, 42262, 41516, 41541, 41971, 41003, 41234, 42428, 41172, 41013, 41881, 41022, 41024, 41115, 41349, 42261, 41574, 41660, 41280, 41377, 41542, 41147, 41756, 41860, 40759, 43276, 41602, 41720, 40739, 42006, 42442, 41126, 42063, 41587, 41457, 41368, 41423, 41518, 41952, 42639, 42705, 41693, 42543, 41362, 41493, 41595, 41172, 41506, 41447, 41699, 42160, 41195, 41874, 42230, 41492, 41850, 42124, 40956, 42234, 42155, 41476, 42167, 41818, 41316, 43252, 42042, 41286, 41867, 41177, 41187, 41755, 41235, 41590, 42161, 41323, 41754, 42417, 41073, 42251, 41161, 41641, 41366, 41325, 41002, 41716, 41439, 41208, 41303, 41519, 41230, 41420, 41678, 41591, 41260, 41544, 41086, 42811, 41297, 41965, 40867, 41298, 41481, 42315, 41805, 41494, 41541, 41958, 40890, 41562, 40967, 41572, 41768, 42327, 41824, 41107, 41302, 41523, 41476, 42497, 41958, 41145, 41354, 41687, 41586, 40715, 42242, 41355, 40849, 40876, 40919, 41075, 41929, 41635, 41199, 41651, 40797, 41115, 41001, 41293, 40957, 41111, 41497, 41016],
      "WindowCenter": [10529.0, 10462.0, 10391.0, 10366.0, 10392.0, 10388.0, 10370.0, 10363.0, 10366.0, 10368.0, 10384.0, 10367.0, 10355.0, 10362.0, 10368.0, 10379.0, 10397.0, 10383.0, 10373.0, 10367.0, 10360.0, 10355.0, 10363.0, 10366.0, 10376.0, 10375.0, 10376.0, 10372.0, 10358.0, 10358.0, 10397.0, 10405.0, 10371.0, 10355.0, 10342.0, 10340.0, 10329.0, 10326.0, 10330.0, 10346.0, 10349.0, 10355.0, 10356.0, 10357.0, 10364.0, 10387.0, 10369.0, 10376.0, 10370.0, 10367.0, 10367.0, 10370.0, 10367.0, 10373.0, 10383.0, 10365.0, 10357.0, 10363.0, 10359.0, 10360.0, 10360.0, 10365.0, 10370.0, 10365.0, 10364.0, 10358.0, 10365.0, 10372.0, 10361.0, 10364.0, 10375.0, 10361.0, 10386.0, 10396.0, 10382.0, 10349.0, 10347.0, 10350.0, 10346.0, 10353.0, 10355.0, 10371.0, 10388.0, 10371.0, 10348.0, 10346.0, 10349.0, 10358.0, 10362.0, 10371.0, 10358.0, 10355.0, 10346.0, 10346.0, 10346.0, 10346.0, 10353.0, 10359.0, 10344.0, 10353.0, 10358.0, 10354.0, 10352.0, 10351.0, 10342.0, 10355.0, 10347.0, 10339.0, 10341.0, 10338.0, 10346.0, 10369.0, 10353.0, 10333.0, 10329.0, 10318.0, 10329.0, 10323.0, 10322.0, 10328.0, 10335.0, 10331.0, 10337.0, 10350.0, 10349.0, 10360.0, 10351.0, 10341.0, 10333.0, 10338.0, 10342.0, 10347.0, 10342.0, 10337.0, 10342.0, 10353.0, 10349.0, 10347.0, 10347.0, 10355.0, 10359.0, 10366.0, 10362.0, 10367.0, 10348.0, 10367.0, 10361.0, 10367.0, 10381.0, 10373.0, 10335.0, 10311.0, 10307.0, 10320.0, 10326.0, 10332.0, 10328.0, 10333.0, 10346.0, 10352.0, 10340.0, 10328.0, 10326.0, 10338.0, 10346.0, 10352.0, 10335.0, 10320.0, 10324.0, 10325.0, 10337.0, 10336.0, 10344.0, 10333.0, 10322.0, 10311.0, 10316.0, 10317.0, 10328.0, 10325.0, 10332.0, 10333.0, 10328.0, 10334.0, 10327.0, 10334.0, 10335.0, 10341.0, 10347.0, 10344.0],
      "WindowWidth": [22830.0, 22637.0, 22457.0, 22382.0, 22426.0, 22416.0, 22375.0, 22359.0, 22358.0, 22364.0, 22402.0, 22362.0, 22332.0, 22346.0, 22361.0, 22388.0, 22428.0, 22402.0, 22378.0, 22362.0, 22347.0, 22339.0, 22352.0, 22359.0, 22380.0, 22382.0, 22386.0, 22373.0, 22344.0, 22348.0, 22428.0, 22447.0, 22372.0, 22334.0, 22307.0, 22300.0, 22278.0, 22270.0, 22277.0, 22313.0, 22326.0, 22338.0, 22342.0, 22344.0, 22356.0, 22409.0, 22369.0, 22379.0, 22368.0, 22364.0, 22365.0, 22368.0, 22364.0, 22376.0, 22395.0, 22359.0, 22341.0, 22353.0, 22351.0, 22350.0, 22350.0, 22360.0, 22368.0, 22360.0, 22359.0, 22345.0, 22361.0, 22374.0, 22351.0, 22354.0, 22380.0, 22354.0, 22403.0, 22432.0, 22399.0, 22325.0, 22315.0, 22320.0, 22315.0, 22329.0, 22335.0, 22369.0, 22409.0, 22375.0, 22317.0, 22310.0, 22318.0, 22338.0, 22348.0, 22366.0, 22341.0, 22332.0, 22310.0, 22312.0, 22310.0, 22313.0, 22327.0, 22340.0, 22310.0, 22326.0, 22336.0, 22330.0, 22323.0, 22318.0, 22307.0, 22332.0, 22315.0, 22295.0, 22298.0, 22296.0, 22316.0, 22362.0, 22330.0, 22287.0, 22272.0, 22253.0, 22274.0, 22262.0, 22260.0, 22270.0, 22287.0, 22283.0, 22295.0, 22322.0, 22324.0, 22346.0, 22328.0, 22304.0, 22285.0, 22296.0, 22309.0, 22318.0, 22309.0, 22299.0, 22306.0, 22330.0, 22322.0, 22316.0, 22318.0, 22335.0, 22346.0, 22362.0, 22358.0, 22369.0, 22320.0, 22362.0, 22354.0, 22362.0, 22394.0, 22376.0, 22291.0, 22237.0, 22225.0, 22253.0, 22270.0, 22284.0, 22275.0, 22284.0, 22310.0, 22328.0, 22303.0, 22275.0, 22270.0, 22292.0, 22312.0, 22323.0, 22289.0, 22257.0, 22263.0, 22268.0, 22293.0, 22294.0, 22309.0, 22285.0, 22262.0, 22236.0, 22244.0, 22248.0, 22270.0, 22268.0, 22282.0, 22284.0, 22275.0, 22288.0, 22273.0, 22286.0, 22290.0, 22304.0, 22318.0, 22314.0]
    },
    "slices": {}
  }
}