{
  "AcquisitionMatrixPE": 104,
  "AcquisitionNumber": 1,
  "AcquisitionTime": "15:32:14.625000",
  "BandwidthPerPixelPhaseEncode": 17.17,
  "BaseResolution": 104,
  "BodyPartExamined": "BRAIN",
  "CoilString": "HC1-7;NC1_2",
  "ConsistencyInfo": "N4_VE11C_LATEST_20160120",
  "ConversionSoftware": "dcm2niix",
  "ConversionSoftwareVersion": "v1.0.20190902",
  "DerivedVendorReportedEchoSpacing": 0.000560011,
  "DeviceSerialNumber": "167006",
  "DwellTime": 2.1e-06,
  "EchoTime": 0.037,
  "EchoTrainLength": 104,
  "EffectiveEchoSpacing": 0.000560011,
  "FlipAngle": 52,
  "ImageComments": "Unaliased_MB4_PE3_LB",
  "ImageOrientationPatientDICOM": [0.998475, -0.0482636, 0.0268185, 0.0540754, 0.952919, -0.298364],
  "ImageType": [
    "ORIGINAL",
    "PRIMARY",
    "M",
    "MB",
    "ND",
    "MOSAIC"
],
  "ImagingFrequency": 123.259,
  "InPlanePhaseEncodingDirectionDICOM": "COL",
  "InstitutionAddress": "Chemin_Queen-Mary_4565_Montreal_District_CA_H3W_1W5",
  "InstitutionName": "IUGM",
  "InstitutionalDepartmentName": "Department",
  "MRAcquisitionType": "2D",
  "MagneticFieldStrength": 3,
  "Manufacturer": "Siemens",
  "ManufacturersModelName": "Prisma_fit",
  "Modality": "MR",
  "MultibandAccelerationFactor": 4,
  "PartialFourier": 1,
  "PatientPosition": "HFS",
  "PercentPhaseFOV": 100,
  "PhaseEncodingDirection": "j",
  "PhaseEncodingSteps": 104,
  "PhaseResolution": 1,
  "PixelBandwidth": 2290,
  "ProcedureStepDescription": "memory_things",
  "ProtocolName": "func_task-things_run-4",
  "PulseSequenceDetails": "%CustomerSeq%_cmrr_mbep2d_bold",
  "ReceiveCoilActiveElements": "HC1-7;NC1,2",
  "ReceiveCoilName": "HeadNeck_64",
  "ReconMatrixPE": 104,
  "RepetitionTime": 1.49,
  "SAR": 0.0314208,
  "ScanOptions": "FS",
  "ScanningSequence": "EP",
  "SequenceName": "epfid2d1_104",
  "SequenceVariant": "SK_SS",
  "SeriesDescription": "func_task-things_run-4",
  "SeriesNumber": 19,
  "ShimSetting": [628, -7253, -8828, 584, 8, -267, 14, -50],
  "SliceThickness": 2,
  "SliceTiming": [0, 0.7825, 0.0975, 0.8825, 0.195, 0.98, 0.2925, 1.0775, 0.3925, 1.175, 0.49, 1.2725, 0.5875, 1.3725, 0.685, 0, 0.7825, 0.0975, 0.8825, 0.195, 0.98, 0.2925, 1.0775, 0.3925, 1.175, 0.49, 1.2725, 0.5875, 1.3725, 0.685, 0, 0.7825, 0.0975, 0.8825, 0.195, 0.98, 0.2925, 1.0775, 0.3925, 1.175, 0.49, 1.2725, 0.5875, 1.3725, 0.685, 0, 0.7825, 0.0975, 0.8825, 0.195, 0.98, 0.2925, 1.0775, 0.3925, 1.175, 0.49, 1.2725, 0.5875, 1.3725, 0.685],
  "SoftwareVersions": "syngo_MR_E11",
  "SpacingBetweenSlices": 2,
  "StationName": "MRC35049",
  "TaskName": "things",
  "TotalReadoutTime": 0.0576811,
  "TxRefAmp": 222.377,
  "WipMemBlock": "9086bdd5-6ef2-4ea9-a6a5-6517bd9fffe6||Sequence: R016 ve11c/master r/e634e98; Dec 19 2017 11:00:25 by eja",
  "dcmmeta_affine": [
    [-1.9969490766525269, 0.1081508919596672, 0.02231154963374138, 101.47847747802734],
    [0.09652712196111679, 1.9058380126953125, -0.598718523979187, -70.62773132324219],
    [0.0536370687186718, 0.5967283248901367, 1.908150553703308, -66.50906372070312],
    [0.0, 0.0, 0.0, 1.0]
],
  "dcmmeta_reorient_transform": [
    [0.0, -1.0, 0.0, 103.0],
    [1.0, 0.0, 0.0, 0.0],
    [0.0, 0.0, 1.0, 0.0],
    [0.0, 0.0, 0.0, 1.0]
],
  "dcmmeta_shape": [104, 104, 60, 190],
  "dcmmeta_slice_dim": 2,
  "dcmmeta_version": 0.6,
  "global": {
    "const": {
      "AcquisitionMatrix": [104, 0, 0, 104],
      "AngioFlag": "N",
      "BitsAllocated": 16,
      "BitsStored": 16,
      "BodyPartExamined": "BRAIN",
      "Columns": 832,
      "EchoNumbers": 1,
      "EchoTime": 37.0,
      "EchoTrainLength": 104,
      "FlipAngle": 52.0,
      "HighBit": 15,
      "ImageOrientationPatient": [0.99847453391032, -0.048263561471, 0.02681853401474, 0.05407544575715, 0.952919027257, -0.2983641628241],
      "ImagePositionPatient": [-878.87440223998, -784.26276975992, 192.63917041428],
      "ImageType": [
        "ORIGINAL",
        "PRIMARY",
        "M",
        "MB",
        "ND",
        "MOSAIC"
],
      "ImagedNucleus": "1H",
      "ImagingFrequency": 123.258903,
      "InPlanePhaseEncodingDirection": "COL",
      "MRAcquisitionType": "2D",
      "MagneticFieldStrength": 3.0,
      "Manufacturer": "SIEMENS",
      "ManufacturerModelName": "Prisma_fit",
      "Modality": "MR",
      "NumberOfAverages": 1.0,
      "NumberOfPhaseEncodingSteps": 104,
      "PercentPhaseFieldOfView": 100.0,
      "PercentSampling": 100.0,
      "PerformedProcedureStepStartTime": "145410.088000",
      "PhotometricInterpretation": "MONOCHROME2",
      "PixelBandwidth": 2290.0,
      "PixelRepresentation": 0,
      "PixelSpacing": [2.0, 2.0],
      "ProtocolName": "func_task-things_run-4",
      "RepetitionTime": 1490.0,
      "Rows": 832,
      "SAR": 0.0314208218215,
      "SamplesPerPixel": 1,
      "ScanOptions": "FS",
      "ScanningSequence": "EP",
      "SequenceName": "epfid2d1_104",
      "SequenceVariant": [
        "SK",
        "SS"
],
      "SeriesDescription": "func_task-things_run-4",
      "SeriesNumber": 19,
      "SeriesTime": "153337.631000",
      "SliceLocation": -41.17951866527,
      "SliceThickness": 2.0,
      "SmallestImagePixelValue": 0,
      "SoftwareVersions": "syngo MR E11",
      "SpacingBetweenSlices": 2.0000000388683,
      "SpecificCharacterSet": "ISO_IR 100",
      "StudyID": "1",
      "StudyTime": "145410.017000",
      "TransmitCoilName": "Body",
      "VariableFlipAngleFlag": "N",
      "WindowCenterWidthExplanation": "Algo1",
      "dBdt": 0.0},
    "slices": {}
  },
  "time": {
    "samples": {
      "AcquisitionNumber": [1, 2, 3, 4, 5, 6, 7, 8, 9, 10, 11, 12, 13, 14, 15, 16, 17, 18, 19, 20, 21, 22, 23, 24, 25, 26, 27, 28, 29, 30, 31, 32, 33, 34, 35, 36, 37, 38, 39, 40, 41, 42, 43, 44, 45, 46, 47, 48, 49, 50, 51, 52, 53, 54, 55, 56, 57, 58, 59, 60, 61, 62, 63, 64, 65, 66, 67, 68, 69, 70, 71, 72, 73, 74, 75, 76, 77, 78, 79, 80, 81, 82, 83, 84, 85, 86, 87, 88, 89, 90, 91, 92, 93, 94, 95, 96, 97, 98, 99, 100, 101, 102, 103, 104, 105, 106, 107, 108, 109, 110, 111, 112, 113, 114, 115, 116, 117, 118, 119, 120, 121, 122, 123, 124, 125, 126, 127, 128, 129, 130, 131, 132, 133, 134, 135, 136, 137, 138, 139, 140, 141, 142, 143, 144, 145, 146, 147, 148, 149, 150, 151, 152, 153, 154, 155, 156, 157, 158, 159, 160, 161, 162, 163, 164, 165, 166, 167, 168, 169, 170, 171, 172, 173, 174, 175, 176, 177, 178, 179, 180, 181, 182, 183, 184, 185, 186, 187, 188, 189, 190],
      "AcquisitionTime": ["153214.625000", "153216.115000", "153217.605000", "153219.095000", "153220.585000", "153222.075000", "153223.565000", "153225.055000", "153226.545000", "153228.035000", "153229.525000", "153231.015000", "153232.505000", "153233.995000", "153235.485000", "153236.975000", "153238.465000", "153239.955000", "153241.445000", "153242.935000", "153244.425000", "153245.915000", "153247.405000", "153248.895000", "153250.385000", "153251.875000", "153253.365000", "153254.855000", "153256.345000", "153257.835000", "153259.325000", "153300.815000", "153302.305000", "153303.795000", "153305.285000", "153306.775000", "153308.265000", "153309.755000", "153311.245000", "153312.735000", "153314.225000", "153315.715000", "153317.205000", "153318.695000", "153320.185000", "153321.675000", "153323.165000", "153324.655000", "153326.145000", "153327.635000", "153329.125000", "153330.615000", "153332.105000", "153333.595000", "153335.085000", "153336.575000", "153338.065000", "153339.555000", "153341.045000", "153342.535000", "153344.025000", "153345.515000", "153347.005000", "153348.495000", "153349.985000", "153351.475000", "153352.965000", "153354.455000", "153355.945000", "153357.435000", "153358.925000", "153400.415000", "153401.905000", "153403.395000", "153404.885000", "153406.375000", "153407.865000", "153409.355000", "153410.845000", "153412.335000", "153413.825000", "153415.315000", "153416.805000", "153418.295000", "153419.785000", "153421.275000", "153422.765000", "153424.255000", "153425.745000", "153427.235000", "153428.725000", "153430.215000", "153431.705000", "153433.195000", "153434.685000", "153436.175000", "153437.665000", "153439.155000", "153440.645000", "153442.135000", "153443.625000", "153445.115000", "153446.605000", "153448.095000", "153449.585000", "153451.075000", "153452.565000", "153454.055000", "153455.545000", "153457.035000", "153458.525000", "153500.015000", "153501.505000", "153502.995000", "153504.485000", "153505.975000", "153507.465000", "153508.955000", "153510.445000", "153511.935000", "153513.425000", "153514.915000", "153516.405000", "153517.895000", "153519.385000", "153520.875000", "153522.365000", "153523.855000", "153525.345000", "153526.835000", "153528.325000", "153529.815000", "153531.305000", "153532.795000", "153534.285000", "153535.775000", "153537.265000", "153538.755000", "153540.245000", "153541.735000", "153543.225000", "153544.715000", "153546.205000", "153547.695000", "153549.185000", "153550.675000", "153552.165000", "153553.655000", "153555.145000", "153556.635000", "153558.125000", "153559.615000", "153601.105000", "153602.595000", "153604.085000", "153605.575000", "153607.065000", "153608.555000", "153610.045000", "153611.535000", "153613.025000", "153614.515000", "153616.005000", "153617.495000", "153618.985000", "153620.475000", "153621.965000", "153623.455000", "153624.945000", "153626.435000", "153627.925000", "153629.415000", "153630.905000", "153632.395000", "153633.885000", "153635.375000", "153636.865000", "153638.355000", "153639.845000", "153641.335000", "153642.825000", "153644.315000", "153645.805000", "153647.295000", "153648.785000", "153650.275000", "153651.765000", "153653.255000", "153654.745000", "153656.235000"],
      "ContentTime": ["153337.634000", "153337.638000", "153337.641000", "153337.645000", "153337.648000", "153337.651000", "153337.654000", "153337.658000", "153337.661000", "153337.665000", "153337.668000", "153337.671000", "153337.675000", "153337.678000", "153337.681000", "153337.684000", "153337.688000", "153337.691000", "153337.694000", "153337.698000", "153337.706000", "153337.725000", "153337.729000", "153337.732000", "153337.736000", "153337.745000", "153337.749000", "153337.752000", "153337.756000", "153357.597000", "153357.601000", "153357.604000", "153357.607000", "153357.611000", "153357.614000", "153357.617000", "153357.621000", "153357.624000", "153357.627000", "153357.631000", "153357.643000", "153357.646000", "153357.650000", "153357.653000", "153357.656000", "153357.660000", "153357.663000", "153357.666000", "153357.669000", "153417.596000", "153417.600000", "153417.603000", "153417.606000", "153417.610000", "153417.613000", "153417.616000", "153417.620000", "153417.623000", "153417.628000", "153417.631000", "153417.635000", "153417.638000", "153417.641000", "153417.645000", "153417.649000", "153417.652000", "153417.656000", "153417.659000", "153417.663000", "153437.596000", "153437.600000", "153437.603000", "153437.606000", "153437.610000", "153437.613000", "153437.617000", "153437.622000", "153437.627000", "153437.630000", "153437.634000", "153437.637000", "153437.641000", "153437.644000", "153437.647000", "153437.651000", "153437.654000", "153437.657000", "153437.661000", "153437.664000", "153517.596000", "153517.600000", "153517.603000", "153517.607000", "153517.610000", "153517.613000", "153517.636000", "153517.639000", "153517.643000", "153517.646000", "153517.649000", "153517.653000", "153517.656000", "153517.659000", "153517.663000", "153517.666000", "153517.669000", "153517.673000", "153517.676000", "153517.679000", "153517.683000", "153517.686000", "153517.689000", "153517.693000", "153517.696000", "153517.700000", "153517.703000", "153517.706000", "153517.710000", "153517.713000", "153517.716000", "153517.720000", "153517.723000", "153537.596000", "153537.600000", "153537.603000", "153537.606000", "153537.618000", "153537.621000", "153537.624000", "153537.628000", "153537.631000", "153537.634000", "153537.637000", "153537.641000", "153537.644000", "153617.596000", "153617.600000", "153617.603000", "153617.607000", "153617.610000", "153617.613000", "153617.617000", "153617.620000", "153617.623000", "153617.627000", "153617.630000", "153617.633000", "153617.637000", "153617.640000", "153617.643000", "153617.647000", "153617.650000", "153617.653000", "153617.657000", "153617.660000", "153617.663000", "153617.667000", "153617.670000", "153617.673000", "153617.685000", "153617.688000", "153617.692000", "153657.596000", "153657.600000", "153657.603000", "153657.607000", "153657.610000", "153657.613000", "153657.617000", "153657.620000", "153657.623000", "153657.627000", "153657.630000", "153657.633000", "153657.637000", "153657.640000", "153657.644000", "153657.647000", "153657.650000", "153657.654000", "153657.657000", "153657.660000", "153657.664000", "153657.667000", "153657.676000", "153657.679000", "153657.683000", "153657.686000", "153657.689000", "153658.448000"],
      "InstanceCreationTime": ["153337.634000", "153337.638000", "153337.641000", "153337.645000", "153337.648000", "153337.651000", "153337.654000", "153337.658000", "153337.661000", "153337.665000", "153337.668000", "153337.671000", "153337.675000", "153337.678000", "153337.681000", "153337.684000", "153337.688000", "153337.691000", "153337.694000", "153337.698000", "153337.706000", "153337.725000", "153337.729000", "153337.732000", "153337.736000", "153337.745000", "153337.749000", "153337.752000", "153337.756000", "153357.597000", "153357.601000", "153357.604000", "153357.607000", "153357.611000", "153357.614000", "153357.617000", "153357.621000", "153357.624000", "153357.627000", "153357.631000", "153357.643000", "153357.646000", "153357.650000", "153357.653000", "153357.656000", "153357.660000", "153357.663000", "153357.666000", "153357.669000", "153417.596000", "153417.600000", "153417.603000", "153417.606000", "153417.610000", "153417.613000", "153417.616000", "153417.620000", "153417.623000", "153417.628000", "153417.631000", "153417.635000", "153417.638000", "153417.641000", "153417.645000", "153417.649000", "153417.652000", "153417.656000", "153417.659000", "153417.663000", "153437.596000", "153437.600000", "153437.603000", "153437.606000", "153437.610000", "153437.613000", "153437.617000", "153437.622000", "153437.627000", "153437.630000", "153437.634000", "153437.637000", "153437.641000", "153437.644000", "153437.647000", "153437.651000", "153437.654000", "153437.657000", "153437.661000", "153437.664000", "153517.596000", "153517.600000", "153517.603000", "153517.607000", "153517.610000", "153517.613000", "153517.636000", "153517.639000", "153517.643000", "153517.646000", "153517.649000", "153517.653000", "153517.656000", "153517.659000", "153517.663000", "153517.666000", "153517.669000", "153517.673000", "153517.676000", "153517.679000", "153517.683000", "153517.686000", "153517.689000", "153517.693000", "153517.696000", "153517.700000", "153517.703000", "153517.706000", "153517.710000", "153517.713000", "153517.716000", "153517.720000", "153517.723000", "153537.596000", "153537.600000", "153537.603000", "153537.606000", "153537.618000", "153537.621000", "153537.624000", "153537.628000", "153537.631000", "153537.634000", "153537.637000", "153537.641000", "153537.644000", "153617.596000", "153617.600000", "153617.603000", "153617.607000", "153617.610000", "153617.613000", "153617.617000", "153617.620000", "153617.623000", "153617.627000", "153617.630000", "153617.633000", "153617.637000", "153617.640000", "153617.643000", "153617.647000", "153617.650000", "153617.653000", "153617.657000", "153617.660000", "153617.663000", "153617.667000", "153617.670000", "153617.673000", "153617.685000", "153617.688000", "153617.692000", "153657.596000", "153657.600000", "153657.603000", "153657.607000", "153657.610000", "153657.613000", "153657.617000", "153657.620000", "153657.623000", "153657.627000", "153657.630000", "153657.633000", "153657.637000", "153657.640000", "153657.644000", "153657.647000", "153657.650000", "153657.654000", "153657.657000", "153657.660000", "153657.664000", "153657.667000", "153657.676000", "153657.679000", "153657.683000", "153657.686000", "153657.689000", "153658.448000"],
      "InstanceNumber": [1, 2, 3, 4, 5, 6, 7, 8, 9, 10, 11, 12, 13, 14, 15, 16, 17, 18, 19, 20, 21, 22, 23, 24, 25, 26, 27, 28, 29, 30, 31, 32, 33, 34, 35, 36, 37, 38, 39, 40, 41, 42, 43, 44, 45, 46, 47, 48, 49, 50, 51, 52, 53, 54, 55, 56, 57, 58, 59, 60, 61, 62, 63, 64, 65, 66, 67, 68, 69, 70, 71, 72, 73, 74, 75, 76, 77, 78, 79, 80, 81, 82, 83, 84, 85, 86, 87, 88, 89, 90, 91, 92, 93, 94, 95, 96, 97, 98, 99, 100, 101, 102, 103, 104, 105, 106, 107, 108, 109, 110, 111, 112, 113, 114, 115, 116, 117, 118, 119, 120, 121, 122, 123, 124, 125, 126, 127, 128, 129, 130, 131, 132, 133, 134, 135, 136, 137, 138, 139, 140, 141, 142, 143, 144, 145, 146, 147, 148, 149, 150, 151, 152, 153, 154, 155, 156, 157, 158, 159, 160, 161, 162, 163, 164, 165, 166, 167, 168, 169, 170, 171, 172, 173, 174, 175, 176, 177, 178, 179, 180, 181, 182, 183, 184, 185, 186, 187, 188, 189, 190],
      "LargestImagePixelValue": [42993, 41991, 41246, 40808, 40712, 40260, 40713, 40871, 40144, 40553, 40472, 40899, 40704, 40474, 40124, 39697, 40075, 39046, 39666, 40509, 40146, 41211, 40806, 39919, 40079, 39772, 39785, 39584, 39520, 39824, 39988, 39814, 39734, 40759, 41182, 41122, 40776, 40548, 39984, 39934, 40672, 40278, 40451, 40657, 40326, 40361, 39977, 39907, 39658, 40392, 40271, 40178, 40761, 40434, 40592, 40625, 40341, 40663, 40563, 40680, 40354, 39926, 41405, 41790, 41273, 40335, 39729, 40378, 39928, 40070, 39741, 40917, 41117, 41437, 41651, 40286, 40544, 38998, 40936, 39576, 38984, 39553, 39386, 39923, 40707, 39836, 39052, 39757, 39454, 39498, 39369, 39837, 40398, 40180, 39994, 40879, 40126, 40258, 39909, 39476, 40388, 40134, 40117, 39273, 39611, 39833, 40302, 41280, 39787, 39321, 39966, 41237, 39620, 39848, 39858, 40348, 39872, 39818, 39511, 39509, 41505, 41247, 40374, 39715, 39681, 39497, 39635, 40816, 41217, 40490, 40803, 39892, 39984, 38833, 40032, 39361, 39055, 39058, 40358, 39999, 41187, 40625, 41726, 41356, 40693, 39775, 39639, 40349, 41194, 41290, 41066, 40465, 39701, 40355, 39758, 41588, 40689, 42714, 41531, 40423, 40900, 39894, 39839, 39436, 39916, 40528, 39679, 41823, 41671, 40621, 40389, 40671, 41308, 41387, 41287, 41325, 41165, 40782, 41029, 40980, 41970, 41561, 41746, 41238, 41335, 41405, 41407, 41478, 41009, 41306],
      "WindowCenter": [10188.0, 10130.0, 10100.0, 10089.0, 10073.0, 10085.0, 10114.0, 10094.0, 10088.0, 10110.0, 10104.0, 10100.0, 10085.0, 10083.0, 10085.0, 10088.0, 10089.0, 10071.0, 10073.0, 10092.0, 10112.0, 10126.0, 10120.0, 10106.0, 10111.0, 10113.0, 10124.0, 10124.0, 10117.0, 10110.0, 10108.0, 10100.0, 10099.0, 10119.0, 10127.0, 10123.0, 10124.0, 10137.0, 10124.0, 10115.0, 10112.0, 10103.0, 10096.0, 10117.0, 10129.0, 10138.0, 10134.0, 10125.0, 10126.0, 10132.0, 10131.0, 10133.0, 10132.0, 10126.0, 10124.0, 10122.0, 10122.0, 10124.0, 10130.0, 10125.0, 10117.0, 10133.0, 10174.0, 10158.0, 10123.0, 10106.0, 10088.0, 10096.0, 10092.0, 10094.0, 10094.0, 10106.0, 10106.0, 10121.0, 10148.0, 10157.0, 10162.0, 10133.0, 10142.0, 10138.0, 10142.0, 10147.0, 10141.0, 10146.0, 10154.0, 10149.0, 10135.0, 10127.0, 10117.0, 10117.0, 10116.0, 10117.0, 10122.0, 10127.0, 10128.0, 10135.0, 10130.0, 10129.0, 10129.0, 10123.0, 10136.0, 10140.0, 10139.0, 10126.0, 10126.0, 10147.0, 10161.0, 10167.0, 10127.0, 10117.0, 10130.0, 10143.0, 10126.0, 10123.0, 10115.0, 10114.0, 10119.0, 10109.0, 10106.0, 10117.0, 10147.0, 10141.0, 10122.0, 10122.0, 10130.0, 10133.0, 10139.0, 10135.0, 10125.0, 10118.0, 10118.0, 10121.0, 10123.0, 10118.0, 10125.0, 10119.0, 10114.0, 10142.0, 10161.0, 10155.0, 10160.0, 10135.0, 10135.0, 10130.0, 10115.0, 10104.0, 10120.0, 10126.0, 10108.0, 10074.0, 10054.0, 10046.0, 10040.0, 10040.0, 10049.0, 10090.0, 10085.0, 10128.0, 10103.0, 10079.0, 10072.0, 10066.0, 10074.0, 10076.0, 10090.0, 10108.0, 10129.0, 10170.0, 10146.0, 10104.0, 10072.0, 10067.0, 10062.0, 10055.0, 10055.0, 10064.0, 10067.0, 10070.0, 10085.0, 10096.0, 10124.0, 10143.0, 10144.0, 10121.0, 10097.0, 10093.0, 10093.0, 10101.0, 10089.0, 10104.0],
      "WindowWidth": [21967.0, 21794.0, 21706.0, 21668.0, 21630.0, 21650.0, 21711.0, 21662.0, 21649.0, 21696.0, 21686.0, 21672.0, 21641.0, 21635.0, 21640.0, 21647.0, 21648.0, 21614.0, 21614.0, 21654.0, 21707.0, 21737.0, 21724.0, 21693.0, 21700.0, 21708.0, 21731.0, 21734.0, 21719.0, 21703.0, 21698.0, 21680.0, 21679.0, 21722.0, 21740.0, 21728.0, 21725.0, 21759.0, 21732.0, 21714.0, 21702.0, 21683.0, 21669.0, 21713.0, 21744.0, 21767.0, 21756.0, 21736.0, 21741.0, 21750.0, 21751.0, 21757.0, 21756.0, 21744.0, 21735.0, 21728.0, 21730.0, 21734.0, 21747.0, 21738.0, 21723.0, 21761.0, 21849.0, 21812.0, 21736.0, 21695.0, 21657.0, 21669.0, 21664.0, 21668.0, 21670.0, 21693.0, 21697.0, 21728.0, 21788.0, 21812.0, 21829.0, 21764.0, 21777.0, 21771.0, 21783.0, 21791.0, 21781.0, 21789.0, 21806.0, 21799.0, 21769.0, 21750.0, 21729.0, 21726.0, 21724.0, 21725.0, 21733.0, 21743.0, 21745.0, 21761.0, 21754.0, 21750.0, 21749.0, 21736.0, 21763.0, 21775.0, 21774.0, 21748.0, 21748.0, 21793.0, 21824.0, 21834.0, 21748.0, 21722.0, 21752.0, 21779.0, 21743.0, 21736.0, 21719.0, 21718.0, 21724.0, 21708.0, 21698.0, 21728.0, 21789.0, 21776.0, 21735.0, 21736.0, 21751.0, 21757.0, 21769.0, 21756.0, 21737.0, 21721.0, 21723.0, 21730.0, 21738.0, 21725.0, 21740.0, 21729.0, 21720.0, 21780.0, 21821.0, 21807.0, 21813.0, 21759.0, 21756.0, 21746.0, 21709.0, 21691.0, 21724.0, 21739.0, 21694.0, 21615.0, 21571.0, 21554.0, 21543.0, 21542.0, 21564.0, 21657.0, 21647.0, 21739.0, 21676.0, 21627.0, 21611.0, 21597.0, 21613.0, 21618.0, 21649.0, 21686.0, 21737.0, 21822.0, 21782.0, 21685.0, 21613.0, 21596.0, 21581.0, 21564.0, 21565.0, 21584.0, 21597.0, 21604.0, 21639.0, 21665.0, 21724.0, 21771.0, 21769.0, 21719.0, 21665.0, 21650.0, 21652.0, 21671.0, 21648.0, 21678.0]
    },
    "slices": {}
  }
}