{
  "AcquisitionMatrixPE": 104,
  "AcquisitionNumber": 1,
  "AcquisitionTime": "15:38:26.367500",
  "BandwidthPerPixelPhaseEncode": 17.17,
  "BaseResolution": 104,
  "BodyPartExamined": "BRAIN",
  "CoilString": "HC1-7;NC1_2",
  "ConsistencyInfo": "N4_VE11C_LATEST_20160120",
  "ConversionSoftware": "dcm2niix",
  "ConversionSoftwareVersion": "v1.0.20190902",
  "DerivedVendorReportedEchoSpacing": 0.000560011,
  "DeviceSerialNumber": "167006",
  "DwellTime": 2.1e-06,
  "EchoTime": 0.037,
  "EchoTrainLength": 104,
  "EffectiveEchoSpacing": 0.000560011,
  "FlipAngle": 52,
  "ImageComments": "Unaliased_MB4_PE3_LB",
  "ImageOrientationPatientDICOM": [0.998475, -0.0482636, 0.0268185, 0.0540754, 0.952919, -0.298364],
  "ImageType": [
    "ORIGINAL",
    "PRIMARY",
    "P",
    "MB",
    "ND",
    "MOSAIC"
],
  "ImagingFrequency": 123.259,
  "InPlanePhaseEncodingDirectionDICOM": "COL",
  "InstitutionAddress": "Chemin_Queen-Mary_4565_Montreal_District_CA_H3W_1W5",
  "InstitutionName": "IUGM",
  "InstitutionalDepartmentName": "Department",
  "MRAcquisitionType": "2D",
  "MagneticFieldStrength": 3,
  "Manufacturer": "Siemens",
  "ManufacturersModelName": "Prisma_fit",
  "Modality": "MR",
  "MultibandAccelerationFactor": 4,
  "PartialFourier": 1,
  "PatientPosition": "HFS",
  "PercentPhaseFOV": 100,
  "PhaseEncodingDirection": "j",
  "PhaseEncodingSteps": 104,
  "PhaseResolution": 1,
  "PixelBandwidth": 2290,
  "ProcedureStepDescription": "memory_things",
  "ProtocolName": "func_task-things_run-5",
  "PulseSequenceDetails": "%CustomerSeq%_cmrr_mbep2d_bold",
  "ReceiveCoilActiveElements": "HC1-7;NC1,2",
  "ReceiveCoilName": "HeadNeck_64",
  "ReconMatrixPE": 104,
  "RepetitionTime": 1.49,
  "SAR": 0.0314208,
  "ScanOptions": "FS",
  "ScanningSequence": "EP",
  "SequenceName": "epfid2d1_104",
  "SequenceVariant": "SK_SS",
  "SeriesDescription": "func_task-things_run-5",
  "SeriesNumber": 23,
  "ShimSetting": [628, -7253, -8828, 584, 8, -267, 14, -50],
  "SliceThickness": 2,
  "SliceTiming": [0, 0.7825, 0.0975, 0.88, 0.195, 0.98, 0.2925, 1.0775, 0.39, 1.175, 0.49, 1.2725, 0.5875, 1.37, 0.685, 0, 0.7825, 0.0975, 0.88, 0.195, 0.98, 0.2925, 1.0775, 0.39, 1.175, 0.49, 1.2725, 0.5875, 1.37, 0.685, 0, 0.7825, 0.0975, 0.88, 0.195, 0.98, 0.2925, 1.0775, 0.39, 1.175, 0.49, 1.2725, 0.5875, 1.37, 0.685, 0, 0.7825, 0.0975, 0.88, 0.195, 0.98, 0.2925, 1.0775, 0.39, 1.175, 0.49, 1.2725, 0.5875, 1.37, 0.685],
  "SoftwareVersions": "syngo_MR_E11",
  "SpacingBetweenSlices": 2,
  "StationName": "MRC35049",
  "TaskName": "things",
  "TotalReadoutTime": 0.0576811,
  "TxRefAmp": 222.377,
  "WipMemBlock": "17562600-9559-49d7-b0b0-5cc9a5d0d174||Sequence: R016 ve11c/master r/e634e98; Dec 19 2017 11:00:25 by eja",
  "dcmmeta_affine": [
    [-1.9969490766525269, 0.1081508919596672, 0.02231154963374138, 101.47847747802734],
    [0.09652712196111679, 1.9058380126953125, -0.598718523979187, -70.62773132324219],
    [0.0536370687186718, 0.5967283248901367, 1.908150553703308, -66.50906372070312],
    [0.0, 0.0, 0.0, 1.0]
],
  "dcmmeta_reorient_transform": [
    [0.0, -1.0, 0.0, 103.0],
    [1.0, 0.0, 0.0, 0.0],
    [0.0, 0.0, 1.0, 0.0],
    [0.0, 0.0, 0.0, 1.0]
],
  "dcmmeta_shape": [104, 104, 60, 190],
  "dcmmeta_slice_dim": 2,
  "dcmmeta_version": 0.6,
  "global": {
    "const": {
      "AcquisitionMatrix": [104, 0, 0, 104],
      "AngioFlag": "N",
      "BitsAllocated": 16,
      "BitsStored": 16,
      "BodyPartExamined": "BRAIN",
      "Columns": 832,
      "EchoNumbers": 1,
      "EchoTime": 37.0,
      "EchoTrainLength": 104,
      "FlipAngle": 52.0,
      "HighBit": 15,
      "ImageOrientationPatient": [0.99847453391032, -0.048263561471, 0.02681853401474, 0.05407544575715, 0.952919027257, -0.2983641628241],
      "ImagePositionPatient": [-878.87440223998, -784.26276975992, 192.63917041428],
      "ImageType": [
        "ORIGINAL",
        "PRIMARY",
        "P",
        "MB",
        "ND",
        "MOSAIC"
],
      "ImagedNucleus": "1H",
      "ImagingFrequency": 123.258897,
      "InPlanePhaseEncodingDirection": "COL",
      "LargestImagePixelValue": 4095,
      "MRAcquisitionType": "2D",
      "MagneticFieldStrength": 3.0,
      "Manufacturer": "SIEMENS",
      "ManufacturerModelName": "Prisma_fit",
      "Modality": "MR",
      "NumberOfAverages": 1.0,
      "NumberOfPhaseEncodingSteps": 104,
      "PercentPhaseFieldOfView": 100.0,
      "PercentSampling": 100.0,
      "PerformedProcedureStepStartTime": "145410.088000",
      "PhotometricInterpretation": "MONOCHROME2",
      "PixelBandwidth": 2290.0,
      "PixelRepresentation": 0,
      "PixelSpacing": [2.0, 2.0],
      "ProtocolName": "func_task-things_run-5",
      "RepetitionTime": 1490.0,
      "RescaleIntercept": -4096.0,
      "RescaleSlope": 2.0,
      "RescaleType": "US",
      "Rows": 832,
      "SAR": 0.0314208218215,
      "SamplesPerPixel": 1,
      "ScanOptions": "FS",
      "ScanningSequence": "EP",
      "SequenceName": "epfid2d1_104",
      "SequenceVariant": [
        "SK",
        "SS"
],
      "SeriesDescription": "func_task-things_run-5",
      "SeriesNumber": 23,
      "SeriesTime": "153946.695000",
      "SliceLocation": -41.17951866527,
      "SliceThickness": 2.0,
      "SmallestImagePixelValue": 0,
      "SoftwareVersions": "syngo MR E11",
      "SpacingBetweenSlices": 2.0000000388683,
      "SpecificCharacterSet": "ISO_IR 100",
      "StudyID": "1",
      "StudyTime": "145410.017000",
      "TransmitCoilName": "Body",
      "VariableFlipAngleFlag": "N",
      "WindowCenterWidthExplanation": "Algo1",
      "dBdt": 0.0},
    "slices": {}
  },
  "time": {
    "samples": {
      "AcquisitionNumber": [1, 2, 3, 4, 5, 6, 7, 8, 9, 10, 11, 12, 13, 14, 15, 16, 17, 18, 19, 20, 21, 22, 23, 24, 25, 26, 27, 28, 29, 30, 31, 32, 33, 34, 35, 36, 37, 38, 39, 40, 41, 42, 43, 44, 45, 46, 47, 48, 49, 50, 51, 52, 53, 54, 55, 56, 57, 58, 59, 60, 61, 62, 63, 64, 65, 66, 67, 68, 69, 70, 71, 72, 73, 74, 75, 76, 77, 78, 79, 80, 81, 82, 83, 84, 85, 86, 87, 88, 89, 90, 91, 92, 93, 94, 95, 96, 97, 98, 99, 100, 101, 102, 103, 104, 105, 106, 107, 108, 109, 110, 111, 112, 113, 114, 115, 116, 117, 118, 119, 120, 121, 122, 123, 124, 125, 126, 127, 128, 129, 130, 131, 132, 133, 134, 135, 136, 137, 138, 139, 140, 141, 142, 143, 144, 145, 146, 147, 148, 149, 150, 151, 152, 153, 154, 155, 156, 157, 158, 159, 160, 161, 162, 163, 164, 165, 166, 167, 168, 169, 170, 171, 172, 173, 174, 175, 176, 177, 178, 179, 180, 181, 182, 183, 184, 185, 186, 187, 188, 189, 190],
      "AcquisitionTime": ["153826.367500", "153827.857500", "153829.347500", "153830.837500", "153832.327500", "153833.817500", "153835.307500", "153836.797500", "153838.287500", "153839.777500", "153841.267500", "153842.757500", "153844.247500", "153845.737500", "153847.227500", "153848.717500", "153850.207500", "153851.697500", "153853.187500", "153854.677500", "153856.167500", "153857.657500", "153859.147500", "153900.637500", "153902.127500", "153903.617500", "153905.107500", "153906.597500", "153908.087500", "153909.577500", "153911.067500", "153912.557500", "153914.047500", "153915.537500", "153917.027500", "153918.517500", "153920.007500", "153921.497500", "153922.987500", "153924.477500", "153925.967500", "153927.457500", "153928.947500", "153930.437500", "153931.927500", "153933.417500", "153934.907500", "153936.397500", "153937.887500", "153939.377500", "153940.867500", "153942.357500", "153943.847500", "153945.337500", "153946.827500", "153948.317500", "153949.807500", "153951.297500", "153952.787500", "153954.277500", "153955.767500", "153957.257500", "153958.747500", "154000.237500", "154001.727500", "154003.217500", "154004.707500", "154006.197500", "154007.687500", "154009.177500", "154010.667500", "154012.157500", "154013.647500", "154015.137500", "154016.627500", "154018.117500", "154019.607500", "154021.097500", "154022.587500", "154024.077500", "154025.567500", "154027.057500", "154028.547500", "154030.037500", "154031.527500", "154033.017500", "154034.507500", "154035.997500", "154037.487500", "154038.977500", "154040.467500", "154041.957500", "154043.447500", "154044.937500", "154046.427500", "154047.917500", "154049.407500", "154050.897500", "154052.387500", "154053.877500", "154055.367500", "154056.857500", "154058.347500", "154059.837500", "154101.327500", "154102.817500", "154104.307500", "154105.797500", "154107.287500", "154108.777500", "154110.267500", "154111.757500", "154113.247500", "154114.737500", "154116.227500", "154117.717500", "154119.207500", "154120.697500", "154122.187500", "154123.677500", "154125.167500", "154126.657500", "154128.147500", "154129.637500", "154131.127500", "154132.617500", "154134.107500", "154135.597500", "154137.087500", "154138.577500", "154140.067500", "154141.557500", "154143.047500", "154144.537500", "154146.027500", "154147.517500", "154149.007500", "154150.497500", "154151.987500", "154153.477500", "154154.967500", "154156.457500", "154157.947500", "154159.437500", "154200.927500", "154202.417500", "154203.907500", "154205.397500", "154206.887500", "154208.377500", "154209.867500", "154211.357500", "154212.847500", "154214.337500", "154215.827500", "154217.317500", "154218.807500", "154220.297500", "154221.787500", "154223.277500", "154224.767500", "154226.257500", "154227.747500", "154229.237500", "154230.727500", "154232.217500", "154233.707500", "154235.197500", "154236.687500", "154238.177500", "154239.667500", "154241.157500", "154242.647500", "154244.137500", "154245.627500", "154247.117500", "154248.607500", "154250.097500", "154251.587500", "154253.077500", "154254.567500", "154256.057500", "154257.547500", "154259.037500", "154300.527500", "154302.017500", "154303.507500", "154304.997500", "154306.487500", "154307.977500"],
      "ContentTime": ["153946.697000", "153946.700000", "153946.702000", "153946.705000", "153946.714000", "153946.716000", "153946.719000", "153946.721000", "153946.724000", "153946.726000", "153946.728000", "153946.731000", "153946.733000", "153946.736000", "153946.738000", "153946.741000", "153946.743000", "153946.746000", "153946.748000", "153946.751000", "153946.753000", "153946.755000", "153946.764000", "153946.767000", "153946.769000", "154006.647000", "154006.650000", "154006.653000", "154006.655000", "154006.658000", "154006.660000", "154006.663000", "154006.665000", "154006.668000", "154006.670000", "154006.673000", "154006.675000", "154006.678000", "154006.680000", "154006.682000", "154006.685000", "154006.688000", "154006.690000", "154006.693000", "154006.695000", "154006.706000", "154026.647000", "154026.650000", "154026.652000", "154026.655000", "154026.657000", "154026.660000", "154026.662000", "154026.665000", "154026.674000", "154026.677000", "154026.679000", "154026.682000", "154026.684000", "154026.686000", "154026.689000", "154026.691000", "154026.694000", "154026.696000", "154026.699000", "154026.701000", "154046.641000", "154046.643000", "154046.646000", "154046.649000", "154046.651000", "154046.654000", "154046.656000", "154046.658000", "154046.661000", "154046.663000", "154046.666000", "154046.668000", "154046.671000", "154046.673000", "154046.676000", "154046.678000", "154046.681000", "154046.683000", "154046.689000", "154046.692000", "154106.639000", "154106.642000", "154106.645000", "154106.647000", "154106.651000", "154106.654000", "154106.656000", "154106.659000", "154106.661000", "154106.664000", "154106.666000", "154106.669000", "154106.671000", "154106.674000", "154106.676000", "154106.679000", "154106.681000", "154106.684000", "154106.686000", "154106.689000", "154146.670000", "154146.673000", "154146.675000", "154146.678000", "154146.680000", "154146.683000", "154146.685000", "154146.688000", "154146.690000", "154146.693000", "154146.695000", "154146.698000", "154146.700000", "154146.703000", "154146.705000", "154146.708000", "154146.710000", "154146.713000", "154146.715000", "154146.718000", "154146.720000", "154146.729000", "154146.749000", "154146.751000", "154146.754000", "154146.766000", "154146.769000", "154227.124000", "154227.126000", "154227.129000", "154227.131000", "154227.134000", "154227.136000", "154227.139000", "154227.142000", "154227.144000", "154227.147000", "154227.149000", "154227.151000", "154227.154000", "154227.157000", "154227.159000", "154227.162000", "154227.164000", "154227.167000", "154227.169000", "154227.172000", "154227.193000", "154227.196000", "154227.198000", "154227.201000", "154227.203000", "154227.206000", "154227.208000", "154306.675000", "154306.677000", "154306.680000", "154306.682000", "154306.685000", "154306.687000", "154306.690000", "154306.692000", "154306.695000", "154306.697000", "154306.700000", "154306.702000", "154306.705000", "154306.707000", "154306.710000", "154306.712000", "154306.715000", "154306.717000", "154306.720000", "154306.722000", "154306.725000", "154306.728000", "154306.730000", "154306.733000", "154306.735000", "154306.738000", "154306.740000", "154310.527000", "154310.530000", "154310.533000"],
      "InstanceCreationTime": ["153946.697000", "153946.700000", "153946.702000", "153946.705000", "153946.714000", "153946.716000", "153946.719000", "153946.721000", "153946.724000", "153946.726000", "153946.728000", "153946.731000", "153946.733000", "153946.736000", "153946.738000", "153946.741000", "153946.743000", "153946.746000", "153946.748000", "153946.751000", "153946.753000", "153946.755000", "153946.764000", "153946.767000", "153946.769000", "154006.647000", "154006.650000", "154006.653000", "154006.655000", "154006.658000", "154006.660000", "154006.663000", "154006.665000", "154006.668000", "154006.670000", "154006.673000", "154006.675000", "154006.678000", "154006.680000", "154006.682000", "154006.685000", "154006.688000", "154006.690000", "154006.693000", "154006.695000", "154006.706000", "154026.647000", "154026.650000", "154026.652000", "154026.655000", "154026.657000", "154026.660000", "154026.662000", "154026.665000", "154026.674000", "154026.677000", "154026.679000", "154026.682000", "154026.684000", "154026.686000", "154026.689000", "154026.691000", "154026.694000", "154026.696000", "154026.699000", "154026.701000", "154046.641000", "154046.643000", "154046.646000", "154046.649000", "154046.651000", "154046.654000", "154046.656000", "154046.658000", "154046.661000", "154046.663000", "154046.666000", "154046.668000", "154046.671000", "154046.673000", "154046.676000", "154046.678000", "154046.681000", "154046.683000", "154046.689000", "154046.692000", "154106.639000", "154106.642000", "154106.645000", "154106.647000", "154106.651000", "154106.654000", "154106.656000", "154106.659000", "154106.661000", "154106.664000", "154106.666000", "154106.669000", "154106.671000", "154106.674000", "154106.676000", "154106.679000", "154106.681000", "154106.684000", "154106.686000", "154106.689000", "154146.670000", "154146.673000", "154146.675000", "154146.678000", "154146.680000", "154146.683000", "154146.685000", "154146.688000", "154146.690000", "154146.693000", "154146.695000", "154146.698000", "154146.700000", "154146.703000", "154146.705000", "154146.708000", "154146.710000", "154146.713000", "154146.715000", "154146.718000", "154146.720000", "154146.729000", "154146.749000", "154146.751000", "154146.754000", "154146.766000", "154146.769000", "154227.124000", "154227.126000", "154227.129000", "154227.131000", "154227.134000", "154227.136000", "154227.139000", "154227.142000", "154227.144000", "154227.147000", "154227.149000", "154227.151000", "154227.154000", "154227.157000", "154227.159000", "154227.162000", "154227.164000", "154227.167000", "154227.169000", "154227.172000", "154227.193000", "154227.196000", "154227.198000", "154227.201000", "154227.203000", "154227.206000", "154227.208000", "154306.675000", "154306.677000", "154306.680000", "154306.682000", "154306.685000", "154306.687000", "154306.690000", "154306.692000", "154306.695000", "154306.697000", "154306.700000", "154306.702000", "154306.705000", "154306.707000", "154306.710000", "154306.712000", "154306.715000", "154306.717000", "154306.720000", "154306.722000", "154306.725000", "154306.728000", "154306.730000", "154306.733000", "154306.735000", "154306.738000", "154306.740000", "154310.527000", "154310.530000", "154310.533000"],
      "InstanceNumber": [1, 2, 3, 4, 5, 6, 7, 8, 9, 10, 11, 12, 13, 14, 15, 16, 17, 18, 19, 20, 21, 22, 23, 24, 25, 26, 27, 28, 29, 30, 31, 32, 33, 34, 35, 36, 37, 38, 39, 40, 41, 42, 43, 44, 45, 46, 47, 48, 49, 50, 51, 52, 53, 54, 55, 56, 57, 58, 59, 60, 61, 62, 63, 64, 65, 66, 67, 68, 69, 70, 71, 72, 73, 74, 75, 76, 77, 78, 79, 80, 81, 82, 83, 84, 85, 86, 87, 88, 89, 90, 91, 92, 93, 94, 95, 96, 97, 98, 99, 100, 101, 102, 103, 104, 105, 106, 107, 108, 109, 110, 111, 112, 113, 114, 115, 116, 117, 118, 119, 120, 121, 122, 123, 124, 125, 126, 127, 128, 129, 130, 131, 132, 133, 134, 135, 136, 137, 138, 139, 140, 141, 142, 143, 144, 145, 146, 147, 148, 149, 150, 151, 152, 153, 154, 155, 156, 157, 158, 159, 160, 161, 162, 163, 164, 165, 166, 167, 168, 169, 170, 171, 172, 173, 174, 175, 176, 177, 178, 179, 180, 181, 182, 183, 184, 185, 186, 187, 188, 189, 190],
      "WindowCenter": [4832.0, 4802.0, 4830.0, 4800.0, 4834.0, 4838.0, 4838.0, 4776.0, 4774.0, 4808.0, 4840.0, 4864.0, 4804.0, 4796.0, 4836.0, 4836.0, 4804.0, 4798.0, 4774.0, 4776.0, 4800.0, 4804.0, 4808.0, 4834.0, 4800.0, 4800.0, 4832.0, 4808.0, 4806.0, 4806.0, 4808.0, 4798.0, 4802.0, 4796.0, 4804.0, 4836.0, 4834.0, 4830.0, 4832.0, 4832.0, 4804.0, 4796.0, 4778.0, 4774.0, 4774.0, 4832.0, 4840.0, 4804.0, 4804.0, 4836.0, 4834.0, 4832.0, 4800.0, 4802.0, 4796.0, 4774.0, 4800.0, 4802.0, 4830.0, 4836.0, 4804.0, 4804.0, 4800.0, 4800.0, 4804.0, 4804.0, 4804.0, 4836.0, 4842.0, 4834.0, 4776.0, 4774.0, 4774.0, 4774.0, 4832.0, 4796.0, 4798.0, 4802.0, 4800.0, 4832.0, 4806.0, 4802.0, 4798.0, 4776.0, 4798.0, 4774.0, 4776.0, 4800.0, 4806.0, 4774.0, 4778.0, 4806.0, 4830.0, 4840.0, 4802.0, 4804.0, 4796.0, 4810.0, 4808.0, 4802.0, 4870.0, 4868.0, 4868.0, 4834.0, 4810.0, 4778.0, 4772.0, 4778.0, 4776.0, 4776.0, 4834.0, 4864.0, 4870.0, 4802.0, 4806.0, 4804.0, 4774.0, 4798.0, 4798.0, 4800.0, 4800.0, 4804.0, 4810.0, 4830.0, 4810.0, 4798.0, 4776.0, 4802.0, 4806.0, 4830.0, 4836.0, 4834.0, 4802.0, 4778.0, 4774.0, 4774.0, 4798.0, 4774.0, 4778.0, 4836.0, 4868.0, 4872.0, 4866.0, 4832.0, 4802.0, 4774.0, 4776.0, 4798.0, 4806.0, 4804.0, 4830.0, 4834.0, 4866.0, 4830.0, 4834.0, 4804.0, 4776.0, 4802.0, 4798.0, 4804.0, 4804.0, 4834.0, 4806.0, 4810.0, 4836.0, 4806.0, 4810.0, 4776.0, 4808.0, 4802.0, 4830.0, 4802.0, 4810.0, 4806.0, 4808.0, 4812.0, 4808.0, 4778.0, 4774.0, 4804.0, 4802.0, 4842.0, 4846.0, 4830.0, 4806.0, 4800.0, 4806.0, 4832.0, 4832.0, 4830.0],
      "WindowWidth": [18634.0, 18596.0, 18636.0, 18592.0, 18636.0, 18646.0, 18650.0, 18564.0, 18564.0, 18600.0, 18646.0, 18676.0, 18606.0, 18588.0, 18636.0, 18638.0, 18604.0, 18590.0, 18558.0, 18560.0, 18592.0, 18602.0, 18608.0, 18644.0, 18594.0, 18590.0, 18640.0, 18604.0, 18598.0, 18606.0, 18604.0, 18592.0, 18594.0, 18586.0, 18600.0, 18638.0, 18638.0, 18632.0, 18636.0, 18630.0, 18606.0, 18588.0, 18562.0, 18558.0, 18564.0, 18634.0, 18640.0, 18594.0, 18594.0, 18642.0, 18640.0, 18640.0, 18590.0, 18594.0, 18594.0, 18558.0, 18600.0, 18594.0, 18632.0, 18644.0, 18602.0, 18600.0, 18590.0, 18590.0, 18602.0, 18596.0, 18600.0, 18638.0, 18654.0, 18638.0, 18562.0, 18556.0, 18558.0, 18554.0, 18632.0, 18590.0, 18588.0, 18598.0, 18596.0, 18634.0, 18598.0, 18596.0, 18588.0, 18558.0, 18584.0, 18560.0, 18558.0, 18600.0, 18600.0, 18560.0, 18564.0, 18596.0, 18634.0, 18644.0, 18602.0, 18600.0, 18590.0, 18604.0, 18602.0, 18590.0, 18694.0, 18682.0, 18678.0, 18636.0, 18602.0, 18554.0, 18550.0, 18560.0, 18556.0, 18558.0, 18636.0, 18676.0, 18678.0, 18592.0, 18598.0, 18596.0, 18554.0, 18590.0, 18588.0, 18592.0, 18594.0, 18596.0, 18602.0, 18634.0, 18602.0, 18588.0, 18558.0, 18598.0, 18602.0, 18636.0, 18638.0, 18634.0, 18598.0, 18554.0, 18558.0, 18554.0, 18584.0, 18556.0, 18556.0, 18634.0, 18684.0, 18684.0, 18682.0, 18630.0, 18590.0, 18556.0, 18554.0, 18586.0, 18594.0, 18596.0, 18636.0, 18634.0, 18676.0, 18632.0, 18638.0, 18598.0, 18556.0, 18590.0, 18586.0, 18590.0, 18596.0, 18632.0, 18598.0, 18598.0, 18640.0, 18594.0, 18600.0, 18558.0, 18600.0, 18592.0, 18634.0, 18592.0, 18598.0, 18596.0, 18598.0, 18598.0, 18598.0, 18556.0, 18562.0, 18602.0, 18594.0, 18646.0, 18648.0, 18634.0, 18604.0, 18596.0, 18594.0, 18636.0, 18634.0, 18632.0]
    },
    "slices": {}
  }
}