{
  "AcquisitionMatrixPE": 104,
  "AcquisitionNumber": 1,
  "AcquisitionTime": "15:11:1.897500",
  "BandwidthPerPixelPhaseEncode": 17.17,
  "BaseResolution": 104,
  "BodyPartExamined": "BRAIN",
  "CoilString": "HC1-7;NC1_2",
  "ConsistencyInfo": "N4_VE11C_LATEST_20160120",
  "ConversionSoftware": "dcm2niix",
  "ConversionSoftwareVersion": "v1.0.20190902",
  "DerivedVendorReportedEchoSpacing": 0.000560011,
  "DeviceSerialNumber": "167006",
  "DwellTime": 2.1e-06,
  "EchoTime": 0.037,
  "EchoTrainLength": 104,
  "EffectiveEchoSpacing": 0.000560011,
  "FlipAngle": 52,
  "ImageComments": "Unaliased_MB4_PE3_LB",
  "ImageOrientationPatientDICOM": [0.998475, -0.0482636, 0.0268185, 0.0540754, 0.952919, -0.298364],
  "ImageType": [
    "ORIGINAL",
    "PRIMARY",
    "P",
    "MB",
    "ND",
    "MOSAIC"
],
  "ImagingFrequency": 123.259,
  "InPlanePhaseEncodingDirectionDICOM": "COL",
  "InstitutionAddress": "Chemin_Queen-Mary_4565_Montreal_District_CA_H3W_1W5",
  "InstitutionName": "IUGM",
  "InstitutionalDepartmentName": "Department",
  "MRAcquisitionType": "2D",
  "MagneticFieldStrength": 3,
  "Manufacturer": "Siemens",
  "ManufacturersModelName": "Prisma_fit",
  "Modality": "MR",
  "MultibandAccelerationFactor": 4,
  "PartialFourier": 1,
  "PatientPosition": "HFS",
  "PercentPhaseFOV": 100,
  "PhaseEncodingDirection": "j",
  "PhaseEncodingSteps": 104,
  "PhaseResolution": 1,
  "PixelBandwidth": 2290,
  "ProcedureStepDescription": "memory_things",
  "ProtocolName": "func_task-things_run-1",
  "PulseSequenceDetails": "%CustomerSeq%_cmrr_mbep2d_bold",
  "ReceiveCoilActiveElements": "HC1-7;NC1,2",
  "ReceiveCoilName": "HeadNeck_64",
  "ReconMatrixPE": 104,
  "RepetitionTime": 1.49,
  "SAR": 0.0314208,
  "ScanOptions": "FS",
  "ScanningSequence": "EP",
  "SequenceName": "epfid2d1_104",
  "SequenceVariant": "SK_SS",
  "SeriesDescription": "func_task-things_run-1",
  "SeriesNumber": 11,
  "ShimSetting": [628, -7253, -8828, 584, 8, -267, 14, -50],
  "SliceThickness": 2,
  "SliceTiming": [0, 0.7825, 0.0975, 0.8825, 0.195, 0.98, 0.2925, 1.0775, 0.3925, 1.175, 0.49, 1.2725, 0.5875, 1.3725, 0.685, 0, 0.7825, 0.0975, 0.8825, 0.195, 0.98, 0.2925, 1.0775, 0.3925, 1.175, 0.49, 1.2725, 0.5875, 1.3725, 0.685, 0, 0.7825, 0.0975, 0.8825, 0.195, 0.98, 0.2925, 1.0775, 0.3925, 1.175, 0.49, 1.2725, 0.5875, 1.3725, 0.685, 0, 0.7825, 0.0975, 0.8825, 0.195, 0.98, 0.2925, 1.0775, 0.3925, 1.175, 0.49, 1.2725, 0.5875, 1.3725, 0.685],
  "SoftwareVersions": "syngo_MR_E11",
  "SpacingBetweenSlices": 2,
  "StationName": "MRC35049",
  "TaskName": "things",
  "TotalReadoutTime": 0.0576811,
  "TxRefAmp": 222.377,
  "WipMemBlock": "51c853eb-dd67-46d1-b45b-84ca06e9e837||Sequence: R016 ve11c/master r/e634e98; Dec 19 2017 11:00:25 by eja",
  "dcmmeta_affine": [
    [-1.9969490766525269, 0.1081508919596672, 0.02231154963374138, 101.47847747802734],
    [0.09652712196111679, 1.9058380126953125, -0.598718523979187, -70.62773132324219],
    [0.0536370687186718, 0.5967283248901367, 1.908150553703308, -66.50906372070312],
    [0.0, 0.0, 0.0, 1.0]
],
  "dcmmeta_reorient_transform": [
    [0.0, -1.0, 0.0, 103.0],
    [1.0, 0.0, 0.0, 0.0],
    [0.0, 0.0, 1.0, 0.0],
    [0.0, 0.0, 0.0, 1.0]
],
  "dcmmeta_shape": [104, 104, 60, 190],
  "dcmmeta_slice_dim": 2,
  "dcmmeta_version": 0.6,
  "global": {
    "const": {
      "AcquisitionMatrix": [104, 0, 0, 104],
      "AngioFlag": "N",
      "BitsAllocated": 16,
      "BitsStored": 16,
      "BodyPartExamined": "BRAIN",
      "Columns": 832,
      "EchoNumbers": 1,
      "EchoTime": 37.0,
      "EchoTrainLength": 104,
      "FlipAngle": 52.0,
      "HighBit": 15,
      "ImageOrientationPatient": [0.99847453391032, -0.048263561471, 0.02681853401474, 0.05407544575715, 0.952919027257, -0.2983641628241],
      "ImagePositionPatient": [-878.87440223998, -784.26276975992, 192.63917041428],
      "ImageType": [
        "ORIGINAL",
        "PRIMARY",
        "P",
        "MB",
        "ND",
        "MOSAIC"
],
      "ImagedNucleus": "1H",
      "ImagingFrequency": 123.258884,
      "InPlanePhaseEncodingDirection": "COL",
      "LargestImagePixelValue": 4095,
      "MRAcquisitionType": "2D",
      "MagneticFieldStrength": 3.0,
      "Manufacturer": "SIEMENS",
      "ManufacturerModelName": "Prisma_fit",
      "Modality": "MR",
      "NumberOfAverages": 1.0,
      "NumberOfPhaseEncodingSteps": 104,
      "PercentPhaseFieldOfView": 100.0,
      "PercentSampling": 100.0,
      "PerformedProcedureStepStartTime": "145410.088000",
      "PhotometricInterpretation": "MONOCHROME2",
      "PixelBandwidth": 2290.0,
      "PixelRepresentation": 0,
      "PixelSpacing": [2.0, 2.0],
      "ProtocolName": "func_task-things_run-1",
      "RepetitionTime": 1490.0,
      "RescaleIntercept": -4096.0,
      "RescaleSlope": 2.0,
      "RescaleType": "US",
      "Rows": 832,
      "SAR": 0.0314208218215,
      "SamplesPerPixel": 1,
      "ScanOptions": "FS",
      "ScanningSequence": "EP",
      "SequenceName": "epfid2d1_104",
      "SequenceVariant": [
        "SK",
        "SS"
],
      "SeriesDescription": "func_task-things_run-1",
      "SeriesNumber": 11,
      "SeriesTime": "151217.768000",
      "SliceLocation": -41.17951866527,
      "SliceThickness": 2.0,
      "SmallestImagePixelValue": 0,
      "SoftwareVersions": "syngo MR E11",
      "SpacingBetweenSlices": 2.0000000388683,
      "SpecificCharacterSet": "ISO_IR 100",
      "StudyID": "1",
      "StudyTime": "145410.017000",
      "TransmitCoilName": "Body",
      "VariableFlipAngleFlag": "N",
      "WindowCenterWidthExplanation": "Algo1",
      "dBdt": 0.0},
    "slices": {}
  },
  "time": {
    "samples": {
      "AcquisitionNumber": [1, 2, 3, 4, 5, 6, 7, 8, 9, 10, 11, 12, 13, 14, 15, 16, 17, 18, 19, 20, 21, 22, 23, 24, 25, 26, 27, 28, 29, 30, 31, 32, 33, 34, 35, 36, 37, 38, 39, 40, 41, 42, 43, 44, 45, 46, 47, 48, 49, 50, 51, 52, 53, 54, 55, 56, 57, 58, 59, 60, 61, 62, 63, 64, 65, 66, 67, 68, 69, 70, 71, 72, 73, 74, 75, 76, 77, 78, 79, 80, 81, 82, 83, 84, 85, 86, 87, 88, 89, 90, 91, 92, 93, 94, 95, 96, 97, 98, 99, 100, 101, 102, 103, 104, 105, 106, 107, 108, 109, 110, 111, 112, 113, 114, 115, 116, 117, 118, 119, 120, 121, 122, 123, 124, 125, 126, 127, 128, 129, 130, 131, 132, 133, 134, 135, 136, 137, 138, 139, 140, 141, 142, 143, 144, 145, 146, 147, 148, 149, 150, 151, 152, 153, 154, 155, 156, 157, 158, 159, 160, 161, 162, 163, 164, 165, 166, 167, 168, 169, 170, 171, 172, 173, 174, 175, 176, 177, 178, 179, 180, 181, 182, 183, 184, 185, 186, 187, 188, 189, 190],
      "AcquisitionTime": ["151101.897500", "151103.387500", "151104.877500", "151106.367500", "151107.857500", "151109.347500", "151110.837500", "151112.327500", "151113.817500", "151115.307500", "151116.797500", "151118.287500", "151119.777500", "151121.267500", "151122.757500", "151124.247500", "151125.737500", "151127.227500", "151128.717500", "151130.207500", "151131.697500", "151133.187500", "151134.677500", "151136.167500", "151137.657500", "151139.147500", "151140.637500", "151142.127500", "151143.617500", "151145.107500", "151146.597500", "151148.087500", "151149.577500", "151151.067500", "151152.557500", "151154.047500", "151155.537500", "151157.027500", "151158.517500", "151200.007500", "151201.497500", "151202.987500", "151204.477500", "151205.967500", "151207.457500", "151208.947500", "151210.437500", "151211.927500", "151213.417500", "151214.907500", "151216.397500", "151217.887500", "151219.377500", "151220.867500", "151222.357500", "151223.847500", "151225.337500", "151226.827500", "151228.317500", "151229.807500", "151231.297500", "151232.787500", "151234.277500", "151235.767500", "151237.257500", "151238.747500", "151240.237500", "151241.727500", "151243.217500", "151244.707500", "151246.197500", "151247.687500", "151249.177500", "151250.667500", "151252.157500", "151253.647500", "151255.137500", "151256.627500", "151258.117500", "151259.607500", "151301.097500", "151302.587500", "151304.077500", "151305.567500", "151307.057500", "151308.547500", "151310.037500", "151311.527500", "151313.017500", "151314.507500", "151315.997500", "151317.487500", "151318.977500", "151320.467500", "151321.957500", "151323.447500", "151324.937500", "151326.427500", "151327.917500", "151329.407500", "151330.897500", "151332.387500", "151333.877500", "151335.367500", "151336.857500", "151338.347500", "151339.837500", "151341.327500", "151342.817500", "151344.307500", "151345.797500", "151347.287500", "151348.777500", "151350.267500", "151351.757500", "151353.247500", "151354.737500", "151356.227500", "151357.717500", "151359.207500", "151400.697500", "151402.187500", "151403.677500", "151405.167500", "151406.657500", "151408.147500", "151409.637500", "151411.127500", "151412.617500", "151414.107500", "151415.597500", "151417.087500", "151418.577500", "151420.067500", "151421.557500", "151423.047500", "151424.537500", "151426.027500", "151427.517500", "151429.007500", "151430.497500", "151431.987500", "151433.477500", "151434.967500", "151436.457500", "151437.947500", "151439.437500", "151440.927500", "151442.417500", "151443.907500", "151445.397500", "151446.887500", "151448.377500", "151449.867500", "151451.357500", "151452.847500", "151454.337500", "151455.827500", "151457.317500", "151458.807500", "151500.297500", "151501.787500", "151503.277500", "151504.767500", "151506.257500", "151507.747500", "151509.237500", "151510.727500", "151512.217500", "151513.707500", "151515.197500", "151516.687500", "151518.177500", "151519.667500", "151521.157500", "151522.647500", "151524.137500", "151525.627500", "151527.117500", "151528.607500", "151530.097500", "151531.587500", "151533.077500", "151534.567500", "151536.057500", "151537.547500", "151539.037500", "151540.527500", "151542.017500", "151543.507500"],
      "ContentTime": ["151217.770000", "151217.773000", "151217.775000", "151217.778000", "151217.780000", "151217.783000", "151217.785000", "151217.788000", "151217.790000", "151217.793000", "151217.795000", "151217.798000", "151217.800000", "151217.803000", "151217.805000", "151217.808000", "151217.810000", "151217.812000", "151217.815000", "151217.817000", "151217.820000", "151237.716000", "151237.719000", "151237.721000", "151237.724000", "151237.726000", "151237.728000", "151237.731000", "151237.733000", "151237.736000", "151237.753000", "151237.756000", "151237.759000", "151237.762000", "151237.765000", "151237.767000", "151237.770000", "151237.772000", "151237.775000", "151237.777000", "151237.780000", "151257.709000", "151257.712000", "151257.714000", "151257.717000", "151257.719000", "151257.722000", "151257.724000", "151257.727000", "151257.729000", "151257.732000", "151257.734000", "151257.737000", "151257.739000", "151257.742000", "151257.744000", "151257.747000", "151257.749000", "151257.751000", "151257.754000", "151257.756000", "151257.759000", "151317.708000", "151317.711000", "151317.713000", "151317.716000", "151317.718000", "151317.721000", "151317.723000", "151317.726000", "151317.728000", "151317.730000", "151317.733000", "151317.735000", "151317.738000", "151317.740000", "151317.743000", "151317.745000", "151317.748000", "151317.750000", "151317.753000", "151317.755000", "151337.714000", "151337.717000", "151337.719000", "151337.722000", "151337.725000", "151337.727000", "151337.730000", "151337.733000", "151337.735000", "151337.738000", "151337.740000", "151337.743000", "151337.745000", "151337.748000", "151337.750000", "151337.753000", "151337.755000", "151337.758000", "151337.760000", "151337.763000", "151417.756000", "151417.758000", "151417.761000", "151417.763000", "151417.766000", "151417.769000", "151417.771000", "151417.774000", "151417.779000", "151417.781000", "151417.784000", "151417.786000", "151417.789000", "151417.791000", "151417.794000", "151417.796000", "151417.799000", "151417.801000", "151417.804000", "151417.806000", "151417.809000", "151417.811000", "151417.814000", "151417.816000", "151417.819000", "151417.821000", "151417.824000", "151417.826000", "151457.740000", "151457.743000", "151457.745000", "151457.748000", "151457.750000", "151457.753000", "151457.755000", "151457.758000", "151457.760000", "151457.763000", "151457.766000", "151457.768000", "151457.771000", "151457.773000", "151457.776000", "151457.778000", "151457.781000", "151457.783000", "151457.786000", "151457.788000", "151457.791000", "151457.793000", "151457.796000", "151457.798000", "151457.801000", "151457.803000", "151457.806000", "151537.742000", "151537.745000", "151537.747000", "151537.750000", "151537.752000", "151537.755000", "151537.757000", "151537.765000", "151537.767000", "151537.770000", "151537.772000", "151537.775000", "151537.777000", "151537.780000", "151537.782000", "151537.785000", "151537.787000", "151537.790000", "151537.792000", "151537.794000", "151537.797000", "151537.799000", "151537.802000", "151537.804000", "151537.807000", "151537.809000", "151537.812000", "151545.781000", "151545.784000", "151545.787000", "151545.789000", "151545.792000", "151545.795000"],
      "InstanceCreationTime": ["151217.770000", "151217.773000", "151217.775000", "151217.778000", "151217.780000", "151217.783000", "151217.785000", "151217.788000", "151217.790000", "151217.793000", "151217.795000", "151217.798000", "151217.800000", "151217.803000", "151217.805000", "151217.808000", "151217.810000", "151217.812000", "151217.815000", "151217.817000", "151217.820000", "151237.716000", "151237.719000", "151237.721000", "151237.724000", "151237.726000", "151237.728000", "151237.731000", "151237.733000", "151237.736000", "151237.753000", "151237.756000", "151237.759000", "151237.762000", "151237.765000", "151237.767000", "151237.770000", "151237.772000", "151237.775000", "151237.777000", "151237.780000", "151257.709000", "151257.712000", "151257.714000", "151257.717000", "151257.719000", "151257.722000", "151257.724000", "151257.727000", "151257.729000", "151257.732000", "151257.734000", "151257.737000", "151257.739000", "151257.742000", "151257.744000", "151257.747000", "151257.749000", "151257.751000", "151257.754000", "151257.756000", "151257.759000", "151317.708000", "151317.711000", "151317.713000", "151317.716000", "151317.718000", "151317.721000", "151317.723000", "151317.726000", "151317.728000", "151317.730000", "151317.733000", "151317.735000", "151317.738000", "151317.740000", "151317.743000", "151317.745000", "151317.748000", "151317.750000", "151317.753000", "151317.755000", "151337.714000", "151337.717000", "151337.719000", "151337.722000", "151337.725000", "151337.727000", "151337.730000", "151337.733000", "151337.735000", "151337.738000", "151337.740000", "151337.743000", "151337.745000", "151337.748000", "151337.750000", "151337.753000", "151337.755000", "151337.758000", "151337.760000", "151337.763000", "151417.756000", "151417.758000", "151417.761000", "151417.763000", "151417.766000", "151417.769000", "151417.771000", "151417.774000", "151417.779000", "151417.781000", "151417.784000", "151417.786000", "151417.789000", "151417.791000", "151417.794000", "151417.796000", "151417.799000", "151417.801000", "151417.804000", "151417.806000", "151417.809000", "151417.811000", "151417.814000", "151417.816000", "151417.819000", "151417.821000", "151417.824000", "151417.826000", "151457.740000", "151457.743000", "151457.745000", "151457.748000", "151457.750000", "151457.753000", "151457.755000", "151457.758000", "151457.760000", "151457.763000", "151457.766000", "151457.768000", "151457.771000", "151457.773000", "151457.776000", "151457.778000", "151457.781000", "151457.783000", "151457.786000", "151457.788000", "151457.791000", "151457.793000", "151457.796000", "151457.798000", "151457.801000", "151457.803000", "151457.806000", "151537.742000", "151537.745000", "151537.747000", "151537.750000", "151537.752000", "151537.755000", "151537.757000", "151537.765000", "151537.767000", "151537.770000", "151537.772000", "151537.775000", "151537.777000", "151537.780000", "151537.782000", "151537.785000", "151537.787000", "151537.790000", "151537.792000", "151537.794000", "151537.797000", "151537.799000", "151537.802000", "151537.804000", "151537.807000", "151537.809000", "151537.812000", "151545.781000", "151545.784000", "151545.787000", "151545.789000", "151545.792000", "151545.795000"],
      "InstanceNumber": [1, 2, 3, 4, 5, 6, 7, 8, 9, 10, 11, 12, 13, 14, 15, 16, 17, 18, 19, 20, 21, 22, 23, 24, 25, 26, 27, 28, 29, 30, 31, 32, 33, 34, 35, 36, 37, 38, 39, 40, 41, 42, 43, 44, 45, 46, 47, 48, 49, 50, 51, 52, 53, 54, 55, 56, 57, 58, 59, 60, 61, 62, 63, 64, 65, 66, 67, 68, 69, 70, 71, 72, 73, 74, 75, 76, 77, 78, 79, 80, 81, 82, 83, 84, 85, 86, 87, 88, 89, 90, 91, 92, 93, 94, 95, 96, 97, 98, 99, 100, 101, 102, 103, 104, 105, 106, 107, 108, 109, 110, 111, 112, 113, 114, 115, 116, 117, 118, 119, 120, 121, 122, 123, 124, 125, 126, 127, 128, 129, 130, 131, 132, 133, 134, 135, 136, 137, 138, 139, 140, 141, 142, 143, 144, 145, 146, 147, 148, 149, 150, 151, 152, 153, 154, 155, 156, 157, 158, 159, 160, 161, 162, 163, 164, 165, 166, 167, 168, 169, 170, 171, 172, 173, 174, 175, 176, 177, 178, 179, 180, 181, 182, 183, 184, 185, 186, 187, 188, 189, 190],
      "WindowCenter": [4804.0, 4838.0, 4804.0, 4800.0, 4800.0, 4830.0, 4840.0, 4830.0, 4840.0, 4840.0, 4804.0, 4804.0, 4800.0, 4802.0, 4802.0, 4798.0, 4832.0, 4830.0, 4804.0, 4862.0, 4828.0, 4802.0, 4828.0, 4798.0, 4804.0, 4802.0, 4798.0, 4832.0, 4804.0, 4780.0, 4802.0, 4832.0, 4868.0, 4868.0, 4832.0, 4832.0, 4830.0, 4800.0, 4802.0, 4802.0, 4804.0, 4802.0, 4840.0, 4834.0, 4830.0, 4844.0, 4830.0, 4800.0, 4802.0, 4830.0, 4800.0, 4806.0, 4806.0, 4798.0, 4836.0, 4808.0, 4826.0, 4832.0, 4806.0, 4804.0, 4830.0, 4804.0, 4800.0, 4834.0, 4804.0, 4804.0, 4830.0, 4804.0, 4798.0, 4828.0, 4828.0, 4800.0, 4804.0, 4800.0, 4830.0, 4796.0, 4808.0, 4830.0, 4800.0, 4802.0, 4832.0, 4828.0, 4796.0, 4804.0, 4800.0, 4800.0, 4832.0, 4830.0, 4800.0, 4836.0, 4798.0, 4802.0, 4802.0, 4800.0, 4802.0, 4800.0, 4798.0, 4830.0, 4800.0, 4808.0, 4830.0, 4798.0, 4806.0, 4832.0, 4800.0, 4830.0, 4832.0, 4804.0, 4826.0, 4800.0, 4802.0, 4802.0, 4834.0, 4830.0, 4834.0, 4838.0, 4804.0, 4806.0, 4800.0, 4800.0, 4806.0, 4798.0, 4802.0, 4828.0, 4800.0, 4836.0, 4842.0, 4828.0, 4800.0, 4806.0, 4804.0, 4800.0, 4806.0, 4802.0, 4804.0, 4834.0, 4802.0, 4828.0, 4836.0, 4802.0, 4804.0, 4828.0, 4800.0, 4828.0, 4806.0, 4802.0, 4810.0, 4806.0, 4778.0, 4800.0, 4836.0, 4832.0, 4804.0, 4836.0, 4800.0, 4804.0, 4804.0, 4802.0, 4778.0, 4830.0, 4834.0, 4832.0, 4840.0, 4830.0, 4800.0, 4802.0, 4832.0, 4832.0, 4802.0, 4828.0, 4802.0, 4800.0, 4826.0, 4832.0, 4828.0, 4834.0, 4800.0, 4802.0, 4828.0, 4802.0, 4828.0, 4832.0, 4832.0, 4802.0, 4802.0, 4828.0, 4800.0, 4800.0, 4806.0, 4806.0],
      "WindowWidth": [18602.0, 18640.0, 18604.0, 18608.0, 18600.0, 18634.0, 18644.0, 18636.0, 18644.0, 18644.0, 18600.0, 18600.0, 18600.0, 18602.0, 18600.0, 18600.0, 18634.0, 18642.0, 18602.0, 18678.0, 18636.0, 18600.0, 18634.0, 18596.0, 18598.0, 18602.0, 18594.0, 18638.0, 18604.0, 18578.0, 18604.0, 18634.0, 18678.0, 18678.0, 18642.0, 18636.0, 18634.0, 18600.0, 18602.0, 18598.0, 18606.0, 18598.0, 18644.0, 18640.0, 18634.0, 18646.0, 18636.0, 18598.0, 18600.0, 18636.0, 18600.0, 18604.0, 18606.0, 18592.0, 18640.0, 18602.0, 18634.0, 18638.0, 18600.0, 18602.0, 18634.0, 18602.0, 18600.0, 18640.0, 18602.0, 18604.0, 18638.0, 18602.0, 18598.0, 18634.0, 18636.0, 18600.0, 18598.0, 18598.0, 18636.0, 18600.0, 18604.0, 18634.0, 18600.0, 18602.0, 18638.0, 18632.0, 18598.0, 18598.0, 18600.0, 18602.0, 18632.0, 18634.0, 18596.0, 18642.0, 18596.0, 18602.0, 18598.0, 18602.0, 18602.0, 18600.0, 18596.0, 18636.0, 18606.0, 18604.0, 18640.0, 18596.0, 18602.0, 18642.0, 18596.0, 18628.0, 18638.0, 18600.0, 18632.0, 18602.0, 18604.0, 18600.0, 18640.0, 18636.0, 18638.0, 18644.0, 18600.0, 18604.0, 18600.0, 18596.0, 18602.0, 18598.0, 18602.0, 18632.0, 18600.0, 18642.0, 18648.0, 18636.0, 18594.0, 18604.0, 18606.0, 18598.0, 18598.0, 18600.0, 18600.0, 18632.0, 18602.0, 18628.0, 18636.0, 18602.0, 18598.0, 18630.0, 18598.0, 18636.0, 18606.0, 18598.0, 18602.0, 18604.0, 18576.0, 18602.0, 18640.0, 18638.0, 18600.0, 18640.0, 18598.0, 18604.0, 18602.0, 18602.0, 18574.0, 18634.0, 18638.0, 18640.0, 18640.0, 18632.0, 18602.0, 18600.0, 18640.0, 18638.0, 18602.0, 18632.0, 18600.0, 18606.0, 18632.0, 18638.0, 18632.0, 18636.0, 18602.0, 18598.0, 18632.0, 18596.0, 18630.0, 18638.0, 18634.0, 18602.0, 18600.0, 18634.0, 18598.0, 18596.0, 18600.0, 18602.0]
    },
    "slices": {}
  }
}