{
  "AcquisitionMatrixPE": 104,
  "AcquisitionNumber": 1,
  "AcquisitionTime": "15:44:45.665000",
  "BandwidthPerPixelPhaseEncode": 17.17,
  "BaseResolution": 104,
  "BodyPartExamined": "BRAIN",
  "CoilString": "HC1-7;NC1_2",
  "ConsistencyInfo": "N4_VE11C_LATEST_20160120",
  "ConversionSoftware": "dcm2niix",
  "ConversionSoftwareVersion": "v1.0.20190902",
  "DerivedVendorReportedEchoSpacing": 0.000560011,
  "DeviceSerialNumber": "167006",
  "DwellTime": 2.1e-06,
  "EchoTime": 0.037,
  "EchoTrainLength": 104,
  "EffectiveEchoSpacing": 0.000560011,
  "FlipAngle": 52,
  "ImageComments": "Unaliased_MB4_PE3_LB",
  "ImageOrientationPatientDICOM": [0.998475, -0.0482636, 0.0268185, 0.0540754, 0.952919, -0.298364],
  "ImageType": [
    "ORIGINAL",
    "PRIMARY",
    "P",
    "MB",
    "ND",
    "MOSAIC"
],
  "ImagingFrequency": 123.259,
  "InPlanePhaseEncodingDirectionDICOM": "COL",
  "InstitutionAddress": "Chemin_Queen-Mary_4565_Montreal_District_CA_H3W_1W5",
  "InstitutionName": "IUGM",
  "InstitutionalDepartmentName": "Department",
  "MRAcquisitionType": "2D",
  "MagneticFieldStrength": 3,
  "Manufacturer": "Siemens",
  "ManufacturersModelName": "Prisma_fit",
  "Modality": "MR",
  "MultibandAccelerationFactor": 4,
  "PartialFourier": 1,
  "PatientPosition": "HFS",
  "PercentPhaseFOV": 100,
  "PhaseEncodingDirection": "j",
  "PhaseEncodingSteps": 104,
  "PhaseResolution": 1,
  "PixelBandwidth": 2290,
  "ProcedureStepDescription": "memory_things",
  "ProtocolName": "func_task-things_run-6",
  "PulseSequenceDetails": "%CustomerSeq%_cmrr_mbep2d_bold",
  "ReceiveCoilActiveElements": "HC1-7;NC1,2",
  "ReceiveCoilName": "HeadNeck_64",
  "ReconMatrixPE": 104,
  "RepetitionTime": 1.49,
  "SAR": 0.0314208,
  "ScanOptions": "FS",
  "ScanningSequence": "EP",
  "SequenceName": "epfid2d1_104",
  "SequenceVariant": "SK_SS",
  "SeriesDescription": "func_task-things_run-6",
  "SeriesNumber": 26,
  "ShimSetting": [628, -7253, -8828, 584, 8, -267, 14, -50],
  "SliceThickness": 2,
  "SliceTiming": [0, 0.7825, 0.0975, 0.8825, 0.195, 0.98, 0.2925, 1.0775, 0.3925, 1.175, 0.49, 1.2725, 0.5875, 1.3725, 0.685, 0, 0.7825, 0.0975, 0.8825, 0.195, 0.98, 0.2925, 1.0775, 0.3925, 1.175, 0.49, 1.2725, 0.5875, 1.3725, 0.685, 0, 0.7825, 0.0975, 0.8825, 0.195, 0.98, 0.2925, 1.0775, 0.3925, 1.175, 0.49, 1.2725, 0.5875, 1.3725, 0.685, 0, 0.7825, 0.0975, 0.8825, 0.195, 0.98, 0.2925, 1.0775, 0.3925, 1.175, 0.49, 1.2725, 0.5875, 1.3725, 0.685],
  "SoftwareVersions": "syngo_MR_E11",
  "SpacingBetweenSlices": 2,
  "StationName": "MRC35049",
  "TaskName": "things",
  "TotalReadoutTime": 0.0576811,
  "TxRefAmp": 222.377,
  "WipMemBlock": "26df76d3-5aab-4f76-93f8-b23aa83449d0||Sequence: R016 ve11c/master r/e634e98; Dec 19 2017 11:00:25 by eja",
  "dcmmeta_affine": [
    [-1.9969490766525269, 0.1081508919596672, 0.02231154963374138, 101.47847747802734],
    [0.09652712196111679, 1.9058380126953125, -0.598718523979187, -70.62773132324219],
    [0.0536370687186718, 0.5967283248901367, 1.908150553703308, -66.50906372070312],
    [0.0, 0.0, 0.0, 1.0]
],
  "dcmmeta_reorient_transform": [
    [0.0, -1.0, 0.0, 103.0],
    [1.0, 0.0, 0.0, 0.0],
    [0.0, 0.0, 1.0, 0.0],
    [0.0, 0.0, 0.0, 1.0]
],
  "dcmmeta_shape": [104, 104, 60, 190],
  "dcmmeta_slice_dim": 2,
  "dcmmeta_version": 0.6,
  "global": {
    "const": {
      "AcquisitionMatrix": [104, 0, 0, 104],
      "AngioFlag": "N",
      "BitsAllocated": 16,
      "BitsStored": 16,
      "BodyPartExamined": "BRAIN",
      "Columns": 832,
      "EchoNumbers": 1,
      "EchoTime": 37.0,
      "EchoTrainLength": 104,
      "FlipAngle": 52.0,
      "HighBit": 15,
      "ImageOrientationPatient": [0.99847453391032, -0.048263561471, 0.02681853401474, 0.05407544575715, 0.952919027257, -0.2983641628241],
      "ImagePositionPatient": [-878.87440223998, -784.26276975992, 192.63917041428],
      "ImageType": [
        "ORIGINAL",
        "PRIMARY",
        "P",
        "MB",
        "ND",
        "MOSAIC"
],
      "ImagedNucleus": "1H",
      "ImagingFrequency": 123.258897,
      "InPlanePhaseEncodingDirection": "COL",
      "LargestImagePixelValue": 4095,
      "MRAcquisitionType": "2D",
      "MagneticFieldStrength": 3.0,
      "Manufacturer": "SIEMENS",
      "ManufacturerModelName": "Prisma_fit",
      "Modality": "MR",
      "NumberOfAverages": 1.0,
      "NumberOfPhaseEncodingSteps": 104,
      "PercentPhaseFieldOfView": 100.0,
      "PercentSampling": 100.0,
      "PerformedProcedureStepStartTime": "145410.088000",
      "PhotometricInterpretation": "MONOCHROME2",
      "PixelBandwidth": 2290.0,
      "PixelRepresentation": 0,
      "PixelSpacing": [2.0, 2.0],
      "ProtocolName": "func_task-things_run-6",
      "RepetitionTime": 1490.0,
      "RescaleIntercept": -4096.0,
      "RescaleSlope": 2.0,
      "RescaleType": "US",
      "Rows": 832,
      "SAR": 0.0314208218215,
      "SamplesPerPixel": 1,
      "ScanOptions": "FS",
      "ScanningSequence": "EP",
      "SequenceName": "epfid2d1_104",
      "SequenceVariant": [
        "SK",
        "SS"
],
      "SeriesDescription": "func_task-things_run-6",
      "SeriesNumber": 26,
      "SeriesTime": "154548.149000",
      "SliceLocation": -41.17951866527,
      "SliceThickness": 2.0,
      "SmallestImagePixelValue": 0,
      "SoftwareVersions": "syngo MR E11",
      "SpacingBetweenSlices": 2.0000000388683,
      "SpecificCharacterSet": "ISO_IR 100",
      "StudyID": "1",
      "StudyTime": "145410.017000",
      "TransmitCoilName": "Body",
      "VariableFlipAngleFlag": "N",
      "WindowCenterWidthExplanation": "Algo1",
      "dBdt": 0.0},
    "slices": {}
  },
  "time": {
    "samples": {
      "AcquisitionNumber": [1, 2, 3, 4, 5, 6, 7, 8, 9, 10, 11, 12, 13, 14, 15, 16, 17, 18, 19, 20, 21, 22, 23, 24, 25, 26, 27, 28, 29, 30, 31, 32, 33, 34, 35, 36, 37, 38, 39, 40, 41, 42, 43, 44, 45, 46, 47, 48, 49, 50, 51, 52, 53, 54, 55, 56, 57, 58, 59, 60, 61, 62, 63, 64, 65, 66, 67, 68, 69, 70, 71, 72, 73, 74, 75, 76, 77, 78, 79, 80, 81, 82, 83, 84, 85, 86, 87, 88, 89, 90, 91, 92, 93, 94, 95, 96, 97, 98, 99, 100, 101, 102, 103, 104, 105, 106, 107, 108, 109, 110, 111, 112, 113, 114, 115, 116, 117, 118, 119, 120, 121, 122, 123, 124, 125, 126, 127, 128, 129, 130, 131, 132, 133, 134, 135, 136, 137, 138, 139, 140, 141, 142, 143, 144, 145, 146, 147, 148, 149, 150, 151, 152, 153, 154, 155, 156, 157, 158, 159, 160, 161, 162, 163, 164, 165, 166, 167, 168, 169, 170, 171, 172, 173, 174, 175, 176, 177, 178, 179, 180, 181, 182, 183, 184, 185, 186, 187, 188, 189, 190],
      "AcquisitionTime": ["154445.665000", "154447.155000", "154448.645000", "154450.135000", "154451.625000", "154453.115000", "154454.605000", "154456.095000", "154457.585000", "154459.075000", "154500.565000", "154502.055000", "154503.545000", "154505.035000", "154506.525000", "154508.015000", "154509.505000", "154510.995000", "154512.485000", "154513.975000", "154515.465000", "154516.955000", "154518.445000", "154519.935000", "154521.425000", "154522.915000", "154524.405000", "154525.895000", "154527.385000", "154528.875000", "154530.365000", "154531.855000", "154533.345000", "154534.835000", "154536.325000", "154537.815000", "154539.305000", "154540.795000", "154542.285000", "154543.775000", "154545.265000", "154546.755000", "154548.245000", "154549.735000", "154551.225000", "154552.715000", "154554.205000", "154555.695000", "154557.185000", "154558.675000", "154600.165000", "154601.655000", "154603.145000", "154604.635000", "154606.125000", "154607.615000", "154609.105000", "154610.595000", "154612.085000", "154613.575000", "154615.065000", "154616.555000", "154618.045000", "154619.535000", "154621.025000", "154622.515000", "154624.005000", "154625.495000", "154626.985000", "154628.475000", "154629.965000", "154631.455000", "154632.945000", "154634.435000", "154635.925000", "154637.415000", "154638.905000", "154640.395000", "154641.885000", "154643.375000", "154644.865000", "154646.355000", "154647.845000", "154649.335000", "154650.825000", "154652.315000", "154653.805000", "154655.295000", "154656.785000", "154658.275000", "154659.765000", "154701.255000", "154702.745000", "154704.235000", "154705.725000", "154707.215000", "154708.705000", "154710.195000", "154711.685000", "154713.175000", "154714.665000", "154716.155000", "154717.645000", "154719.135000", "154720.625000", "154722.115000", "154723.605000", "154725.095000", "154726.585000", "154728.075000", "154729.565000", "154731.055000", "154732.545000", "154734.035000", "154735.525000", "154737.015000", "154738.505000", "154739.995000", "154741.485000", "154742.975000", "154744.465000", "154745.955000", "154747.445000", "154748.935000", "154750.425000", "154751.915000", "154753.405000", "154754.895000", "154756.385000", "154757.875000", "154759.365000", "154800.855000", "154802.345000", "154803.835000", "154805.325000", "154806.815000", "154808.305000", "154809.795000", "154811.285000", "154812.775000", "154814.265000", "154815.755000", "154817.245000", "154818.735000", "154820.225000", "154821.715000", "154823.205000", "154824.695000", "154826.185000", "154827.675000", "154829.165000", "154830.655000", "154832.145000", "154833.635000", "154835.125000", "154836.615000", "154838.105000", "154839.595000", "154841.085000", "154842.575000", "154844.065000", "154845.555000", "154847.045000", "154848.535000", "154850.025000", "154851.515000", "154853.005000", "154854.495000", "154855.985000", "154857.475000", "154858.965000", "154900.455000", "154901.945000", "154903.435000", "154904.925000", "154906.415000", "154907.905000", "154909.395000", "154910.885000", "154912.375000", "154913.865000", "154915.355000", "154916.845000", "154918.335000", "154919.825000", "154921.315000", "154922.805000", "154924.295000", "154925.785000", "154927.275000"],
      "ContentTime": ["154548.151000", "154548.153000", "154548.156000", "154548.159000", "154548.161000", "154548.163000", "154548.166000", "154608.171000", "154608.174000", "154608.177000", "154608.179000", "154608.182000", "154608.184000", "154608.187000", "154608.189000", "154608.192000", "154608.194000", "154608.197000", "154608.199000", "154608.202000", "154608.204000", "154608.207000", "154608.209000", "154608.211000", "154608.214000", "154608.216000", "154608.219000", "154628.187000", "154628.190000", "154628.193000", "154628.195000", "154628.198000", "154628.200000", "154628.203000", "154628.205000", "154628.207000", "154628.210000", "154628.212000", "154628.215000", "154628.217000", "154628.220000", "154628.222000", "154628.225000", "154628.227000", "154628.230000", "154628.232000", "154628.235000", "154628.237000", "154648.152000", "154648.155000", "154648.157000", "154648.160000", "154648.162000", "154648.165000", "154648.167000", "154648.170000", "154648.172000", "154648.175000", "154648.177000", "154648.180000", "154648.182000", "154648.185000", "154648.187000", "154648.190000", "154648.192000", "154648.195000", "154648.197000", "154648.200000", "154708.152000", "154708.155000", "154708.157000", "154708.160000", "154708.162000", "154708.165000", "154708.167000", "154708.179000", "154708.186000", "154708.188000", "154708.191000", "154708.193000", "154708.196000", "154708.198000", "154708.201000", "154708.203000", "154708.206000", "154708.208000", "154708.211000", "154708.213000", "154728.174000", "154728.177000", "154728.179000", "154728.182000", "154728.184000", "154728.187000", "154728.189000", "154728.192000", "154728.194000", "154728.197000", "154728.199000", "154728.202000", "154728.204000", "154728.207000", "154728.209000", "154728.212000", "154728.214000", "154728.217000", "154728.219000", "154728.222000", "154808.216000", "154808.218000", "154808.221000", "154808.223000", "154808.226000", "154808.228000", "154808.231000", "154808.233000", "154808.236000", "154808.238000", "154808.241000", "154808.243000", "154808.252000", "154808.255000", "154808.258000", "154808.260000", "154808.263000", "154808.265000", "154808.268000", "154808.270000", "154808.273000", "154808.275000", "154808.278000", "154808.280000", "154808.283000", "154808.285000", "154808.288000", "154848.200000", "154848.203000", "154848.205000", "154848.208000", "154848.210000", "154848.213000", "154848.222000", "154848.225000", "154848.227000", "154848.230000", "154848.232000", "154848.235000", "154848.237000", "154848.240000", "154848.242000", "154848.245000", "154848.248000", "154848.250000", "154848.253000", "154848.255000", "154848.258000", "154848.260000", "154848.263000", "154848.265000", "154848.268000", "154848.270000", "154848.273000", "154928.214000", "154928.217000", "154928.219000", "154928.222000", "154928.224000", "154928.227000", "154928.229000", "154928.232000", "154928.234000", "154928.237000", "154928.239000", "154928.242000", "154928.244000", "154928.247000", "154928.249000", "154928.252000", "154928.254000", "154928.257000", "154928.259000", "154928.262000", "154928.265000", "154928.267000", "154928.270000", "154928.272000", "154928.275000", "154928.277000", "154929.691000", "154929.693000"],
      "InstanceCreationTime": ["154548.151000", "154548.153000", "154548.156000", "154548.159000", "154548.161000", "154548.163000", "154548.166000", "154608.171000", "154608.174000", "154608.177000", "154608.179000", "154608.182000", "154608.184000", "154608.187000", "154608.189000", "154608.192000", "154608.194000", "154608.197000", "154608.199000", "154608.202000", "154608.204000", "154608.207000", "154608.209000", "154608.211000", "154608.214000", "154608.216000", "154608.219000", "154628.187000", "154628.190000", "154628.193000", "154628.195000", "154628.198000", "154628.200000", "154628.203000", "154628.205000", "154628.207000", "154628.210000", "154628.212000", "154628.215000", "154628.217000", "154628.220000", "154628.222000", "154628.225000", "154628.227000", "154628.230000", "154628.232000", "154628.235000", "154628.237000", "154648.152000", "154648.155000", "154648.157000", "154648.160000", "154648.162000", "154648.165000", "154648.167000", "154648.170000", "154648.172000", "154648.175000", "154648.177000", "154648.180000", "154648.182000", "154648.185000", "154648.187000", "154648.190000", "154648.192000", "154648.195000", "154648.197000", "154648.200000", "154708.152000", "154708.155000", "154708.157000", "154708.160000", "154708.162000", "154708.165000", "154708.167000", "154708.179000", "154708.186000", "154708.188000", "154708.191000", "154708.193000", "154708.196000", "154708.198000", "154708.201000", "154708.203000", "154708.206000", "154708.208000", "154708.211000", "154708.213000", "154728.174000", "154728.177000", "154728.179000", "154728.182000", "154728.184000", "154728.187000", "154728.189000", "154728.192000", "154728.194000", "154728.197000", "154728.199000", "154728.202000", "154728.204000", "154728.207000", "154728.209000", "154728.212000", "154728.214000", "154728.217000", "154728.219000", "154728.222000", "154808.216000", "154808.218000", "154808.221000", "154808.223000", "154808.226000", "154808.228000", "154808.231000", "154808.233000", "154808.236000", "154808.238000", "154808.241000", "154808.243000", "154808.252000", "154808.255000", "154808.258000", "154808.260000", "154808.263000", "154808.265000", "154808.268000", "154808.270000", "154808.273000", "154808.275000", "154808.278000", "154808.280000", "154808.283000", "154808.285000", "154808.288000", "154848.200000", "154848.203000", "154848.205000", "154848.208000", "154848.210000", "154848.213000", "154848.222000", "154848.225000", "154848.227000", "154848.230000", "154848.232000", "154848.235000", "154848.237000", "154848.240000", "154848.242000", "154848.245000", "154848.248000", "154848.250000", "154848.253000", "154848.255000", "154848.258000", "154848.260000", "154848.263000", "154848.265000", "154848.268000", "154848.270000", "154848.273000", "154928.214000", "154928.217000", "154928.219000", "154928.222000", "154928.224000", "154928.227000", "154928.229000", "154928.232000", "154928.234000", "154928.237000", "154928.239000", "154928.242000", "154928.244000", "154928.247000", "154928.249000", "154928.252000", "154928.254000", "154928.257000", "154928.259000", "154928.262000", "154928.265000", "154928.267000", "154928.270000", "154928.272000", "154928.275000", "154928.277000", "154929.691000", "154929.693000"],
      "InstanceNumber": [1, 2, 3, 4, 5, 6, 7, 8, 9, 10, 11, 12, 13, 14, 15, 16, 17, 18, 19, 20, 21, 22, 23, 24, 25, 26, 27, 28, 29, 30, 31, 32, 33, 34, 35, 36, 37, 38, 39, 40, 41, 42, 43, 44, 45, 46, 47, 48, 49, 50, 51, 52, 53, 54, 55, 56, 57, 58, 59, 60, 61, 62, 63, 64, 65, 66, 67, 68, 69, 70, 71, 72, 73, 74, 75, 76, 77, 78, 79, 80, 81, 82, 83, 84, 85, 86, 87, 88, 89, 90, 91, 92, 93, 94, 95, 96, 97, 98, 99, 100, 101, 102, 103, 104, 105, 106, 107, 108, 109, 110, 111, 112, 113, 114, 115, 116, 117, 118, 119, 120, 121, 122, 123, 124, 125, 126, 127, 128, 129, 130, 131, 132, 133, 134, 135, 136, 137, 138, 139, 140, 141, 142, 143, 144, 145, 146, 147, 148, 149, 150, 151, 152, 153, 154, 155, 156, 157, 158, 159, 160, 161, 162, 163, 164, 165, 166, 167, 168, 169, 170, 171, 172, 173, 174, 175, 176, 177, 178, 179, 180, 181, 182, 183, 184, 185, 186, 187, 188, 189, 190],
      "WindowCenter": [4836.0, 4800.0, 4834.0, 4840.0, 4832.0, 4778.0, 4804.0, 4836.0, 4872.0, 4876.0, 4876.0, 4838.0, 4836.0, 4798.0, 4800.0, 4798.0, 4800.0, 4802.0, 4836.0, 4838.0, 4870.0, 4836.0, 4806.0, 4828.0, 4800.0, 4796.0, 4800.0, 4832.0, 4842.0, 4868.0, 4864.0, 4836.0, 4778.0, 4818.0, 4778.0, 4838.0, 4868.0, 4868.0, 4866.0, 4834.0, 4800.0, 4774.0, 4802.0, 4802.0, 4798.0, 4800.0, 4796.0, 4800.0, 4806.0, 4832.0, 4866.0, 4862.0, 4832.0, 4798.0, 4804.0, 4776.0, 4796.0, 4796.0, 4802.0, 4830.0, 4794.0, 4772.0, 4774.0, 4800.0, 4802.0, 4800.0, 4774.0, 4802.0, 4796.0, 4776.0, 4776.0, 4802.0, 4798.0, 4802.0, 4800.0, 4798.0, 4774.0, 4782.0, 4776.0, 4832.0, 4874.0, 4870.0, 4868.0, 4808.0, 4798.0, 4796.0, 4776.0, 4808.0, 4776.0, 4780.0, 4806.0, 4868.0, 4842.0, 4806.0, 4806.0, 4798.0, 4796.0, 4776.0, 4774.0, 4776.0, 4776.0, 4800.0, 4806.0, 4808.0, 4774.0, 4804.0, 4804.0, 4778.0, 4774.0, 4796.0, 4804.0, 4802.0, 4802.0, 4774.0, 4772.0, 4772.0, 4796.0, 4772.0, 4770.0, 4776.0, 4774.0, 4798.0, 4804.0, 4802.0, 4802.0, 4772.0, 4776.0, 4776.0, 4800.0, 4772.0, 4772.0, 4802.0, 4774.0, 4804.0, 4774.0, 4776.0, 4772.0, 4774.0, 4774.0, 4778.0, 4776.0, 4770.0, 4774.0, 4774.0, 4802.0, 4798.0, 4776.0, 4798.0, 4808.0, 4806.0, 4774.0, 4774.0, 4774.0, 4776.0, 4776.0, 4776.0, 4784.0, 4780.0, 4774.0, 4798.0, 4802.0, 4800.0, 4798.0, 4774.0, 4772.0, 4772.0, 4780.0, 4822.0, 4814.0, 4838.0, 4838.0, 4902.0, 4874.0, 4800.0, 4774.0, 4776.0, 4808.0, 4812.0, 4806.0, 4772.0, 4796.0, 4802.0, 4834.0, 4832.0, 4810.0, 4798.0, 4776.0, 4776.0, 4808.0, 4778.0],
      "WindowWidth": [18640.0, 18598.0, 18640.0, 18642.0, 18638.0, 18568.0, 18602.0, 18642.0, 18688.0, 18682.0, 18684.0, 18646.0, 18640.0, 18596.0, 18596.0, 18592.0, 18596.0, 18602.0, 18642.0, 18640.0, 18676.0, 18642.0, 18600.0, 18632.0, 18592.0, 18594.0, 18596.0, 18634.0, 18644.0, 18678.0, 18676.0, 18644.0, 18568.0, 18614.0, 18568.0, 18642.0, 18688.0, 18684.0, 18682.0, 18642.0, 18592.0, 18564.0, 18594.0, 18594.0, 18588.0, 18598.0, 18590.0, 18594.0, 18598.0, 18638.0, 18676.0, 18678.0, 18634.0, 18586.0, 18602.0, 18564.0, 18584.0, 18588.0, 18598.0, 18632.0, 18586.0, 18556.0, 18560.0, 18592.0, 18598.0, 18590.0, 18560.0, 18600.0, 18592.0, 18562.0, 18562.0, 18596.0, 18588.0, 18600.0, 18590.0, 18590.0, 18562.0, 18574.0, 18570.0, 18628.0, 18676.0, 18684.0, 18676.0, 18604.0, 18586.0, 18592.0, 18572.0, 18610.0, 18560.0, 18568.0, 18600.0, 18676.0, 18644.0, 18602.0, 18604.0, 18586.0, 18586.0, 18560.0, 18560.0, 18562.0, 18554.0, 18586.0, 18594.0, 18598.0, 18556.0, 18596.0, 18598.0, 18564.0, 18556.0, 18584.0, 18596.0, 18594.0, 18586.0, 18558.0, 18556.0, 18552.0, 18590.0, 18550.0, 18550.0, 18560.0, 18556.0, 18592.0, 18604.0, 18598.0, 18594.0, 18552.0, 18560.0, 18558.0, 18592.0, 18564.0, 18556.0, 18596.0, 18558.0, 18596.0, 18560.0, 18556.0, 18558.0, 18552.0, 18556.0, 18560.0, 18558.0, 18558.0, 18564.0, 18560.0, 18596.0, 18588.0, 18560.0, 18594.0, 18600.0, 18598.0, 18560.0, 18554.0, 18556.0, 18556.0, 18556.0, 18558.0, 18568.0, 18570.0, 18554.0, 18594.0, 18594.0, 18600.0, 18594.0, 18562.0, 18560.0, 18556.0, 18570.0, 18608.0, 18610.0, 18640.0, 18640.0, 18716.0, 18678.0, 18598.0, 18556.0, 18560.0, 18610.0, 18622.0, 18600.0, 18554.0, 18582.0, 18594.0, 18640.0, 18638.0, 18602.0, 18592.0, 18556.0, 18560.0, 18606.0, 18566.0]
    },
    "slices": {}
  }
}