{
  "AcquisitionMatrixPE": 104,
  "AcquisitionNumber": 1,
  "AcquisitionTime": "18:18:17.287500",
  "BandwidthPerPixelPhaseEncode": 17.17,
  "BaseResolution": 104,
  "BodyPartExamined": "BRAIN",
  "CoilString": "HC1-7;NC1_2",
  "ConsistencyInfo": "N4_VE11C_LATEST_20160120",
  "ConversionSoftware": "dcm2niix",
  "ConversionSoftwareVersion": "v1.0.20190902",
  "DerivedVendorReportedEchoSpacing": 0.000560011,
  "DeviceSerialNumber": "167006",
  "DwellTime": 2.1e-06,
  "EchoTime": 0.037,
  "EchoTrainLength": 104,
  "EffectiveEchoSpacing": 0.000560011,
  "FlipAngle": 52,
  "ImageComments": "Unaliased_MB4_PE3_LB",
  "ImageOrientationPatientDICOM": [0.997005, 0.0676057, 0.0375552, -0.0496338, 0.931761, -0.359663],
  "ImageType": [
    "ORIGINAL",
    "PRIMARY",
    "P",
    "MB",
    "ND",
    "MOSAIC"
],
  "ImagingFrequency": 123.259,
  "InPlanePhaseEncodingDirectionDICOM": "COL",
  "InstitutionAddress": "Chemin_Queen-Mary_4565_Montreal_District_CA_H3W_1W5",
  "InstitutionName": "IUGM",
  "InstitutionalDepartmentName": "Department",
  "MRAcquisitionType": "2D",
  "MagneticFieldStrength": 3,
  "Manufacturer": "Siemens",
  "ManufacturersModelName": "Prisma_fit",
  "Modality": "MR",
  "MultibandAccelerationFactor": 4,
  "PartialFourier": 1,
  "PatientPosition": "HFS",
  "PercentPhaseFOV": 100,
  "PhaseEncodingDirection": "j",
  "PhaseEncodingSteps": 104,
  "PhaseResolution": 1,
  "PixelBandwidth": 2290,
  "ProcedureStepDescription": "memory_things",
  "ProtocolName": "func_task-things_run-4",
  "PulseSequenceDetails": "%CustomerSeq%_cmrr_mbep2d_bold",
  "ReceiveCoilActiveElements": "HC1-7;NC1,2",
  "ReceiveCoilName": "HeadNeck_64",
  "ReconMatrixPE": 104,
  "RepetitionTime": 1.49,
  "SAR": 0.0382126,
  "ScanOptions": "FS",
  "ScanningSequence": "EP",
  "SequenceName": "epfid2d1_104",
  "SequenceVariant": "SK_SS",
  "SeriesDescription": "func_task-things_run-4",
  "SeriesNumber": 20,
  "ShimSetting": [635, -7185, -8822, 644, 97, 26, -34, -9],
  "SliceThickness": 2,
  "SliceTiming": [0, 0.7825, 0.0975, 0.88, 0.195, 0.98, 0.2925, 1.0775, 0.39, 1.175, 0.49, 1.2725, 0.5875, 1.37, 0.685, 0, 0.7825, 0.0975, 0.88, 0.195, 0.98, 0.2925, 1.0775, 0.39, 1.175, 0.49, 1.2725, 0.5875, 1.37, 0.685, 0, 0.7825, 0.0975, 0.88, 0.195, 0.98, 0.2925, 1.0775, 0.39, 1.175, 0.49, 1.2725, 0.5875, 1.37, 0.685, 0, 0.7825, 0.0975, 0.88, 0.195, 0.98, 0.2925, 1.0775, 0.39, 1.175, 0.49, 1.2725, 0.5875, 1.37, 0.685],
  "SoftwareVersions": "syngo_MR_E11",
  "SpacingBetweenSlices": 2,
  "StationName": "MRC35049",
  "TaskName": "things",
  "TotalReadoutTime": 0.0576811,
  "TxRefAmp": 243.652,
  "WipMemBlock": "d3a9e8ff-a18a-4a9c-b4ee-2e47ba6d93e3||Sequence: R016 ve11c/master r/e634e98; Dec 19 2017 11:00:25 by eja",
  "dcmmeta_affine": [
    [-1.994010090827942, -0.09926769137382507, 0.11861544102430344, 108.8779296875],
    [-0.13521146774291992, 1.8635224103927612, -0.7134437561035156, -52.010772705078125],
    [0.0751103088259697, 0.7193261384963989, 1.8646522760391235, -65.7485122680664],
    [0.0, 0.0, 0.0, 1.0]
],
  "dcmmeta_reorient_transform": [
    [0.0, -1.0, 0.0, 103.0],
    [1.0, 0.0, 0.0, 0.0],
    [0.0, 0.0, 1.0, 0.0],
    [0.0, 0.0, 0.0, 1.0]
],
  "dcmmeta_shape": [104, 104, 60, 190],
  "dcmmeta_slice_dim": 2,
  "dcmmeta_version": 0.6,
  "global": {
    "const": {
      "AcquisitionMatrix": [104, 0, 0, 104],
      "AngioFlag": "N",
      "BitsAllocated": 16,
      "BitsStored": 16,
      "BodyPartExamined": "BRAIN",
      "Columns": 832,
      "EchoNumbers": 1,
      "EchoTime": 37.0,
      "EchoTrainLength": 104,
      "FlipAngle": 52.0,
      "HighBit": 15,
      "ImageOrientationPatient": [0.99700505284235, 0.06760573140007, 0.03755515528775, -0.0496338462275, 0.93176121055081, -0.3596630754214],
      "ImagePositionPatient": [-788.33959294228, -867.47117091676, 242.83664881937],
      "ImageType": [
        "ORIGINAL",
        "PRIMARY",
        "P",
        "MB",
        "ND",
        "MOSAIC"
],
      "ImagedNucleus": "1H",
      "ImagingFrequency": 123.258918,
      "InPlanePhaseEncodingDirection": "COL",
      "LargestImagePixelValue": 4095,
      "MRAcquisitionType": "2D",
      "MagneticFieldStrength": 3.0,
      "Manufacturer": "SIEMENS",
      "ManufacturerModelName": "Prisma_fit",
      "Modality": "MR",
      "NumberOfAverages": 1.0,
      "NumberOfPhaseEncodingSteps": 104,
      "PercentPhaseFieldOfView": 100.0,
      "PercentSampling": 100.0,
      "PerformedProcedureStepStartTime": "170829.074000",
      "PhotometricInterpretation": "MONOCHROME2",
      "PixelBandwidth": 2290.0,
      "PixelRepresentation": 0,
      "PixelSpacing": [2.0, 2.0],
      "ProtocolName": "func_task-things_run-4",
      "RepetitionTime": 1490.0,
      "RescaleIntercept": -4096.0,
      "RescaleSlope": 2.0,
      "RescaleType": "US",
      "Rows": 832,
      "SAR": 0.03821264160337,
      "SamplesPerPixel": 1,
      "ScanOptions": "FS",
      "ScanningSequence": "EP",
      "SequenceName": "epfid2d1_104",
      "SequenceVariant": [
        "SK",
        "SS"
],
      "SeriesDescription": "func_task-things_run-4",
      "SeriesNumber": 20,
      "SeriesTime": "181918.888000",
      "SliceLocation": -36.288373729264,
      "SliceThickness": 2.0,
      "SmallestImagePixelValue": 0,
      "SoftwareVersions": "syngo MR E11",
      "SpacingBetweenSlices": 1.9999999703987,
      "SpecificCharacterSet": "ISO_IR 100",
      "StudyID": "1",
      "StudyTime": "170828.986000",
      "TransmitCoilName": "Body",
      "VariableFlipAngleFlag": "N",
      "WindowCenterWidthExplanation": "Algo1",
      "dBdt": 0.0},
    "slices": {}
  },
  "time": {
    "samples": {
      "AcquisitionNumber": [1, 2, 3, 4, 5, 6, 7, 8, 9, 10, 11, 12, 13, 14, 15, 16, 17, 18, 19, 20, 21, 22, 23, 24, 25, 26, 27, 28, 29, 30, 31, 32, 33, 34, 35, 36, 37, 38, 39, 40, 41, 42, 43, 44, 45, 46, 47, 48, 49, 50, 51, 52, 53, 54, 55, 56, 57, 58, 59, 60, 61, 62, 63, 64, 65, 66, 67, 68, 69, 70, 71, 72, 73, 74, 75, 76, 77, 78, 79, 80, 81, 82, 83, 84, 85, 86, 87, 88, 89, 90, 91, 92, 93, 94, 95, 96, 97, 98, 99, 100, 101, 102, 103, 104, 105, 106, 107, 108, 109, 110, 111, 112, 113, 114, 115, 116, 117, 118, 119, 120, 121, 122, 123, 124, 125, 126, 127, 128, 129, 130, 131, 132, 133, 134, 135, 136, 137, 138, 139, 140, 141, 142, 143, 144, 145, 146, 147, 148, 149, 150, 151, 152, 153, 154, 155, 156, 157, 158, 159, 160, 161, 162, 163, 164, 165, 166, 167, 168, 169, 170, 171, 172, 173, 174, 175, 176, 177, 178, 179, 180, 181, 182, 183, 184, 185, 186, 187, 188, 189, 190],
      "AcquisitionTime": ["181817.287500", "181818.777500", "181820.267500", "181821.757500", "181823.247500", "181824.737500", "181826.227500", "181827.717500", "181829.207500", "181830.697500", "181832.187500", "181833.677500", "181835.167500", "181836.657500", "181838.147500", "181839.637500", "181841.127500", "181842.617500", "181844.107500", "181845.597500", "181847.087500", "181848.577500", "181850.067500", "181851.557500", "181853.047500", "181854.537500", "181856.027500", "181857.517500", "181859.007500", "181900.497500", "181901.987500", "181903.477500", "181904.967500", "181906.457500", "181907.947500", "181909.437500", "181910.927500", "181912.417500", "181913.907500", "181915.397500", "181916.887500", "181918.377500", "181919.867500", "181921.357500", "181922.847500", "181924.337500", "181925.827500", "181927.317500", "181928.807500", "181930.297500", "181931.787500", "181933.277500", "181934.767500", "181936.257500", "181937.747500", "181939.237500", "181940.727500", "181942.217500", "181943.707500", "181945.197500", "181946.687500", "181948.177500", "181949.667500", "181951.157500", "181952.647500", "181954.137500", "181955.627500", "181957.117500", "181958.607500", "182000.097500", "182001.587500", "182003.077500", "182004.567500", "182006.057500", "182007.547500", "182009.037500", "182010.527500", "182012.017500", "182013.507500", "182014.997500", "182016.487500", "182017.977500", "182019.467500", "182020.957500", "182022.447500", "182023.937500", "182025.427500", "182026.917500", "182028.407500", "182029.897500", "182031.387500", "182032.877500", "182034.367500", "182035.857500", "182037.347500", "182038.837500", "182040.327500", "182041.817500", "182043.307500", "182044.797500", "182046.287500", "182047.777500", "182049.267500", "182050.757500", "182052.247500", "182053.737500", "182055.227500", "182056.717500", "182058.207500", "182059.697500", "182101.187500", "182102.677500", "182104.167500", "182105.657500", "182107.147500", "182108.637500", "182110.127500", "182111.617500", "182113.107500", "182114.597500", "182116.087500", "182117.577500", "182119.067500", "182120.557500", "182122.047500", "182123.537500", "182125.027500", "182126.517500", "182128.007500", "182129.497500", "182130.987500", "182132.477500", "182133.967500", "182135.457500", "182136.947500", "182138.437500", "182139.927500", "182141.417500", "182142.907500", "182144.397500", "182145.887500", "182147.377500", "182148.867500", "182150.357500", "182151.847500", "182153.337500", "182154.827500", "182156.317500", "182157.807500", "182159.297500", "182200.787500", "182202.277500", "182203.767500", "182205.257500", "182206.747500", "182208.237500", "182209.727500", "182211.217500", "182212.707500", "182214.197500", "182215.687500", "182217.177500", "182218.667500", "182220.157500", "182221.647500", "182223.137500", "182224.627500", "182226.117500", "182227.607500", "182229.097500", "182230.587500", "182232.077500", "182233.567500", "182235.057500", "182236.547500", "182238.037500", "182239.527500", "182241.017500", "182242.507500", "182243.997500", "182245.487500", "182246.977500", "182248.467500", "182249.957500", "182251.447500", "182252.937500", "182254.427500", "182255.917500", "182257.407500", "182258.897500"],
      "ContentTime": ["181918.890000", "181918.892000", "181918.895000", "181918.897000", "181918.900000", "181918.902000", "181939.295000", "181939.297000", "181939.300000", "181939.302000", "181939.305000", "181939.307000", "181939.310000", "181939.312000", "181939.315000", "181939.320000", "181939.322000", "181939.325000", "181939.327000", "181939.330000", "181939.332000", "181939.335000", "181939.337000", "181939.340000", "181939.342000", "181939.345000", "181958.900000", "181958.903000", "181958.905000", "181958.908000", "181958.910000", "181958.913000", "181958.915000", "181958.918000", "181958.920000", "181958.923000", "181958.925000", "181958.928000", "181958.930000", "181958.933000", "181958.935000", "181958.938000", "181958.940000", "181958.943000", "181958.945000", "181958.948000", "181958.950000", "182018.904000", "182018.911000", "182018.914000", "182018.916000", "182018.919000", "182018.921000", "182018.924000", "182018.926000", "182018.929000", "182018.931000", "182018.934000", "182018.936000", "182018.939000", "182018.941000", "182018.944000", "182018.946000", "182018.949000", "182018.951000", "182018.954000", "182018.956000", "182038.915000", "182038.918000", "182038.920000", "182038.923000", "182038.925000", "182038.928000", "182038.930000", "182038.933000", "182038.935000", "182038.938000", "182038.945000", "182038.947000", "182038.950000", "182038.953000", "182038.955000", "182038.958000", "182038.960000", "182038.963000", "182038.965000", "182038.968000", "182058.897000", "182058.900000", "182058.903000", "182058.905000", "182058.908000", "182058.910000", "182058.913000", "182058.915000", "182058.918000", "182058.920000", "182058.923000", "182058.925000", "182058.928000", "182058.930000", "182058.933000", "182058.935000", "182058.938000", "182058.940000", "182058.943000", "182058.945000", "182138.945000", "182138.948000", "182138.950000", "182138.953000", "182138.955000", "182138.958000", "182138.960000", "182138.963000", "182138.965000", "182138.968000", "182138.970000", "182138.973000", "182138.975000", "182138.978000", "182138.980000", "182138.983000", "182138.985000", "182138.988000", "182138.990000", "182138.993000", "182138.995000", "182138.998000", "182139.001000", "182139.004000", "182139.006000", "182139.009000", "182139.011000", "182218.930000", "182218.932000", "182218.935000", "182218.937000", "182218.940000", "182218.942000", "182218.945000", "182218.947000", "182218.950000", "182218.952000", "182218.955000", "182218.958000", "182218.960000", "182218.963000", "182218.965000", "182218.968000", "182218.970000", "182218.973000", "182218.975000", "182218.978000", "182218.980000", "182218.983000", "182218.985000", "182218.988000", "182218.990000", "182218.993000", "182218.995000", "182258.948000", "182258.951000", "182258.954000", "182258.956000", "182258.959000", "182258.961000", "182258.964000", "182258.966000", "182258.969000", "182258.971000", "182258.974000", "182258.976000", "182258.979000", "182258.981000", "182258.984000", "182258.986000", "182258.989000", "182258.991000", "182258.994000", "182258.996000", "182259.000000", "182259.003000", "182259.005000", "182259.008000", "182259.010000", "182259.013000", "182259.015000", "182301.452000", "182301.455000"],
      "InstanceCreationTime": ["181918.890000", "181918.892000", "181918.895000", "181918.897000", "181918.900000", "181918.902000", "181939.295000", "181939.297000", "181939.300000", "181939.302000", "181939.305000", "181939.307000", "181939.310000", "181939.312000", "181939.315000", "181939.320000", "181939.322000", "181939.325000", "181939.327000", "181939.330000", "181939.332000", "181939.335000", "181939.337000", "181939.340000", "181939.342000", "181939.345000", "181958.900000", "181958.903000", "181958.905000", "181958.908000", "181958.910000", "181958.913000", "181958.915000", "181958.918000", "181958.920000", "181958.923000", "181958.925000", "181958.928000", "181958.930000", "181958.933000", "181958.935000", "181958.938000", "181958.940000", "181958.943000", "181958.945000", "181958.948000", "181958.950000", "182018.904000", "182018.911000", "182018.914000", "182018.916000", "182018.919000", "182018.921000", "182018.924000", "182018.926000", "182018.929000", "182018.931000", "182018.934000", "182018.936000", "182018.939000", "182018.941000", "182018.944000", "182018.946000", "182018.949000", "182018.951000", "182018.954000", "182018.956000", "182038.915000", "182038.918000", "182038.920000", "182038.923000", "182038.925000", "182038.928000", "182038.930000", "182038.933000", "182038.935000", "182038.938000", "182038.945000", "182038.947000", "182038.950000", "182038.953000", "182038.955000", "182038.958000", "182038.960000", "182038.963000", "182038.965000", "182038.968000", "182058.897000", "182058.900000", "182058.903000", "182058.905000", "182058.908000", "182058.910000", "182058.913000", "182058.915000", "182058.918000", "182058.920000", "182058.923000", "182058.925000", "182058.928000", "182058.930000", "182058.933000", "182058.935000", "182058.938000", "182058.940000", "182058.943000", "182058.945000", "182138.945000", "182138.948000", "182138.950000", "182138.953000", "182138.955000", "182138.958000", "182138.960000", "182138.963000", "182138.965000", "182138.968000", "182138.970000", "182138.973000", "182138.975000", "182138.978000", "182138.980000", "182138.983000", "182138.985000", "182138.988000", "182138.990000", "182138.993000", "182138.995000", "182138.998000", "182139.001000", "182139.004000", "182139.006000", "182139.009000", "182139.011000", "182218.930000", "182218.932000", "182218.935000", "182218.937000", "182218.940000", "182218.942000", "182218.945000", "182218.947000", "182218.950000", "182218.952000", "182218.955000", "182218.958000", "182218.960000", "182218.963000", "182218.965000", "182218.968000", "182218.970000", "182218.973000", "182218.975000", "182218.978000", "182218.980000", "182218.983000", "182218.985000", "182218.988000", "182218.990000", "182218.993000", "182218.995000", "182258.948000", "182258.951000", "182258.954000", "182258.956000", "182258.959000", "182258.961000", "182258.964000", "182258.966000", "182258.969000", "182258.971000", "182258.974000", "182258.976000", "182258.979000", "182258.981000", "182258.984000", "182258.986000", "182258.989000", "182258.991000", "182258.994000", "182258.996000", "182259.000000", "182259.003000", "182259.005000", "182259.008000", "182259.010000", "182259.013000", "182259.015000", "182301.452000", "182301.455000"],
      "InstanceNumber": [1, 2, 3, 4, 5, 6, 7, 8, 9, 10, 11, 12, 13, 14, 15, 16, 17, 18, 19, 20, 21, 22, 23, 24, 25, 26, 27, 28, 29, 30, 31, 32, 33, 34, 35, 36, 37, 38, 39, 40, 41, 42, 43, 44, 45, 46, 47, 48, 49, 50, 51, 52, 53, 54, 55, 56, 57, 58, 59, 60, 61, 62, 63, 64, 65, 66, 67, 68, 69, 70, 71, 72, 73, 74, 75, 76, 77, 78, 79, 80, 81, 82, 83, 84, 85, 86, 87, 88, 89, 90, 91, 92, 93, 94, 95, 96, 97, 98, 99, 100, 101, 102, 103, 104, 105, 106, 107, 108, 109, 110, 111, 112, 113, 114, 115, 116, 117, 118, 119, 120, 121, 122, 123, 124, 125, 126, 127, 128, 129, 130, 131, 132, 133, 134, 135, 136, 137, 138, 139, 140, 141, 142, 143, 144, 145, 146, 147, 148, 149, 150, 151, 152, 153, 154, 155, 156, 157, 158, 159, 160, 161, 162, 163, 164, 165, 166, 167, 168, 169, 170, 171, 172, 173, 174, 175, 176, 177, 178, 179, 180, 181, 182, 183, 184, 185, 186, 187, 188, 189, 190],
      "WindowCenter": [4880.0, 4852.0, 4854.0, 4856.0, 4854.0, 4858.0, 4880.0, 4872.0, 4870.0, 4878.0, 4856.0, 4852.0, 4848.0, 4878.0, 4878.0, 4856.0, 4858.0, 4856.0, 4878.0, 4876.0, 4870.0, 4878.0, 4878.0, 4852.0, 4852.0, 4852.0, 4878.0, 4882.0, 4878.0, 4882.0, 4884.0, 4880.0, 4878.0, 4878.0, 4852.0, 4856.0, 4880.0, 4880.0, 4880.0, 4856.0, 4854.0, 4880.0, 4878.0, 4880.0, 4858.0, 4878.0, 4878.0, 4856.0, 4856.0, 4856.0, 4880.0, 4880.0, 4882.0, 4878.0, 4872.0, 4880.0, 4880.0, 4878.0, 4854.0, 4878.0, 4876.0, 4874.0, 4854.0, 4876.0, 4878.0, 4882.0, 4876.0, 4880.0, 4880.0, 4878.0, 4880.0, 4856.0, 4878.0, 4878.0, 4878.0, 4878.0, 4882.0, 4878.0, 4878.0, 4880.0, 4878.0, 4878.0, 4880.0, 4858.0, 4880.0, 4876.0, 4878.0, 4880.0, 4876.0, 4858.0, 4878.0, 4876.0, 4878.0, 4880.0, 4878.0, 4856.0, 4878.0, 4882.0, 4880.0, 4880.0, 4880.0, 4878.0, 4878.0, 4880.0, 4878.0, 4876.0, 4876.0, 4880.0, 4878.0, 4878.0, 4880.0, 4876.0, 4880.0, 4882.0, 4878.0, 4878.0, 4878.0, 4876.0, 4878.0, 4882.0, 4880.0, 4876.0, 4878.0, 4856.0, 4880.0, 4882.0, 4880.0, 4878.0, 4878.0, 4880.0, 4880.0, 4880.0, 4878.0, 4878.0, 4880.0, 4882.0, 4880.0, 4870.0, 4848.0, 4878.0, 4876.0, 4878.0, 4850.0, 4882.0, 4878.0, 4846.0, 4868.0, 4878.0, 4878.0, 4858.0, 4878.0, 4878.0, 4880.0, 4882.0, 4880.0, 4880.0, 4880.0, 4876.0, 4874.0, 4878.0, 4880.0, 4878.0, 4876.0, 4878.0, 4878.0, 4880.0, 4876.0, 4876.0, 4878.0, 4880.0, 4876.0, 4874.0, 4878.0, 4856.0, 4858.0, 4856.0, 4880.0, 4882.0, 4880.0, 4876.0, 4872.0, 4870.0, 4880.0, 4880.0, 4856.0, 4876.0, 4878.0, 4880.0, 4874.0, 4870.0],
      "WindowWidth": [18672.0, 18632.0, 18628.0, 18632.0, 18638.0, 18634.0, 18670.0, 18674.0, 18680.0, 18676.0, 18642.0, 18626.0, 18626.0, 18666.0, 18668.0, 18636.0, 18636.0, 18640.0, 18678.0, 18674.0, 18672.0, 18676.0, 18668.0, 18626.0, 18624.0, 18628.0, 18672.0, 18676.0, 18666.0, 18672.0, 18674.0, 18674.0, 18680.0, 18676.0, 18634.0, 18640.0, 18672.0, 18682.0, 18674.0, 18632.0, 18634.0, 18668.0, 18678.0, 18670.0, 18636.0, 18676.0, 18672.0, 18634.0, 18634.0, 18636.0, 18678.0, 18668.0, 18674.0, 18678.0, 18678.0, 18676.0, 18674.0, 18670.0, 18638.0, 18672.0, 18678.0, 18678.0, 18642.0, 18668.0, 18666.0, 18666.0, 18670.0, 18678.0, 18680.0, 18668.0, 18668.0, 18640.0, 18670.0, 18672.0, 18670.0, 18672.0, 18674.0, 18678.0, 18672.0, 18672.0, 18670.0, 18670.0, 18672.0, 18640.0, 18672.0, 18670.0, 18678.0, 18676.0, 18664.0, 18640.0, 18668.0, 18670.0, 18680.0, 18676.0, 18674.0, 18638.0, 18670.0, 18684.0, 18674.0, 18668.0, 18672.0, 18672.0, 18672.0, 18674.0, 18670.0, 18668.0, 18676.0, 18674.0, 18670.0, 18664.0, 18676.0, 18676.0, 18678.0, 18668.0, 18662.0, 18670.0, 18680.0, 18676.0, 18678.0, 18674.0, 18674.0, 18680.0, 18674.0, 18646.0, 18676.0, 18684.0, 18672.0, 18680.0, 18674.0, 18674.0, 18676.0, 18680.0, 18678.0, 18676.0, 18670.0, 18676.0, 18674.0, 18676.0, 18650.0, 18676.0, 18670.0, 18670.0, 18636.0, 18668.0, 18674.0, 18650.0, 18678.0, 18676.0, 18676.0, 18640.0, 18664.0, 18676.0, 18676.0, 18674.0, 18670.0, 18674.0, 18676.0, 18678.0, 18684.0, 18678.0, 18672.0, 18680.0, 18672.0, 18668.0, 18664.0, 18672.0, 18674.0, 18680.0, 18674.0, 18678.0, 18674.0, 18682.0, 18676.0, 18638.0, 18632.0, 18636.0, 18666.0, 18674.0, 18676.0, 18672.0, 18676.0, 18672.0, 18674.0, 18672.0, 18628.0, 18664.0, 18666.0, 18674.0, 18676.0, 18680.0]
    },
    "slices": {}
  }
}