{
  "AcquisitionMatrixPE": 104,
  "AcquisitionNumber": 1,
  "AcquisitionTime": "18:24:29.555000",
  "BandwidthPerPixelPhaseEncode": 17.17,
  "BaseResolution": 104,
  "BodyPartExamined": "BRAIN",
  "CoilString": "HC1-7;NC1_2",
  "ConsistencyInfo": "N4_VE11C_LATEST_20160120",
  "ConversionSoftware": "dcm2niix",
  "ConversionSoftwareVersion": "v1.0.20190902",
  "DerivedVendorReportedEchoSpacing": 0.000560011,
  "DeviceSerialNumber": "167006",
  "DwellTime": 2.1e-06,
  "EchoTime": 0.037,
  "EchoTrainLength": 104,
  "EffectiveEchoSpacing": 0.000560011,
  "FlipAngle": 52,
  "ImageComments": "Unaliased_MB4_PE3_LB",
  "ImageOrientationPatientDICOM": [0.997005, 0.0676057, 0.0375552, -0.0496338, 0.931761, -0.359663],
  "ImageType": [
    "ORIGINAL",
    "PRIMARY",
    "P",
    "MB",
    "ND",
    "MOSAIC"
],
  "ImagingFrequency": 123.259,
  "InPlanePhaseEncodingDirectionDICOM": "COL",
  "InstitutionAddress": "Chemin_Queen-Mary_4565_Montreal_District_CA_H3W_1W5",
  "InstitutionName": "IUGM",
  "InstitutionalDepartmentName": "Department",
  "MRAcquisitionType": "2D",
  "MagneticFieldStrength": 3,
  "Manufacturer": "Siemens",
  "ManufacturersModelName": "Prisma_fit",
  "Modality": "MR",
  "MultibandAccelerationFactor": 4,
  "PartialFourier": 1,
  "PatientPosition": "HFS",
  "PercentPhaseFOV": 100,
  "PhaseEncodingDirection": "j",
  "PhaseEncodingSteps": 104,
  "PhaseResolution": 1,
  "PixelBandwidth": 2290,
  "ProcedureStepDescription": "memory_things",
  "ProtocolName": "func_task-things_run-5",
  "PulseSequenceDetails": "%CustomerSeq%_cmrr_mbep2d_bold",
  "ReceiveCoilActiveElements": "HC1-7;NC1,2",
  "ReceiveCoilName": "HeadNeck_64",
  "ReconMatrixPE": 104,
  "RepetitionTime": 1.49,
  "SAR": 0.0382126,
  "ScanOptions": "FS",
  "ScanningSequence": "EP",
  "SequenceName": "epfid2d1_104",
  "SequenceVariant": "SK_SS",
  "SeriesDescription": "func_task-things_run-5",
  "SeriesNumber": 23,
  "ShimSetting": [635, -7185, -8822, 644, 97, 26, -34, -9],
  "SliceThickness": 2,
  "SliceTiming": [0, 0.785, 0.1, 0.8825, 0.1975, 0.98, 0.295, 1.08, 0.3925, 1.1775, 0.49, 1.275, 0.59, 1.3725, 0.6875, 0, 0.785, 0.1, 0.8825, 0.1975, 0.98, 0.295, 1.08, 0.3925, 1.1775, 0.49, 1.275, 0.59, 1.3725, 0.6875, 0, 0.785, 0.1, 0.8825, 0.1975, 0.98, 0.295, 1.08, 0.3925, 1.1775, 0.49, 1.275, 0.59, 1.3725, 0.6875, 0, 0.785, 0.1, 0.8825, 0.1975, 0.98, 0.295, 1.08, 0.3925, 1.1775, 0.49, 1.275, 0.59, 1.3725, 0.6875],
  "SoftwareVersions": "syngo_MR_E11",
  "SpacingBetweenSlices": 2,
  "StationName": "MRC35049",
  "TaskName": "things",
  "TotalReadoutTime": 0.0576811,
  "TxRefAmp": 243.652,
  "WipMemBlock": "9fcaa481-ce25-41e0-bc6d-73803ecd0c83||Sequence: R016 ve11c/master r/e634e98; Dec 19 2017 11:00:25 by eja",
  "dcmmeta_affine": [
    [-1.994010090827942, -0.09926769137382507, 0.11861544102430344, 108.8779296875],
    [-0.13521146774291992, 1.8635224103927612, -0.7134437561035156, -52.010772705078125],
    [0.0751103088259697, 0.7193261384963989, 1.8646522760391235, -65.7485122680664],
    [0.0, 0.0, 0.0, 1.0]
],
  "dcmmeta_reorient_transform": [
    [0.0, -1.0, 0.0, 103.0],
    [1.0, 0.0, 0.0, 0.0],
    [0.0, 0.0, 1.0, 0.0],
    [0.0, 0.0, 0.0, 1.0]
],
  "dcmmeta_shape": [104, 104, 60, 190],
  "dcmmeta_slice_dim": 2,
  "dcmmeta_version": 0.6,
  "global": {
    "const": {
      "AcquisitionMatrix": [104, 0, 0, 104],
      "AngioFlag": "N",
      "BitsAllocated": 16,
      "BitsStored": 16,
      "BodyPartExamined": "BRAIN",
      "Columns": 832,
      "EchoNumbers": 1,
      "EchoTime": 37.0,
      "EchoTrainLength": 104,
      "FlipAngle": 52.0,
      "HighBit": 15,
      "ImageOrientationPatient": [0.99700505284235, 0.06760573140007, 0.03755515528775, -0.0496338462275, 0.93176121055081, -0.3596630754214],
      "ImagePositionPatient": [-788.33959294228, -867.47117091676, 242.83664881937],
      "ImageType": [
        "ORIGINAL",
        "PRIMARY",
        "P",
        "MB",
        "ND",
        "MOSAIC"
],
      "ImagedNucleus": "1H",
      "ImagingFrequency": 123.258919,
      "InPlanePhaseEncodingDirection": "COL",
      "LargestImagePixelValue": 4095,
      "MRAcquisitionType": "2D",
      "MagneticFieldStrength": 3.0,
      "Manufacturer": "SIEMENS",
      "ManufacturerModelName": "Prisma_fit",
      "Modality": "MR",
      "NumberOfAverages": 1.0,
      "NumberOfPhaseEncodingSteps": 104,
      "PercentPhaseFieldOfView": 100.0,
      "PercentSampling": 100.0,
      "PerformedProcedureStepStartTime": "170829.074000",
      "PhotometricInterpretation": "MONOCHROME2",
      "PixelBandwidth": 2290.0,
      "PixelRepresentation": 0,
      "PixelSpacing": [2.0, 2.0],
      "ProtocolName": "func_task-things_run-5",
      "RepetitionTime": 1490.0,
      "RescaleIntercept": -4096.0,
      "RescaleSlope": 2.0,
      "RescaleType": "US",
      "Rows": 832,
      "SAR": 0.03821264160337,
      "SamplesPerPixel": 1,
      "ScanOptions": "FS",
      "ScanningSequence": "EP",
      "SequenceName": "epfid2d1_104",
      "SequenceVariant": [
        "SK",
        "SS"
],
      "SeriesDescription": "func_task-things_run-5",
      "SeriesNumber": 23,
      "SeriesTime": "182548.217000",
      "SliceLocation": -36.288373729264,
      "SliceThickness": 2.0,
      "SmallestImagePixelValue": 0,
      "SoftwareVersions": "syngo MR E11",
      "SpacingBetweenSlices": 1.9999999703987,
      "SpecificCharacterSet": "ISO_IR 100",
      "StudyID": "1",
      "StudyTime": "170828.986000",
      "TransmitCoilName": "Body",
      "VariableFlipAngleFlag": "N",
      "WindowCenterWidthExplanation": "Algo1",
      "dBdt": 0.0},
    "slices": {}
  },
  "time": {
    "samples": {
      "AcquisitionNumber": [1, 2, 3, 4, 5, 6, 7, 8, 9, 10, 11, 12, 13, 14, 15, 16, 17, 18, 19, 20, 21, 22, 23, 24, 25, 26, 27, 28, 29, 30, 31, 32, 33, 34, 35, 36, 37, 38, 39, 40, 41, 42, 43, 44, 45, 46, 47, 48, 49, 50, 51, 52, 53, 54, 55, 56, 57, 58, 59, 60, 61, 62, 63, 64, 65, 66, 67, 68, 69, 70, 71, 72, 73, 74, 75, 76, 77, 78, 79, 80, 81, 82, 83, 84, 85, 86, 87, 88, 89, 90, 91, 92, 93, 94, 95, 96, 97, 98, 99, 100, 101, 102, 103, 104, 105, 106, 107, 108, 109, 110, 111, 112, 113, 114, 115, 116, 117, 118, 119, 120, 121, 122, 123, 124, 125, 126, 127, 128, 129, 130, 131, 132, 133, 134, 135, 136, 137, 138, 139, 140, 141, 142, 143, 144, 145, 146, 147, 148, 149, 150, 151, 152, 153, 154, 155, 156, 157, 158, 159, 160, 161, 162, 163, 164, 165, 166, 167, 168, 169, 170, 171, 172, 173, 174, 175, 176, 177, 178, 179, 180, 181, 182, 183, 184, 185, 186, 187, 188, 189, 190],
      "AcquisitionTime": ["182429.555000", "182431.045000", "182432.535000", "182434.025000", "182435.515000", "182437.005000", "182438.495000", "182439.985000", "182441.475000", "182442.965000", "182444.455000", "182445.945000", "182447.435000", "182448.925000", "182450.415000", "182451.905000", "182453.395000", "182454.885000", "182456.375000", "182457.865000", "182459.355000", "182500.845000", "182502.335000", "182503.825000", "182505.315000", "182506.805000", "182508.295000", "182509.785000", "182511.275000", "182512.765000", "182514.255000", "182515.745000", "182517.235000", "182518.725000", "182520.215000", "182521.705000", "182523.195000", "182524.685000", "182526.175000", "182527.665000", "182529.155000", "182530.645000", "182532.135000", "182533.625000", "182535.115000", "182536.605000", "182538.095000", "182539.585000", "182541.075000", "182542.565000", "182544.055000", "182545.545000", "182547.035000", "182548.525000", "182550.015000", "182551.505000", "182552.995000", "182554.485000", "182555.975000", "182557.465000", "182558.955000", "182600.445000", "182601.935000", "182603.425000", "182604.915000", "182606.405000", "182607.895000", "182609.385000", "182610.875000", "182612.365000", "182613.855000", "182615.345000", "182616.835000", "182618.325000", "182619.815000", "182621.305000", "182622.795000", "182624.285000", "182625.775000", "182627.265000", "182628.755000", "182630.245000", "182631.735000", "182633.225000", "182634.715000", "182636.205000", "182637.695000", "182639.185000", "182640.675000", "182642.165000", "182643.655000", "182645.145000", "182646.635000", "182648.125000", "182649.615000", "182651.105000", "182652.595000", "182654.085000", "182655.575000", "182657.065000", "182658.555000", "182700.045000", "182701.535000", "182703.025000", "182704.515000", "182706.005000", "182707.495000", "182708.985000", "182710.475000", "182711.965000", "182713.455000", "182714.945000", "182716.435000", "182717.925000", "182719.415000", "182720.905000", "182722.395000", "182723.885000", "182725.375000", "182726.865000", "182728.355000", "182729.845000", "182731.335000", "182732.825000", "182734.315000", "182735.805000", "182737.295000", "182738.785000", "182740.275000", "182741.765000", "182743.255000", "182744.745000", "182746.235000", "182747.725000", "182749.215000", "182750.705000", "182752.195000", "182753.685000", "182755.175000", "182756.665000", "182758.155000", "182759.645000", "182801.135000", "182802.625000", "182804.115000", "182805.605000", "182807.095000", "182808.585000", "182810.075000", "182811.565000", "182813.055000", "182814.545000", "182816.035000", "182817.525000", "182819.015000", "182820.505000", "182821.995000", "182823.485000", "182824.975000", "182826.465000", "182827.955000", "182829.445000", "182830.935000", "182832.425000", "182833.915000", "182835.405000", "182836.895000", "182838.385000", "182839.875000", "182841.365000", "182842.855000", "182844.345000", "182845.835000", "182847.325000", "182848.815000", "182850.305000", "182851.795000", "182853.285000", "182854.775000", "182856.265000", "182857.755000", "182859.245000", "182900.735000", "182902.225000", "182903.715000", "182905.205000", "182906.695000", "182908.185000", "182909.675000", "182911.165000"],
      "ContentTime": ["182548.219000", "182548.222000", "182548.224000", "182548.235000", "182548.237000", "182548.240000", "182548.242000", "182548.245000", "182548.247000", "182548.250000", "182548.252000", "182548.255000", "182548.257000", "182548.260000", "182548.262000", "182548.265000", "182548.267000", "182548.270000", "182548.272000", "182548.275000", "182548.277000", "182548.280000", "182548.282000", "182548.285000", "182608.176000", "182608.179000", "182608.181000", "182608.184000", "182608.187000", "182608.189000", "182608.192000", "182608.194000", "182608.203000", "182608.205000", "182608.208000", "182608.210000", "182608.213000", "182608.215000", "182608.218000", "182608.220000", "182608.223000", "182608.225000", "182608.228000", "182608.230000", "182628.158000", "182628.161000", "182628.163000", "182628.166000", "182628.168000", "182628.171000", "182628.173000", "182628.176000", "182628.178000", "182628.181000", "182628.183000", "182628.190000", "182628.192000", "182628.195000", "182628.198000", "182628.200000", "182628.203000", "182628.205000", "182628.208000", "182628.210000", "182648.164000", "182648.167000", "182648.169000", "182648.172000", "182648.174000", "182648.177000", "182648.179000", "182648.182000", "182648.184000", "182648.187000", "182648.189000", "182648.192000", "182648.194000", "182648.197000", "182648.199000", "182648.206000", "182648.209000", "182648.211000", "182648.213000", "182648.216000", "182648.219000", "182708.168000", "182708.171000", "182708.174000", "182708.176000", "182708.179000", "182708.181000", "182708.184000", "182708.186000", "182708.189000", "182708.192000", "182708.194000", "182708.196000", "182708.199000", "182708.202000", "182708.204000", "182708.207000", "182708.209000", "182708.212000", "182708.214000", "182708.217000", "182748.182000", "182748.184000", "182748.187000", "182748.189000", "182748.192000", "182748.194000", "182748.197000", "182748.200000", "182748.202000", "182748.205000", "182748.207000", "182748.209000", "182748.212000", "182748.215000", "182748.217000", "182748.220000", "182748.222000", "182748.225000", "182748.227000", "182748.230000", "182748.232000", "182748.237000", "182748.239000", "182748.242000", "182748.244000", "182748.247000", "182748.249000", "182828.183000", "182828.186000", "182828.189000", "182828.191000", "182828.194000", "182828.196000", "182828.199000", "182828.201000", "182828.204000", "182828.206000", "182828.209000", "182828.211000", "182828.214000", "182828.216000", "182828.219000", "182828.222000", "182828.224000", "182828.227000", "182828.229000", "182828.232000", "182828.234000", "182828.237000", "182828.239000", "182828.242000", "182828.244000", "182828.247000", "182828.249000", "182908.186000", "182908.189000", "182908.192000", "182908.194000", "182908.197000", "182908.199000", "182908.202000", "182908.204000", "182908.207000", "182908.209000", "182908.212000", "182908.214000", "182908.217000", "182908.219000", "182908.222000", "182908.224000", "182908.227000", "182908.229000", "182908.232000", "182908.234000", "182908.237000", "182908.239000", "182908.242000", "182908.244000", "182908.247000", "182908.249000", "182908.263000", "182913.675000", "182913.678000", "182913.680000", "182913.683000"],
      "InstanceCreationTime": ["182548.219000", "182548.222000", "182548.224000", "182548.235000", "182548.237000", "182548.240000", "182548.242000", "182548.245000", "182548.247000", "182548.250000", "182548.252000", "182548.255000", "182548.257000", "182548.260000", "182548.262000", "182548.265000", "182548.267000", "182548.270000", "182548.272000", "182548.275000", "182548.277000", "182548.280000", "182548.282000", "182548.285000", "182608.176000", "182608.179000", "182608.181000", "182608.184000", "182608.187000", "182608.189000", "182608.192000", "182608.194000", "182608.203000", "182608.205000", "182608.208000", "182608.210000", "182608.213000", "182608.215000", "182608.218000", "182608.220000", "182608.223000", "182608.225000", "182608.228000", "182608.230000", "182628.158000", "182628.161000", "182628.163000", "182628.166000", "182628.168000", "182628.171000", "182628.173000", "182628.176000", "182628.178000", "182628.181000", "182628.183000", "182628.190000", "182628.192000", "182628.195000", "182628.198000", "182628.200000", "182628.203000", "182628.205000", "182628.208000", "182628.210000", "182648.164000", "182648.167000", "182648.169000", "182648.172000", "182648.174000", "182648.177000", "182648.179000", "182648.182000", "182648.184000", "182648.187000", "182648.189000", "182648.192000", "182648.194000", "182648.197000", "182648.199000", "182648.206000", "182648.209000", "182648.211000", "182648.213000", "182648.216000", "182648.219000", "182708.168000", "182708.171000", "182708.174000", "182708.176000", "182708.179000", "182708.181000", "182708.184000", "182708.186000", "182708.189000", "182708.192000", "182708.194000", "182708.196000", "182708.199000", "182708.202000", "182708.204000", "182708.207000", "182708.209000", "182708.212000", "182708.214000", "182708.217000", "182748.182000", "182748.184000", "182748.187000", "182748.189000", "182748.192000", "182748.194000", "182748.197000", "182748.200000", "182748.202000", "182748.205000", "182748.207000", "182748.209000", "182748.212000", "182748.215000", "182748.217000", "182748.220000", "182748.222000", "182748.225000", "182748.227000", "182748.230000", "182748.232000", "182748.237000", "182748.239000", "182748.242000", "182748.244000", "182748.247000", "182748.249000", "182828.183000", "182828.186000", "182828.189000", "182828.191000", "182828.194000", "182828.196000", "182828.199000", "182828.201000", "182828.204000", "182828.206000", "182828.209000", "182828.211000", "182828.214000", "182828.216000", "182828.219000", "182828.222000", "182828.224000", "182828.227000", "182828.229000", "182828.232000", "182828.234000", "182828.237000", "182828.239000", "182828.242000", "182828.244000", "182828.247000", "182828.249000", "182908.186000", "182908.189000", "182908.192000", "182908.194000", "182908.197000", "182908.199000", "182908.202000", "182908.204000", "182908.207000", "182908.209000", "182908.212000", "182908.214000", "182908.217000", "182908.219000", "182908.222000", "182908.224000", "182908.227000", "182908.229000", "182908.232000", "182908.234000", "182908.237000", "182908.239000", "182908.242000", "182908.244000", "182908.247000", "182908.249000", "182908.263000", "182913.675000", "182913.678000", "182913.680000", "182913.683000"],
      "InstanceNumber": [1, 2, 3, 4, 5, 6, 7, 8, 9, 10, 11, 12, 13, 14, 15, 16, 17, 18, 19, 20, 21, 22, 23, 24, 25, 26, 27, 28, 29, 30, 31, 32, 33, 34, 35, 36, 37, 38, 39, 40, 41, 42, 43, 44, 45, 46, 47, 48, 49, 50, 51, 52, 53, 54, 55, 56, 57, 58, 59, 60, 61, 62, 63, 64, 65, 66, 67, 68, 69, 70, 71, 72, 73, 74, 75, 76, 77, 78, 79, 80, 81, 82, 83, 84, 85, 86, 87, 88, 89, 90, 91, 92, 93, 94, 95, 96, 97, 98, 99, 100, 101, 102, 103, 104, 105, 106, 107, 108, 109, 110, 111, 112, 113, 114, 115, 116, 117, 118, 119, 120, 121, 122, 123, 124, 125, 126, 127, 128, 129, 130, 131, 132, 133, 134, 135, 136, 137, 138, 139, 140, 141, 142, 143, 144, 145, 146, 147, 148, 149, 150, 151, 152, 153, 154, 155, 156, 157, 158, 159, 160, 161, 162, 163, 164, 165, 166, 167, 168, 169, 170, 171, 172, 173, 174, 175, 176, 177, 178, 179, 180, 181, 182, 183, 184, 185, 186, 187, 188, 189, 190],
      "WindowCenter": [4872.0, 4870.0, 4868.0, 4866.0, 4872.0, 4874.0, 4874.0, 4874.0, 4870.0, 4866.0, 4842.0, 4870.0, 4874.0, 4874.0, 4870.0, 4870.0, 4864.0, 4870.0, 4874.0, 4870.0, 4844.0, 4844.0, 4866.0, 4874.0, 4872.0, 4874.0, 4874.0, 4842.0, 4842.0, 4866.0, 4874.0, 4872.0, 4872.0, 4870.0, 4868.0, 4838.0, 4840.0, 4868.0, 4846.0, 4874.0, 4872.0, 4872.0, 4848.0, 4866.0, 4842.0, 4870.0, 4870.0, 4874.0, 4870.0, 4872.0, 4842.0, 4866.0, 4846.0, 4872.0, 4872.0, 4872.0, 4868.0, 4840.0, 4840.0, 4846.0, 4844.0, 4876.0, 4870.0, 4844.0, 4840.0, 4868.0, 4874.0, 4870.0, 4870.0, 4870.0, 4842.0, 4838.0, 4838.0, 4840.0, 4846.0, 4868.0, 4846.0, 4868.0, 4844.0, 4870.0, 4846.0, 4840.0, 4836.0, 4832.0, 4844.0, 4870.0, 4874.0, 4874.0, 4872.0, 4844.0, 4844.0, 4842.0, 4846.0, 4846.0, 4846.0, 4842.0, 4870.0, 4870.0, 4870.0, 4840.0, 4836.0, 4840.0, 4870.0, 4870.0, 4874.0, 4848.0, 4844.0, 4844.0, 4866.0, 4870.0, 4870.0, 4868.0, 4868.0, 4842.0, 4846.0, 4870.0, 4848.0, 4842.0, 4864.0, 4846.0, 4846.0, 4872.0, 4868.0, 4840.0, 4834.0, 4844.0, 4868.0, 4846.0, 4866.0, 4864.0, 4846.0, 4840.0, 4838.0, 4840.0, 4866.0, 4868.0, 4846.0, 4842.0, 4834.0, 4836.0, 4846.0, 4870.0, 4848.0, 4868.0, 4846.0, 4836.0, 4836.0, 4838.0, 4842.0, 4842.0, 4842.0, 4836.0, 4840.0, 4846.0, 4870.0, 4868.0, 4840.0, 4832.0, 4836.0, 4864.0, 4868.0, 4868.0, 4848.0, 4844.0, 4836.0, 4832.0, 4838.0, 4842.0, 4868.0, 4868.0, 4868.0, 4840.0, 4834.0, 4844.0, 4866.0, 4844.0, 4844.0, 4866.0, 4846.0, 4870.0, 4836.0, 4828.0, 4808.0, 4838.0, 4868.0, 4874.0, 4852.0, 4878.0, 4872.0, 4848.0],
      "WindowWidth": [18676.0, 18674.0, 18680.0, 18676.0, 18674.0, 18680.0, 18676.0, 18674.0, 18676.0, 18674.0, 18644.0, 18678.0, 18678.0, 18682.0, 18680.0, 18678.0, 18678.0, 18674.0, 18682.0, 18678.0, 18648.0, 18646.0, 18678.0, 18680.0, 18676.0, 18672.0, 18682.0, 18646.0, 18644.0, 18676.0, 18678.0, 18682.0, 18674.0, 18674.0, 18680.0, 18648.0, 18644.0, 18680.0, 18646.0, 18676.0, 18674.0, 18674.0, 18642.0, 18674.0, 18640.0, 18678.0, 18672.0, 18676.0, 18674.0, 18680.0, 18650.0, 18680.0, 18646.0, 18682.0, 18676.0, 18680.0, 18674.0, 18644.0, 18646.0, 18638.0, 18646.0, 18678.0, 18678.0, 18648.0, 18644.0, 18674.0, 18672.0, 18680.0, 18676.0, 18678.0, 18648.0, 18642.0, 18640.0, 18642.0, 18646.0, 18674.0, 18650.0, 18680.0, 18646.0, 18674.0, 18648.0, 18644.0, 18644.0, 18636.0, 18650.0, 18678.0, 18682.0, 18676.0, 18682.0, 18644.0, 18646.0, 18644.0, 18646.0, 18646.0, 18646.0, 18640.0, 18678.0, 18676.0, 18676.0, 18648.0, 18646.0, 18642.0, 18674.0, 18676.0, 18676.0, 18648.0, 18652.0, 18646.0, 18670.0, 18676.0, 18678.0, 18676.0, 18672.0, 18650.0, 18646.0, 18678.0, 18648.0, 18646.0, 18680.0, 18650.0, 18650.0, 18676.0, 18674.0, 18644.0, 18634.0, 18646.0, 18676.0, 18646.0, 18676.0, 18676.0, 18644.0, 18640.0, 18642.0, 18646.0, 18676.0, 18676.0, 18646.0, 18644.0, 18642.0, 18642.0, 18646.0, 18676.0, 18646.0, 18676.0, 18646.0, 18640.0, 18640.0, 18640.0, 18644.0, 18644.0, 18644.0, 18642.0, 18646.0, 18644.0, 18676.0, 18674.0, 18648.0, 18642.0, 18644.0, 18680.0, 18680.0, 18676.0, 18646.0, 18648.0, 18642.0, 18638.0, 18642.0, 18642.0, 18678.0, 18680.0, 18682.0, 18650.0, 18640.0, 18646.0, 18678.0, 18652.0, 18642.0, 18674.0, 18644.0, 18678.0, 18644.0, 18638.0, 18610.0, 18646.0, 18676.0, 18674.0, 18642.0, 18676.0, 18674.0, 18642.0]
    },
    "slices": {}
  }
}