{
  "AcquisitionMatrixPE": 104,
  "AcquisitionNumber": 1,
  "AcquisitionTime": "18:30:55.442500",
  "BandwidthPerPixelPhaseEncode": 17.17,
  "BaseResolution": 104,
  "BodyPartExamined": "BRAIN",
  "CoilString": "HC1-7;NC1_2",
  "ConsistencyInfo": "N4_VE11C_LATEST_20160120",
  "ConversionSoftware": "dcm2niix",
  "ConversionSoftwareVersion": "v1.0.20190902",
  "DerivedVendorReportedEchoSpacing": 0.000560011,
  "DeviceSerialNumber": "167006",
  "DwellTime": 2.1e-06,
  "EchoTime": 0.037,
  "EchoTrainLength": 104,
  "EffectiveEchoSpacing": 0.000560011,
  "FlipAngle": 52,
  "ImageComments": "Unaliased_MB4_PE3_LB",
  "ImageOrientationPatientDICOM": [0.997005, 0.0676057, 0.0375552, -0.0496338, 0.931761, -0.359663],
  "ImageType": [
    "ORIGINAL",
    "PRIMARY",
    "M",
    "MB",
    "ND",
    "MOSAIC"
],
  "ImagingFrequency": 123.259,
  "InPlanePhaseEncodingDirectionDICOM": "COL",
  "InstitutionAddress": "Chemin_Queen-Mary_4565_Montreal_District_CA_H3W_1W5",
  "InstitutionName": "IUGM",
  "InstitutionalDepartmentName": "Department",
  "MRAcquisitionType": "2D",
  "MagneticFieldStrength": 3,
  "Manufacturer": "Siemens",
  "ManufacturersModelName": "Prisma_fit",
  "Modality": "MR",
  "MultibandAccelerationFactor": 4,
  "PartialFourier": 1,
  "PatientPosition": "HFS",
  "PercentPhaseFOV": 100,
  "PhaseEncodingDirection": "j",
  "PhaseEncodingSteps": 104,
  "PhaseResolution": 1,
  "PixelBandwidth": 2290,
  "ProcedureStepDescription": "memory_things",
  "ProtocolName": "func_task-things_run-6",
  "PulseSequenceDetails": "%CustomerSeq%_cmrr_mbep2d_bold",
  "ReceiveCoilActiveElements": "HC1-7;NC1,2",
  "ReceiveCoilName": "HeadNeck_64",
  "ReconMatrixPE": 104,
  "RepetitionTime": 1.49,
  "SAR": 0.0382126,
  "ScanOptions": "FS",
  "ScanningSequence": "EP",
  "SequenceName": "epfid2d1_104",
  "SequenceVariant": "SK_SS",
  "SeriesDescription": "func_task-things_run-6",
  "SeriesNumber": 25,
  "ShimSetting": [635, -7185, -8822, 644, 97, 26, -34, -9],
  "SliceThickness": 2,
  "SliceTiming": [0, 0.785, 0.0975, 0.8825, 0.195, 0.98, 0.295, 1.0775, 0.3925, 1.175, 0.49, 1.275, 0.5875, 1.3725, 0.685, 0, 0.785, 0.0975, 0.8825, 0.195, 0.98, 0.295, 1.0775, 0.3925, 1.175, 0.49, 1.275, 0.5875, 1.3725, 0.685, 0, 0.785, 0.0975, 0.8825, 0.195, 0.98, 0.295, 1.0775, 0.3925, 1.175, 0.49, 1.275, 0.5875, 1.3725, 0.685, 0, 0.785, 0.0975, 0.8825, 0.195, 0.98, 0.295, 1.0775, 0.3925, 1.175, 0.49, 1.275, 0.5875, 1.3725, 0.685],
  "SoftwareVersions": "syngo_MR_E11",
  "SpacingBetweenSlices": 2,
  "StationName": "MRC35049",
  "TaskName": "things",
  "TotalReadoutTime": 0.0576811,
  "TxRefAmp": 243.652,
  "WipMemBlock": "f05053a6-423a-453b-a366-83088e30d871||Sequence: R016 ve11c/master r/e634e98; Dec 19 2017 11:00:25 by eja",
  "dcmmeta_affine": [
    [-1.994010090827942, -0.09926769137382507, 0.11861544102430344, 108.8779296875],
    [-0.13521146774291992, 1.8635224103927612, -0.7134437561035156, -52.010772705078125],
    [0.0751103088259697, 0.7193261384963989, 1.8646522760391235, -65.7485122680664],
    [0.0, 0.0, 0.0, 1.0]
],
  "dcmmeta_reorient_transform": [
    [0.0, -1.0, 0.0, 103.0],
    [1.0, 0.0, 0.0, 0.0],
    [0.0, 0.0, 1.0, 0.0],
    [0.0, 0.0, 0.0, 1.0]
],
  "dcmmeta_shape": [104, 104, 60, 190],
  "dcmmeta_slice_dim": 2,
  "dcmmeta_version": 0.6,
  "global": {
    "const": {
      "AcquisitionMatrix": [104, 0, 0, 104],
      "AngioFlag": "N",
      "BitsAllocated": 16,
      "BitsStored": 16,
      "BodyPartExamined": "BRAIN",
      "Columns": 832,
      "EchoNumbers": 1,
      "EchoTime": 37.0,
      "EchoTrainLength": 104,
      "FlipAngle": 52.0,
      "HighBit": 15,
      "ImageOrientationPatient": [0.99700505284235, 0.06760573140007, 0.03755515528775, -0.0496338462275, 0.93176121055081, -0.3596630754214],
      "ImagePositionPatient": [-788.33959294228, -867.47117091676, 242.83664881937],
      "ImageType": [
        "ORIGINAL",
        "PRIMARY",
        "M",
        "MB",
        "ND",
        "MOSAIC"
],
      "ImagedNucleus": "1H",
      "ImagingFrequency": 123.258921,
      "InPlanePhaseEncodingDirection": "COL",
      "MRAcquisitionType": "2D",
      "MagneticFieldStrength": 3.0,
      "Manufacturer": "SIEMENS",
      "ManufacturerModelName": "Prisma_fit",
      "Modality": "MR",
      "NumberOfAverages": 1.0,
      "NumberOfPhaseEncodingSteps": 104,
      "PercentPhaseFieldOfView": 100.0,
      "PercentSampling": 100.0,
      "PerformedProcedureStepStartTime": "170829.074000",
      "PhotometricInterpretation": "MONOCHROME2",
      "PixelBandwidth": 2290.0,
      "PixelRepresentation": 0,
      "PixelSpacing": [2.0, 2.0],
      "ProtocolName": "func_task-things_run-6",
      "RepetitionTime": 1490.0,
      "Rows": 832,
      "SAR": 0.03821264160337,
      "SamplesPerPixel": 1,
      "ScanOptions": "FS",
      "ScanningSequence": "EP",
      "SequenceName": "epfid2d1_104",
      "SequenceVariant": [
        "SK",
        "SS"
],
      "SeriesDescription": "func_task-things_run-6",
      "SeriesNumber": 25,
      "SeriesTime": "183217.629000",
      "SliceLocation": -36.288373729264,
      "SliceThickness": 2.0,
      "SmallestImagePixelValue": 0,
      "SoftwareVersions": "syngo MR E11",
      "SpacingBetweenSlices": 1.9999999703987,
      "SpecificCharacterSet": "ISO_IR 100",
      "StudyID": "1",
      "StudyTime": "170828.986000",
      "TransmitCoilName": "Body",
      "VariableFlipAngleFlag": "N",
      "WindowCenterWidthExplanation": "Algo1",
      "dBdt": 0.0},
    "slices": {}
  },
  "time": {
    "samples": {
      "AcquisitionNumber": [1, 2, 3, 4, 5, 6, 7, 8, 9, 10, 11, 12, 13, 14, 15, 16, 17, 18, 19, 20, 21, 22, 23, 24, 25, 26, 27, 28, 29, 30, 31, 32, 33, 34, 35, 36, 37, 38, 39, 40, 41, 42, 43, 44, 45, 46, 47, 48, 49, 50, 51, 52, 53, 54, 55, 56, 57, 58, 59, 60, 61, 62, 63, 64, 65, 66, 67, 68, 69, 70, 71, 72, 73, 74, 75, 76, 77, 78, 79, 80, 81, 82, 83, 84, 85, 86, 87, 88, 89, 90, 91, 92, 93, 94, 95, 96, 97, 98, 99, 100, 101, 102, 103, 104, 105, 106, 107, 108, 109, 110, 111, 112, 113, 114, 115, 116, 117, 118, 119, 120, 121, 122, 123, 124, 125, 126, 127, 128, 129, 130, 131, 132, 133, 134, 135, 136, 137, 138, 139, 140, 141, 142, 143, 144, 145, 146, 147, 148, 149, 150, 151, 152, 153, 154, 155, 156, 157, 158, 159, 160, 161, 162, 163, 164, 165, 166, 167, 168, 169, 170, 171, 172, 173, 174, 175, 176, 177, 178, 179, 180, 181, 182, 183, 184, 185, 186, 187, 188, 189, 190],
      "AcquisitionTime": ["183055.442500", "183056.932500", "183058.422500", "183059.912500", "183101.402500", "183102.892500", "183104.382500", "183105.872500", "183107.362500", "183108.852500", "183110.342500", "183111.832500", "183113.322500", "183114.812500", "183116.302500", "183117.792500", "183119.282500", "183120.772500", "183122.262500", "183123.752500", "183125.242500", "183126.732500", "183128.222500", "183129.712500", "183131.202500", "183132.692500", "183134.182500", "183135.672500", "183137.162500", "183138.652500", "183140.142500", "183141.632500", "183143.122500", "183144.612500", "183146.102500", "183147.592500", "183149.082500", "183150.572500", "183152.062500", "183153.552500", "183155.042500", "183156.532500", "183158.022500", "183159.512500", "183201.002500", "183202.492500", "183203.982500", "183205.472500", "183206.962500", "183208.452500", "183209.942500", "183211.432500", "183212.922500", "183214.412500", "183215.902500", "183217.392500", "183218.882500", "183220.372500", "183221.862500", "183223.352500", "183224.842500", "183226.332500", "183227.822500", "183229.312500", "183230.802500", "183232.292500", "183233.782500", "183235.272500", "183236.762500", "183238.252500", "183239.742500", "183241.232500", "183242.722500", "183244.212500", "183245.702500", "183247.192500", "183248.682500", "183250.172500", "183251.662500", "183253.152500", "183254.642500", "183256.132500", "183257.622500", "183259.112500", "183300.602500", "183302.092500", "183303.582500", "183305.072500", "183306.562500", "183308.052500", "183309.542500", "183311.032500", "183312.522500", "183314.012500", "183315.502500", "183316.992500", "183318.482500", "183319.972500", "183321.462500", "183322.952500", "183324.442500", "183325.932500", "183327.422500", "183328.912500", "183330.402500", "183331.892500", "183333.382500", "183334.872500", "183336.362500", "183337.852500", "183339.342500", "183340.832500", "183342.322500", "183343.812500", "183345.302500", "183346.792500", "183348.282500", "183349.772500", "183351.262500", "183352.752500", "183354.242500", "183355.732500", "183357.222500", "183358.712500", "183400.202500", "183401.692500", "183403.182500", "183404.672500", "183406.162500", "183407.652500", "183409.142500", "183410.632500", "183412.122500", "183413.612500", "183415.102500", "183416.592500", "183418.082500", "183419.572500", "183421.062500", "183422.552500", "183424.042500", "183425.532500", "183427.022500", "183428.512500", "183430.002500", "183431.492500", "183432.982500", "183434.472500", "183435.962500", "183437.452500", "183438.942500", "183440.432500", "183441.922500", "183443.412500", "183444.902500", "183446.392500", "183447.882500", "183449.372500", "183450.862500", "183452.352500", "183453.842500", "183455.332500", "183456.822500", "183458.312500", "183459.802500", "183501.292500", "183502.782500", "183504.272500", "183505.762500", "183507.252500", "183508.742500", "183510.232500", "183511.722500", "183513.212500", "183514.702500", "183516.192500", "183517.682500", "183519.172500", "183520.662500", "183522.152500", "183523.642500", "183525.132500", "183526.622500", "183528.112500", "183529.602500", "183531.092500", "183532.582500", "183534.072500", "183535.562500", "183537.052500"],
      "ContentTime": ["183217.633000", "183217.636000", "183217.640000", "183217.643000", "183217.646000", "183217.650000", "183217.653000", "183217.656000", "183217.660000", "183217.663000", "183217.666000", "183217.670000", "183217.673000", "183217.683000", "183217.687000", "183217.690000", "183217.693000", "183217.697000", "183217.700000", "183217.703000", "183217.706000", "183217.710000", "183217.713000", "183217.716000", "183217.720000", "183217.723000", "183217.726000", "183217.730000", "183237.596000", "183237.600000", "183237.603000", "183237.606000", "183237.610000", "183237.613000", "183237.616000", "183237.620000", "183237.623000", "183237.626000", "183237.630000", "183237.633000", "183237.636000", "183237.640000", "183237.643000", "183237.646000", "183237.649000", "183237.653000", "183237.656000", "183237.659000", "183257.596000", "183257.600000", "183257.603000", "183257.606000", "183257.610000", "183257.613000", "183257.616000", "183257.620000", "183257.623000", "183257.626000", "183257.629000", "183257.633000", "183257.636000", "183257.639000", "183257.643000", "183257.646000", "183257.649000", "183257.662000", "183257.665000", "183257.668000", "183317.596000", "183317.600000", "183317.603000", "183317.606000", "183317.610000", "183317.613000", "183317.616000", "183317.620000", "183317.623000", "183317.626000", "183317.630000", "183317.633000", "183317.636000", "183317.640000", "183317.643000", "183317.646000", "183317.650000", "183317.653000", "183317.656000", "183317.659000", "183317.663000", "183357.596000", "183357.600000", "183357.603000", "183357.624000", "183357.627000", "183357.631000", "183357.634000", "183357.637000", "183357.641000", "183357.644000", "183357.647000", "183357.651000", "183357.654000", "183357.657000", "183357.661000", "183357.664000", "183357.667000", "183357.671000", "183357.674000", "183357.677000", "183357.680000", "183357.684000", "183357.687000", "183357.690000", "183357.694000", "183357.697000", "183357.700000", "183357.703000", "183357.707000", "183357.710000", "183357.713000", "183357.717000", "183437.596000", "183437.600000", "183437.603000", "183437.607000", "183437.610000", "183437.614000", "183437.618000", "183437.621000", "183437.624000", "183437.628000", "183437.631000", "183437.635000", "183437.639000", "183437.643000", "183437.647000", "183437.650000", "183437.654000", "183437.658000", "183437.661000", "183437.665000", "183437.669000", "183437.672000", "183437.676000", "183437.680000", "183437.683000", "183437.687000", "183437.690000", "183517.596000", "183517.600000", "183517.603000", "183517.606000", "183517.610000", "183517.613000", "183517.617000", "183517.620000", "183517.623000", "183517.626000", "183517.630000", "183517.633000", "183517.636000", "183517.640000", "183517.643000", "183517.646000", "183517.650000", "183517.653000", "183517.656000", "183517.660000", "183517.663000", "183517.666000", "183517.670000", "183517.673000", "183517.676000", "183517.680000", "183517.683000", "183537.596000", "183537.600000", "183537.603000", "183537.607000", "183537.610000", "183537.613000", "183537.617000", "183537.620000", "183537.623000", "183537.627000", "183537.630000", "183537.633000", "183537.648000", "183539.535000", "183539.538000"],
      "InstanceCreationTime": ["183217.633000", "183217.636000", "183217.640000", "183217.643000", "183217.646000", "183217.650000", "183217.653000", "183217.656000", "183217.660000", "183217.663000", "183217.666000", "183217.670000", "183217.673000", "183217.683000", "183217.687000", "183217.690000", "183217.693000", "183217.697000", "183217.700000", "183217.703000", "183217.706000", "183217.710000", "183217.713000", "183217.716000", "183217.720000", "183217.723000", "183217.726000", "183217.730000", "183237.596000", "183237.600000", "183237.603000", "183237.606000", "183237.610000", "183237.613000", "183237.616000", "183237.620000", "183237.623000", "183237.626000", "183237.630000", "183237.633000", "183237.636000", "183237.640000", "183237.643000", "183237.646000", "183237.649000", "183237.653000", "183237.656000", "183237.659000", "183257.596000", "183257.600000", "183257.603000", "183257.606000", "183257.610000", "183257.613000", "183257.616000", "183257.620000", "183257.623000", "183257.626000", "183257.629000", "183257.633000", "183257.636000", "183257.639000", "183257.643000", "183257.646000", "183257.649000", "183257.662000", "183257.665000", "183257.668000", "183317.596000", "183317.600000", "183317.603000", "183317.606000", "183317.610000", "183317.613000", "183317.616000", "183317.620000", "183317.623000", "183317.626000", "183317.630000", "183317.633000", "183317.636000", "183317.640000", "183317.643000", "183317.646000", "183317.650000", "183317.653000", "183317.656000", "183317.659000", "183317.663000", "183357.596000", "183357.600000", "183357.603000", "183357.624000", "183357.627000", "183357.631000", "183357.634000", "183357.637000", "183357.641000", "183357.644000", "183357.647000", "183357.651000", "183357.654000", "183357.657000", "183357.661000", "183357.664000", "183357.667000", "183357.671000", "183357.674000", "183357.677000", "183357.680000", "183357.684000", "183357.687000", "183357.690000", "183357.694000", "183357.697000", "183357.700000", "183357.703000", "183357.707000", "183357.710000", "183357.713000", "183357.717000", "183437.596000", "183437.600000", "183437.603000", "183437.607000", "183437.610000", "183437.614000", "183437.618000", "183437.621000", "183437.624000", "183437.628000", "183437.631000", "183437.635000", "183437.639000", "183437.643000", "183437.647000", "183437.650000", "183437.654000", "183437.658000", "183437.661000", "183437.665000", "183437.669000", "183437.672000", "183437.676000", "183437.680000", "183437.683000", "183437.687000", "183437.690000", "183517.596000", "183517.600000", "183517.603000", "183517.606000", "183517.610000", "183517.613000", "183517.617000", "183517.620000", "183517.623000", "183517.626000", "183517.630000", "183517.633000", "183517.636000", "183517.640000", "183517.643000", "183517.646000", "183517.650000", "183517.653000", "183517.656000", "183517.660000", "183517.663000", "183517.666000", "183517.670000", "183517.673000", "183517.676000", "183517.680000", "183517.683000", "183537.596000", "183537.600000", "183537.603000", "183537.607000", "183537.610000", "183537.613000", "183537.617000", "183537.620000", "183537.623000", "183537.627000", "183537.630000", "183537.633000", "183537.648000", "183539.535000", "183539.538000"],
      "InstanceNumber": [1, 2, 3, 4, 5, 6, 7, 8, 9, 10, 11, 12, 13, 14, 15, 16, 17, 18, 19, 20, 21, 22, 23, 24, 25, 26, 27, 28, 29, 30, 31, 32, 33, 34, 35, 36, 37, 38, 39, 40, 41, 42, 43, 44, 45, 46, 47, 48, 49, 50, 51, 52, 53, 54, 55, 56, 57, 58, 59, 60, 61, 62, 63, 64, 65, 66, 67, 68, 69, 70, 71, 72, 73, 74, 75, 76, 77, 78, 79, 80, 81, 82, 83, 84, 85, 86, 87, 88, 89, 90, 91, 92, 93, 94, 95, 96, 97, 98, 99, 100, 101, 102, 103, 104, 105, 106, 107, 108, 109, 110, 111, 112, 113, 114, 115, 116, 117, 118, 119, 120, 121, 122, 123, 124, 125, 126, 127, 128, 129, 130, 131, 132, 133, 134, 135, 136, 137, 138, 139, 140, 141, 142, 143, 144, 145, 146, 147, 148, 149, 150, 151, 152, 153, 154, 155, 156, 157, 158, 159, 160, 161, 162, 163, 164, 165, 166, 167, 168, 169, 170, 171, 172, 173, 174, 175, 176, 177, 178, 179, 180, 181, 182, 183, 184, 185, 186, 187, 188, 189, 190],
      "LargestImagePixelValue": [48004, 46204, 44756, 44583, 43888, 43732, 42663, 42570, 44383, 43889, 41531, 40789, 41150, 40937, 41922, 41656, 41774, 42030, 42739, 42467, 41904, 41589, 41171, 42216, 42157, 41868, 41859, 41794, 43001, 43221, 43284, 43265, 42645, 42481, 42560, 42330, 42067, 42833, 43725, 41459, 42023, 41851, 41080, 41166, 41098, 44620, 41695, 41814, 41245, 41766, 41889, 41676, 41624, 41662, 41464, 41858, 42730, 43079, 43021, 40537, 42381, 42850, 44482, 44066, 42696, 42043, 43307, 43990, 43571, 41956, 41019, 41054, 41594, 42311, 42046, 42197, 42225, 42172, 41703, 41623, 41792, 41431, 41099, 42125, 41788, 40045, 41355, 44844, 41715, 41513, 42185, 41747, 42466, 42652, 42403, 42466, 42449, 42575, 42833, 42310, 42147, 42102, 47087, 42045, 41846, 43010, 43207, 42641, 41884, 42291, 42051, 42369, 42271, 41899, 41625, 42099, 41369, 41877, 41412, 42330, 42477, 41542, 41655, 41754, 42261, 42308, 43250, 42111, 41267, 41807, 41263, 41023, 42094, 41980, 41176, 41717, 41138, 41662, 41793, 41728, 41596, 42038, 41947, 41710, 41833, 41799, 41499, 41907, 42036, 42054, 41617, 41795, 42244, 41743, 41866, 41822, 41646, 41735, 41828, 41779, 42424, 42143, 41913, 41553, 42379, 42516, 42555, 42531, 42405, 43942, 44589, 43105, 43073, 43692, 43304, 42726, 42971, 42917, 43269, 43230, 43955, 44330, 44341, 45041, 44520, 43567, 42981, 42720, 42984, 42213],
      "WindowCenter": [10621.0, 10606.0, 10585.0, 10551.0, 10517.0, 10503.0, 10490.0, 10491.0, 10508.0, 10511.0, 10508.0, 10500.0, 10493.0, 10477.0, 10483.0, 10493.0, 10518.0, 10511.0, 10507.0, 10496.0, 10499.0, 10507.0, 10501.0, 10512.0, 10512.0, 10529.0, 10541.0, 10535.0, 10531.0, 10529.0, 10528.0, 10550.0, 10566.0, 10552.0, 10521.0, 10496.0, 10495.0, 10507.0, 10543.0, 10548.0, 10545.0, 10526.0, 10496.0, 10482.0, 10470.0, 10531.0, 10519.0, 10513.0, 10489.0, 10501.0, 10529.0, 10516.0, 10491.0, 10480.0, 10479.0, 10492.0, 10509.0, 10515.0, 10518.0, 10502.0, 10504.0, 10492.0, 10478.0, 10472.0, 10457.0, 10461.0, 10472.0, 10516.0, 10554.0, 10540.0, 10506.0, 10482.0, 10468.0, 10467.0, 10469.0, 10478.0, 10496.0, 10506.0, 10487.0, 10480.0, 10475.0, 10463.0, 10503.0, 10547.0, 10543.0, 10516.0, 10507.0, 10512.0, 10456.0, 10448.0, 10460.0, 10451.0, 10475.0, 10501.0, 10498.0, 10503.0, 10498.0, 10504.0, 10511.0, 10508.0, 10514.0, 10521.0, 10566.0, 10513.0, 10503.0, 10539.0, 10565.0, 10538.0, 10509.0, 10488.0, 10480.0, 10485.0, 10483.0, 10483.0, 10471.0, 10480.0, 10479.0, 10477.0, 10454.0, 10456.0, 10456.0, 10460.0, 10496.0, 10506.0, 10512.0, 10498.0, 10513.0, 10513.0, 10510.0, 10489.0, 10463.0, 10446.0, 10464.0, 10476.0, 10478.0, 10505.0, 10508.0, 10507.0, 10489.0, 10471.0, 10487.0, 10502.0, 10511.0, 10508.0, 10517.0, 10526.0, 10525.0, 10526.0, 10520.0, 10508.0, 10499.0, 10512.0, 10522.0, 10524.0, 10531.0, 10540.0, 10548.0, 10538.0, 10527.0, 10508.0, 10516.0, 10531.0, 10531.0, 10526.0, 10540.0, 10563.0, 10569.0, 10555.0, 10537.0, 10546.0, 10551.0, 10532.0, 10529.0, 10541.0, 10563.0, 10564.0, 10555.0, 10538.0, 10541.0, 10532.0, 10520.0, 10533.0, 10568.0, 10576.0, 10552.0, 10524.0, 10509.0, 10516.0, 10527.0, 10522.0],
      "WindowWidth": [22603.0, 22562.0, 22505.0, 22415.0, 22332.0, 22295.0, 22269.0, 22271.0, 22307.0, 22315.0, 22319.0, 22308.0, 22286.0, 22249.0, 22256.0, 22287.0, 22346.0, 22326.0, 22311.0, 22286.0, 22300.0, 22319.0, 22308.0, 22329.0, 22330.0, 22370.0, 22400.0, 22382.0, 22366.0, 22362.0, 22362.0, 22414.0, 22461.0, 22424.0, 22345.0, 22288.0, 22288.0, 22312.0, 22390.0, 22418.0, 22409.0, 22358.0, 22292.0, 22255.0, 22230.0, 22375.0, 22353.0, 22331.0, 22276.0, 22301.0, 22373.0, 22345.0, 22285.0, 22259.0, 22254.0, 22284.0, 22320.0, 22329.0, 22339.0, 22318.0, 22313.0, 22275.0, 22236.0, 22222.0, 22194.0, 22210.0, 22226.0, 22325.0, 22427.0, 22399.0, 22324.0, 22265.0, 22232.0, 22218.0, 22226.0, 22248.0, 22290.0, 22312.0, 22274.0, 22255.0, 22242.0, 22219.0, 22312.0, 22414.0, 22403.0, 22353.0, 22318.0, 22316.0, 22197.0, 22178.0, 22201.0, 22187.0, 22238.0, 22301.0, 22298.0, 22308.0, 22302.0, 22313.0, 22329.0, 22329.0, 22337.0, 22351.0, 22452.0, 22330.0, 22303.0, 22386.0, 22449.0, 22388.0, 22323.0, 22274.0, 22255.0, 22262.0, 22255.0, 22252.0, 22230.0, 22241.0, 22244.0, 22242.0, 22192.0, 22191.0, 22189.0, 22203.0, 22304.0, 22318.0, 22330.0, 22290.0, 22322.0, 22333.0, 22331.0, 22278.0, 22216.0, 22182.0, 22219.0, 22248.0, 22251.0, 22316.0, 22322.0, 22315.0, 22273.0, 22234.0, 22272.0, 22310.0, 22332.0, 22326.0, 22348.0, 22368.0, 22364.0, 22366.0, 22352.0, 22321.0, 22302.0, 22332.0, 22354.0, 22362.0, 22375.0, 22398.0, 22426.0, 22398.0, 22365.0, 22321.0, 22333.0, 22384.0, 22376.0, 22369.0, 22399.0, 22452.0, 22473.0, 22428.0, 22384.0, 22399.0, 22413.0, 22373.0, 22366.0, 22390.0, 22450.0, 22455.0, 22429.0, 22387.0, 22388.0, 22366.0, 22336.0, 22367.0, 22451.0, 22471.0, 22416.0, 22352.0, 22320.0, 22336.0, 22364.0, 22353.0]
    },
    "slices": {}
  }
}