{
  "AcquisitionMatrixPE": 104,
  "AcquisitionNumber": 1,
  "AcquisitionTime": "17:48:17.900000",
  "BandwidthPerPixelPhaseEncode": 17.17,
  "BaseResolution": 104,
  "BodyPartExamined": "BRAIN",
  "CoilString": "HC1-7;NC1_2",
  "ConsistencyInfo": "N4_VE11C_LATEST_20160120",
  "ConversionSoftware": "dcm2niix",
  "ConversionSoftwareVersion": "v1.0.20190902",
  "DerivedVendorReportedEchoSpacing": 0.000560011,
  "DeviceSerialNumber": "167006",
  "DwellTime": 2.1e-06,
  "EchoTime": 0.037,
  "EchoTrainLength": 104,
  "EffectiveEchoSpacing": 0.000560011,
  "FlipAngle": 52,
  "ImageComments": "Unaliased_MB4_PE3_LB",
  "ImageOrientationPatientDICOM": [0.997005, 0.0676057, 0.0375552, -0.0496338, 0.931761, -0.359663],
  "ImageType": [
    "ORIGINAL",
    "PRIMARY",
    "P",
    "MB",
    "ND",
    "MOSAIC"
],
  "ImagingFrequency": 123.259,
  "InPlanePhaseEncodingDirectionDICOM": "COL",
  "InstitutionAddress": "Chemin_Queen-Mary_4565_Montreal_District_CA_H3W_1W5",
  "InstitutionName": "IUGM",
  "InstitutionalDepartmentName": "Department",
  "MRAcquisitionType": "2D",
  "MagneticFieldStrength": 3,
  "Manufacturer": "Siemens",
  "ManufacturersModelName": "Prisma_fit",
  "Modality": "MR",
  "MultibandAccelerationFactor": 4,
  "PartialFourier": 1,
  "PatientPosition": "HFS",
  "PercentPhaseFOV": 100,
  "PhaseEncodingDirection": "j",
  "PhaseEncodingSteps": 104,
  "PhaseResolution": 1,
  "PixelBandwidth": 2290,
  "ProcedureStepDescription": "memory_things",
  "ProtocolName": "func_task-things_run-2",
  "PulseSequenceDetails": "%CustomerSeq%_cmrr_mbep2d_bold",
  "ReceiveCoilActiveElements": "HC1-7;NC1,2",
  "ReceiveCoilName": "HeadNeck_64",
  "ReconMatrixPE": 104,
  "RepetitionTime": 1.49,
  "SAR": 0.0382126,
  "ScanOptions": "FS",
  "ScanningSequence": "EP",
  "SequenceName": "epfid2d1_104",
  "SequenceVariant": "SK_SS",
  "SeriesDescription": "func_task-things_run-2",
  "SeriesNumber": 14,
  "ShimSetting": [635, -7185, -8822, 644, 97, 26, -34, -9],
  "SliceThickness": 2,
  "SliceTiming": [0, 0.785, 0.1, 0.8825, 0.1975, 0.98, 0.295, 1.0775, 0.3925, 1.1775, 0.49, 1.275, 0.59, 1.3725, 0.6875, 0, 0.785, 0.1, 0.8825, 0.1975, 0.98, 0.295, 1.0775, 0.3925, 1.1775, 0.49, 1.275, 0.59, 1.3725, 0.6875, 0, 0.785, 0.1, 0.8825, 0.1975, 0.98, 0.295, 1.0775, 0.3925, 1.1775, 0.49, 1.275, 0.59, 1.3725, 0.6875, 0, 0.785, 0.1, 0.8825, 0.1975, 0.98, 0.295, 1.0775, 0.3925, 1.1775, 0.49, 1.275, 0.59, 1.3725, 0.6875],
  "SoftwareVersions": "syngo_MR_E11",
  "SpacingBetweenSlices": 2,
  "StationName": "MRC35049",
  "TaskName": "things",
  "TotalReadoutTime": 0.0576811,
  "TxRefAmp": 243.652,
  "WipMemBlock": "4883666c-c8ed-43a1-b4b8-6e28fe123edf||Sequence: R016 ve11c/master r/e634e98; Dec 19 2017 11:00:25 by eja",
  "dcmmeta_affine": [
    [-1.994010090827942, -0.09926769137382507, 0.11861544102430344, 108.8779296875],
    [-0.13521146774291992, 1.8635224103927612, -0.7134437561035156, -52.010772705078125],
    [0.0751103088259697, 0.7193261384963989, 1.8646522760391235, -65.7485122680664],
    [0.0, 0.0, 0.0, 1.0]
],
  "dcmmeta_reorient_transform": [
    [0.0, -1.0, 0.0, 103.0],
    [1.0, 0.0, 0.0, 0.0],
    [0.0, 0.0, 1.0, 0.0],
    [0.0, 0.0, 0.0, 1.0]
],
  "dcmmeta_shape": [104, 104, 60, 190],
  "dcmmeta_slice_dim": 2,
  "dcmmeta_version": 0.6,
  "global": {
    "const": {
      "AcquisitionMatrix": [104, 0, 0, 104],
      "AngioFlag": "N",
      "BitsAllocated": 16,
      "BitsStored": 16,
      "BodyPartExamined": "BRAIN",
      "Columns": 832,
      "EchoNumbers": 1,
      "EchoTime": 37.0,
      "EchoTrainLength": 104,
      "FlipAngle": 52.0,
      "HighBit": 15,
      "ImageOrientationPatient": [0.99700505284235, 0.06760573140007, 0.03755515528775, -0.0496338462275, 0.93176121055081, -0.3596630754214],
      "ImagePositionPatient": [-788.33959294228, -867.47117091676, 242.83664881937],
      "ImageType": [
        "ORIGINAL",
        "PRIMARY",
        "P",
        "MB",
        "ND",
        "MOSAIC"
],
      "ImagedNucleus": "1H",
      "ImagingFrequency": 123.258914,
      "InPlanePhaseEncodingDirection": "COL",
      "LargestImagePixelValue": 4095,
      "MRAcquisitionType": "2D",
      "MagneticFieldStrength": 3.0,
      "Manufacturer": "SIEMENS",
      "ManufacturerModelName": "Prisma_fit",
      "Modality": "MR",
      "NumberOfAverages": 1.0,
      "NumberOfPhaseEncodingSteps": 104,
      "PercentPhaseFieldOfView": 100.0,
      "PercentSampling": 100.0,
      "PerformedProcedureStepStartTime": "170829.074000",
      "PhotometricInterpretation": "MONOCHROME2",
      "PixelBandwidth": 2290.0,
      "PixelRepresentation": 0,
      "PixelSpacing": [2.0, 2.0],
      "ProtocolName": "func_task-things_run-2",
      "RepetitionTime": 1490.0,
      "RescaleIntercept": -4096.0,
      "RescaleSlope": 2.0,
      "RescaleType": "US",
      "Rows": 832,
      "SAR": 0.03821264160337,
      "SamplesPerPixel": 1,
      "ScanOptions": "FS",
      "ScanningSequence": "EP",
      "SequenceName": "epfid2d1_104",
      "SequenceVariant": [
        "SK",
        "SS"
],
      "SeriesDescription": "func_task-things_run-2",
      "SeriesNumber": 14,
      "SeriesTime": "174948.250000",
      "SliceLocation": -36.288373729264,
      "SliceThickness": 2.0,
      "SmallestImagePixelValue": 0,
      "SoftwareVersions": "syngo MR E11",
      "SpacingBetweenSlices": 1.9999999703987,
      "SpecificCharacterSet": "ISO_IR 100",
      "StudyID": "1",
      "StudyTime": "170828.986000",
      "TransmitCoilName": "Body",
      "VariableFlipAngleFlag": "N",
      "WindowCenterWidthExplanation": "Algo1",
      "dBdt": 0.0},
    "slices": {}
  },
  "time": {
    "samples": {
      "AcquisitionNumber": [1, 2, 3, 4, 5, 6, 7, 8, 9, 10, 11, 12, 13, 14, 15, 16, 17, 18, 19, 20, 21, 22, 23, 24, 25, 26, 27, 28, 29, 30, 31, 32, 33, 34, 35, 36, 37, 38, 39, 40, 41, 42, 43, 44, 45, 46, 47, 48, 49, 50, 51, 52, 53, 54, 55, 56, 57, 58, 59, 60, 61, 62, 63, 64, 65, 66, 67, 68, 69, 70, 71, 72, 73, 74, 75, 76, 77, 78, 79, 80, 81, 82, 83, 84, 85, 86, 87, 88, 89, 90, 91, 92, 93, 94, 95, 96, 97, 98, 99, 100, 101, 102, 103, 104, 105, 106, 107, 108, 109, 110, 111, 112, 113, 114, 115, 116, 117, 118, 119, 120, 121, 122, 123, 124, 125, 126, 127, 128, 129, 130, 131, 132, 133, 134, 135, 136, 137, 138, 139, 140, 141, 142, 143, 144, 145, 146, 147, 148, 149, 150, 151, 152, 153, 154, 155, 156, 157, 158, 159, 160, 161, 162, 163, 164, 165, 166, 167, 168, 169, 170, 171, 172, 173, 174, 175, 176, 177, 178, 179, 180, 181, 182, 183, 184, 185, 186, 187, 188, 189, 190],
      "AcquisitionTime": ["174817.900000", "174819.390000", "174820.880000", "174822.370000", "174823.860000", "174825.350000", "174826.840000", "174828.330000", "174829.820000", "174831.310000", "174832.800000", "174834.290000", "174835.780000", "174837.270000", "174838.760000", "174840.250000", "174841.740000", "174843.230000", "174844.720000", "174846.210000", "174847.700000", "174849.190000", "174850.680000", "174852.170000", "174853.660000", "174855.150000", "174856.640000", "174858.130000", "174859.620000", "174901.110000", "174902.600000", "174904.090000", "174905.580000", "174907.070000", "174908.560000", "174910.050000", "174911.540000", "174913.030000", "174914.520000", "174916.010000", "174917.500000", "174918.990000", "174920.480000", "174921.970000", "174923.460000", "174924.950000", "174926.440000", "174927.930000", "174929.420000", "174930.910000", "174932.400000", "174933.890000", "174935.380000", "174936.870000", "174938.360000", "174939.850000", "174941.340000", "174942.830000", "174944.320000", "174945.810000", "174947.300000", "174948.790000", "174950.280000", "174951.770000", "174953.260000", "174954.750000", "174956.240000", "174957.730000", "174959.220000", "175000.710000", "175002.200000", "175003.690000", "175005.180000", "175006.670000", "175008.160000", "175009.650000", "175011.140000", "175012.630000", "175014.120000", "175015.610000", "175017.100000", "175018.590000", "175020.080000", "175021.570000", "175023.060000", "175024.550000", "175026.040000", "175027.530000", "175029.020000", "175030.510000", "175032.000000", "175033.490000", "175034.980000", "175036.470000", "175037.960000", "175039.450000", "175040.940000", "175042.430000", "175043.920000", "175045.410000", "175046.900000", "175048.390000", "175049.880000", "175051.370000", "175052.860000", "175054.350000", "175055.840000", "175057.330000", "175058.820000", "175100.310000", "175101.800000", "175103.290000", "175104.780000", "175106.270000", "175107.760000", "175109.250000", "175110.740000", "175112.230000", "175113.720000", "175115.210000", "175116.700000", "175118.190000", "175119.680000", "175121.170000", "175122.660000", "175124.150000", "175125.640000", "175127.130000", "175128.620000", "175130.110000", "175131.600000", "175133.090000", "175134.580000", "175136.070000", "175137.560000", "175139.050000", "175140.540000", "175142.030000", "175143.520000", "175145.010000", "175146.500000", "175147.990000", "175149.480000", "175150.970000", "175152.460000", "175153.950000", "175155.440000", "175156.930000", "175158.420000", "175159.910000", "175201.400000", "175202.890000", "175204.380000", "175205.870000", "175207.360000", "175208.850000", "175210.340000", "175211.830000", "175213.320000", "175214.810000", "175216.300000", "175217.790000", "175219.280000", "175220.770000", "175222.260000", "175223.750000", "175225.240000", "175226.730000", "175228.220000", "175229.710000", "175231.200000", "175232.690000", "175234.180000", "175235.670000", "175237.160000", "175238.650000", "175240.140000", "175241.630000", "175243.120000", "175244.610000", "175246.100000", "175247.590000", "175249.080000", "175250.570000", "175252.060000", "175253.550000", "175255.040000", "175256.530000", "175258.020000", "175259.510000"],
      "ContentTime": ["174948.252000", "174948.255000", "174948.258000", "174948.260000", "174948.263000", "174948.265000", "174948.268000", "174948.270000", "174948.273000", "174948.275000", "174948.278000", "174948.280000", "174948.283000", "174948.285000", "174948.288000", "174948.290000", "174948.293000", "174948.295000", "174948.298000", "174948.300000", "174948.302000", "174948.305000", "174948.307000", "174948.310000", "174948.312000", "174948.315000", "174948.325000", "174948.328000", "174948.330000", "174948.333000", "174948.335000", "174948.338000", "174948.348000", "174948.350000", "174948.353000", "174948.355000", "175008.152000", "175008.155000", "175008.158000", "175008.160000", "175008.163000", "175008.165000", "175008.168000", "175008.175000", "175008.178000", "175008.180000", "175008.183000", "175008.185000", "175008.187000", "175008.190000", "175008.192000", "175008.195000", "175008.197000", "175008.200000", "175008.202000", "175008.205000", "175028.163000", "175028.166000", "175028.168000", "175028.171000", "175028.173000", "175028.176000", "175028.178000", "175028.181000", "175028.183000", "175028.186000", "175028.196000", "175028.198000", "175028.201000", "175028.203000", "175028.206000", "175028.208000", "175028.211000", "175028.214000", "175028.216000", "175028.219000", "175048.168000", "175048.170000", "175048.179000", "175048.181000", "175048.184000", "175048.186000", "175048.189000", "175048.191000", "175048.194000", "175048.196000", "175048.199000", "175048.201000", "175048.204000", "175048.206000", "175048.209000", "175048.212000", "175048.214000", "175048.217000", "175048.219000", "175048.222000", "175128.210000", "175128.212000", "175128.215000", "175128.217000", "175128.220000", "175128.223000", "175128.225000", "175128.228000", "175128.230000", "175128.233000", "175128.235000", "175128.238000", "175128.240000", "175128.243000", "175128.246000", "175128.248000", "175128.251000", "175128.253000", "175128.256000", "175128.258000", "175128.261000", "175128.263000", "175128.266000", "175128.268000", "175128.271000", "175128.273000", "175128.276000", "175128.278000", "175128.281000", "175128.283000", "175128.286000", "175208.212000", "175208.215000", "175208.217000", "175208.223000", "175208.226000", "175208.228000", "175208.231000", "175208.234000", "175208.236000", "175208.239000", "175208.241000", "175208.244000", "175208.246000", "175208.249000", "175208.251000", "175208.254000", "175208.257000", "175208.259000", "175208.262000", "175208.264000", "175208.267000", "175208.270000", "175208.272000", "175208.275000", "175208.277000", "175208.280000", "175248.191000", "175248.194000", "175248.196000", "175248.199000", "175248.202000", "175248.204000", "175248.207000", "175248.209000", "175248.212000", "175248.215000", "175248.218000", "175248.220000", "175248.223000", "175248.225000", "175248.228000", "175248.230000", "175248.233000", "175248.235000", "175248.238000", "175248.240000", "175248.251000", "175248.253000", "175248.256000", "175248.258000", "175248.261000", "175248.263000", "175248.266000", "175301.881000", "175301.884000", "175301.887000", "175301.889000", "175301.892000", "175301.894000", "175301.897000", "175301.899000", "175301.902000", "175301.904000"],
      "InstanceCreationTime": ["174948.252000", "174948.255000", "174948.258000", "174948.260000", "174948.263000", "174948.265000", "174948.268000", "174948.270000", "174948.273000", "174948.275000", "174948.278000", "174948.280000", "174948.283000", "174948.285000", "174948.288000", "174948.290000", "174948.293000", "174948.295000", "174948.298000", "174948.300000", "174948.302000", "174948.305000", "174948.307000", "174948.310000", "174948.312000", "174948.315000", "174948.325000", "174948.328000", "174948.330000", "174948.333000", "174948.335000", "174948.338000", "174948.348000", "174948.350000", "174948.353000", "174948.355000", "175008.152000", "175008.155000", "175008.158000", "175008.160000", "175008.163000", "175008.165000", "175008.168000", "175008.175000", "175008.178000", "175008.180000", "175008.183000", "175008.185000", "175008.187000", "175008.190000", "175008.192000", "175008.195000", "175008.197000", "175008.200000", "175008.202000", "175008.205000", "175028.163000", "175028.166000", "175028.168000", "175028.171000", "175028.173000", "175028.176000", "175028.178000", "175028.181000", "175028.183000", "175028.186000", "175028.196000", "175028.198000", "175028.201000", "175028.203000", "175028.206000", "175028.208000", "175028.211000", "175028.214000", "175028.216000", "175028.219000", "175048.168000", "175048.170000", "175048.179000", "175048.181000", "175048.184000", "175048.186000", "175048.189000", "175048.191000", "175048.194000", "175048.196000", "175048.199000", "175048.201000", "175048.204000", "175048.206000", "175048.209000", "175048.212000", "175048.214000", "175048.217000", "175048.219000", "175048.222000", "175128.210000", "175128.212000", "175128.215000", "175128.217000", "175128.220000", "175128.223000", "175128.225000", "175128.228000", "175128.230000", "175128.233000", "175128.235000", "175128.238000", "175128.240000", "175128.243000", "175128.246000", "175128.248000", "175128.251000", "175128.253000", "175128.256000", "175128.258000", "175128.261000", "175128.263000", "175128.266000", "175128.268000", "175128.271000", "175128.273000", "175128.276000", "175128.278000", "175128.281000", "175128.283000", "175128.286000", "175208.212000", "175208.215000", "175208.217000", "175208.223000", "175208.226000", "175208.228000", "175208.231000", "175208.234000", "175208.236000", "175208.239000", "175208.241000", "175208.244000", "175208.246000", "175208.249000", "175208.251000", "175208.254000", "175208.257000", "175208.259000", "175208.262000", "175208.264000", "175208.267000", "175208.270000", "175208.272000", "175208.275000", "175208.277000", "175208.280000", "175248.191000", "175248.194000", "175248.196000", "175248.199000", "175248.202000", "175248.204000", "175248.207000", "175248.209000", "175248.212000", "175248.215000", "175248.218000", "175248.220000", "175248.223000", "175248.225000", "175248.228000", "175248.230000", "175248.233000", "175248.235000", "175248.238000", "175248.240000", "175248.251000", "175248.253000", "175248.256000", "175248.258000", "175248.261000", "175248.263000", "175248.266000", "175301.881000", "175301.884000", "175301.887000", "175301.889000", "175301.892000", "175301.894000", "175301.897000", "175301.899000", "175301.902000", "175301.904000"],
      "InstanceNumber": [1, 2, 3, 4, 5, 6, 7, 8, 9, 10, 11, 12, 13, 14, 15, 16, 17, 18, 19, 20, 21, 22, 23, 24, 25, 26, 27, 28, 29, 30, 31, 32, 33, 34, 35, 36, 37, 38, 39, 40, 41, 42, 43, 44, 45, 46, 47, 48, 49, 50, 51, 52, 53, 54, 55, 56, 57, 58, 59, 60, 61, 62, 63, 64, 65, 66, 67, 68, 69, 70, 71, 72, 73, 74, 75, 76, 77, 78, 79, 80, 81, 82, 83, 84, 85, 86, 87, 88, 89, 90, 91, 92, 93, 94, 95, 96, 97, 98, 99, 100, 101, 102, 103, 104, 105, 106, 107, 108, 109, 110, 111, 112, 113, 114, 115, 116, 117, 118, 119, 120, 121, 122, 123, 124, 125, 126, 127, 128, 129, 130, 131, 132, 133, 134, 135, 136, 137, 138, 139, 140, 141, 142, 143, 144, 145, 146, 147, 148, 149, 150, 151, 152, 153, 154, 155, 156, 157, 158, 159, 160, 161, 162, 163, 164, 165, 166, 167, 168, 169, 170, 171, 172, 173, 174, 175, 176, 177, 178, 179, 180, 181, 182, 183, 184, 185, 186, 187, 188, 189, 190],
      "WindowCenter": [4880.0, 4876.0, 4864.0, 4836.0, 4870.0, 4880.0, 4878.0, 4878.0, 4838.0, 4838.0, 4836.0, 4864.0, 4876.0, 4854.0, 4852.0, 4858.0, 4872.0, 4838.0, 4836.0, 4862.0, 4874.0, 4878.0, 4882.0, 4884.0, 4882.0, 4880.0, 4868.0, 4840.0, 4864.0, 4876.0, 4878.0, 4882.0, 4878.0, 4864.0, 4868.0, 4876.0, 4876.0, 4874.0, 4838.0, 4832.0, 4838.0, 4872.0, 4852.0, 4826.0, 4830.0, 4858.0, 4880.0, 4838.0, 4828.0, 4830.0, 4860.0, 4874.0, 4882.0, 4856.0, 4878.0, 4880.0, 4878.0, 4874.0, 4866.0, 4836.0, 4866.0, 4870.0, 4872.0, 4876.0, 4880.0, 4882.0, 4874.0, 4878.0, 4874.0, 4874.0, 4870.0, 4840.0, 4840.0, 4840.0, 4842.0, 4840.0, 4840.0, 4872.0, 4854.0, 4854.0, 4878.0, 4876.0, 4882.0, 4868.0, 4838.0, 4828.0, 4830.0, 4868.0, 4880.0, 4882.0, 4874.0, 4840.0, 4836.0, 4836.0, 4844.0, 4872.0, 4856.0, 4852.0, 4878.0, 4872.0, 4834.0, 4832.0, 4840.0, 4872.0, 4878.0, 4878.0, 4880.0, 4876.0, 4876.0, 4874.0, 4870.0, 4864.0, 4840.0, 4864.0, 4872.0, 4874.0, 4878.0, 4878.0, 4878.0, 4874.0, 4872.0, 4876.0, 4868.0, 4868.0, 4866.0, 4872.0, 4878.0, 4878.0, 4878.0, 4874.0, 4878.0, 4874.0, 4874.0, 4844.0, 4838.0, 4870.0, 4874.0, 4878.0, 4874.0, 4876.0, 4874.0, 4872.0, 4872.0, 4870.0, 4872.0, 4870.0, 4876.0, 4870.0, 4874.0, 4880.0, 4878.0, 4876.0, 4878.0, 4876.0, 4872.0, 4872.0, 4872.0, 4876.0, 4870.0, 4868.0, 4874.0, 4878.0, 4882.0, 4876.0, 4876.0, 4874.0, 4874.0, 4870.0, 4868.0, 4872.0, 4876.0, 4874.0, 4866.0, 4872.0, 4876.0, 4876.0, 4870.0, 4870.0, 4846.0, 4844.0, 4866.0, 4872.0, 4870.0, 4868.0, 4872.0, 4870.0, 4868.0, 4840.0, 4868.0, 4872.0],
      "WindowWidth": [18678.0, 18676.0, 18676.0, 18640.0, 18674.0, 18672.0, 18672.0, 18676.0, 18650.0, 18652.0, 18654.0, 18684.0, 18668.0, 18626.0, 18622.0, 18630.0, 18680.0, 18650.0, 18646.0, 18678.0, 18682.0, 18660.0, 18666.0, 18674.0, 18672.0, 18678.0, 18678.0, 18642.0, 18670.0, 18674.0, 18674.0, 18674.0, 18678.0, 18678.0, 18676.0, 18672.0, 18672.0, 18676.0, 18648.0, 18652.0, 18652.0, 18676.0, 18624.0, 18580.0, 18582.0, 18634.0, 18682.0, 18646.0, 18642.0, 18644.0, 18678.0, 18674.0, 18668.0, 18630.0, 18666.0, 18680.0, 18682.0, 18678.0, 18676.0, 18640.0, 18674.0, 18672.0, 18674.0, 18678.0, 18676.0, 18678.0, 18678.0, 18680.0, 18678.0, 18678.0, 18676.0, 18648.0, 18646.0, 18650.0, 18652.0, 18652.0, 18650.0, 18678.0, 18628.0, 18624.0, 18658.0, 18666.0, 18674.0, 18674.0, 18646.0, 18642.0, 18644.0, 18678.0, 18676.0, 18666.0, 18676.0, 18648.0, 18652.0, 18652.0, 18650.0, 18662.0, 18630.0, 18624.0, 18664.0, 18674.0, 18642.0, 18644.0, 18644.0, 18674.0, 18680.0, 18672.0, 18676.0, 18682.0, 18678.0, 18676.0, 18676.0, 18676.0, 18640.0, 18674.0, 18678.0, 18682.0, 18678.0, 18672.0, 18676.0, 18674.0, 18676.0, 18682.0, 18672.0, 18676.0, 18674.0, 18674.0, 18684.0, 18682.0, 18680.0, 18678.0, 18680.0, 18678.0, 18676.0, 18646.0, 18644.0, 18674.0, 18678.0, 18682.0, 18680.0, 18676.0, 18678.0, 18672.0, 18676.0, 18674.0, 18674.0, 18672.0, 18674.0, 18680.0, 18676.0, 18678.0, 18680.0, 18678.0, 18676.0, 18678.0, 18676.0, 18672.0, 18674.0, 18676.0, 18674.0, 18676.0, 18674.0, 18676.0, 18680.0, 18674.0, 18680.0, 18670.0, 18670.0, 18676.0, 18674.0, 18678.0, 18678.0, 18682.0, 18676.0, 18674.0, 18680.0, 18680.0, 18676.0, 18680.0, 18644.0, 18640.0, 18672.0, 18676.0, 18676.0, 18676.0, 18678.0, 18682.0, 18676.0, 18646.0, 18674.0, 18678.0]
    },
    "slices": {}
  }
}