{
  "AcquisitionMatrixPE": 104,
  "AcquisitionNumber": 1,
  "AcquisitionTime": "18:30:55.442500",
  "BandwidthPerPixelPhaseEncode": 17.17,
  "BaseResolution": 104,
  "BodyPartExamined": "BRAIN",
  "CoilString": "HC1-7;NC1_2",
  "ConsistencyInfo": "N4_VE11C_LATEST_20160120",
  "ConversionSoftware": "dcm2niix",
  "ConversionSoftwareVersion": "v1.0.20190902",
  "DerivedVendorReportedEchoSpacing": 0.000560011,
  "DeviceSerialNumber": "167006",
  "DwellTime": 2.1e-06,
  "EchoTime": 0.037,
  "EchoTrainLength": 104,
  "EffectiveEchoSpacing": 0.000560011,
  "FlipAngle": 52,
  "ImageComments": "Unaliased_MB4_PE3_LB",
  "ImageOrientationPatientDICOM": [0.997005, 0.0676057, 0.0375552, -0.0496338, 0.931761, -0.359663],
  "ImageType": [
    "ORIGINAL",
    "PRIMARY",
    "P",
    "MB",
    "ND",
    "MOSAIC"
],
  "ImagingFrequency": 123.259,
  "InPlanePhaseEncodingDirectionDICOM": "COL",
  "InstitutionAddress": "Chemin_Queen-Mary_4565_Montreal_District_CA_H3W_1W5",
  "InstitutionName": "IUGM",
  "InstitutionalDepartmentName": "Department",
  "MRAcquisitionType": "2D",
  "MagneticFieldStrength": 3,
  "Manufacturer": "Siemens",
  "ManufacturersModelName": "Prisma_fit",
  "Modality": "MR",
  "MultibandAccelerationFactor": 4,
  "PartialFourier": 1,
  "PatientPosition": "HFS",
  "PercentPhaseFOV": 100,
  "PhaseEncodingDirection": "j",
  "PhaseEncodingSteps": 104,
  "PhaseResolution": 1,
  "PixelBandwidth": 2290,
  "ProcedureStepDescription": "memory_things",
  "ProtocolName": "func_task-things_run-6",
  "PulseSequenceDetails": "%CustomerSeq%_cmrr_mbep2d_bold",
  "ReceiveCoilActiveElements": "HC1-7;NC1,2",
  "ReceiveCoilName": "HeadNeck_64",
  "ReconMatrixPE": 104,
  "RepetitionTime": 1.49,
  "SAR": 0.0382126,
  "ScanOptions": "FS",
  "ScanningSequence": "EP",
  "SequenceName": "epfid2d1_104",
  "SequenceVariant": "SK_SS",
  "SeriesDescription": "func_task-things_run-6",
  "SeriesNumber": 26,
  "ShimSetting": [635, -7185, -8822, 644, 97, 26, -34, -9],
  "SliceThickness": 2,
  "SliceTiming": [0, 0.785, 0.0975, 0.8825, 0.195, 0.98, 0.295, 1.0775, 0.3925, 1.175, 0.49, 1.275, 0.5875, 1.3725, 0.685, 0, 0.785, 0.0975, 0.8825, 0.195, 0.98, 0.295, 1.0775, 0.3925, 1.175, 0.49, 1.275, 0.5875, 1.3725, 0.685, 0, 0.785, 0.0975, 0.8825, 0.195, 0.98, 0.295, 1.0775, 0.3925, 1.175, 0.49, 1.275, 0.5875, 1.3725, 0.685, 0, 0.785, 0.0975, 0.8825, 0.195, 0.98, 0.295, 1.0775, 0.3925, 1.175, 0.49, 1.275, 0.5875, 1.3725, 0.685],
  "SoftwareVersions": "syngo_MR_E11",
  "SpacingBetweenSlices": 2,
  "StationName": "MRC35049",
  "TaskName": "things",
  "TotalReadoutTime": 0.0576811,
  "TxRefAmp": 243.652,
  "WipMemBlock": "f05053a6-423a-453b-a366-83088e30d871||Sequence: R016 ve11c/master r/e634e98; Dec 19 2017 11:00:25 by eja",
  "dcmmeta_affine": [
    [-1.994010090827942, -0.09926769137382507, 0.11861544102430344, 108.8779296875],
    [-0.13521146774291992, 1.8635224103927612, -0.7134437561035156, -52.010772705078125],
    [0.0751103088259697, 0.7193261384963989, 1.8646522760391235, -65.7485122680664],
    [0.0, 0.0, 0.0, 1.0]
],
  "dcmmeta_reorient_transform": [
    [0.0, -1.0, 0.0, 103.0],
    [1.0, 0.0, 0.0, 0.0],
    [0.0, 0.0, 1.0, 0.0],
    [0.0, 0.0, 0.0, 1.0]
],
  "dcmmeta_shape": [104, 104, 60, 190],
  "dcmmeta_slice_dim": 2,
  "dcmmeta_version": 0.6,
  "global": {
    "const": {
      "AcquisitionMatrix": [104, 0, 0, 104],
      "AngioFlag": "N",
      "BitsAllocated": 16,
      "BitsStored": 16,
      "BodyPartExamined": "BRAIN",
      "Columns": 832,
      "EchoNumbers": 1,
      "EchoTime": 37.0,
      "EchoTrainLength": 104,
      "FlipAngle": 52.0,
      "HighBit": 15,
      "ImageOrientationPatient": [0.99700505284235, 0.06760573140007, 0.03755515528775, -0.0496338462275, 0.93176121055081, -0.3596630754214],
      "ImagePositionPatient": [-788.33959294228, -867.47117091676, 242.83664881937],
      "ImageType": [
        "ORIGINAL",
        "PRIMARY",
        "P",
        "MB",
        "ND",
        "MOSAIC"
],
      "ImagedNucleus": "1H",
      "ImagingFrequency": 123.258921,
      "InPlanePhaseEncodingDirection": "COL",
      "LargestImagePixelValue": 4095,
      "MRAcquisitionType": "2D",
      "MagneticFieldStrength": 3.0,
      "Manufacturer": "SIEMENS",
      "ManufacturerModelName": "Prisma_fit",
      "Modality": "MR",
      "NumberOfAverages": 1.0,
      "NumberOfPhaseEncodingSteps": 104,
      "PercentPhaseFieldOfView": 100.0,
      "PercentSampling": 100.0,
      "PerformedProcedureStepStartTime": "170829.074000",
      "PhotometricInterpretation": "MONOCHROME2",
      "PixelBandwidth": 2290.0,
      "PixelRepresentation": 0,
      "PixelSpacing": [2.0, 2.0],
      "ProtocolName": "func_task-things_run-6",
      "RepetitionTime": 1490.0,
      "RescaleIntercept": -4096.0,
      "RescaleSlope": 2.0,
      "RescaleType": "US",
      "Rows": 832,
      "SAR": 0.03821264160337,
      "SamplesPerPixel": 1,
      "ScanOptions": "FS",
      "ScanningSequence": "EP",
      "SequenceName": "epfid2d1_104",
      "SequenceVariant": [
        "SK",
        "SS"
],
      "SeriesDescription": "func_task-things_run-6",
      "SeriesNumber": 26,
      "SeriesTime": "183217.770000",
      "SliceLocation": -36.288373729264,
      "SliceThickness": 2.0,
      "SmallestImagePixelValue": 0,
      "SoftwareVersions": "syngo MR E11",
      "SpacingBetweenSlices": 1.9999999703987,
      "SpecificCharacterSet": "ISO_IR 100",
      "StudyID": "1",
      "StudyTime": "170828.986000",
      "TransmitCoilName": "Body",
      "VariableFlipAngleFlag": "N",
      "WindowCenterWidthExplanation": "Algo1",
      "dBdt": 0.0},
    "slices": {}
  },
  "time": {
    "samples": {
      "AcquisitionNumber": [1, 2, 3, 4, 5, 6, 7, 8, 9, 10, 11, 12, 13, 14, 15, 16, 17, 18, 19, 20, 21, 22, 23, 24, 25, 26, 27, 28, 29, 30, 31, 32, 33, 34, 35, 36, 37, 38, 39, 40, 41, 42, 43, 44, 45, 46, 47, 48, 49, 50, 51, 52, 53, 54, 55, 56, 57, 58, 59, 60, 61, 62, 63, 64, 65, 66, 67, 68, 69, 70, 71, 72, 73, 74, 75, 76, 77, 78, 79, 80, 81, 82, 83, 84, 85, 86, 87, 88, 89, 90, 91, 92, 93, 94, 95, 96, 97, 98, 99, 100, 101, 102, 103, 104, 105, 106, 107, 108, 109, 110, 111, 112, 113, 114, 115, 116, 117, 118, 119, 120, 121, 122, 123, 124, 125, 126, 127, 128, 129, 130, 131, 132, 133, 134, 135, 136, 137, 138, 139, 140, 141, 142, 143, 144, 145, 146, 147, 148, 149, 150, 151, 152, 153, 154, 155, 156, 157, 158, 159, 160, 161, 162, 163, 164, 165, 166, 167, 168, 169, 170, 171, 172, 173, 174, 175, 176, 177, 178, 179, 180, 181, 182, 183, 184, 185, 186, 187, 188, 189, 190],
      "AcquisitionTime": ["183055.442500", "183056.932500", "183058.422500", "183059.912500", "183101.402500", "183102.892500", "183104.382500", "183105.872500", "183107.362500", "183108.852500", "183110.342500", "183111.832500", "183113.322500", "183114.812500", "183116.302500", "183117.792500", "183119.282500", "183120.772500", "183122.262500", "183123.752500", "183125.242500", "183126.732500", "183128.222500", "183129.712500", "183131.202500", "183132.692500", "183134.182500", "183135.672500", "183137.162500", "183138.652500", "183140.142500", "183141.632500", "183143.122500", "183144.612500", "183146.102500", "183147.592500", "183149.082500", "183150.572500", "183152.062500", "183153.552500", "183155.042500", "183156.532500", "183158.022500", "183159.512500", "183201.002500", "183202.492500", "183203.982500", "183205.472500", "183206.962500", "183208.452500", "183209.942500", "183211.432500", "183212.922500", "183214.412500", "183215.902500", "183217.392500", "183218.882500", "183220.372500", "183221.862500", "183223.352500", "183224.842500", "183226.332500", "183227.822500", "183229.312500", "183230.802500", "183232.292500", "183233.782500", "183235.272500", "183236.762500", "183238.252500", "183239.742500", "183241.232500", "183242.722500", "183244.212500", "183245.702500", "183247.192500", "183248.682500", "183250.172500", "183251.662500", "183253.152500", "183254.642500", "183256.132500", "183257.622500", "183259.112500", "183300.602500", "183302.092500", "183303.582500", "183305.072500", "183306.562500", "183308.052500", "183309.542500", "183311.032500", "183312.522500", "183314.012500", "183315.502500", "183316.992500", "183318.482500", "183319.972500", "183321.462500", "183322.952500", "183324.442500", "183325.932500", "183327.422500", "183328.912500", "183330.402500", "183331.892500", "183333.382500", "183334.872500", "183336.362500", "183337.852500", "183339.342500", "183340.832500", "183342.322500", "183343.812500", "183345.302500", "183346.792500", "183348.282500", "183349.772500", "183351.262500", "183352.752500", "183354.242500", "183355.732500", "183357.222500", "183358.712500", "183400.202500", "183401.692500", "183403.182500", "183404.672500", "183406.162500", "183407.652500", "183409.142500", "183410.632500", "183412.122500", "183413.612500", "183415.102500", "183416.592500", "183418.082500", "183419.572500", "183421.062500", "183422.552500", "183424.042500", "183425.532500", "183427.022500", "183428.512500", "183430.002500", "183431.492500", "183432.982500", "183434.472500", "183435.962500", "183437.452500", "183438.942500", "183440.432500", "183441.922500", "183443.412500", "183444.902500", "183446.392500", "183447.882500", "183449.372500", "183450.862500", "183452.352500", "183453.842500", "183455.332500", "183456.822500", "183458.312500", "183459.802500", "183501.292500", "183502.782500", "183504.272500", "183505.762500", "183507.252500", "183508.742500", "183510.232500", "183511.722500", "183513.212500", "183514.702500", "183516.192500", "183517.682500", "183519.172500", "183520.662500", "183522.152500", "183523.642500", "183525.132500", "183526.622500", "183528.112500", "183529.602500", "183531.092500", "183532.582500", "183534.072500", "183535.562500", "183537.052500"],
      "ContentTime": ["183217.772000", "183217.775000", "183217.777000", "183217.780000", "183217.782000", "183217.785000", "183217.787000", "183217.790000", "183217.792000", "183217.795000", "183217.797000", "183217.800000", "183217.802000", "183217.805000", "183217.807000", "183217.810000", "183217.812000", "183217.814000", "183217.817000", "183217.819000", "183217.822000", "183217.824000", "183217.827000", "183217.829000", "183217.832000", "183217.834000", "183217.837000", "183217.839000", "183237.730000", "183237.733000", "183237.735000", "183237.738000", "183237.740000", "183237.743000", "183237.745000", "183237.748000", "183237.750000", "183237.753000", "183237.755000", "183237.758000", "183237.760000", "183237.763000", "183237.765000", "183237.768000", "183237.770000", "183237.773000", "183237.775000", "183237.778000", "183257.712000", "183257.715000", "183257.717000", "183257.720000", "183257.722000", "183257.725000", "183257.728000", "183257.730000", "183257.733000", "183257.754000", "183257.756000", "183257.759000", "183257.761000", "183257.764000", "183257.766000", "183257.769000", "183257.771000", "183257.774000", "183257.776000", "183257.779000", "183317.704000", "183317.707000", "183317.709000", "183317.712000", "183317.714000", "183317.717000", "183317.719000", "183317.722000", "183317.724000", "183317.727000", "183317.729000", "183317.732000", "183317.734000", "183317.737000", "183317.739000", "183317.742000", "183317.744000", "183317.746000", "183317.749000", "183317.751000", "183317.754000", "183358.197000", "183358.200000", "183358.202000", "183358.205000", "183358.207000", "183358.210000", "183358.213000", "183358.215000", "183358.217000", "183358.220000", "183358.222000", "183358.225000", "183358.227000", "183358.230000", "183358.232000", "183358.235000", "183358.238000", "183358.240000", "183358.243000", "183358.245000", "183358.248000", "183358.250000", "183358.253000", "183358.255000", "183358.258000", "183358.260000", "183358.263000", "183358.265000", "183358.268000", "183358.270000", "183358.273000", "183358.275000", "183437.744000", "183437.746000", "183437.749000", "183437.752000", "183437.755000", "183437.757000", "183437.761000", "183437.763000", "183437.766000", "183437.768000", "183437.771000", "183437.773000", "183437.776000", "183437.779000", "183437.782000", "183437.784000", "183437.787000", "183437.789000", "183437.792000", "183437.794000", "183437.797000", "183437.800000", "183437.802000", "183437.805000", "183437.808000", "183437.810000", "183437.813000", "183517.746000", "183517.748000", "183517.751000", "183517.753000", "183517.756000", "183517.758000", "183517.761000", "183517.763000", "183517.766000", "183517.768000", "183517.771000", "183517.773000", "183517.776000", "183517.778000", "183517.781000", "183517.783000", "183517.786000", "183517.788000", "183517.791000", "183517.793000", "183517.796000", "183517.798000", "183517.801000", "183517.803000", "183517.806000", "183517.808000", "183517.811000", "183537.681000", "183537.684000", "183537.686000", "183537.689000", "183537.691000", "183537.693000", "183537.696000", "183537.699000", "183537.701000", "183537.704000", "183537.706000", "183537.709000", "183537.711000", "183539.557000", "183539.560000"],
      "InstanceCreationTime": ["183217.772000", "183217.775000", "183217.777000", "183217.780000", "183217.782000", "183217.785000", "183217.787000", "183217.790000", "183217.792000", "183217.795000", "183217.797000", "183217.800000", "183217.802000", "183217.805000", "183217.807000", "183217.810000", "183217.812000", "183217.814000", "183217.817000", "183217.819000", "183217.822000", "183217.824000", "183217.827000", "183217.829000", "183217.832000", "183217.834000", "183217.837000", "183217.839000", "183237.730000", "183237.733000", "183237.735000", "183237.738000", "183237.740000", "183237.743000", "183237.745000", "183237.748000", "183237.750000", "183237.753000", "183237.755000", "183237.758000", "183237.760000", "183237.763000", "183237.765000", "183237.768000", "183237.770000", "183237.773000", "183237.775000", "183237.778000", "183257.712000", "183257.715000", "183257.717000", "183257.720000", "183257.722000", "183257.725000", "183257.728000", "183257.730000", "183257.733000", "183257.754000", "183257.756000", "183257.759000", "183257.761000", "183257.764000", "183257.766000", "183257.769000", "183257.771000", "183257.774000", "183257.776000", "183257.779000", "183317.704000", "183317.707000", "183317.709000", "183317.712000", "183317.714000", "183317.717000", "183317.719000", "183317.722000", "183317.724000", "183317.727000", "183317.729000", "183317.732000", "183317.734000", "183317.737000", "183317.739000", "183317.742000", "183317.744000", "183317.746000", "183317.749000", "183317.751000", "183317.754000", "183358.197000", "183358.200000", "183358.202000", "183358.205000", "183358.207000", "183358.210000", "183358.213000", "183358.215000", "183358.217000", "183358.220000", "183358.222000", "183358.225000", "183358.227000", "183358.230000", "183358.232000", "183358.235000", "183358.238000", "183358.240000", "183358.243000", "183358.245000", "183358.248000", "183358.250000", "183358.253000", "183358.255000", "183358.258000", "183358.260000", "183358.263000", "183358.265000", "183358.268000", "183358.270000", "183358.273000", "183358.275000", "183437.744000", "183437.746000", "183437.749000", "183437.752000", "183437.755000", "183437.757000", "183437.761000", "183437.763000", "183437.766000", "183437.768000", "183437.771000", "183437.773000", "183437.776000", "183437.779000", "183437.782000", "183437.784000", "183437.787000", "183437.789000", "183437.792000", "183437.794000", "183437.797000", "183437.800000", "183437.802000", "183437.805000", "183437.808000", "183437.810000", "183437.813000", "183517.746000", "183517.748000", "183517.751000", "183517.753000", "183517.756000", "183517.758000", "183517.761000", "183517.763000", "183517.766000", "183517.768000", "183517.771000", "183517.773000", "183517.776000", "183517.778000", "183517.781000", "183517.783000", "183517.786000", "183517.788000", "183517.791000", "183517.793000", "183517.796000", "183517.798000", "183517.801000", "183517.803000", "183517.806000", "183517.808000", "183517.811000", "183537.681000", "183537.684000", "183537.686000", "183537.689000", "183537.691000", "183537.693000", "183537.696000", "183537.699000", "183537.701000", "183537.704000", "183537.706000", "183537.709000", "183537.711000", "183539.557000", "183539.560000"],
      "InstanceNumber": [1, 2, 3, 4, 5, 6, 7, 8, 9, 10, 11, 12, 13, 14, 15, 16, 17, 18, 19, 20, 21, 22, 23, 24, 25, 26, 27, 28, 29, 30, 31, 32, 33, 34, 35, 36, 37, 38, 39, 40, 41, 42, 43, 44, 45, 46, 47, 48, 49, 50, 51, 52, 53, 54, 55, 56, 57, 58, 59, 60, 61, 62, 63, 64, 65, 66, 67, 68, 69, 70, 71, 72, 73, 74, 75, 76, 77, 78, 79, 80, 81, 82, 83, 84, 85, 86, 87, 88, 89, 90, 91, 92, 93, 94, 95, 96, 97, 98, 99, 100, 101, 102, 103, 104, 105, 106, 107, 108, 109, 110, 111, 112, 113, 114, 115, 116, 117, 118, 119, 120, 121, 122, 123, 124, 125, 126, 127, 128, 129, 130, 131, 132, 133, 134, 135, 136, 137, 138, 139, 140, 141, 142, 143, 144, 145, 146, 147, 148, 149, 150, 151, 152, 153, 154, 155, 156, 157, 158, 159, 160, 161, 162, 163, 164, 165, 166, 167, 168, 169, 170, 171, 172, 173, 174, 175, 176, 177, 178, 179, 180, 181, 182, 183, 184, 185, 186, 187, 188, 189, 190],
      "WindowCenter": [4836.0, 4838.0, 4842.0, 4840.0, 4844.0, 4838.0, 4838.0, 4838.0, 4808.0, 4800.0, 4804.0, 4838.0, 4872.0, 4876.0, 4878.0, 4870.0, 4842.0, 4830.0, 4802.0, 4804.0, 4832.0, 4840.0, 4866.0, 4842.0, 4864.0, 4870.0, 4868.0, 4840.0, 4836.0, 4830.0, 4808.0, 4806.0, 4836.0, 4870.0, 4872.0, 4866.0, 4840.0, 4830.0, 4808.0, 4828.0, 4836.0, 4842.0, 4840.0, 4836.0, 4838.0, 4838.0, 4838.0, 4836.0, 4804.0, 4808.0, 4810.0, 4840.0, 4866.0, 4868.0, 4868.0, 4836.0, 4806.0, 4782.0, 4804.0, 4804.0, 4842.0, 4876.0, 4856.0, 4876.0, 4870.0, 4834.0, 4804.0, 4780.0, 4802.0, 4828.0, 4860.0, 4872.0, 4874.0, 4872.0, 4840.0, 4830.0, 4808.0, 4830.0, 4832.0, 4832.0, 4830.0, 4806.0, 4804.0, 4806.0, 4832.0, 4836.0, 4870.0, 4872.0, 4878.0, 4868.0, 4828.0, 4800.0, 4780.0, 4804.0, 4828.0, 4862.0, 4870.0, 4872.0, 4870.0, 4842.0, 4836.0, 4832.0, 4832.0, 4804.0, 4804.0, 4802.0, 4802.0, 4836.0, 4872.0, 4876.0, 4874.0, 4870.0, 4840.0, 4830.0, 4800.0, 4780.0, 4800.0, 4806.0, 4836.0, 4868.0, 4844.0, 4838.0, 4864.0, 4840.0, 4830.0, 4800.0, 4802.0, 4806.0, 4832.0, 4842.0, 4868.0, 4870.0, 4844.0, 4838.0, 4830.0, 4808.0, 4808.0, 4832.0, 4836.0, 4836.0, 4836.0, 4836.0, 4842.0, 4834.0, 4830.0, 4830.0, 4834.0, 4834.0, 4834.0, 4830.0, 4834.0, 4834.0, 4838.0, 4840.0, 4832.0, 4832.0, 4834.0, 4836.0, 4832.0, 4830.0, 4834.0, 4836.0, 4836.0, 4832.0, 4836.0, 4838.0, 4836.0, 4832.0, 4806.0, 4834.0, 4834.0, 4838.0, 4832.0, 4836.0, 4836.0, 4834.0, 4834.0, 4830.0, 4832.0, 4828.0, 4804.0, 4802.0, 4806.0, 4832.0, 4842.0, 4842.0, 4842.0, 4838.0, 4834.0, 4808.0],
      "WindowWidth": [18642.0, 18644.0, 18650.0, 18642.0, 18644.0, 18644.0, 18642.0, 18644.0, 18612.0, 18606.0, 18612.0, 18640.0, 18678.0, 18678.0, 18676.0, 18676.0, 18646.0, 18636.0, 18608.0, 18608.0, 18638.0, 18644.0, 18676.0, 18648.0, 18676.0, 18682.0, 18678.0, 18642.0, 18642.0, 18642.0, 18612.0, 18612.0, 18646.0, 18676.0, 18682.0, 18678.0, 18642.0, 18642.0, 18616.0, 18644.0, 18648.0, 18646.0, 18642.0, 18648.0, 18646.0, 18648.0, 18646.0, 18644.0, 18610.0, 18616.0, 18610.0, 18644.0, 18676.0, 18678.0, 18678.0, 18646.0, 18614.0, 18580.0, 18608.0, 18614.0, 18654.0, 18672.0, 18630.0, 18674.0, 18680.0, 18642.0, 18610.0, 18576.0, 18608.0, 18642.0, 18672.0, 18684.0, 18682.0, 18680.0, 18644.0, 18642.0, 18612.0, 18640.0, 18644.0, 18644.0, 18644.0, 18612.0, 18616.0, 18618.0, 18648.0, 18650.0, 18680.0, 18670.0, 18670.0, 18674.0, 18640.0, 18606.0, 18572.0, 18610.0, 18644.0, 18676.0, 18680.0, 18678.0, 18682.0, 18652.0, 18650.0, 18642.0, 18642.0, 18610.0, 18612.0, 18604.0, 18614.0, 18644.0, 18678.0, 18678.0, 18674.0, 18680.0, 18650.0, 18638.0, 18608.0, 18574.0, 18606.0, 18616.0, 18646.0, 18678.0, 18650.0, 18648.0, 18680.0, 18646.0, 18646.0, 18608.0, 18604.0, 18614.0, 18646.0, 18646.0, 18680.0, 18676.0, 18648.0, 18642.0, 18640.0, 18612.0, 18612.0, 18644.0, 18646.0, 18642.0, 18640.0, 18642.0, 18646.0, 18640.0, 18648.0, 18634.0, 18640.0, 18642.0, 18640.0, 18642.0, 18644.0, 18640.0, 18642.0, 18648.0, 18640.0, 18638.0, 18642.0, 18644.0, 18638.0, 18638.0, 18640.0, 18646.0, 18644.0, 18644.0, 18646.0, 18644.0, 18640.0, 18648.0, 18614.0, 18650.0, 18646.0, 18648.0, 18644.0, 18642.0, 18642.0, 18640.0, 18646.0, 18642.0, 18638.0, 18640.0, 18610.0, 18610.0, 18616.0, 18638.0, 18646.0, 18644.0, 18646.0, 18644.0, 18646.0, 18612.0]
    },
    "slices": {}
  }
}