{
  "AcquisitionMatrixPE": 104,
  "AcquisitionNumber": 1,
  "AcquisitionTime": "17:54:50.590000",
  "BandwidthPerPixelPhaseEncode": 17.17,
  "BaseResolution": 104,
  "BodyPartExamined": "BRAIN",
  "CoilString": "HC1-7;NC1_2",
  "ConsistencyInfo": "N4_VE11C_LATEST_20160120",
  "ConversionSoftware": "dcm2niix",
  "ConversionSoftwareVersion": "v1.0.20190902",
  "DerivedVendorReportedEchoSpacing": 0.000560011,
  "DeviceSerialNumber": "167006",
  "DwellTime": 2.1e-06,
  "EchoTime": 0.037,
  "EchoTrainLength": 104,
  "EffectiveEchoSpacing": 0.000560011,
  "FlipAngle": 52,
  "ImageComments": "Unaliased_MB4_PE3_LB",
  "ImageOrientationPatientDICOM": [0.997005, 0.0676057, 0.0375552, -0.0496338, 0.931761, -0.359663],
  "ImageType": [
    "ORIGINAL",
    "PRIMARY",
    "M",
    "MB",
    "ND",
    "MOSAIC"
],
  "ImagingFrequency": 123.259,
  "InPlanePhaseEncodingDirectionDICOM": "COL",
  "InstitutionAddress": "Chemin_Queen-Mary_4565_Montreal_District_CA_H3W_1W5",
  "InstitutionName": "IUGM",
  "InstitutionalDepartmentName": "Department",
  "MRAcquisitionType": "2D",
  "MagneticFieldStrength": 3,
  "Manufacturer": "Siemens",
  "ManufacturersModelName": "Prisma_fit",
  "Modality": "MR",
  "MultibandAccelerationFactor": 4,
  "PartialFourier": 1,
  "PatientPosition": "HFS",
  "PercentPhaseFOV": 100,
  "PhaseEncodingDirection": "j",
  "PhaseEncodingSteps": 104,
  "PhaseResolution": 1,
  "PixelBandwidth": 2290,
  "ProcedureStepDescription": "memory_things",
  "ProtocolName": "func_task-things_run-3",
  "PulseSequenceDetails": "%CustomerSeq%_cmrr_mbep2d_bold",
  "ReceiveCoilActiveElements": "HC1-7;NC1,2",
  "ReceiveCoilName": "HeadNeck_64",
  "ReconMatrixPE": 104,
  "RepetitionTime": 1.49,
  "SAR": 0.0382126,
  "ScanOptions": "FS",
  "ScanningSequence": "EP",
  "SequenceName": "epfid2d1_104",
  "SequenceVariant": "SK_SS",
  "SeriesDescription": "func_task-things_run-3",
  "SeriesNumber": 16,
  "ShimSetting": [635, -7185, -8822, 644, 97, 26, -34, -9],
  "SliceThickness": 2,
  "SliceTiming": [0, 0.7825, 0.0975, 0.88, 0.195, 0.9775, 0.2925, 1.0775, 0.39, 1.175, 0.4875, 1.2725, 0.5875, 1.37, 0.685, 0, 0.7825, 0.0975, 0.88, 0.195, 0.9775, 0.2925, 1.0775, 0.39, 1.175, 0.4875, 1.2725, 0.5875, 1.37, 0.685, 0, 0.7825, 0.0975, 0.88, 0.195, 0.9775, 0.2925, 1.0775, 0.39, 1.175, 0.4875, 1.2725, 0.5875, 1.37, 0.685, 0, 0.7825, 0.0975, 0.88, 0.195, 0.9775, 0.2925, 1.0775, 0.39, 1.175, 0.4875, 1.2725, 0.5875, 1.37, 0.685],
  "SoftwareVersions": "syngo_MR_E11",
  "SpacingBetweenSlices": 2,
  "StationName": "MRC35049",
  "TaskName": "things",
  "TotalReadoutTime": 0.0576811,
  "TxRefAmp": 243.652,
  "WipMemBlock": "7a03d446-ab2d-48c4-937a-60408849f5cb||Sequence: R016 ve11c/master r/e634e98; Dec 19 2017 11:00:25 by eja",
  "dcmmeta_affine": [
    [-1.994010090827942, -0.09926769137382507, 0.11861544102430344, 108.8779296875],
    [-0.13521146774291992, 1.8635224103927612, -0.7134437561035156, -52.010772705078125],
    [0.0751103088259697, 0.7193261384963989, 1.8646522760391235, -65.7485122680664],
    [0.0, 0.0, 0.0, 1.0]
],
  "dcmmeta_reorient_transform": [
    [0.0, -1.0, 0.0, 103.0],
    [1.0, 0.0, 0.0, 0.0],
    [0.0, 0.0, 1.0, 0.0],
    [0.0, 0.0, 0.0, 1.0]
],
  "dcmmeta_shape": [104, 104, 60, 190],
  "dcmmeta_slice_dim": 2,
  "dcmmeta_version": 0.6,
  "global": {
    "const": {
      "AcquisitionMatrix": [104, 0, 0, 104],
      "AngioFlag": "N",
      "BitsAllocated": 16,
      "BitsStored": 16,
      "BodyPartExamined": "BRAIN",
      "Columns": 832,
      "EchoNumbers": 1,
      "EchoTime": 37.0,
      "EchoTrainLength": 104,
      "FlipAngle": 52.0,
      "HighBit": 15,
      "ImageOrientationPatient": [0.99700505284235, 0.06760573140007, 0.03755515528775, -0.0496338462275, 0.93176121055081, -0.3596630754214],
      "ImagePositionPatient": [-788.33959294228, -867.47117091676, 242.83664881937],
      "ImageType": [
        "ORIGINAL",
        "PRIMARY",
        "M",
        "MB",
        "ND",
        "MOSAIC"
],
      "ImagedNucleus": "1H",
      "ImagingFrequency": 123.258916,
      "InPlanePhaseEncodingDirection": "COL",
      "MRAcquisitionType": "2D",
      "MagneticFieldStrength": 3.0,
      "Manufacturer": "SIEMENS",
      "ManufacturerModelName": "Prisma_fit",
      "Modality": "MR",
      "NumberOfAverages": 1.0,
      "NumberOfPhaseEncodingSteps": 104,
      "PercentPhaseFieldOfView": 100.0,
      "PercentSampling": 100.0,
      "PerformedProcedureStepStartTime": "170829.074000",
      "PhotometricInterpretation": "MONOCHROME2",
      "PixelBandwidth": 2290.0,
      "PixelRepresentation": 0,
      "PixelSpacing": [2.0, 2.0],
      "ProtocolName": "func_task-things_run-3",
      "RepetitionTime": 1490.0,
      "Rows": 832,
      "SAR": 0.03821264160337,
      "SamplesPerPixel": 1,
      "ScanOptions": "FS",
      "ScanningSequence": "EP",
      "SequenceName": "epfid2d1_104",
      "SequenceVariant": [
        "SK",
        "SS"
],
      "SeriesDescription": "func_task-things_run-3",
      "SeriesNumber": 16,
      "SeriesTime": "175557.636000",
      "SliceLocation": -36.288373729264,
      "SliceThickness": 2.0,
      "SmallestImagePixelValue": 0,
      "SoftwareVersions": "syngo MR E11",
      "SpacingBetweenSlices": 1.9999999703987,
      "SpecificCharacterSet": "ISO_IR 100",
      "StudyID": "1",
      "StudyTime": "170828.986000",
      "TransmitCoilName": "Body",
      "VariableFlipAngleFlag": "N",
      "WindowCenterWidthExplanation": "Algo1",
      "dBdt": 0.0},
    "slices": {}
  },
  "time": {
    "samples": {
      "AcquisitionNumber": [1, 2, 3, 4, 5, 6, 7, 8, 9, 10, 11, 12, 13, 14, 15, 16, 17, 18, 19, 20, 21, 22, 23, 24, 25, 26, 27, 28, 29, 30, 31, 32, 33, 34, 35, 36, 37, 38, 39, 40, 41, 42, 43, 44, 45, 46, 47, 48, 49, 50, 51, 52, 53, 54, 55, 56, 57, 58, 59, 60, 61, 62, 63, 64, 65, 66, 67, 68, 69, 70, 71, 72, 73, 74, 75, 76, 77, 78, 79, 80, 81, 82, 83, 84, 85, 86, 87, 88, 89, 90, 91, 92, 93, 94, 95, 96, 97, 98, 99, 100, 101, 102, 103, 104, 105, 106, 107, 108, 109, 110, 111, 112, 113, 114, 115, 116, 117, 118, 119, 120, 121, 122, 123, 124, 125, 126, 127, 128, 129, 130, 131, 132, 133, 134, 135, 136, 137, 138, 139, 140, 141, 142, 143, 144, 145, 146, 147, 148, 149, 150, 151, 152, 153, 154, 155, 156, 157, 158, 159, 160, 161, 162, 163, 164, 165, 166, 167, 168, 169, 170, 171, 172, 173, 174, 175, 176, 177, 178, 179, 180, 181, 182, 183, 184, 185, 186, 187, 188, 189, 190],
      "AcquisitionTime": ["175450.590000", "175452.080000", "175453.570000", "175455.060000", "175456.550000", "175458.040000", "175459.530000", "175501.020000", "175502.510000", "175504.000000", "175505.490000", "175506.980000", "175508.470000", "175509.960000", "175511.450000", "175512.940000", "175514.430000", "175515.920000", "175517.410000", "175518.900000", "175520.390000", "175521.880000", "175523.370000", "175524.860000", "175526.350000", "175527.840000", "175529.330000", "175530.820000", "175532.310000", "175533.800000", "175535.290000", "175536.780000", "175538.270000", "175539.760000", "175541.250000", "175542.740000", "175544.230000", "175545.720000", "175547.210000", "175548.700000", "175550.190000", "175551.680000", "175553.170000", "175554.660000", "175556.150000", "175557.640000", "175559.130000", "175600.620000", "175602.110000", "175603.600000", "175605.090000", "175606.580000", "175608.070000", "175609.560000", "175611.050000", "175612.540000", "175614.030000", "175615.520000", "175617.010000", "175618.500000", "175619.990000", "175621.480000", "175622.970000", "175624.460000", "175625.950000", "175627.440000", "175628.930000", "175630.420000", "175631.910000", "175633.400000", "175634.890000", "175636.380000", "175637.870000", "175639.360000", "175640.850000", "175642.340000", "175643.830000", "175645.320000", "175646.810000", "175648.300000", "175649.790000", "175651.280000", "175652.770000", "175654.260000", "175655.750000", "175657.240000", "175658.730000", "175700.220000", "175701.710000", "175703.200000", "175704.690000", "175706.180000", "175707.670000", "175709.160000", "175710.650000", "175712.140000", "175713.630000", "175715.120000", "175716.610000", "175718.100000", "175719.590000", "175721.080000", "175722.570000", "175724.060000", "175725.550000", "175727.040000", "175728.530000", "175730.020000", "175731.510000", "175733.000000", "175734.490000", "175735.980000", "175737.470000", "175738.960000", "175740.450000", "175741.940000", "175743.430000", "175744.920000", "175746.410000", "175747.900000", "175749.390000", "175750.880000", "175752.370000", "175753.860000", "175755.350000", "175756.840000", "175758.330000", "175759.820000", "175801.310000", "175802.800000", "175804.290000", "175805.780000", "175807.270000", "175808.760000", "175810.250000", "175811.740000", "175813.230000", "175814.720000", "175816.210000", "175817.700000", "175819.190000", "175820.680000", "175822.170000", "175823.660000", "175825.150000", "175826.640000", "175828.130000", "175829.620000", "175831.110000", "175832.600000", "175834.090000", "175835.580000", "175837.070000", "175838.560000", "175840.050000", "175841.540000", "175843.030000", "175844.520000", "175846.010000", "175847.500000", "175848.990000", "175850.480000", "175851.970000", "175853.460000", "175854.950000", "175856.440000", "175857.930000", "175859.420000", "175900.910000", "175902.400000", "175903.890000", "175905.380000", "175906.870000", "175908.360000", "175909.850000", "175911.340000", "175912.830000", "175914.320000", "175915.810000", "175917.300000", "175918.790000", "175920.280000", "175921.770000", "175923.260000", "175924.750000", "175926.240000", "175927.730000", "175929.220000", "175930.710000", "175932.200000"],
      "ContentTime": ["175557.639000", "175557.643000", "175557.646000", "175557.650000", "175557.653000", "175557.662000", "175557.665000", "175557.669000", "175557.672000", "175557.675000", "175557.678000", "175557.682000", "175557.685000", "175617.596000", "175617.600000", "175617.603000", "175617.606000", "175617.609000", "175617.619000", "175617.622000", "175617.625000", "175617.629000", "175617.632000", "175617.635000", "175617.638000", "175617.642000", "175617.645000", "175617.648000", "175617.652000", "175617.655000", "175617.667000", "175617.670000", "175617.673000", "175617.677000", "175637.596000", "175637.600000", "175637.603000", "175637.606000", "175637.610000", "175637.613000", "175637.616000", "175637.620000", "175637.623000", "175637.626000", "175637.630000", "175637.633000", "175637.636000", "175637.639000", "175637.643000", "175637.646000", "175637.649000", "175637.653000", "175637.656000", "175637.659000", "175657.596000", "175657.600000", "175657.603000", "175657.606000", "175657.610000", "175657.613000", "175657.616000", "175657.619000", "175657.623000", "175657.626000", "175657.629000", "175657.633000", "175657.636000", "175657.639000", "175657.643000", "175657.646000", "175657.649000", "175657.653000", "175657.656000", "175657.659000", "175717.596000", "175717.600000", "175717.603000", "175717.606000", "175717.610000", "175717.622000", "175717.626000", "175717.629000", "175717.632000", "175717.636000", "175717.639000", "175717.642000", "175717.645000", "175717.649000", "175717.652000", "175717.655000", "175717.659000", "175717.662000", "175717.665000", "175717.669000", "175757.596000", "175757.600000", "175757.603000", "175757.606000", "175757.610000", "175757.613000", "175757.616000", "175757.620000", "175757.623000", "175757.626000", "175757.630000", "175757.633000", "175757.636000", "175757.639000", "175757.643000", "175757.646000", "175757.649000", "175757.653000", "175757.656000", "175757.659000", "175757.663000", "175757.666000", "175757.669000", "175757.673000", "175757.676000", "175757.679000", "175757.683000", "175757.686000", "175757.689000", "175757.693000", "175757.696000", "175837.596000", "175837.600000", "175837.603000", "175837.607000", "175837.610000", "175837.613000", "175837.617000", "175837.620000", "175837.623000", "175837.627000", "175837.630000", "175837.633000", "175837.637000", "175837.640000", "175837.643000", "175837.647000", "175837.650000", "175837.653000", "175837.657000", "175837.660000", "175837.663000", "175837.666000", "175837.670000", "175837.673000", "175837.676000", "175837.680000", "175837.683000", "175917.596000", "175917.600000", "175917.603000", "175917.607000", "175917.610000", "175917.613000", "175917.617000", "175917.620000", "175917.624000", "175917.627000", "175917.630000", "175917.635000", "175917.638000", "175917.641000", "175917.645000", "175917.648000", "175917.651000", "175917.655000", "175917.669000", "175917.673000", "175917.676000", "175917.679000", "175917.682000", "175917.696000", "175917.700000", "175917.703000", "175934.077000", "175934.081000", "175934.084000", "175934.087000", "175934.091000", "175934.094000", "175934.097000", "175934.101000", "175934.104000", "175934.107000", "175934.111000", "175934.114000"],
      "InstanceCreationTime": ["175557.639000", "175557.643000", "175557.646000", "175557.650000", "175557.653000", "175557.662000", "175557.665000", "175557.669000", "175557.672000", "175557.675000", "175557.678000", "175557.682000", "175557.685000", "175617.596000", "175617.600000", "175617.603000", "175617.606000", "175617.609000", "175617.619000", "175617.622000", "175617.625000", "175617.629000", "175617.632000", "175617.635000", "175617.638000", "175617.642000", "175617.645000", "175617.648000", "175617.652000", "175617.655000", "175617.667000", "175617.670000", "175617.673000", "175617.677000", "175637.596000", "175637.600000", "175637.603000", "175637.606000", "175637.610000", "175637.613000", "175637.616000", "175637.620000", "175637.623000", "175637.626000", "175637.630000", "175637.633000", "175637.636000", "175637.639000", "175637.643000", "175637.646000", "175637.649000", "175637.653000", "175637.656000", "175637.659000", "175657.596000", "175657.600000", "175657.603000", "175657.606000", "175657.610000", "175657.613000", "175657.616000", "175657.619000", "175657.623000", "175657.626000", "175657.629000", "175657.633000", "175657.636000", "175657.639000", "175657.643000", "175657.646000", "175657.649000", "175657.653000", "175657.656000", "175657.659000", "175717.596000", "175717.600000", "175717.603000", "175717.606000", "175717.610000", "175717.622000", "175717.626000", "175717.629000", "175717.632000", "175717.636000", "175717.639000", "175717.642000", "175717.645000", "175717.649000", "175717.652000", "175717.655000", "175717.659000", "175717.662000", "175717.665000", "175717.669000", "175757.596000", "175757.600000", "175757.603000", "175757.606000", "175757.610000", "175757.613000", "175757.616000", "175757.620000", "175757.623000", "175757.626000", "175757.630000", "175757.633000", "175757.636000", "175757.639000", "175757.643000", "175757.646000", "175757.649000", "175757.653000", "175757.656000", "175757.659000", "175757.663000", "175757.666000", "175757.669000", "175757.673000", "175757.676000", "175757.679000", "175757.683000", "175757.686000", "175757.689000", "175757.693000", "175757.696000", "175837.596000", "175837.600000", "175837.603000", "175837.607000", "175837.610000", "175837.613000", "175837.617000", "175837.620000", "175837.623000", "175837.627000", "175837.630000", "175837.633000", "175837.637000", "175837.640000", "175837.643000", "175837.647000", "175837.650000", "175837.653000", "175837.657000", "175837.660000", "175837.663000", "175837.666000", "175837.670000", "175837.673000", "175837.676000", "175837.680000", "175837.683000", "175917.596000", "175917.600000", "175917.603000", "175917.607000", "175917.610000", "175917.613000", "175917.617000", "175917.620000", "175917.624000", "175917.627000", "175917.630000", "175917.635000", "175917.638000", "175917.641000", "175917.645000", "175917.648000", "175917.651000", "175917.655000", "175917.669000", "175917.673000", "175917.676000", "175917.679000", "175917.682000", "175917.696000", "175917.700000", "175917.703000", "175934.077000", "175934.081000", "175934.084000", "175934.087000", "175934.091000", "175934.094000", "175934.097000", "175934.101000", "175934.104000", "175934.107000", "175934.111000", "175934.114000"],
      "InstanceNumber": [1, 2, 3, 4, 5, 6, 7, 8, 9, 10, 11, 12, 13, 14, 15, 16, 17, 18, 19, 20, 21, 22, 23, 24, 25, 26, 27, 28, 29, 30, 31, 32, 33, 34, 35, 36, 37, 38, 39, 40, 41, 42, 43, 44, 45, 46, 47, 48, 49, 50, 51, 52, 53, 54, 55, 56, 57, 58, 59, 60, 61, 62, 63, 64, 65, 66, 67, 68, 69, 70, 71, 72, 73, 74, 75, 76, 77, 78, 79, 80, 81, 82, 83, 84, 85, 86, 87, 88, 89, 90, 91, 92, 93, 94, 95, 96, 97, 98, 99, 100, 101, 102, 103, 104, 105, 106, 107, 108, 109, 110, 111, 112, 113, 114, 115, 116, 117, 118, 119, 120, 121, 122, 123, 124, 125, 126, 127, 128, 129, 130, 131, 132, 133, 134, 135, 136, 137, 138, 139, 140, 141, 142, 143, 144, 145, 146, 147, 148, 149, 150, 151, 152, 153, 154, 155, 156, 157, 158, 159, 160, 161, 162, 163, 164, 165, 166, 167, 168, 169, 170, 171, 172, 173, 174, 175, 176, 177, 178, 179, 180, 181, 182, 183, 184, 185, 186, 187, 188, 189, 190],
      "LargestImagePixelValue": [50355, 48697, 48566, 48594, 47328, 47887, 47283, 47894, 47575, 47418, 47737, 47883, 47695, 47723, 46938, 47325, 47463, 47612, 47231, 47104, 45189, 45525, 46372, 46904, 46356, 46662, 48117, 47919, 46950, 47463, 46978, 46151, 46871, 46367, 46646, 47550, 48021, 47874, 46919, 46453, 46650, 47520, 46462, 46283, 45142, 45548, 45967, 47156, 48499, 47329, 47662, 48064, 47555, 47030, 47050, 46287, 46189, 47440, 46724, 46261, 46006, 45523, 44528, 45846, 45300, 45591, 45481, 45008, 46104, 45434, 45937, 45104, 45644, 46374, 45460, 43199, 45022, 45504, 46137, 42408, 41778, 42840, 43320, 43130, 43020, 42741, 44031, 44024, 46072, 43774, 44003, 42310, 41801, 41373, 43067, 44306, 41854, 42179, 43088, 48702, 42220, 40989, 48121, 42568, 43394, 43327, 45706, 41913, 45097, 44321, 42286, 41617, 41374, 41788, 41382, 42452, 43767, 42402, 41918, 43517, 41869, 41785, 44017, 42302, 42402, 43176, 42500, 46105, 42015, 45269, 42807, 46825, 44184, 43838, 43490, 44342, 43948, 43877, 42783, 53109, 43522, 43347, 45505, 44359, 44019, 45580, 44270, 43881, 44672, 43635, 43111, 45468, 43275, 45215, 45812, 42017, 49943, 46977, 42696, 42381, 42966, 43385, 43546, 46871, 43601, 43091, 43171, 43189, 47797, 43515, 43592, 40718, 44542, 44939, 44563, 47034, 44350, 43800, 43507, 43216, 43407, 44077, 42690, 43352, 43024, 43543, 43769, 43262, 43159, 43359],
      "WindowCenter": [10709.0, 10660.0, 10649.0, 10656.0, 10636.0, 10632.0, 10618.0, 10626.0, 10639.0, 10651.0, 10641.0, 10630.0, 10634.0, 10633.0, 10603.0, 10615.0, 10634.0, 10658.0, 10661.0, 10656.0, 10624.0, 10615.0, 10617.0, 10626.0, 10637.0, 10648.0, 10654.0, 10628.0, 10653.0, 10647.0, 10665.0, 10668.0, 10683.0, 10650.0, 10630.0, 10622.0, 10617.0, 10664.0, 10681.0, 10679.0, 10652.0, 10632.0, 10609.0, 10596.0, 10566.0, 10571.0, 10607.0, 10638.0, 10641.0, 10622.0, 10625.0, 10615.0, 10610.0, 10613.0, 10618.0, 10630.0, 10657.0, 10661.0, 10644.0, 10641.0, 10613.0, 10590.0, 10584.0, 10601.0, 10620.0, 10640.0, 10635.0, 10617.0, 10603.0, 10588.0, 10605.0, 10621.0, 10658.0, 10678.0, 10659.0, 10608.0, 10619.0, 10621.0, 10606.0, 10642.0, 10642.0, 10624.0, 10620.0, 10611.0, 10610.0, 10620.0, 10627.0, 10636.0, 10661.0, 10632.0, 10600.0, 10606.0, 10617.0, 10603.0, 10629.0, 10616.0, 10584.0, 10580.0, 10587.0, 10662.0, 10609.0, 10589.0, 10646.0, 10581.0, 10589.0, 10607.0, 10641.0, 10602.0, 10622.0, 10609.0, 10590.0, 10566.0, 10549.0, 10587.0, 10592.0, 10619.0, 10655.0, 10647.0, 10645.0, 10622.0, 10586.0, 10576.0, 10571.0, 10565.0, 10579.0, 10570.0, 10563.0, 10591.0, 10547.0, 10586.0, 10561.0, 10600.0, 10562.0, 10546.0, 10550.0, 10575.0, 10586.0, 10584.0, 10554.0, 10617.0, 10532.0, 10545.0, 10610.0, 10620.0, 10605.0, 10605.0, 10560.0, 10563.0, 10581.0, 10597.0, 10609.0, 10626.0, 10588.0, 10603.0, 10608.0, 10560.0, 10638.0, 10600.0, 10564.0, 10554.0, 10569.0, 10590.0, 10585.0, 10622.0, 10579.0, 10562.0, 10561.0, 10548.0, 10588.0, 10546.0, 10544.0, 10528.0, 10598.0, 10588.0, 10584.0, 10607.0, 10568.0, 10555.0, 10549.0, 10549.0, 10551.0, 10572.0, 10562.0, 10574.0, 10578.0, 10594.0, 10602.0, 10565.0, 10552.0, 10544.0],
      "WindowWidth": [22833.0, 22705.0, 22669.0, 22678.0, 22630.0, 22620.0, 22588.0, 22595.0, 22627.0, 22665.0, 22629.0, 22602.0, 22624.0, 22622.0, 22542.0, 22572.0, 22620.0, 22676.0, 22683.0, 22676.0, 22611.0, 22583.0, 22589.0, 22609.0, 22631.0, 22656.0, 22661.0, 22612.0, 22670.0, 22650.0, 22695.0, 22710.0, 22752.0, 22663.0, 22613.0, 22587.0, 22574.0, 22693.0, 22737.0, 22731.0, 22662.0, 22607.0, 22567.0, 22533.0, 22462.0, 22473.0, 22559.0, 22633.0, 22631.0, 22589.0, 22595.0, 22569.0, 22573.0, 22575.0, 22584.0, 22619.0, 22684.0, 22687.0, 22653.0, 22657.0, 22576.0, 22535.0, 22520.0, 22552.0, 22600.0, 22650.0, 22631.0, 22585.0, 22559.0, 22520.0, 22554.0, 22597.0, 22687.0, 22736.0, 22689.0, 22578.0, 22597.0, 22595.0, 22555.0, 22666.0, 22677.0, 22611.0, 22606.0, 22579.0, 22575.0, 22599.0, 22612.0, 22634.0, 22694.0, 22627.0, 22547.0, 22581.0, 22596.0, 22564.0, 22629.0, 22587.0, 22510.0, 22503.0, 22513.0, 22687.0, 22576.0, 22533.0, 22648.0, 22509.0, 22521.0, 22567.0, 22637.0, 22560.0, 22598.0, 22569.0, 22535.0, 22478.0, 22437.0, 22526.0, 22534.0, 22596.0, 22676.0, 22660.0, 22662.0, 22602.0, 22523.0, 22498.0, 22477.0, 22475.0, 22502.0, 22473.0, 22464.0, 22520.0, 22425.0, 22512.0, 22461.0, 22548.0, 22458.0, 22416.0, 22425.0, 22488.0, 22508.0, 22513.0, 22443.0, 22561.0, 22386.0, 22417.0, 22570.0, 22597.0, 22556.0, 22555.0, 22445.0, 22466.0, 22499.0, 22550.0, 22581.0, 22612.0, 22523.0, 22551.0, 22560.0, 22458.0, 22622.0, 22535.0, 22462.0, 22435.0, 22470.0, 22516.0, 22504.0, 22592.0, 22494.0, 22455.0, 22456.0, 22420.0, 22513.0, 22412.0, 22407.0, 22393.0, 22533.0, 22505.0, 22499.0, 22556.0, 22469.0, 22442.0, 22429.0, 22428.0, 22432.0, 22476.0, 22452.0, 22477.0, 22491.0, 22529.0, 22549.0, 22463.0, 22438.0, 22418.0]
    },
    "slices": {}
  }
}