{
  "AcquisitionMatrixPE": 104,
  "AcquisitionNumber": 1,
  "AcquisitionTime": "17:42:11.467500",
  "BandwidthPerPixelPhaseEncode": 17.17,
  "BaseResolution": 104,
  "BodyPartExamined": "BRAIN",
  "CoilString": "HC1-7;NC1_2",
  "ConsistencyInfo": "N4_VE11C_LATEST_20160120",
  "ConversionSoftware": "dcm2niix",
  "ConversionSoftwareVersion": "v1.0.20190902",
  "DerivedVendorReportedEchoSpacing": 0.000560011,
  "DeviceSerialNumber": "167006",
  "DwellTime": 2.1e-06,
  "EchoTime": 0.037,
  "EchoTrainLength": 104,
  "EffectiveEchoSpacing": 0.000560011,
  "FlipAngle": 52,
  "ImageComments": "Unaliased_MB4_PE3_LB",
  "ImageOrientationPatientDICOM": [0.997005, 0.0676057, 0.0375552, -0.0496338, 0.931761, -0.359663],
  "ImageType": [
    "ORIGINAL",
    "PRIMARY",
    "P",
    "MB",
    "ND",
    "MOSAIC"
],
  "ImagingFrequency": 123.259,
  "InPlanePhaseEncodingDirectionDICOM": "COL",
  "InstitutionAddress": "Chemin_Queen-Mary_4565_Montreal_District_CA_H3W_1W5",
  "InstitutionName": "IUGM",
  "InstitutionalDepartmentName": "Department",
  "MRAcquisitionType": "2D",
  "MagneticFieldStrength": 3,
  "Manufacturer": "Siemens",
  "ManufacturersModelName": "Prisma_fit",
  "Modality": "MR",
  "MultibandAccelerationFactor": 4,
  "PartialFourier": 1,
  "PatientPosition": "HFS",
  "PercentPhaseFOV": 100,
  "PhaseEncodingDirection": "j",
  "PhaseEncodingSteps": 104,
  "PhaseResolution": 1,
  "PixelBandwidth": 2290,
  "ProcedureStepDescription": "memory_things",
  "ProtocolName": "func_task-things_run-1",
  "PulseSequenceDetails": "%CustomerSeq%_cmrr_mbep2d_bold",
  "ReceiveCoilActiveElements": "HC1-7;NC1,2",
  "ReceiveCoilName": "HeadNeck_64",
  "ReconMatrixPE": 104,
  "RepetitionTime": 1.49,
  "SAR": 0.0382126,
  "ScanOptions": "FS",
  "ScanningSequence": "EP",
  "SequenceName": "epfid2d1_104",
  "SequenceVariant": "SK_SS",
  "SeriesDescription": "func_task-things_run-1",
  "SeriesNumber": 11,
  "ShimSetting": [635, -7185, -8822, 644, 97, 26, -34, -9],
  "SliceThickness": 2,
  "SliceTiming": [0, 0.7825, 0.0975, 0.88, 0.195, 0.98, 0.2925, 1.0775, 0.39, 1.175, 0.49, 1.2725, 0.5875, 1.37, 0.685, 0, 0.7825, 0.0975, 0.88, 0.195, 0.98, 0.2925, 1.0775, 0.39, 1.175, 0.49, 1.2725, 0.5875, 1.37, 0.685, 0, 0.7825, 0.0975, 0.88, 0.195, 0.98, 0.2925, 1.0775, 0.39, 1.175, 0.49, 1.2725, 0.5875, 1.37, 0.685, 0, 0.7825, 0.0975, 0.88, 0.195, 0.98, 0.2925, 1.0775, 0.39, 1.175, 0.49, 1.2725, 0.5875, 1.37, 0.685],
  "SoftwareVersions": "syngo_MR_E11",
  "SpacingBetweenSlices": 2,
  "StationName": "MRC35049",
  "TaskName": "things",
  "TotalReadoutTime": 0.0576811,
  "TxRefAmp": 243.652,
  "WipMemBlock": "0474e49e-9c0c-493a-86fa-3057a5955feb||Sequence: R016 ve11c/master r/e634e98; Dec 19 2017 11:00:25 by eja",
  "dcmmeta_affine": [
    [-1.994010090827942, -0.09926769137382507, 0.11861544102430344, 108.8779296875],
    [-0.13521146774291992, 1.8635224103927612, -0.7134437561035156, -52.010772705078125],
    [0.0751103088259697, 0.7193261384963989, 1.8646522760391235, -65.7485122680664],
    [0.0, 0.0, 0.0, 1.0]
],
  "dcmmeta_reorient_transform": [
    [0.0, -1.0, 0.0, 103.0],
    [1.0, 0.0, 0.0, 0.0],
    [0.0, 0.0, 1.0, 0.0],
    [0.0, 0.0, 0.0, 1.0]
],
  "dcmmeta_shape": [104, 104, 60, 190],
  "dcmmeta_slice_dim": 2,
  "dcmmeta_version": 0.6,
  "global": {
    "const": {
      "AcquisitionMatrix": [104, 0, 0, 104],
      "AngioFlag": "N",
      "BitsAllocated": 16,
      "BitsStored": 16,
      "BodyPartExamined": "BRAIN",
      "Columns": 832,
      "EchoNumbers": 1,
      "EchoTime": 37.0,
      "EchoTrainLength": 104,
      "FlipAngle": 52.0,
      "HighBit": 15,
      "ImageOrientationPatient": [0.99700505284235, 0.06760573140007, 0.03755515528775, -0.0496338462275, 0.93176121055081, -0.3596630754214],
      "ImagePositionPatient": [-788.33959294228, -867.47117091676, 242.83664881937],
      "ImageType": [
        "ORIGINAL",
        "PRIMARY",
        "P",
        "MB",
        "ND",
        "MOSAIC"
],
      "ImagedNucleus": "1H",
      "ImagingFrequency": 123.258909,
      "InPlanePhaseEncodingDirection": "COL",
      "LargestImagePixelValue": 4095,
      "MRAcquisitionType": "2D",
      "MagneticFieldStrength": 3.0,
      "Manufacturer": "SIEMENS",
      "ManufacturerModelName": "Prisma_fit",
      "Modality": "MR",
      "NumberOfAverages": 1.0,
      "NumberOfPhaseEncodingSteps": 104,
      "PercentPhaseFieldOfView": 100.0,
      "PercentSampling": 100.0,
      "PerformedProcedureStepStartTime": "170829.074000",
      "PhotometricInterpretation": "MONOCHROME2",
      "PixelBandwidth": 2290.0,
      "PixelRepresentation": 0,
      "PixelSpacing": [2.0, 2.0],
      "ProtocolName": "func_task-things_run-1",
      "RepetitionTime": 1490.0,
      "RescaleIntercept": -4096.0,
      "RescaleSlope": 2.0,
      "RescaleType": "US",
      "Rows": 832,
      "SAR": 0.03821264160337,
      "SamplesPerPixel": 1,
      "ScanOptions": "FS",
      "ScanningSequence": "EP",
      "SequenceName": "epfid2d1_104",
      "SequenceVariant": [
        "SK",
        "SS"
],
      "SeriesDescription": "func_task-things_run-1",
      "SeriesNumber": 11,
      "SeriesTime": "174339.008000",
      "SliceLocation": -36.288373729264,
      "SliceThickness": 2.0,
      "SmallestImagePixelValue": 0,
      "SoftwareVersions": "syngo MR E11",
      "SpacingBetweenSlices": 1.9999999703987,
      "SpecificCharacterSet": "ISO_IR 100",
      "StudyID": "1",
      "StudyTime": "170828.986000",
      "TransmitCoilName": "Body",
      "VariableFlipAngleFlag": "N",
      "WindowCenterWidthExplanation": "Algo1",
      "dBdt": 0.0},
    "slices": {}
  },
  "time": {
    "samples": {
      "AcquisitionNumber": [1, 2, 3, 4, 5, 6, 7, 8, 9, 10, 11, 12, 13, 14, 15, 16, 17, 18, 19, 20, 21, 22, 23, 24, 25, 26, 27, 28, 29, 30, 31, 32, 33, 34, 35, 36, 37, 38, 39, 40, 41, 42, 43, 44, 45, 46, 47, 48, 49, 50, 51, 52, 53, 54, 55, 56, 57, 58, 59, 60, 61, 62, 63, 64, 65, 66, 67, 68, 69, 70, 71, 72, 73, 74, 75, 76, 77, 78, 79, 80, 81, 82, 83, 84, 85, 86, 87, 88, 89, 90, 91, 92, 93, 94, 95, 96, 97, 98, 99, 100, 101, 102, 103, 104, 105, 106, 107, 108, 109, 110, 111, 112, 113, 114, 115, 116, 117, 118, 119, 120, 121, 122, 123, 124, 125, 126, 127, 128, 129, 130, 131, 132, 133, 134, 135, 136, 137, 138, 139, 140, 141, 142, 143, 144, 145, 146, 147, 148, 149, 150, 151, 152, 153, 154, 155, 156, 157, 158, 159, 160, 161, 162, 163, 164, 165, 166, 167, 168, 169, 170, 171, 172, 173, 174, 175, 176, 177, 178, 179, 180, 181, 182, 183, 184, 185, 186, 187, 188, 189, 190],
      "AcquisitionTime": ["174211.467500", "174212.957500", "174214.447500", "174215.937500", "174217.427500", "174218.917500", "174220.407500", "174221.897500", "174223.387500", "174224.877500", "174226.367500", "174227.857500", "174229.347500", "174230.837500", "174232.327500", "174233.817500", "174235.307500", "174236.797500", "174238.287500", "174239.777500", "174241.267500", "174242.757500", "174244.247500", "174245.737500", "174247.227500", "174248.717500", "174250.207500", "174251.697500", "174253.187500", "174254.677500", "174256.167500", "174257.657500", "174259.147500", "174300.637500", "174302.127500", "174303.617500", "174305.107500", "174306.597500", "174308.087500", "174309.577500", "174311.067500", "174312.557500", "174314.047500", "174315.537500", "174317.027500", "174318.517500", "174320.007500", "174321.497500", "174322.987500", "174324.477500", "174325.967500", "174327.457500", "174328.947500", "174330.437500", "174331.927500", "174333.417500", "174334.907500", "174336.397500", "174337.887500", "174339.377500", "174340.867500", "174342.357500", "174343.847500", "174345.337500", "174346.827500", "174348.317500", "174349.807500", "174351.297500", "174352.787500", "174354.277500", "174355.767500", "174357.257500", "174358.747500", "174400.237500", "174401.727500", "174403.217500", "174404.707500", "174406.197500", "174407.687500", "174409.177500", "174410.667500", "174412.157500", "174413.647500", "174415.137500", "174416.627500", "174418.117500", "174419.607500", "174421.097500", "174422.587500", "174424.077500", "174425.567500", "174427.057500", "174428.547500", "174430.037500", "174431.527500", "174433.017500", "174434.507500", "174435.997500", "174437.487500", "174438.977500", "174440.467500", "174441.957500", "174443.447500", "174444.937500", "174446.427500", "174447.917500", "174449.407500", "174450.897500", "174452.387500", "174453.877500", "174455.367500", "174456.857500", "174458.347500", "174459.837500", "174501.327500", "174502.817500", "174504.307500", "174505.797500", "174507.287500", "174508.777500", "174510.267500", "174511.757500", "174513.247500", "174514.737500", "174516.227500", "174517.717500", "174519.207500", "174520.697500", "174522.187500", "174523.677500", "174525.167500", "174526.657500", "174528.147500", "174529.637500", "174531.127500", "174532.617500", "174534.107500", "174535.597500", "174537.087500", "174538.577500", "174540.067500", "174541.557500", "174543.047500", "174544.537500", "174546.027500", "174547.517500", "174549.007500", "174550.497500", "174551.987500", "174553.477500", "174554.967500", "174556.457500", "174557.947500", "174559.437500", "174600.927500", "174602.417500", "174603.907500", "174605.397500", "174606.887500", "174608.377500", "174609.867500", "174611.357500", "174612.847500", "174614.337500", "174615.827500", "174617.317500", "174618.807500", "174620.297500", "174621.787500", "174623.277500", "174624.767500", "174626.257500", "174627.747500", "174629.237500", "174630.727500", "174632.217500", "174633.707500", "174635.197500", "174636.687500", "174638.177500", "174639.667500", "174641.157500", "174642.647500", "174644.137500", "174645.627500", "174647.117500", "174648.607500", "174650.097500", "174651.587500", "174653.077500"],
      "ContentTime": ["174339.010000", "174339.013000", "174339.015000", "174339.018000", "174339.020000", "174339.023000", "174339.025000", "174339.028000", "174339.030000", "174339.033000", "174339.035000", "174339.038000", "174339.040000", "174339.043000", "174339.045000", "174339.048000", "174339.050000", "174339.053000", "174339.055000", "174339.058000", "174339.060000", "174339.070000", "174339.073000", "174339.075000", "174339.078000", "174339.080000", "174339.083000", "174339.085000", "174339.088000", "174339.090000", "174339.093000", "174339.095000", "174358.905000", "174358.908000", "174358.910000", "174358.913000", "174358.915000", "174358.918000", "174358.920000", "174358.923000", "174358.925000", "174358.928000", "174358.930000", "174358.933000", "174358.935000", "174358.938000", "174358.940000", "174358.943000", "174358.951000", "174358.954000", "174358.956000", "174358.959000", "174358.966000", "174418.915000", "174418.918000", "174418.920000", "174418.923000", "174418.925000", "174418.928000", "174418.930000", "174418.933000", "174418.935000", "174418.938000", "174418.940000", "174418.943000", "174418.945000", "174418.948000", "174418.950000", "174418.953000", "174418.955000", "174418.958000", "174418.960000", "174418.963000", "174438.896000", "174438.898000", "174438.901000", "174438.904000", "174438.906000", "174438.909000", "174438.911000", "174438.914000", "174438.916000", "174438.919000", "174438.921000", "174438.924000", "174438.926000", "174438.929000", "174438.931000", "174438.934000", "174438.936000", "174438.939000", "174438.941000", "174438.944000", "174518.961000", "174518.964000", "174518.967000", "174518.969000", "174518.972000", "174518.974000", "174518.977000", "174518.979000", "174518.982000", "174518.984000", "174518.987000", "174518.989000", "174518.992000", "174518.994000", "174518.997000", "174519.000000", "174519.003000", "174519.005000", "174519.008000", "174519.010000", "174519.013000", "174519.015000", "174519.018000", "174519.020000", "174519.023000", "174519.025000", "174519.028000", "174519.030000", "174519.033000", "174519.035000", "174519.038000", "174519.040000", "174538.879000", "174538.881000", "174538.884000", "174538.886000", "174538.889000", "174538.891000", "174538.894000", "174538.896000", "174538.899000", "174538.901000", "174538.904000", "174538.906000", "174538.909000", "174618.927000", "174618.930000", "174618.933000", "174618.935000", "174618.938000", "174618.940000", "174618.943000", "174618.945000", "174618.948000", "174618.950000", "174618.953000", "174618.955000", "174618.958000", "174618.960000", "174618.963000", "174618.965000", "174618.968000", "174618.970000", "174618.973000", "174618.975000", "174618.978000", "174618.980000", "174618.983000", "174618.985000", "174618.988000", "174618.990000", "174618.993000", "174655.467000", "174655.470000", "174655.473000", "174655.475000", "174655.478000", "174655.481000", "174655.483000", "174655.486000", "174655.488000", "174655.491000", "174655.493000", "174655.496000", "174655.498000", "174655.501000", "174655.503000", "174655.506000", "174655.509000", "174655.511000", "174655.514000", "174655.516000", "174655.519000", "174655.521000", "174655.524000", "174655.526000", "174655.529000"],
      "InstanceCreationTime": ["174339.010000", "174339.013000", "174339.015000", "174339.018000", "174339.020000", "174339.023000", "174339.025000", "174339.028000", "174339.030000", "174339.033000", "174339.035000", "174339.038000", "174339.040000", "174339.043000", "174339.045000", "174339.048000", "174339.050000", "174339.053000", "174339.055000", "174339.058000", "174339.060000", "174339.070000", "174339.073000", "174339.075000", "174339.078000", "174339.080000", "174339.083000", "174339.085000", "174339.088000", "174339.090000", "174339.093000", "174339.095000", "174358.905000", "174358.908000", "174358.910000", "174358.913000", "174358.915000", "174358.918000", "174358.920000", "174358.923000", "174358.925000", "174358.928000", "174358.930000", "174358.933000", "174358.935000", "174358.938000", "174358.940000", "174358.943000", "174358.951000", "174358.954000", "174358.956000", "174358.959000", "174358.966000", "174418.915000", "174418.918000", "174418.920000", "174418.923000", "174418.925000", "174418.928000", "174418.930000", "174418.933000", "174418.935000", "174418.938000", "174418.940000", "174418.943000", "174418.945000", "174418.948000", "174418.950000", "174418.953000", "174418.955000", "174418.958000", "174418.960000", "174418.963000", "174438.896000", "174438.898000", "174438.901000", "174438.904000", "174438.906000", "174438.909000", "174438.911000", "174438.914000", "174438.916000", "174438.919000", "174438.921000", "174438.924000", "174438.926000", "174438.929000", "174438.931000", "174438.934000", "174438.936000", "174438.939000", "174438.941000", "174438.944000", "174518.961000", "174518.964000", "174518.967000", "174518.969000", "174518.972000", "174518.974000", "174518.977000", "174518.979000", "174518.982000", "174518.984000", "174518.987000", "174518.989000", "174518.992000", "174518.994000", "174518.997000", "174519.000000", "174519.003000", "174519.005000", "174519.008000", "174519.010000", "174519.013000", "174519.015000", "174519.018000", "174519.020000", "174519.023000", "174519.025000", "174519.028000", "174519.030000", "174519.033000", "174519.035000", "174519.038000", "174519.040000", "174538.879000", "174538.881000", "174538.884000", "174538.886000", "174538.889000", "174538.891000", "174538.894000", "174538.896000", "174538.899000", "174538.901000", "174538.904000", "174538.906000", "174538.909000", "174618.927000", "174618.930000", "174618.933000", "174618.935000", "174618.938000", "174618.940000", "174618.943000", "174618.945000", "174618.948000", "174618.950000", "174618.953000", "174618.955000", "174618.958000", "174618.960000", "174618.963000", "174618.965000", "174618.968000", "174618.970000", "174618.973000", "174618.975000", "174618.978000", "174618.980000", "174618.983000", "174618.985000", "174618.988000", "174618.990000", "174618.993000", "174655.467000", "174655.470000", "174655.473000", "174655.475000", "174655.478000", "174655.481000", "174655.483000", "174655.486000", "174655.488000", "174655.491000", "174655.493000", "174655.496000", "174655.498000", "174655.501000", "174655.503000", "174655.506000", "174655.509000", "174655.511000", "174655.514000", "174655.516000", "174655.519000", "174655.521000", "174655.524000", "174655.526000", "174655.529000"],
      "InstanceNumber": [1, 2, 3, 4, 5, 6, 7, 8, 9, 10, 11, 12, 13, 14, 15, 16, 17, 18, 19, 20, 21, 22, 23, 24, 25, 26, 27, 28, 29, 30, 31, 32, 33, 34, 35, 36, 37, 38, 39, 40, 41, 42, 43, 44, 45, 46, 47, 48, 49, 50, 51, 52, 53, 54, 55, 56, 57, 58, 59, 60, 61, 62, 63, 64, 65, 66, 67, 68, 69, 70, 71, 72, 73, 74, 75, 76, 77, 78, 79, 80, 81, 82, 83, 84, 85, 86, 87, 88, 89, 90, 91, 92, 93, 94, 95, 96, 97, 98, 99, 100, 101, 102, 103, 104, 105, 106, 107, 108, 109, 110, 111, 112, 113, 114, 115, 116, 117, 118, 119, 120, 121, 122, 123, 124, 125, 126, 127, 128, 129, 130, 131, 132, 133, 134, 135, 136, 137, 138, 139, 140, 141, 142, 143, 144, 145, 146, 147, 148, 149, 150, 151, 152, 153, 154, 155, 156, 157, 158, 159, 160, 161, 162, 163, 164, 165, 166, 167, 168, 169, 170, 171, 172, 173, 174, 175, 176, 177, 178, 179, 180, 181, 182, 183, 184, 185, 186, 187, 188, 189, 190],
      "WindowCenter": [4874.0, 4850.0, 4852.0, 4852.0, 4846.0, 4836.0, 4834.0, 4848.0, 4878.0, 4880.0, 4854.0, 4850.0, 4844.0, 4870.0, 4846.0, 4850.0, 4850.0, 4846.0, 4846.0, 4850.0, 4876.0, 4880.0, 4878.0, 4846.0, 4842.0, 4850.0, 4874.0, 4852.0, 4852.0, 4846.0, 4846.0, 4874.0, 4876.0, 4846.0, 4870.0, 4850.0, 4874.0, 4846.0, 4842.0, 4852.0, 4874.0, 4848.0, 4846.0, 4870.0, 4852.0, 4872.0, 4844.0, 4842.0, 4872.0, 4874.0, 4850.0, 4846.0, 4872.0, 4850.0, 4852.0, 4848.0, 4844.0, 4850.0, 4848.0, 4872.0, 4846.0, 4872.0, 4878.0, 4874.0, 4848.0, 4846.0, 4846.0, 4874.0, 4868.0, 4842.0, 4872.0, 4874.0, 4874.0, 4844.0, 4838.0, 4848.0, 4850.0, 4870.0, 4842.0, 4848.0, 4876.0, 4872.0, 4870.0, 4846.0, 4846.0, 4848.0, 4868.0, 4874.0, 4848.0, 4846.0, 4872.0, 4848.0, 4846.0, 4834.0, 4830.0, 4832.0, 4842.0, 4872.0, 4882.0, 4856.0, 4856.0, 4852.0, 4836.0, 4832.0, 4834.0, 4842.0, 4848.0, 4866.0, 4864.0, 4848.0, 4876.0, 4876.0, 4870.0, 4838.0, 4838.0, 4848.0, 4844.0, 4844.0, 4840.0, 4850.0, 4874.0, 4874.0, 4870.0, 4840.0, 4832.0, 4844.0, 4872.0, 4874.0, 4878.0, 4876.0, 4870.0, 4838.0, 4844.0, 4844.0, 4842.0, 4834.0, 4838.0, 4848.0, 4876.0, 4878.0, 4870.0, 4842.0, 4844.0, 4868.0, 4866.0, 4838.0, 4840.0, 4846.0, 4846.0, 4840.0, 4832.0, 4840.0, 4872.0, 4876.0, 4878.0, 4878.0, 4872.0, 4840.0, 4834.0, 4834.0, 4844.0, 4840.0, 4808.0, 4830.0, 4842.0, 4878.0, 4878.0, 4876.0, 4840.0, 4832.0, 4834.0, 4866.0, 4876.0, 4876.0, 4878.0, 4872.0, 4846.0, 4874.0, 4868.0, 4838.0, 4840.0, 4866.0, 4844.0, 4846.0, 4878.0, 4872.0, 4842.0, 4870.0, 4844.0, 4844.0],
      "WindowWidth": [18674.0, 18648.0, 18646.0, 18646.0, 18644.0, 18640.0, 18632.0, 18644.0, 18674.0, 18672.0, 18640.0, 18644.0, 18644.0, 18674.0, 18640.0, 18646.0, 18644.0, 18644.0, 18640.0, 18644.0, 18680.0, 18676.0, 18676.0, 18648.0, 18638.0, 18642.0, 18676.0, 18642.0, 18644.0, 18642.0, 18644.0, 18676.0, 18678.0, 18642.0, 18674.0, 18644.0, 18676.0, 18644.0, 18640.0, 18644.0, 18670.0, 18642.0, 18642.0, 18674.0, 18644.0, 18676.0, 18640.0, 18638.0, 18672.0, 18670.0, 18646.0, 18644.0, 18674.0, 18644.0, 18644.0, 18644.0, 18638.0, 18644.0, 18642.0, 18674.0, 18644.0, 18672.0, 18676.0, 18670.0, 18644.0, 18636.0, 18642.0, 18674.0, 18670.0, 18638.0, 18674.0, 18678.0, 18672.0, 18640.0, 18634.0, 18642.0, 18642.0, 18672.0, 18644.0, 18640.0, 18678.0, 18672.0, 18674.0, 18644.0, 18636.0, 18646.0, 18668.0, 18674.0, 18646.0, 18642.0, 18672.0, 18642.0, 18648.0, 18634.0, 18638.0, 18636.0, 18644.0, 18676.0, 18674.0, 18638.0, 18638.0, 18650.0, 18634.0, 18632.0, 18630.0, 18634.0, 18640.0, 18670.0, 18674.0, 18642.0, 18678.0, 18676.0, 18672.0, 18638.0, 18636.0, 18640.0, 18638.0, 18642.0, 18638.0, 18640.0, 18676.0, 18676.0, 18676.0, 18642.0, 18632.0, 18642.0, 18674.0, 18672.0, 18678.0, 18676.0, 18676.0, 18632.0, 18640.0, 18642.0, 18642.0, 18634.0, 18640.0, 18636.0, 18674.0, 18676.0, 18674.0, 18640.0, 18636.0, 18672.0, 18668.0, 18634.0, 18636.0, 18640.0, 18638.0, 18638.0, 18636.0, 18642.0, 18674.0, 18672.0, 18672.0, 18680.0, 18670.0, 18638.0, 18636.0, 18632.0, 18636.0, 18638.0, 18608.0, 18634.0, 18640.0, 18678.0, 18668.0, 18672.0, 18642.0, 18642.0, 18640.0, 18676.0, 18672.0, 18670.0, 18678.0, 18674.0, 18640.0, 18670.0, 18670.0, 18640.0, 18640.0, 18670.0, 18640.0, 18642.0, 18674.0, 18678.0, 18640.0, 18672.0, 18640.0, 18636.0]
    },
    "slices": {}
  }
}