{
  "AcquisitionMatrixPE": 104,
  "AcquisitionNumber": 1,
  "AcquisitionTime": "17:42:11.467500",
  "BandwidthPerPixelPhaseEncode": 17.17,
  "BaseResolution": 104,
  "BodyPartExamined": "BRAIN",
  "CoilString": "HC1-7;NC1_2",
  "ConsistencyInfo": "N4_VE11C_LATEST_20160120",
  "ConversionSoftware": "dcm2niix",
  "ConversionSoftwareVersion": "v1.0.20190902",
  "DerivedVendorReportedEchoSpacing": 0.000560011,
  "DeviceSerialNumber": "167006",
  "DwellTime": 2.1e-06,
  "EchoTime": 0.037,
  "EchoTrainLength": 104,
  "EffectiveEchoSpacing": 0.000560011,
  "FlipAngle": 52,
  "ImageComments": "Unaliased_MB4_PE3_LB",
  "ImageOrientationPatientDICOM": [0.997005, 0.0676057, 0.0375552, -0.0496338, 0.931761, -0.359663],
  "ImageType": [
    "ORIGINAL",
    "PRIMARY",
    "M",
    "MB",
    "ND",
    "MOSAIC"
],
  "ImagingFrequency": 123.259,
  "InPlanePhaseEncodingDirectionDICOM": "COL",
  "InstitutionAddress": "Chemin_Queen-Mary_4565_Montreal_District_CA_H3W_1W5",
  "InstitutionName": "IUGM",
  "InstitutionalDepartmentName": "Department",
  "MRAcquisitionType": "2D",
  "MagneticFieldStrength": 3,
  "Manufacturer": "Siemens",
  "ManufacturersModelName": "Prisma_fit",
  "Modality": "MR",
  "MultibandAccelerationFactor": 4,
  "PartialFourier": 1,
  "PatientPosition": "HFS",
  "PercentPhaseFOV": 100,
  "PhaseEncodingDirection": "j",
  "PhaseEncodingSteps": 104,
  "PhaseResolution": 1,
  "PixelBandwidth": 2290,
  "ProcedureStepDescription": "memory_things",
  "ProtocolName": "func_task-things_run-1",
  "PulseSequenceDetails": "%CustomerSeq%_cmrr_mbep2d_bold",
  "ReceiveCoilActiveElements": "HC1-7;NC1,2",
  "ReceiveCoilName": "HeadNeck_64",
  "ReconMatrixPE": 104,
  "RepetitionTime": 1.49,
  "SAR": 0.0382126,
  "ScanOptions": "FS",
  "ScanningSequence": "EP",
  "SequenceName": "epfid2d1_104",
  "SequenceVariant": "SK_SS",
  "SeriesDescription": "func_task-things_run-1",
  "SeriesNumber": 10,
  "ShimSetting": [635, -7185, -8822, 644, 97, 26, -34, -9],
  "SliceThickness": 2,
  "SliceTiming": [0, 0.7825, 0.0975, 0.88, 0.195, 0.98, 0.2925, 1.0775, 0.39, 1.175, 0.49, 1.2725, 0.5875, 1.37, 0.685, 0, 0.7825, 0.0975, 0.88, 0.195, 0.98, 0.2925, 1.0775, 0.39, 1.175, 0.49, 1.2725, 0.5875, 1.37, 0.685, 0, 0.7825, 0.0975, 0.88, 0.195, 0.98, 0.2925, 1.0775, 0.39, 1.175, 0.49, 1.2725, 0.5875, 1.37, 0.685, 0, 0.7825, 0.0975, 0.88, 0.195, 0.98, 0.2925, 1.0775, 0.39, 1.175, 0.49, 1.2725, 0.5875, 1.37, 0.685],
  "SoftwareVersions": "syngo_MR_E11",
  "SpacingBetweenSlices": 2,
  "StationName": "MRC35049",
  "TaskName": "things",
  "TotalReadoutTime": 0.0576811,
  "TxRefAmp": 243.652,
  "WipMemBlock": "0474e49e-9c0c-493a-86fa-3057a5955feb||Sequence: R016 ve11c/master r/e634e98; Dec 19 2017 11:00:25 by eja",
  "dcmmeta_affine": [
    [-1.994010090827942, -0.09926769137382507, 0.11861544102430344, 108.8779296875],
    [-0.13521146774291992, 1.8635224103927612, -0.7134437561035156, -52.010772705078125],
    [0.0751103088259697, 0.7193261384963989, 1.8646522760391235, -65.7485122680664],
    [0.0, 0.0, 0.0, 1.0]
],
  "dcmmeta_reorient_transform": [
    [0.0, -1.0, 0.0, 103.0],
    [1.0, 0.0, 0.0, 0.0],
    [0.0, 0.0, 1.0, 0.0],
    [0.0, 0.0, 0.0, 1.0]
],
  "dcmmeta_shape": [104, 104, 60, 190],
  "dcmmeta_slice_dim": 2,
  "dcmmeta_version": 0.6,
  "global": {
    "const": {
      "AcquisitionMatrix": [104, 0, 0, 104],
      "AngioFlag": "N",
      "BitsAllocated": 16,
      "BitsStored": 16,
      "BodyPartExamined": "BRAIN",
      "Columns": 832,
      "EchoNumbers": 1,
      "EchoTime": 37.0,
      "EchoTrainLength": 104,
      "FlipAngle": 52.0,
      "HighBit": 15,
      "ImageOrientationPatient": [0.99700505284235, 0.06760573140007, 0.03755515528775, -0.0496338462275, 0.93176121055081, -0.3596630754214],
      "ImagePositionPatient": [-788.33959294228, -867.47117091676, 242.83664881937],
      "ImageType": [
        "ORIGINAL",
        "PRIMARY",
        "M",
        "MB",
        "ND",
        "MOSAIC"
],
      "ImagedNucleus": "1H",
      "ImagingFrequency": 123.258909,
      "InPlanePhaseEncodingDirection": "COL",
      "MRAcquisitionType": "2D",
      "MagneticFieldStrength": 3.0,
      "Manufacturer": "SIEMENS",
      "ManufacturerModelName": "Prisma_fit",
      "Modality": "MR",
      "NumberOfAverages": 1.0,
      "NumberOfPhaseEncodingSteps": 104,
      "PercentPhaseFieldOfView": 100.0,
      "PercentSampling": 100.0,
      "PerformedProcedureStepStartTime": "170829.074000",
      "PhotometricInterpretation": "MONOCHROME2",
      "PixelBandwidth": 2290.0,
      "PixelRepresentation": 0,
      "PixelSpacing": [2.0, 2.0],
      "ProtocolName": "func_task-things_run-1",
      "RepetitionTime": 1490.0,
      "Rows": 832,
      "SAR": 0.03821264160337,
      "SamplesPerPixel": 1,
      "ScanOptions": "FS",
      "ScanningSequence": "EP",
      "SequenceName": "epfid2d1_104",
      "SequenceVariant": [
        "SK",
        "SS"
],
      "SeriesDescription": "func_task-things_run-1",
      "SeriesNumber": 10,
      "SeriesTime": "174338.826000",
      "SliceLocation": -36.288373729264,
      "SliceThickness": 2.0,
      "SmallestImagePixelValue": 0,
      "SoftwareVersions": "syngo MR E11",
      "SpacingBetweenSlices": 1.9999999703987,
      "SpecificCharacterSet": "ISO_IR 100",
      "StudyID": "1",
      "StudyTime": "170828.986000",
      "TransmitCoilName": "Body",
      "VariableFlipAngleFlag": "N",
      "WindowCenterWidthExplanation": "Algo1",
      "dBdt": 0.0},
    "slices": {}
  },
  "time": {
    "samples": {
      "AcquisitionNumber": [1, 2, 3, 4, 5, 6, 7, 8, 9, 10, 11, 12, 13, 14, 15, 16, 17, 18, 19, 20, 21, 22, 23, 24, 25, 26, 27, 28, 29, 30, 31, 32, 33, 34, 35, 36, 37, 38, 39, 40, 41, 42, 43, 44, 45, 46, 47, 48, 49, 50, 51, 52, 53, 54, 55, 56, 57, 58, 59, 60, 61, 62, 63, 64, 65, 66, 67, 68, 69, 70, 71, 72, 73, 74, 75, 76, 77, 78, 79, 80, 81, 82, 83, 84, 85, 86, 87, 88, 89, 90, 91, 92, 93, 94, 95, 96, 97, 98, 99, 100, 101, 102, 103, 104, 105, 106, 107, 108, 109, 110, 111, 112, 113, 114, 115, 116, 117, 118, 119, 120, 121, 122, 123, 124, 125, 126, 127, 128, 129, 130, 131, 132, 133, 134, 135, 136, 137, 138, 139, 140, 141, 142, 143, 144, 145, 146, 147, 148, 149, 150, 151, 152, 153, 154, 155, 156, 157, 158, 159, 160, 161, 162, 163, 164, 165, 166, 167, 168, 169, 170, 171, 172, 173, 174, 175, 176, 177, 178, 179, 180, 181, 182, 183, 184, 185, 186, 187, 188, 189, 190],
      "AcquisitionTime": ["174211.467500", "174212.957500", "174214.447500", "174215.937500", "174217.427500", "174218.917500", "174220.407500", "174221.897500", "174223.387500", "174224.877500", "174226.367500", "174227.857500", "174229.347500", "174230.837500", "174232.327500", "174233.817500", "174235.307500", "174236.797500", "174238.287500", "174239.777500", "174241.267500", "174242.757500", "174244.247500", "174245.737500", "174247.227500", "174248.717500", "174250.207500", "174251.697500", "174253.187500", "174254.677500", "174256.167500", "174257.657500", "174259.147500", "174300.637500", "174302.127500", "174303.617500", "174305.107500", "174306.597500", "174308.087500", "174309.577500", "174311.067500", "174312.557500", "174314.047500", "174315.537500", "174317.027500", "174318.517500", "174320.007500", "174321.497500", "174322.987500", "174324.477500", "174325.967500", "174327.457500", "174328.947500", "174330.437500", "174331.927500", "174333.417500", "174334.907500", "174336.397500", "174337.887500", "174339.377500", "174340.867500", "174342.357500", "174343.847500", "174345.337500", "174346.827500", "174348.317500", "174349.807500", "174351.297500", "174352.787500", "174354.277500", "174355.767500", "174357.257500", "174358.747500", "174400.237500", "174401.727500", "174403.217500", "174404.707500", "174406.197500", "174407.687500", "174409.177500", "174410.667500", "174412.157500", "174413.647500", "174415.137500", "174416.627500", "174418.117500", "174419.607500", "174421.097500", "174422.587500", "174424.077500", "174425.567500", "174427.057500", "174428.547500", "174430.037500", "174431.527500", "174433.017500", "174434.507500", "174435.997500", "174437.487500", "174438.977500", "174440.467500", "174441.957500", "174443.447500", "174444.937500", "174446.427500", "174447.917500", "174449.407500", "174450.897500", "174452.387500", "174453.877500", "174455.367500", "174456.857500", "174458.347500", "174459.837500", "174501.327500", "174502.817500", "174504.307500", "174505.797500", "174507.287500", "174508.777500", "174510.267500", "174511.757500", "174513.247500", "174514.737500", "174516.227500", "174517.717500", "174519.207500", "174520.697500", "174522.187500", "174523.677500", "174525.167500", "174526.657500", "174528.147500", "174529.637500", "174531.127500", "174532.617500", "174534.107500", "174535.597500", "174537.087500", "174538.577500", "174540.067500", "174541.557500", "174543.047500", "174544.537500", "174546.027500", "174547.517500", "174549.007500", "174550.497500", "174551.987500", "174553.477500", "174554.967500", "174556.457500", "174557.947500", "174559.437500", "174600.927500", "174602.417500", "174603.907500", "174605.397500", "174606.887500", "174608.377500", "174609.867500", "174611.357500", "174612.847500", "174614.337500", "174615.827500", "174617.317500", "174618.807500", "174620.297500", "174621.787500", "174623.277500", "174624.767500", "174626.257500", "174627.747500", "174629.237500", "174630.727500", "174632.217500", "174633.707500", "174635.197500", "174636.687500", "174638.177500", "174639.667500", "174641.157500", "174642.647500", "174644.137500", "174645.627500", "174647.117500", "174648.607500", "174650.097500", "174651.587500", "174653.077500"],
      "ContentTime": ["174338.829000", "174338.833000", "174338.837000", "174338.847000", "174338.850000", "174338.853000", "174338.857000", "174338.860000", "174338.863000", "174338.867000", "174338.870000", "174338.873000", "174338.876000", "174338.880000", "174338.883000", "174338.887000", "174338.890000", "174338.893000", "174338.896000", "174338.900000", "174338.903000", "174338.906000", "174338.910000", "174338.913000", "174338.916000", "174338.919000", "174338.923000", "174338.932000", "174338.936000", "174338.939000", "174338.942000", "174338.946000", "174338.949000", "174358.792000", "174358.796000", "174358.799000", "174358.802000", "174358.806000", "174358.809000", "174358.812000", "174358.816000", "174358.819000", "174358.823000", "174358.826000", "174358.829000", "174358.833000", "174358.836000", "174358.839000", "174358.843000", "174358.846000", "174358.849000", "174358.852000", "174358.856000", "174418.791000", "174418.795000", "174418.798000", "174418.801000", "174418.805000", "174418.808000", "174418.811000", "174418.815000", "174418.818000", "174418.821000", "174418.825000", "174418.828000", "174418.831000", "174418.835000", "174418.852000", "174418.856000", "174418.859000", "174418.862000", "174418.866000", "174418.869000", "174438.791000", "174438.795000", "174438.798000", "174438.801000", "174438.805000", "174438.808000", "174438.811000", "174438.815000", "174438.818000", "174438.821000", "174438.824000", "174438.828000", "174438.840000", "174438.843000", "174438.846000", "174438.850000", "174438.853000", "174438.856000", "174438.860000", "174438.863000", "174518.791000", "174518.795000", "174518.798000", "174518.802000", "174518.805000", "174518.808000", "174518.812000", "174518.815000", "174518.818000", "174518.822000", "174518.825000", "174518.828000", "174518.831000", "174518.835000", "174518.838000", "174518.841000", "174518.845000", "174518.848000", "174518.852000", "174518.855000", "174518.858000", "174518.861000", "174518.865000", "174518.868000", "174518.871000", "174518.875000", "174518.878000", "174518.881000", "174518.885000", "174518.888000", "174518.891000", "174518.895000", "174538.791000", "174538.795000", "174538.798000", "174538.802000", "174538.805000", "174538.808000", "174538.812000", "174538.815000", "174538.818000", "174538.822000", "174538.825000", "174538.828000", "174538.832000", "174618.792000", "174618.796000", "174618.799000", "174618.803000", "174618.806000", "174618.809000", "174618.812000", "174618.816000", "174618.819000", "174618.822000", "174618.826000", "174618.829000", "174618.832000", "174618.835000", "174618.839000", "174618.842000", "174618.845000", "174618.849000", "174618.852000", "174618.855000", "174618.859000", "174618.862000", "174618.865000", "174618.869000", "174618.872000", "174618.875000", "174618.879000", "174655.283000", "174655.287000", "174655.290000", "174655.294000", "174655.297000", "174655.301000", "174655.304000", "174655.307000", "174655.311000", "174655.314000", "174655.318000", "174655.321000", "174655.324000", "174655.328000", "174655.331000", "174655.334000", "174655.338000", "174655.342000", "174655.345000", "174655.348000", "174655.352000", "174655.355000", "174655.359000", "174655.362000", "174655.375000"],
      "InstanceCreationTime": ["174338.829000", "174338.833000", "174338.837000", "174338.847000", "174338.850000", "174338.853000", "174338.857000", "174338.860000", "174338.863000", "174338.867000", "174338.870000", "174338.873000", "174338.876000", "174338.880000", "174338.883000", "174338.887000", "174338.890000", "174338.893000", "174338.896000", "174338.900000", "174338.903000", "174338.906000", "174338.910000", "174338.913000", "174338.916000", "174338.919000", "174338.923000", "174338.932000", "174338.936000", "174338.939000", "174338.942000", "174338.946000", "174338.949000", "174358.792000", "174358.796000", "174358.799000", "174358.802000", "174358.806000", "174358.809000", "174358.812000", "174358.816000", "174358.819000", "174358.823000", "174358.826000", "174358.829000", "174358.833000", "174358.836000", "174358.839000", "174358.843000", "174358.846000", "174358.849000", "174358.852000", "174358.856000", "174418.791000", "174418.795000", "174418.798000", "174418.801000", "174418.805000", "174418.808000", "174418.811000", "174418.815000", "174418.818000", "174418.821000", "174418.825000", "174418.828000", "174418.831000", "174418.835000", "174418.852000", "174418.856000", "174418.859000", "174418.862000", "174418.866000", "174418.869000", "174438.791000", "174438.795000", "174438.798000", "174438.801000", "174438.805000", "174438.808000", "174438.811000", "174438.815000", "174438.818000", "174438.821000", "174438.824000", "174438.828000", "174438.840000", "174438.843000", "174438.846000", "174438.850000", "174438.853000", "174438.856000", "174438.860000", "174438.863000", "174518.791000", "174518.795000", "174518.798000", "174518.802000", "174518.805000", "174518.808000", "174518.812000", "174518.815000", "174518.818000", "174518.822000", "174518.825000", "174518.828000", "174518.831000", "174518.835000", "174518.838000", "174518.841000", "174518.845000", "174518.848000", "174518.852000", "174518.855000", "174518.858000", "174518.861000", "174518.865000", "174518.868000", "174518.871000", "174518.875000", "174518.878000", "174518.881000", "174518.885000", "174518.888000", "174518.891000", "174518.895000", "174538.791000", "174538.795000", "174538.798000", "174538.802000", "174538.805000", "174538.808000", "174538.812000", "174538.815000", "174538.818000", "174538.822000", "174538.825000", "174538.828000", "174538.832000", "174618.792000", "174618.796000", "174618.799000", "174618.803000", "174618.806000", "174618.809000", "174618.812000", "174618.816000", "174618.819000", "174618.822000", "174618.826000", "174618.829000", "174618.832000", "174618.835000", "174618.839000", "174618.842000", "174618.845000", "174618.849000", "174618.852000", "174618.855000", "174618.859000", "174618.862000", "174618.865000", "174618.869000", "174618.872000", "174618.875000", "174618.879000", "174655.283000", "174655.287000", "174655.290000", "174655.294000", "174655.297000", "174655.301000", "174655.304000", "174655.307000", "174655.311000", "174655.314000", "174655.318000", "174655.321000", "174655.324000", "174655.328000", "174655.331000", "174655.334000", "174655.338000", "174655.342000", "174655.345000", "174655.348000", "174655.352000", "174655.355000", "174655.359000", "174655.362000", "174655.375000"],
      "InstanceNumber": [1, 2, 3, 4, 5, 6, 7, 8, 9, 10, 11, 12, 13, 14, 15, 16, 17, 18, 19, 20, 21, 22, 23, 24, 25, 26, 27, 28, 29, 30, 31, 32, 33, 34, 35, 36, 37, 38, 39, 40, 41, 42, 43, 44, 45, 46, 47, 48, 49, 50, 51, 52, 53, 54, 55, 56, 57, 58, 59, 60, 61, 62, 63, 64, 65, 66, 67, 68, 69, 70, 71, 72, 73, 74, 75, 76, 77, 78, 79, 80, 81, 82, 83, 84, 85, 86, 87, 88, 89, 90, 91, 92, 93, 94, 95, 96, 97, 98, 99, 100, 101, 102, 103, 104, 105, 106, 107, 108, 109, 110, 111, 112, 113, 114, 115, 116, 117, 118, 119, 120, 121, 122, 123, 124, 125, 126, 127, 128, 129, 130, 131, 132, 133, 134, 135, 136, 137, 138, 139, 140, 141, 142, 143, 144, 145, 146, 147, 148, 149, 150, 151, 152, 153, 154, 155, 156, 157, 158, 159, 160, 161, 162, 163, 164, 165, 166, 167, 168, 169, 170, 171, 172, 173, 174, 175, 176, 177, 178, 179, 180, 181, 182, 183, 184, 185, 186, 187, 188, 189, 190],
      "LargestImagePixelValue": [43763, 42588, 42235, 41432, 41372, 40934, 41239, 41253, 41118, 41528, 42269, 42656, 42387, 41377, 41700, 41546, 41761, 41767, 41638, 41371, 41165, 41352, 41700, 41836, 41765, 41543, 42527, 42119, 41731, 41693, 41416, 41707, 42203, 41871, 41590, 42004, 42369, 42235, 41105, 41910, 42413, 41978, 42671, 41890, 42603, 42107, 42736, 42426, 42696, 43090, 43029, 43149, 42728, 42971, 42974, 42823, 42359, 42218, 42336, 42125, 42579, 42085, 42294, 42200, 42091, 42607, 42258, 42593, 42607, 42746, 42387, 42804, 42822, 42321, 42519, 42244, 42306, 42540, 43203, 42104, 42466, 42314, 42137, 41748, 42031, 42606, 41638, 41387, 42173, 42169, 41639, 42198, 43025, 42622, 43977, 41207, 41969, 41452, 41355, 40734, 41635, 41985, 42225, 41376, 40916, 41508, 40721, 41602, 41312, 40667, 40701, 42230, 42541, 42211, 41069, 41328, 41826, 41344, 41466, 41469, 41813, 41841, 41878, 41801, 40952, 41083, 41274, 41503, 42080, 41979, 42646, 42110, 43832, 42130, 41601, 40862, 41278, 41175, 41502, 41992, 42100, 41524, 41561, 41522, 41047, 41111, 41555, 41152, 41490, 41337, 42253, 41409, 41748, 41525, 41446, 42008, 41366, 41284, 41035, 41368, 41440, 41072, 43100, 41276, 41378, 42345, 41289, 42325, 41972, 42340, 41193, 42065, 42101, 41138, 40660, 41961, 42480, 43177, 44125, 44753, 43104, 43631, 44154, 43449, 44024, 44605, 44596, 43880, 43865, 45199],
      "WindowCenter": [10656.0, 10602.0, 10581.0, 10577.0, 10580.0, 10574.0, 10598.0, 10619.0, 10608.0, 10605.0, 10605.0, 10596.0, 10588.0, 10585.0, 10593.0, 10584.0, 10578.0, 10569.0, 10560.0, 10569.0, 10588.0, 10582.0, 10571.0, 10569.0, 10569.0, 10595.0, 10624.0, 10611.0, 10590.0, 10578.0, 10571.0, 10592.0, 10601.0, 10595.0, 10587.0, 10601.0, 10607.0, 10591.0, 10574.0, 10602.0, 10624.0, 10613.0, 10609.0, 10595.0, 10609.0, 10604.0, 10606.0, 10598.0, 10615.0, 10630.0, 10618.0, 10620.0, 10608.0, 10625.0, 10626.0, 10616.0, 10595.0, 10601.0, 10604.0, 10596.0, 10591.0, 10583.0, 10592.0, 10591.0, 10589.0, 10588.0, 10600.0, 10625.0, 10625.0, 10608.0, 10602.0, 10606.0, 10592.0, 10583.0, 10588.0, 10609.0, 10622.0, 10613.0, 10597.0, 10582.0, 10588.0, 10576.0, 10581.0, 10576.0, 10592.0, 10598.0, 10578.0, 10565.0, 10573.0, 10578.0, 10583.0, 10598.0, 10602.0, 10583.0, 10609.0, 10599.0, 10593.0, 10568.0, 10552.0, 10541.0, 10553.0, 10569.0, 10568.0, 10555.0, 10556.0, 10537.0, 10515.0, 10521.0, 10514.0, 10518.0, 10548.0, 10572.0, 10571.0, 10565.0, 10558.0, 10572.0, 10575.0, 10564.0, 10560.0, 10575.0, 10591.0, 10592.0, 10585.0, 10575.0, 10557.0, 10575.0, 10590.0, 10580.0, 10575.0, 10574.0, 10581.0, 10582.0, 10611.0, 10596.0, 10573.0, 10541.0, 10555.0, 10580.0, 10578.0, 10569.0, 10570.0, 10566.0, 10582.0, 10584.0, 10556.0, 10537.0, 10525.0, 10533.0, 10547.0, 10542.0, 10555.0, 10570.0, 10579.0, 10554.0, 10535.0, 10538.0, 10528.0, 10525.0, 10511.0, 10518.0, 10531.0, 10528.0, 10548.0, 10535.0, 10555.0, 10561.0, 10537.0, 10541.0, 10547.0, 10546.0, 10551.0, 10543.0, 10528.0, 10506.0, 10492.0, 10514.0, 10529.0, 10544.0, 10556.0, 10551.0, 10533.0, 10548.0, 10561.0, 10564.0, 10580.0, 10580.0, 10570.0, 10577.0, 10596.0, 10616.0],
      "WindowWidth": [22725.0, 22579.0, 22521.0, 22511.0, 22519.0, 22496.0, 22551.0, 22604.0, 22583.0, 22572.0, 22567.0, 22548.0, 22527.0, 22524.0, 22542.0, 22519.0, 22501.0, 22481.0, 22462.0, 22487.0, 22531.0, 22519.0, 22490.0, 22483.0, 22487.0, 22552.0, 22613.0, 22582.0, 22536.0, 22503.0, 22490.0, 22542.0, 22560.0, 22546.0, 22528.0, 22559.0, 22571.0, 22533.0, 22497.0, 22565.0, 22612.0, 22590.0, 22578.0, 22546.0, 22579.0, 22569.0, 22569.0, 22552.0, 22593.0, 22626.0, 22600.0, 22600.0, 22577.0, 22617.0, 22615.0, 22587.0, 22541.0, 22558.0, 22566.0, 22546.0, 22530.0, 22513.0, 22538.0, 22534.0, 22527.0, 22523.0, 22557.0, 22616.0, 22615.0, 22574.0, 22562.0, 22568.0, 22540.0, 22517.0, 22526.0, 22584.0, 22615.0, 22591.0, 22546.0, 22515.0, 22525.0, 22499.0, 22510.0, 22498.0, 22535.0, 22548.0, 22503.0, 22474.0, 22488.0, 22499.0, 22517.0, 22552.0, 22552.0, 22512.0, 22569.0, 22556.0, 22540.0, 22483.0, 22447.0, 22425.0, 22450.0, 22484.0, 22476.0, 22449.0, 22450.0, 22406.0, 22355.0, 22365.0, 22351.0, 22366.0, 22440.0, 22490.0, 22485.0, 22470.0, 22463.0, 22492.0, 22494.0, 22479.0, 22469.0, 22500.0, 22539.0, 22538.0, 22521.0, 22497.0, 22457.0, 22503.0, 22538.0, 22512.0, 22495.0, 22496.0, 22513.0, 22514.0, 22593.0, 22549.0, 22492.0, 22416.0, 22452.0, 22509.0, 22506.0, 22483.0, 22480.0, 22473.0, 22511.0, 22512.0, 22452.0, 22406.0, 22377.0, 22400.0, 22431.0, 22418.0, 22446.0, 22485.0, 22505.0, 22444.0, 22399.0, 22400.0, 22385.0, 22376.0, 22343.0, 22364.0, 22391.0, 22385.0, 22421.0, 22400.0, 22455.0, 22474.0, 22411.0, 22418.0, 22431.0, 22422.0, 22437.0, 22419.0, 22380.0, 22336.0, 22308.0, 22354.0, 22386.0, 22419.0, 22443.0, 22422.0, 22388.0, 22428.0, 22453.0, 22466.0, 22502.0, 22504.0, 22477.0, 22503.0, 22545.0, 22582.0]
    },
    "slices": {}
  }
}