{
  "AcquisitionMatrixPE": 104,
  "AcquisitionNumber": 1,
  "AcquisitionTime": "15:25:31.645000",
  "BandwidthPerPixelPhaseEncode": 17.17,
  "BaseResolution": 104,
  "BodyPartExamined": "BRAIN",
  "CoilString": "HC1-7;NC1_2",
  "ConsistencyInfo": "N4_VE11C_LATEST_20160120",
  "ConversionSoftware": "dcm2niix",
  "ConversionSoftwareVersion": "v1.0.20190902",
  "DerivedVendorReportedEchoSpacing": 0.000560011,
  "DeviceSerialNumber": "167006",
  "DwellTime": 2.1e-06,
  "EchoTime": 0.037,
  "EchoTrainLength": 104,
  "EffectiveEchoSpacing": 0.000560011,
  "FlipAngle": 52,
  "ImageComments": "Unaliased_MB4_PE3_LB",
  "ImageOrientationPatientDICOM": [0.998976, -0.0451621, 0.00284175, 0.0434415, 0.939544, -0.33966],
  "ImageType": [
    "ORIGINAL",
    "PRIMARY",
    "M",
    "MB",
    "ND",
    "MOSAIC"
],
  "ImagingFrequency": 123.259,
  "InPlanePhaseEncodingDirectionDICOM": "COL",
  "InstitutionAddress": "Chemin_Queen-Mary_4565_Montreal_District_CA_H3W_1W5",
  "InstitutionName": "IUGM",
  "InstitutionalDepartmentName": "Department",
  "MRAcquisitionType": "2D",
  "MagneticFieldStrength": 3,
  "Manufacturer": "Siemens",
  "ManufacturersModelName": "Prisma_fit",
  "Modality": "MR",
  "MultibandAccelerationFactor": 4,
  "PartialFourier": 1,
  "PatientPosition": "HFS",
  "PercentPhaseFOV": 100,
  "PhaseEncodingDirection": "j",
  "PhaseEncodingSteps": 104,
  "PhaseResolution": 1,
  "PixelBandwidth": 2290,
  "ProcedureStepDescription": "memory_things",
  "ProtocolName": "func_task-things_run-1",
  "PulseSequenceDetails": "%CustomerSeq%_cmrr_mbep2d_bold",
  "ReceiveCoilActiveElements": "HC1-7;NC1,2",
  "ReceiveCoilName": "HeadNeck_64",
  "ReconMatrixPE": 104,
  "RepetitionTime": 1.49,
  "SAR": 0.0449686,
  "ScanOptions": "FS",
  "ScanningSequence": "EP",
  "SequenceName": "epfid2d1_104",
  "SequenceVariant": "SK_SS",
  "SeriesDescription": "func_task-things_run-1",
  "SeriesNumber": 10,
  "ShimSetting": [628, -7241, -8812, 584, 4, -179, -74, -25],
  "SliceThickness": 2,
  "SliceTiming": [0, 0.785, 0.1, 0.8825, 0.1975, 0.98, 0.295, 1.08, 0.3925, 1.1775, 0.49, 1.275, 0.59, 1.3725, 0.6875, 0, 0.785, 0.1, 0.8825, 0.1975, 0.98, 0.295, 1.08, 0.3925, 1.1775, 0.49, 1.275, 0.59, 1.3725, 0.6875, 0, 0.785, 0.1, 0.8825, 0.1975, 0.98, 0.295, 1.08, 0.3925, 1.1775, 0.49, 1.275, 0.59, 1.3725, 0.6875, 0, 0.785, 0.1, 0.8825, 0.1975, 0.98, 0.295, 1.08, 0.3925, 1.1775, 0.49, 1.275, 0.59, 1.3725, 0.6875],
  "SoftwareVersions": "syngo_MR_E11",
  "SpacingBetweenSlices": 2,
  "StationName": "MRC35049",
  "TaskName": "things",
  "TotalReadoutTime": 0.0576811,
  "TxRefAmp": 245.52,
  "WipMemBlock": "cfa0459c-885c-4c92-aa7e-311e99563ae4||Sequence: R016 ve11c/master r/e634e98; Dec 19 2017 11:00:25 by eja",
  "dcmmeta_affine": [
    [-1.9979512691497803, 0.08688309788703918, -0.025339653715491295, 102.51101684570312],
    [0.09032423794269562, 1.8790887594223022, -0.678871750831604, -68.97960662841797],
    [0.005683509167283773, 0.6793206930160522, 1.8810877799987793, -65.24652862548828],
    [0.0, 0.0, 0.0, 1.0]
],
  "dcmmeta_reorient_transform": [
    [0.0, -1.0, 0.0, 103.0],
    [1.0, 0.0, 0.0, 0.0],
    [0.0, 0.0, 1.0, 0.0],
    [0.0, 0.0, 0.0, 1.0]
],
  "dcmmeta_shape": [104, 104, 60, 190],
  "dcmmeta_slice_dim": 2,
  "dcmmeta_version": 0.6,
  "global": {
    "const": {
      "AcquisitionMatrix": [104, 0, 0, 104],
      "AngioFlag": "N",
      "BitsAllocated": 16,
      "BitsStored": 16,
      "BodyPartExamined": "BRAIN",
      "Columns": 832,
      "EchoNumbers": 1,
      "EchoTime": 37.0,
      "EchoTrainLength": 104,
      "FlipAngle": 52.0,
      "HighBit": 15,
      "ImageOrientationPatient": [0.99897562902957, -0.0451621194859, 0.00284175447902, 0.04344154797273, 0.93954439839815, -0.3396603529239],
      "ImagePositionPatient": [-870.33968359494, -775.67684111965, 249.92744608328],
      "ImageType": [
        "ORIGINAL",
        "PRIMARY",
        "M",
        "MB",
        "ND",
        "MOSAIC"
],
      "ImagedNucleus": "1H",
      "ImagingFrequency": 123.258933,
      "InPlanePhaseEncodingDirection": "COL",
      "MRAcquisitionType": "2D",
      "MagneticFieldStrength": 3.0,
      "Manufacturer": "SIEMENS",
      "ManufacturerModelName": "Prisma_fit",
      "Modality": "MR",
      "NumberOfAverages": 1.0,
      "NumberOfPhaseEncodingSteps": 104,
      "PercentPhaseFieldOfView": 100.0,
      "PercentSampling": 100.0,
      "PerformedProcedureStepStartTime": "152126.205000",
      "PhotometricInterpretation": "MONOCHROME2",
      "PixelBandwidth": 2290.0,
      "PixelRepresentation": 0,
      "PixelSpacing": [2.0, 2.0],
      "ProtocolName": "func_task-things_run-1",
      "RepetitionTime": 1490.0,
      "Rows": 832,
      "SAR": 0.04496857745764,
      "SamplesPerPixel": 1,
      "ScanOptions": "FS",
      "ScanningSequence": "EP",
      "SequenceName": "epfid2d1_104",
      "SequenceVariant": [
        "SK",
        "SS"
],
      "SeriesDescription": "func_task-things_run-1",
      "SeriesNumber": 10,
      "SeriesTime": "152650.658000",
      "SliceLocation": -39.251865593012,
      "SliceThickness": 2.0,
      "SmallestImagePixelValue": 0,
      "SoftwareVersions": "syngo MR E11",
      "SpacingBetweenSlices": 2.0000000344684,
      "SpecificCharacterSet": "ISO_IR 100",
      "StudyID": "2",
      "StudyTime": "152126.150000",
      "TransmitCoilName": "Body",
      "VariableFlipAngleFlag": "N",
      "WindowCenterWidthExplanation": "Algo1",
      "dBdt": 0.0},
    "slices": {}
  },
  "time": {
    "samples": {
      "AcquisitionNumber": [1, 2, 3, 4, 5, 6, 7, 8, 9, 10, 11, 12, 13, 14, 15, 16, 17, 18, 19, 20, 21, 22, 23, 24, 25, 26, 27, 28, 29, 30, 31, 32, 33, 34, 35, 36, 37, 38, 39, 40, 41, 42, 43, 44, 45, 46, 47, 48, 49, 50, 51, 52, 53, 54, 55, 56, 57, 58, 59, 60, 61, 62, 63, 64, 65, 66, 67, 68, 69, 70, 71, 72, 73, 74, 75, 76, 77, 78, 79, 80, 81, 82, 83, 84, 85, 86, 87, 88, 89, 90, 91, 92, 93, 94, 95, 96, 97, 98, 99, 100, 101, 102, 103, 104, 105, 106, 107, 108, 109, 110, 111, 112, 113, 114, 115, 116, 117, 118, 119, 120, 121, 122, 123, 124, 125, 126, 127, 128, 129, 130, 131, 132, 133, 134, 135, 136, 137, 138, 139, 140, 141, 142, 143, 144, 145, 146, 147, 148, 149, 150, 151, 152, 153, 154, 155, 156, 157, 158, 159, 160, 161, 162, 163, 164, 165, 166, 167, 168, 169, 170, 171, 172, 173, 174, 175, 176, 177, 178, 179, 180, 181, 182, 183, 184, 185, 186, 187, 188, 189, 190],
      "AcquisitionTime": ["152531.645000", "152533.135000", "152534.625000", "152536.115000", "152537.605000", "152539.095000", "152540.585000", "152542.075000", "152543.565000", "152545.055000", "152546.545000", "152548.035000", "152549.525000", "152551.015000", "152552.505000", "152553.995000", "152555.485000", "152556.975000", "152558.465000", "152559.955000", "152601.445000", "152602.935000", "152604.425000", "152605.915000", "152607.405000", "152608.895000", "152610.385000", "152611.875000", "152613.365000", "152614.855000", "152616.345000", "152617.835000", "152619.325000", "152620.815000", "152622.305000", "152623.795000", "152625.285000", "152626.775000", "152628.265000", "152629.755000", "152631.245000", "152632.735000", "152634.225000", "152635.715000", "152637.205000", "152638.695000", "152640.185000", "152641.675000", "152643.165000", "152644.655000", "152646.145000", "152647.635000", "152649.125000", "152650.615000", "152652.105000", "152653.595000", "152655.085000", "152656.575000", "152658.065000", "152659.555000", "152701.045000", "152702.535000", "152704.025000", "152705.515000", "152707.005000", "152708.495000", "152709.985000", "152711.475000", "152712.965000", "152714.455000", "152715.945000", "152717.435000", "152718.925000", "152720.415000", "152721.905000", "152723.395000", "152724.885000", "152726.375000", "152727.865000", "152729.355000", "152730.845000", "152732.335000", "152733.825000", "152735.315000", "152736.805000", "152738.295000", "152739.785000", "152741.275000", "152742.765000", "152744.255000", "152745.745000", "152747.235000", "152748.725000", "152750.215000", "152751.705000", "152753.195000", "152754.685000", "152756.175000", "152757.665000", "152759.155000", "152800.645000", "152802.135000", "152803.625000", "152805.115000", "152806.605000", "152808.095000", "152809.585000", "152811.075000", "152812.565000", "152814.055000", "152815.545000", "152817.035000", "152818.525000", "152820.015000", "152821.505000", "152822.995000", "152824.485000", "152825.975000", "152827.465000", "152828.955000", "152830.445000", "152831.935000", "152833.425000", "152834.915000", "152836.405000", "152837.895000", "152839.385000", "152840.875000", "152842.365000", "152843.855000", "152845.345000", "152846.835000", "152848.325000", "152849.815000", "152851.305000", "152852.795000", "152854.285000", "152855.775000", "152857.265000", "152858.755000", "152900.245000", "152901.735000", "152903.225000", "152904.715000", "152906.205000", "152907.695000", "152909.185000", "152910.675000", "152912.165000", "152913.655000", "152915.145000", "152916.635000", "152918.125000", "152919.615000", "152921.105000", "152922.595000", "152924.085000", "152925.575000", "152927.065000", "152928.555000", "152930.045000", "152931.535000", "152933.025000", "152934.515000", "152936.005000", "152937.495000", "152938.985000", "152940.475000", "152941.965000", "152943.455000", "152944.945000", "152946.435000", "152947.925000", "152949.415000", "152950.905000", "152952.395000", "152953.885000", "152955.375000", "152956.865000", "152958.355000", "152959.845000", "153001.335000", "153002.825000", "153004.315000", "153005.805000", "153007.295000", "153008.785000", "153010.275000", "153011.765000", "153013.255000"],
      "ContentTime": ["152650.661000", "152650.665000", "152650.669000", "152650.672000", "152650.684000", "152650.687000", "152650.690000", "152650.694000", "152650.697000", "152650.700000", "152650.704000", "152650.707000", "152650.710000", "152650.713000", "152650.717000", "152650.720000", "152650.723000", "152650.726000", "152650.730000", "152650.733000", "152650.736000", "152650.740000", "152650.743000", "152650.748000", "152650.751000", "152710.626000", "152710.630000", "152710.633000", "152710.636000", "152710.639000", "152710.643000", "152710.646000", "152710.649000", "152710.653000", "152710.656000", "152710.659000", "152710.663000", "152710.666000", "152710.669000", "152710.672000", "152710.676000", "152710.679000", "152710.682000", "152710.685000", "152710.689000", "152730.626000", "152730.630000", "152730.633000", "152730.636000", "152730.640000", "152730.643000", "152730.646000", "152730.649000", "152730.653000", "152730.656000", "152730.659000", "152730.662000", "152730.666000", "152730.669000", "152730.672000", "152730.676000", "152730.679000", "152730.682000", "152730.686000", "152730.689000", "152750.626000", "152750.630000", "152750.633000", "152750.636000", "152750.640000", "152750.643000", "152750.646000", "152750.649000", "152750.653000", "152750.665000", "152750.669000", "152750.673000", "152750.677000", "152750.693000", "152750.696000", "152750.701000", "152750.704000", "152750.708000", "152750.711000", "152750.715000", "152810.627000", "152810.631000", "152810.636000", "152810.640000", "152810.643000", "152810.647000", "152810.652000", "152810.656000", "152810.660000", "152810.663000", "152810.667000", "152810.671000", "152810.674000", "152810.678000", "152810.682000", "152810.685000", "152810.689000", "152810.692000", "152810.695000", "152810.698000", "152850.627000", "152850.631000", "152850.634000", "152850.637000", "152850.641000", "152850.644000", "152850.647000", "152850.651000", "152850.654000", "152850.657000", "152850.660000", "152850.664000", "152850.667000", "152850.670000", "152850.674000", "152850.677000", "152850.680000", "152850.683000", "152850.687000", "152850.690000", "152850.694000", "152850.697000", "152850.700000", "152850.704000", "152850.707000", "152850.710000", "152850.714000", "152930.626000", "152930.630000", "152930.633000", "152930.636000", "152930.640000", "152930.643000", "152930.647000", "152930.650000", "152930.653000", "152930.656000", "152930.659000", "152930.663000", "152930.666000", "152930.669000", "152930.673000", "152930.676000", "152930.679000", "152930.683000", "152930.686000", "152930.689000", "152930.693000", "152930.696000", "152930.699000", "152930.702000", "152930.706000", "152930.709000", "152930.712000", "153010.626000", "153010.630000", "153010.633000", "153010.637000", "153010.640000", "153010.643000", "153010.646000", "153010.650000", "153010.653000", "153010.656000", "153010.660000", "153010.663000", "153010.666000", "153010.670000", "153010.673000", "153010.676000", "153010.680000", "153010.697000", "153010.700000", "153010.703000", "153010.707000", "153010.710000", "153010.713000", "153010.717000", "153010.720000", "153010.723000", "153010.727000", "153015.867000", "153015.870000", "153015.874000", "153015.877000"],
      "InstanceCreationTime": ["152650.661000", "152650.665000", "152650.669000", "152650.672000", "152650.684000", "152650.687000", "152650.690000", "152650.694000", "152650.697000", "152650.700000", "152650.704000", "152650.707000", "152650.710000", "152650.713000", "152650.717000", "152650.720000", "152650.723000", "152650.726000", "152650.730000", "152650.733000", "152650.736000", "152650.740000", "152650.743000", "152650.748000", "152650.751000", "152710.626000", "152710.630000", "152710.633000", "152710.636000", "152710.639000", "152710.643000", "152710.646000", "152710.649000", "152710.653000", "152710.656000", "152710.659000", "152710.663000", "152710.666000", "152710.669000", "152710.672000", "152710.676000", "152710.679000", "152710.682000", "152710.685000", "152710.689000", "152730.626000", "152730.630000", "152730.633000", "152730.636000", "152730.640000", "152730.643000", "152730.646000", "152730.649000", "152730.653000", "152730.656000", "152730.659000", "152730.662000", "152730.666000", "152730.669000", "152730.672000", "152730.676000", "152730.679000", "152730.682000", "152730.686000", "152730.689000", "152750.626000", "152750.630000", "152750.633000", "152750.636000", "152750.640000", "152750.643000", "152750.646000", "152750.649000", "152750.653000", "152750.665000", "152750.669000", "152750.673000", "152750.677000", "152750.693000", "152750.696000", "152750.701000", "152750.704000", "152750.708000", "152750.711000", "152750.715000", "152810.627000", "152810.631000", "152810.636000", "152810.640000", "152810.643000", "152810.647000", "152810.652000", "152810.656000", "152810.660000", "152810.663000", "152810.667000", "152810.671000", "152810.674000", "152810.678000", "152810.682000", "152810.685000", "152810.689000", "152810.692000", "152810.695000", "152810.698000", "152850.627000", "152850.631000", "152850.634000", "152850.637000", "152850.641000", "152850.644000", "152850.647000", "152850.651000", "152850.654000", "152850.657000", "152850.660000", "152850.664000", "152850.667000", "152850.670000", "152850.674000", "152850.677000", "152850.680000", "152850.683000", "152850.687000", "152850.690000", "152850.694000", "152850.697000", "152850.700000", "152850.704000", "152850.707000", "152850.710000", "152850.714000", "152930.626000", "152930.630000", "152930.633000", "152930.636000", "152930.640000", "152930.643000", "152930.647000", "152930.650000", "152930.653000", "152930.656000", "152930.659000", "152930.663000", "152930.666000", "152930.669000", "152930.673000", "152930.676000", "152930.679000", "152930.683000", "152930.686000", "152930.689000", "152930.693000", "152930.696000", "152930.699000", "152930.702000", "152930.706000", "152930.709000", "152930.712000", "153010.626000", "153010.630000", "153010.633000", "153010.637000", "153010.640000", "153010.643000", "153010.646000", "153010.650000", "153010.653000", "153010.656000", "153010.660000", "153010.663000", "153010.666000", "153010.670000", "153010.673000", "153010.676000", "153010.680000", "153010.697000", "153010.700000", "153010.703000", "153010.707000", "153010.710000", "153010.713000", "153010.717000", "153010.720000", "153010.723000", "153010.727000", "153015.867000", "153015.870000", "153015.874000", "153015.877000"],
      "InstanceNumber": [1, 2, 3, 4, 5, 6, 7, 8, 9, 10, 11, 12, 13, 14, 15, 16, 17, 18, 19, 20, 21, 22, 23, 24, 25, 26, 27, 28, 29, 30, 31, 32, 33, 34, 35, 36, 37, 38, 39, 40, 41, 42, 43, 44, 45, 46, 47, 48, 49, 50, 51, 52, 53, 54, 55, 56, 57, 58, 59, 60, 61, 62, 63, 64, 65, 66, 67, 68, 69, 70, 71, 72, 73, 74, 75, 76, 77, 78, 79, 80, 81, 82, 83, 84, 85, 86, 87, 88, 89, 90, 91, 92, 93, 94, 95, 96, 97, 98, 99, 100, 101, 102, 103, 104, 105, 106, 107, 108, 109, 110, 111, 112, 113, 114, 115, 116, 117, 118, 119, 120, 121, 122, 123, 124, 125, 126, 127, 128, 129, 130, 131, 132, 133, 134, 135, 136, 137, 138, 139, 140, 141, 142, 143, 144, 145, 146, 147, 148, 149, 150, 151, 152, 153, 154, 155, 156, 157, 158, 159, 160, 161, 162, 163, 164, 165, 166, 167, 168, 169, 170, 171, 172, 173, 174, 175, 176, 177, 178, 179, 180, 181, 182, 183, 184, 185, 186, 187, 188, 189, 190],
      "LargestImagePixelValue": [44909, 43281, 43571, 41873, 42662, 41734, 42532, 41439, 41778, 42653, 41841, 41732, 42220, 41279, 41584, 42396, 41358, 41658, 42438, 41651, 43142, 41924, 41644, 42481, 41764, 42120, 41761, 41511, 42058, 41191, 42066, 40656, 40701, 41903, 41572, 41379, 41630, 41234, 41325, 42562, 41682, 40573, 41092, 42110, 41407, 42166, 41931, 41654, 42150, 41808, 41772, 41980, 41837, 42062, 41937, 41653, 41893, 42053, 41746, 42083, 42173, 41422, 41795, 42250, 41839, 41980, 41801, 41915, 42193, 41735, 42095, 41698, 42028, 41969, 41728, 42010, 41470, 41836, 42257, 41714, 42392, 42468, 42043, 41730, 42718, 42280, 42161, 42544, 41555, 41835, 42257, 41146, 42102, 41852, 42189, 42078, 41392, 42245, 41685, 41986, 41797, 42287, 42395, 41501, 41950, 42658, 41592, 41607, 42175, 41791, 42199, 42332, 41675, 41563, 42422, 41612, 42516, 41963, 41384, 42224, 41451, 41812, 42428, 41976, 41729, 41667, 41824, 42534, 41258, 42435, 41556, 41438, 42073, 41051, 42399, 41756, 41998, 42195, 41252, 42202, 41109, 41415, 42353, 41276, 42392, 41703, 41535, 42120, 41000, 41239, 41937, 41299, 42037, 41574, 41222, 41675, 41672, 42003, 41860, 41763, 42255, 41864, 42152, 42063, 42299, 42245, 41580, 41771, 41757, 41696, 41890, 41936, 41511, 41607, 41320, 41969, 41879, 41064, 41776, 41780, 41262, 41687, 41438, 41075, 41754, 40980, 41808, 41832, 41633, 42042],
      "WindowCenter": [10356.0, 10298.0, 10280.0, 10265.0, 10276.0, 10272.0, 10275.0, 10253.0, 10256.0, 10251.0, 10250.0, 10257.0, 10257.0, 10248.0, 10237.0, 10226.0, 10229.0, 10239.0, 10234.0, 10228.0, 10246.0, 10236.0, 10229.0, 10219.0, 10225.0, 10240.0, 10234.0, 10228.0, 10226.0, 10228.0, 10235.0, 10239.0, 10235.0, 10220.0, 10210.0, 10228.0, 10244.0, 10238.0, 10232.0, 10224.0, 10219.0, 10233.0, 10225.0, 10223.0, 10205.0, 10221.0, 10217.0, 10222.0, 10226.0, 10222.0, 10221.0, 10218.0, 10233.0, 10234.0, 10220.0, 10214.0, 10216.0, 10210.0, 10221.0, 10234.0, 10219.0, 10214.0, 10226.0, 10225.0, 10228.0, 10235.0, 10228.0, 10227.0, 10231.0, 10223.0, 10233.0, 10223.0, 10219.0, 10203.0, 10204.0, 10216.0, 10226.0, 10250.0, 10246.0, 10233.0, 10225.0, 10202.0, 10202.0, 10218.0, 10224.0, 10220.0, 10218.0, 10207.0, 10206.0, 10219.0, 10213.0, 10181.0, 10212.0, 10240.0, 10250.0, 10236.0, 10217.0, 10210.0, 10212.0, 10234.0, 10236.0, 10242.0, 10227.0, 10216.0, 10215.0, 10209.0, 10205.0, 10219.0, 10217.0, 10219.0, 10210.0, 10200.0, 10212.0, 10229.0, 10226.0, 10207.0, 10202.0, 10186.0, 10195.0, 10217.0, 10229.0, 10228.0, 10218.0, 10213.0, 10227.0, 10229.0, 10221.0, 10208.0, 10196.0, 10222.0, 10215.0, 10217.0, 10211.0, 10199.0, 10224.0, 10222.0, 10214.0, 10197.0, 10189.0, 10208.0, 10214.0, 10214.0, 10208.0, 10199.0, 10225.0, 10215.0, 10214.0, 10204.0, 10193.0, 10208.0, 10205.0, 10198.0, 10204.0, 10192.0, 10198.0, 10205.0, 10207.0, 10211.0, 10205.0, 10205.0, 10212.0, 10215.0, 10212.0, 10204.0, 10218.0, 10212.0, 10207.0, 10206.0, 10189.0, 10195.0, 10226.0, 10230.0, 10210.0, 10193.0, 10191.0, 10196.0, 10156.0, 10181.0, 10234.0, 10238.0, 10202.0, 10168.0, 10160.0, 10166.0, 10173.0, 10191.0, 10206.0, 10205.0, 10201.0, 10198.0],
      "WindowWidth": [22366.0, 22191.0, 22125.0, 22078.0, 22094.0, 22082.0, 22086.0, 22038.0, 22041.0, 22028.0, 22024.0, 22042.0, 22040.0, 22024.0, 21996.0, 21969.0, 21979.0, 22004.0, 21990.0, 21976.0, 22012.0, 21994.0, 21979.0, 21953.0, 21964.0, 21999.0, 21987.0, 21977.0, 21971.0, 21976.0, 21991.0, 22003.0, 21997.0, 21958.0, 21932.0, 21975.0, 22012.0, 21998.0, 21984.0, 21965.0, 21957.0, 21991.0, 21975.0, 21960.0, 21924.0, 21953.0, 21948.0, 21962.0, 21970.0, 21964.0, 21961.0, 21953.0, 21982.0, 21989.0, 21956.0, 21945.0, 21948.0, 21934.0, 21960.0, 21988.0, 21956.0, 21943.0, 21969.0, 21965.0, 21973.0, 21990.0, 21974.0, 21973.0, 21980.0, 21965.0, 21987.0, 21965.0, 21956.0, 21916.0, 21917.0, 21945.0, 21967.0, 22022.0, 22014.0, 21986.0, 21964.0, 21913.0, 21913.0, 21950.0, 21960.0, 21954.0, 21949.0, 21924.0, 21925.0, 21953.0, 21939.0, 21869.0, 21931.0, 21997.0, 22021.0, 21990.0, 21950.0, 21932.0, 21937.0, 21986.0, 21991.0, 22001.0, 21969.0, 21951.0, 21949.0, 21931.0, 21923.0, 21953.0, 21948.0, 21951.0, 21933.0, 21909.0, 21936.0, 21976.0, 21966.0, 21926.0, 21913.0, 21878.0, 21899.0, 21948.0, 21976.0, 21976.0, 21949.0, 21938.0, 21971.0, 21976.0, 21956.0, 21924.0, 21901.0, 21957.0, 21947.0, 21952.0, 21936.0, 21910.0, 21962.0, 21959.0, 21943.0, 21903.0, 21886.0, 21925.0, 21943.0, 21945.0, 21926.0, 21909.0, 21964.0, 21946.0, 21943.0, 21919.0, 21897.0, 21931.0, 21922.0, 21906.0, 21920.0, 21895.0, 21908.0, 21920.0, 21926.0, 21933.0, 21920.0, 21923.0, 21934.0, 21944.0, 21935.0, 21918.0, 21947.0, 21937.0, 21929.0, 21923.0, 21888.0, 21897.0, 21966.0, 21977.0, 21937.0, 21898.0, 21893.0, 21903.0, 21814.0, 21869.0, 21987.0, 21997.0, 21917.0, 21839.0, 21821.0, 21835.0, 21852.0, 21895.0, 21928.0, 21924.0, 21917.0, 21909.0]
    },
    "slices": {}
  }
}