{
  "AcquisitionMatrixPE": 104,
  "AcquisitionNumber": 1,
  "AcquisitionTime": "15:37:45.455000",
  "BandwidthPerPixelPhaseEncode": 17.17,
  "BaseResolution": 104,
  "BodyPartExamined": "BRAIN",
  "CoilString": "HC1-7;NC1_2",
  "ConsistencyInfo": "N4_VE11C_LATEST_20160120",
  "ConversionSoftware": "dcm2niix",
  "ConversionSoftwareVersion": "v1.0.20190902",
  "DerivedVendorReportedEchoSpacing": 0.000560011,
  "DeviceSerialNumber": "167006",
  "DwellTime": 2.1e-06,
  "EchoTime": 0.037,
  "EchoTrainLength": 104,
  "EffectiveEchoSpacing": 0.000560011,
  "FlipAngle": 52,
  "ImageComments": "Unaliased_MB4_PE3_LB",
  "ImageOrientationPatientDICOM": [0.998976, -0.0451621, 0.00284175, 0.0434415, 0.939544, -0.33966],
  "ImageType": [
    "ORIGINAL",
    "PRIMARY",
    "P",
    "MB",
    "ND",
    "MOSAIC"
],
  "ImagingFrequency": 123.259,
  "InPlanePhaseEncodingDirectionDICOM": "COL",
  "InstitutionAddress": "Chemin_Queen-Mary_4565_Montreal_District_CA_H3W_1W5",
  "InstitutionName": "IUGM",
  "InstitutionalDepartmentName": "Department",
  "MRAcquisitionType": "2D",
  "MagneticFieldStrength": 3,
  "Manufacturer": "Siemens",
  "ManufacturersModelName": "Prisma_fit",
  "Modality": "MR",
  "MultibandAccelerationFactor": 4,
  "PartialFourier": 1,
  "PatientPosition": "HFS",
  "PercentPhaseFOV": 100,
  "PhaseEncodingDirection": "j",
  "PhaseEncodingSteps": 104,
  "PhaseResolution": 1,
  "PixelBandwidth": 2290,
  "ProcedureStepDescription": "memory_things",
  "ProtocolName": "func_task-things_run-3",
  "PulseSequenceDetails": "%CustomerSeq%_cmrr_mbep2d_bold",
  "ReceiveCoilActiveElements": "HC1-7;NC1,2",
  "ReceiveCoilName": "HeadNeck_64",
  "ReconMatrixPE": 104,
  "RepetitionTime": 1.49,
  "SAR": 0.0449686,
  "ScanOptions": "FS",
  "ScanningSequence": "EP",
  "SequenceName": "epfid2d1_104",
  "SequenceVariant": "SK_SS",
  "SeriesDescription": "func_task-things_run-3",
  "SeriesNumber": 17,
  "ShimSetting": [628, -7241, -8812, 584, 4, -179, -74, -25],
  "SliceThickness": 2,
  "SliceTiming": [0, 0.7825, 0.0975, 0.88, 0.195, 0.98, 0.2925, 1.0775, 0.39, 1.175, 0.49, 1.2725, 0.5875, 1.37, 0.685, 0, 0.7825, 0.0975, 0.88, 0.195, 0.98, 0.2925, 1.0775, 0.39, 1.175, 0.49, 1.2725, 0.5875, 1.37, 0.685, 0, 0.7825, 0.0975, 0.88, 0.195, 0.98, 0.2925, 1.0775, 0.39, 1.175, 0.49, 1.2725, 0.5875, 1.37, 0.685, 0, 0.7825, 0.0975, 0.88, 0.195, 0.98, 0.2925, 1.0775, 0.39, 1.175, 0.49, 1.2725, 0.5875, 1.37, 0.685],
  "SoftwareVersions": "syngo_MR_E11",
  "SpacingBetweenSlices": 2,
  "StationName": "MRC35049",
  "TaskName": "things",
  "TotalReadoutTime": 0.0576811,
  "TxRefAmp": 245.52,
  "WipMemBlock": "f317d099-8b43-4e50-aea6-64a60ac5dcf0||Sequence: R016 ve11c/master r/e634e98; Dec 19 2017 11:00:25 by eja",
  "dcmmeta_affine": [
    [-1.9979512691497803, 0.08688309788703918, -0.025339653715491295, 102.51101684570312],
    [0.09032423794269562, 1.8790887594223022, -0.678871750831604, -68.97960662841797],
    [0.005683509167283773, 0.6793206930160522, 1.8810877799987793, -65.24652862548828],
    [0.0, 0.0, 0.0, 1.0]
],
  "dcmmeta_reorient_transform": [
    [0.0, -1.0, 0.0, 103.0],
    [1.0, 0.0, 0.0, 0.0],
    [0.0, 0.0, 1.0, 0.0],
    [0.0, 0.0, 0.0, 1.0]
],
  "dcmmeta_shape": [104, 104, 60, 190],
  "dcmmeta_slice_dim": 2,
  "dcmmeta_version": 0.6,
  "global": {
    "const": {
      "AcquisitionMatrix": [104, 0, 0, 104],
      "AngioFlag": "N",
      "BitsAllocated": 16,
      "BitsStored": 16,
      "BodyPartExamined": "BRAIN",
      "Columns": 832,
      "EchoNumbers": 1,
      "EchoTime": 37.0,
      "EchoTrainLength": 104,
      "FlipAngle": 52.0,
      "HighBit": 15,
      "ImageOrientationPatient": [0.99897562902957, -0.0451621194859, 0.00284175447902, 0.04344154797273, 0.93954439839815, -0.3396603529239],
      "ImagePositionPatient": [-870.33968359494, -775.67684111965, 249.92744608328],
      "ImageType": [
        "ORIGINAL",
        "PRIMARY",
        "P",
        "MB",
        "ND",
        "MOSAIC"
],
      "ImagedNucleus": "1H",
      "ImagingFrequency": 123.258941,
      "InPlanePhaseEncodingDirection": "COL",
      "LargestImagePixelValue": 4095,
      "MRAcquisitionType": "2D",
      "MagneticFieldStrength": 3.0,
      "Manufacturer": "SIEMENS",
      "ManufacturerModelName": "Prisma_fit",
      "Modality": "MR",
      "NumberOfAverages": 1.0,
      "NumberOfPhaseEncodingSteps": 104,
      "PercentPhaseFieldOfView": 100.0,
      "PercentSampling": 100.0,
      "PerformedProcedureStepStartTime": "152126.205000",
      "PhotometricInterpretation": "MONOCHROME2",
      "PixelBandwidth": 2290.0,
      "PixelRepresentation": 0,
      "PixelSpacing": [2.0, 2.0],
      "ProtocolName": "func_task-things_run-3",
      "RepetitionTime": 1490.0,
      "RescaleIntercept": -4096.0,
      "RescaleSlope": 2.0,
      "RescaleType": "US",
      "Rows": 832,
      "SAR": 0.04496857745764,
      "SamplesPerPixel": 1,
      "ScanOptions": "FS",
      "ScanningSequence": "EP",
      "SequenceName": "epfid2d1_104",
      "SequenceVariant": [
        "SK",
        "SS"
],
      "SeriesDescription": "func_task-things_run-3",
      "SeriesNumber": 17,
      "SeriesTime": "153911.554000",
      "SliceLocation": -39.251865593012,
      "SliceThickness": 2.0,
      "SmallestImagePixelValue": 0,
      "SoftwareVersions": "syngo MR E11",
      "SpacingBetweenSlices": 2.0000000344684,
      "SpecificCharacterSet": "ISO_IR 100",
      "StudyID": "2",
      "StudyTime": "152126.150000",
      "TransmitCoilName": "Body",
      "VariableFlipAngleFlag": "N",
      "WindowCenterWidthExplanation": "Algo1",
      "dBdt": 0.0},
    "slices": {}
  },
  "time": {
    "samples": {
      "AcquisitionNumber": [1, 2, 3, 4, 5, 6, 7, 8, 9, 10, 11, 12, 13, 14, 15, 16, 17, 18, 19, 20, 21, 22, 23, 24, 25, 26, 27, 28, 29, 30, 31, 32, 33, 34, 35, 36, 37, 38, 39, 40, 41, 42, 43, 44, 45, 46, 47, 48, 49, 50, 51, 52, 53, 54, 55, 56, 57, 58, 59, 60, 61, 62, 63, 64, 65, 66, 67, 68, 69, 70, 71, 72, 73, 74, 75, 76, 77, 78, 79, 80, 81, 82, 83, 84, 85, 86, 87, 88, 89, 90, 91, 92, 93, 94, 95, 96, 97, 98, 99, 100, 101, 102, 103, 104, 105, 106, 107, 108, 109, 110, 111, 112, 113, 114, 115, 116, 117, 118, 119, 120, 121, 122, 123, 124, 125, 126, 127, 128, 129, 130, 131, 132, 133, 134, 135, 136, 137, 138, 139, 140, 141, 142, 143, 144, 145, 146, 147, 148, 149, 150, 151, 152, 153, 154, 155, 156, 157, 158, 159, 160, 161, 162, 163, 164, 165, 166, 167, 168, 169, 170, 171, 172, 173, 174, 175, 176, 177, 178, 179, 180, 181, 182, 183, 184, 185, 186, 187, 188, 189, 190],
      "AcquisitionTime": ["153745.455000", "153746.945000", "153748.435000", "153749.925000", "153751.415000", "153752.905000", "153754.395000", "153755.885000", "153757.375000", "153758.865000", "153800.355000", "153801.845000", "153803.335000", "153804.825000", "153806.315000", "153807.805000", "153809.295000", "153810.785000", "153812.275000", "153813.765000", "153815.255000", "153816.745000", "153818.235000", "153819.725000", "153821.215000", "153822.705000", "153824.195000", "153825.685000", "153827.175000", "153828.665000", "153830.155000", "153831.645000", "153833.135000", "153834.625000", "153836.115000", "153837.605000", "153839.095000", "153840.585000", "153842.075000", "153843.565000", "153845.055000", "153846.545000", "153848.035000", "153849.525000", "153851.015000", "153852.505000", "153853.995000", "153855.485000", "153856.975000", "153858.465000", "153859.955000", "153901.445000", "153902.935000", "153904.425000", "153905.915000", "153907.405000", "153908.895000", "153910.385000", "153911.875000", "153913.365000", "153914.855000", "153916.345000", "153917.835000", "153919.325000", "153920.815000", "153922.305000", "153923.795000", "153925.285000", "153926.775000", "153928.265000", "153929.755000", "153931.245000", "153932.735000", "153934.225000", "153935.715000", "153937.205000", "153938.695000", "153940.185000", "153941.675000", "153943.165000", "153944.655000", "153946.145000", "153947.635000", "153949.125000", "153950.615000", "153952.105000", "153953.595000", "153955.085000", "153956.575000", "153958.065000", "153959.555000", "154001.045000", "154002.535000", "154004.025000", "154005.515000", "154007.005000", "154008.495000", "154009.985000", "154011.475000", "154012.965000", "154014.455000", "154015.945000", "154017.435000", "154018.925000", "154020.415000", "154021.905000", "154023.395000", "154024.885000", "154026.375000", "154027.865000", "154029.355000", "154030.845000", "154032.335000", "154033.825000", "154035.315000", "154036.805000", "154038.295000", "154039.785000", "154041.275000", "154042.765000", "154044.255000", "154045.745000", "154047.235000", "154048.725000", "154050.215000", "154051.705000", "154053.195000", "154054.685000", "154056.175000", "154057.665000", "154059.155000", "154100.645000", "154102.135000", "154103.625000", "154105.115000", "154106.605000", "154108.095000", "154109.585000", "154111.075000", "154112.565000", "154114.055000", "154115.545000", "154117.035000", "154118.525000", "154120.015000", "154121.505000", "154122.995000", "154124.485000", "154125.975000", "154127.465000", "154128.955000", "154130.445000", "154131.935000", "154133.425000", "154134.915000", "154136.405000", "154137.895000", "154139.385000", "154140.875000", "154142.365000", "154143.855000", "154145.345000", "154146.835000", "154148.325000", "154149.815000", "154151.305000", "154152.795000", "154154.285000", "154155.775000", "154157.265000", "154158.755000", "154200.245000", "154201.735000", "154203.225000", "154204.715000", "154206.205000", "154207.695000", "154209.185000", "154210.675000", "154212.165000", "154213.655000", "154215.145000", "154216.635000", "154218.125000", "154219.615000", "154221.105000", "154222.595000", "154224.085000", "154225.575000", "154227.065000"],
      "ContentTime": ["153911.556000", "153911.559000", "153911.561000", "153911.564000", "153911.566000", "153911.569000", "153911.571000", "153911.574000", "153911.576000", "153911.579000", "153911.581000", "153911.584000", "153911.586000", "153911.589000", "153911.591000", "153911.594000", "153911.596000", "153911.599000", "153911.601000", "153911.603000", "153911.606000", "153911.608000", "153911.611000", "153911.613000", "153911.618000", "153911.620000", "153911.623000", "153911.625000", "153911.628000", "153911.630000", "153931.497000", "153931.500000", "153931.503000", "153931.505000", "153931.508000", "153931.510000", "153931.513000", "153931.515000", "153931.520000", "153931.523000", "153931.526000", "153931.529000", "153931.531000", "153931.534000", "153931.536000", "153931.539000", "153931.541000", "153931.544000", "153931.546000", "153931.549000", "153931.551000", "153951.491000", "153951.493000", "153951.496000", "153951.498000", "153951.501000", "153951.503000", "153951.506000", "153951.509000", "153951.511000", "153951.514000", "153951.516000", "153951.519000", "153951.521000", "153951.524000", "153951.526000", "153951.529000", "153951.531000", "153951.534000", "153951.536000", "153951.539000", "154011.489000", "154011.492000", "154011.494000", "154011.497000", "154011.499000", "154011.502000", "154011.504000", "154011.513000", "154011.516000", "154011.518000", "154011.521000", "154011.523000", "154011.526000", "154011.528000", "154011.531000", "154011.533000", "154011.535000", "154011.538000", "154011.540000", "154011.543000", "154031.517000", "154031.520000", "154031.522000", "154031.525000", "154031.527000", "154031.530000", "154031.533000", "154031.536000", "154031.539000", "154031.541000", "154031.544000", "154031.546000", "154031.549000", "154031.551000", "154031.554000", "154031.556000", "154031.559000", "154031.561000", "154031.569000", "154031.572000", "154111.508000", "154111.510000", "154111.513000", "154111.515000", "154111.518000", "154111.521000", "154111.523000", "154111.526000", "154111.528000", "154111.531000", "154111.533000", "154111.536000", "154111.538000", "154111.541000", "154111.543000", "154111.546000", "154111.548000", "154111.551000", "154111.553000", "154111.556000", "154111.558000", "154111.561000", "154111.563000", "154111.566000", "154111.568000", "154111.571000", "154151.522000", "154151.524000", "154151.527000", "154151.529000", "154151.532000", "154151.534000", "154151.537000", "154151.539000", "154151.542000", "154151.544000", "154151.547000", "154151.549000", "154151.552000", "154151.554000", "154151.557000", "154151.559000", "154151.561000", "154151.564000", "154151.567000", "154151.569000", "154151.572000", "154151.574000", "154151.578000", "154151.581000", "154151.583000", "154151.586000", "154151.588000", "154229.174000", "154229.176000", "154229.179000", "154229.181000", "154229.184000", "154229.186000", "154229.189000", "154229.191000", "154229.194000", "154229.196000", "154229.199000", "154229.201000", "154229.204000", "154229.206000", "154229.209000", "154229.211000", "154229.214000", "154229.217000", "154229.219000", "154229.222000", "154229.224000", "154229.227000", "154229.229000", "154229.232000", "154229.234000", "154229.237000"],
      "InstanceCreationTime": ["153911.556000", "153911.559000", "153911.561000", "153911.564000", "153911.566000", "153911.569000", "153911.571000", "153911.574000", "153911.576000", "153911.579000", "153911.581000", "153911.584000", "153911.586000", "153911.589000", "153911.591000", "153911.594000", "153911.596000", "153911.599000", "153911.601000", "153911.603000", "153911.606000", "153911.608000", "153911.611000", "153911.613000", "153911.618000", "153911.620000", "153911.623000", "153911.625000", "153911.628000", "153911.630000", "153931.497000", "153931.500000", "153931.503000", "153931.505000", "153931.508000", "153931.510000", "153931.513000", "153931.515000", "153931.520000", "153931.523000", "153931.526000", "153931.529000", "153931.531000", "153931.534000", "153931.536000", "153931.539000", "153931.541000", "153931.544000", "153931.546000", "153931.549000", "153931.551000", "153951.491000", "153951.493000", "153951.496000", "153951.498000", "153951.501000", "153951.503000", "153951.506000", "153951.509000", "153951.511000", "153951.514000", "153951.516000", "153951.519000", "153951.521000", "153951.524000", "153951.526000", "153951.529000", "153951.531000", "153951.534000", "153951.536000", "153951.539000", "154011.489000", "154011.492000", "154011.494000", "154011.497000", "154011.499000", "154011.502000", "154011.504000", "154011.513000", "154011.516000", "154011.518000", "154011.521000", "154011.523000", "154011.526000", "154011.528000", "154011.531000", "154011.533000", "154011.535000", "154011.538000", "154011.540000", "154011.543000", "154031.517000", "154031.520000", "154031.522000", "154031.525000", "154031.527000", "154031.530000", "154031.533000", "154031.536000", "154031.539000", "154031.541000", "154031.544000", "154031.546000", "154031.549000", "154031.551000", "154031.554000", "154031.556000", "154031.559000", "154031.561000", "154031.569000", "154031.572000", "154111.508000", "154111.510000", "154111.513000", "154111.515000", "154111.518000", "154111.521000", "154111.523000", "154111.526000", "154111.528000", "154111.531000", "154111.533000", "154111.536000", "154111.538000", "154111.541000", "154111.543000", "154111.546000", "154111.548000", "154111.551000", "154111.553000", "154111.556000", "154111.558000", "154111.561000", "154111.563000", "154111.566000", "154111.568000", "154111.571000", "154151.522000", "154151.524000", "154151.527000", "154151.529000", "154151.532000", "154151.534000", "154151.537000", "154151.539000", "154151.542000", "154151.544000", "154151.547000", "154151.549000", "154151.552000", "154151.554000", "154151.557000", "154151.559000", "154151.561000", "154151.564000", "154151.567000", "154151.569000", "154151.572000", "154151.574000", "154151.578000", "154151.581000", "154151.583000", "154151.586000", "154151.588000", "154229.174000", "154229.176000", "154229.179000", "154229.181000", "154229.184000", "154229.186000", "154229.189000", "154229.191000", "154229.194000", "154229.196000", "154229.199000", "154229.201000", "154229.204000", "154229.206000", "154229.209000", "154229.211000", "154229.214000", "154229.217000", "154229.219000", "154229.222000", "154229.224000", "154229.227000", "154229.229000", "154229.232000", "154229.234000", "154229.237000"],
      "InstanceNumber": [1, 2, 3, 4, 5, 6, 7, 8, 9, 10, 11, 12, 13, 14, 15, 16, 17, 18, 19, 20, 21, 22, 23, 24, 25, 26, 27, 28, 29, 30, 31, 32, 33, 34, 35, 36, 37, 38, 39, 40, 41, 42, 43, 44, 45, 46, 47, 48, 49, 50, 51, 52, 53, 54, 55, 56, 57, 58, 59, 60, 61, 62, 63, 64, 65, 66, 67, 68, 69, 70, 71, 72, 73, 74, 75, 76, 77, 78, 79, 80, 81, 82, 83, 84, 85, 86, 87, 88, 89, 90, 91, 92, 93, 94, 95, 96, 97, 98, 99, 100, 101, 102, 103, 104, 105, 106, 107, 108, 109, 110, 111, 112, 113, 114, 115, 116, 117, 118, 119, 120, 121, 122, 123, 124, 125, 126, 127, 128, 129, 130, 131, 132, 133, 134, 135, 136, 137, 138, 139, 140, 141, 142, 143, 144, 145, 146, 147, 148, 149, 150, 151, 152, 153, 154, 155, 156, 157, 158, 159, 160, 161, 162, 163, 164, 165, 166, 167, 168, 169, 170, 171, 172, 173, 174, 175, 176, 177, 178, 179, 180, 181, 182, 183, 184, 185, 186, 187, 188, 189, 190],
      "WindowCenter": [4822.0, 4796.0, 4798.0, 4826.0, 4798.0, 4826.0, 4798.0, 4822.0, 4800.0, 4796.0, 4802.0, 4798.0, 4796.0, 4822.0, 4822.0, 4828.0, 4830.0, 4800.0, 4796.0, 4798.0, 4818.0, 4796.0, 4800.0, 4820.0, 4800.0, 4802.0, 4796.0, 4802.0, 4794.0, 4798.0, 4800.0, 4792.0, 4798.0, 4794.0, 4798.0, 4822.0, 4800.0, 4822.0, 4800.0, 4828.0, 4794.0, 4798.0, 4822.0, 4798.0, 4798.0, 4796.0, 4800.0, 4800.0, 4796.0, 4800.0, 4800.0, 4824.0, 4822.0, 4798.0, 4800.0, 4798.0, 4796.0, 4802.0, 4796.0, 4800.0, 4798.0, 4798.0, 4800.0, 4820.0, 4802.0, 4796.0, 4802.0, 4796.0, 4792.0, 4802.0, 4798.0, 4798.0, 4798.0, 4796.0, 4800.0, 4794.0, 4798.0, 4796.0, 4822.0, 4798.0, 4800.0, 4800.0, 4796.0, 4798.0, 4798.0, 4800.0, 4796.0, 4800.0, 4800.0, 4796.0, 4800.0, 4796.0, 4820.0, 4820.0, 4798.0, 4800.0, 4798.0, 4798.0, 4798.0, 4820.0, 4800.0, 4796.0, 4822.0, 4802.0, 4800.0, 4796.0, 4826.0, 4830.0, 4800.0, 4800.0, 4798.0, 4800.0, 4796.0, 4798.0, 4802.0, 4800.0, 4828.0, 4804.0, 4802.0, 4800.0, 4798.0, 4824.0, 4798.0, 4800.0, 4796.0, 4798.0, 4802.0, 4798.0, 4800.0, 4794.0, 4802.0, 4796.0, 4798.0, 4824.0, 4796.0, 4824.0, 4798.0, 4822.0, 4798.0, 4800.0, 4802.0, 4798.0, 4800.0, 4796.0, 4800.0, 4796.0, 4822.0, 4796.0, 4802.0, 4798.0, 4798.0, 4828.0, 4798.0, 4804.0, 4796.0, 4800.0, 4820.0, 4800.0, 4796.0, 4820.0, 4798.0, 4802.0, 4798.0, 4802.0, 4800.0, 4804.0, 4800.0, 4802.0, 4800.0, 4798.0, 4802.0, 4796.0, 4802.0, 4802.0, 4798.0, 4822.0, 4794.0, 4800.0, 4798.0, 4824.0, 4802.0, 4798.0, 4802.0, 4800.0, 4802.0, 4798.0, 4794.0, 4826.0, 4798.0, 4796.0],
      "WindowWidth": [18588.0, 18556.0, 18554.0, 18582.0, 18550.0, 18584.0, 18552.0, 18578.0, 18554.0, 18558.0, 18552.0, 18550.0, 18552.0, 18582.0, 18588.0, 18582.0, 18578.0, 18552.0, 18556.0, 18556.0, 18592.0, 18562.0, 18556.0, 18584.0, 18554.0, 18552.0, 18550.0, 18552.0, 18552.0, 18548.0, 18554.0, 18558.0, 18556.0, 18558.0, 18554.0, 18584.0, 18556.0, 18584.0, 18554.0, 18586.0, 18552.0, 18560.0, 18586.0, 18558.0, 18556.0, 18556.0, 18560.0, 18556.0, 18550.0, 18556.0, 18560.0, 18584.0, 18584.0, 18554.0, 18552.0, 18558.0, 18552.0, 18554.0, 18558.0, 18550.0, 18552.0, 18556.0, 18554.0, 18588.0, 18552.0, 18560.0, 18556.0, 18550.0, 18550.0, 18552.0, 18556.0, 18552.0, 18554.0, 18556.0, 18558.0, 18550.0, 18554.0, 18558.0, 18584.0, 18552.0, 18554.0, 18548.0, 18552.0, 18552.0, 18554.0, 18552.0, 18550.0, 18556.0, 18550.0, 18554.0, 18552.0, 18550.0, 18590.0, 18580.0, 18554.0, 18556.0, 18558.0, 18546.0, 18554.0, 18586.0, 18558.0, 18556.0, 18584.0, 18558.0, 18556.0, 18550.0, 18580.0, 18582.0, 18552.0, 18552.0, 18560.0, 18556.0, 18554.0, 18562.0, 18552.0, 18558.0, 18580.0, 18548.0, 18552.0, 18552.0, 18558.0, 18580.0, 18554.0, 18558.0, 18550.0, 18554.0, 18552.0, 18558.0, 18550.0, 18556.0, 18552.0, 18556.0, 18560.0, 18586.0, 18558.0, 18582.0, 18554.0, 18586.0, 18552.0, 18554.0, 18560.0, 18554.0, 18554.0, 18558.0, 18554.0, 18554.0, 18584.0, 18554.0, 18558.0, 18556.0, 18554.0, 18580.0, 18554.0, 18552.0, 18552.0, 18554.0, 18588.0, 18556.0, 18550.0, 18584.0, 18552.0, 18550.0, 18554.0, 18548.0, 18554.0, 18560.0, 18546.0, 18556.0, 18556.0, 18556.0, 18554.0, 18544.0, 18552.0, 18550.0, 18560.0, 18586.0, 18558.0, 18558.0, 18558.0, 18588.0, 18548.0, 18552.0, 18548.0, 18552.0, 18550.0, 18542.0, 18546.0, 18574.0, 18544.0, 18552.0]
    },
    "slices": {}
  }
}