{
  "AcquisitionMatrixPE": 104,
  "AcquisitionNumber": 1,
  "AcquisitionTime": "13:41:23.757500",
  "BandwidthPerPixelPhaseEncode": 17.17,
  "BaseResolution": 104,
  "BodyPartExamined": "BRAIN",
  "CoilString": "HC1-7;NC1_2",
  "ConsistencyInfo": "N4_VE11C_LATEST_20160120",
  "ConversionSoftware": "dcm2niix",
  "ConversionSoftwareVersion": "v1.0.20190902",
  "DerivedVendorReportedEchoSpacing": 0.000560011,
  "DeviceSerialNumber": "167006",
  "DwellTime": 2.1e-06,
  "EchoTime": 0.037,
  "EchoTrainLength": 104,
  "EffectiveEchoSpacing": 0.000560011,
  "FlipAngle": 52,
  "ImageComments": "Unaliased_MB4_PE3_LB",
  "ImageOrientationPatientDICOM": [0.999322, 0.00176395, 0.0367792, 0.00662788, 0.97392, -0.226795],
  "ImageType": [
    "ORIGINAL",
    "PRIMARY",
    "P",
    "MB",
    "ND",
    "MOSAIC"
],
  "ImagingFrequency": 123.259,
  "InPlanePhaseEncodingDirectionDICOM": "COL",
  "InstitutionAddress": "Chemin_Queen-Mary_4565_Montreal_District_CA_H3W_1W5",
  "InstitutionName": "IUGM",
  "InstitutionalDepartmentName": "Department",
  "MRAcquisitionType": "2D",
  "MagneticFieldStrength": 3,
  "Manufacturer": "Siemens",
  "ManufacturersModelName": "Prisma_fit",
  "Modality": "MR",
  "MultibandAccelerationFactor": 4,
  "PartialFourier": 1,
  "PatientPosition": "HFS",
  "PercentPhaseFOV": 100,
  "PhaseEncodingDirection": "j",
  "PhaseEncodingSteps": 104,
  "PhaseResolution": 1,
  "PixelBandwidth": 2290,
  "ProcedureStepDescription": "memory_things",
  "ProtocolName": "func_task-things_run-5",
  "PulseSequenceDetails": "%CustomerSeq%_cmrr_mbep2d_bold",
  "ReceiveCoilActiveElements": "HC1-7;NC1,2",
  "ReceiveCoilName": "HeadNeck_64",
  "ReconMatrixPE": 104,
  "RepetitionTime": 1.49,
  "SAR": 0.0519588,
  "ScanOptions": "FS",
  "ScanningSequence": "EP",
  "SequenceName": "epfid2d1_104",
  "SequenceVariant": "SK_SS",
  "SeriesDescription": "func_task-things_run-5",
  "SeriesNumber": 23,
  "ShimSetting": [638, -7229, -8771, 720, 37, -44, 113, -18],
  "SliceThickness": 2,
  "SliceTiming": [0, 0.7825, 0.0975, 0.88, 0.195, 0.98, 0.2925, 1.0775, 0.39, 1.175, 0.49, 1.2725, 0.5875, 1.37, 0.685, 0, 0.7825, 0.0975, 0.88, 0.195, 0.98, 0.2925, 1.0775, 0.39, 1.175, 0.49, 1.2725, 0.5875, 1.37, 0.685, 0, 0.7825, 0.0975, 0.88, 0.195, 0.98, 0.2925, 1.0775, 0.39, 1.175, 0.49, 1.2725, 0.5875, 1.37, 0.685, 0, 0.7825, 0.0975, 0.88, 0.195, 0.98, 0.2925, 1.0775, 0.39, 1.175, 0.49, 1.2725, 0.5875, 1.37, 0.685],
  "SoftwareVersions": "syngo_MR_E11",
  "SpacingBetweenSlices": 2,
  "StationName": "MRC35049",
  "TaskName": "things",
  "TotalReadoutTime": 0.0576811,
  "TxRefAmp": 238.16,
  "WipMemBlock": "7d7f843c-fd88-4bb6-8a02-f65c55d01af7||Sequence: R016 ve11c/master r/e634e98; Dec 19 2017 11:00:25 by eja",
  "dcmmeta_affine": [
    [-1.9986437559127808, 0.013255753554403782, 0.07244005799293518, 106.74669647216797],
    [-0.003527902066707611, 1.9478399753570557, -0.4537697732448578, -76.52201843261719],
    [0.07355834543704987, 0.4535898268222809, 1.946495771408081, -59.392513275146484],
    [0.0, 0.0, 0.0, 1.0]
],
  "dcmmeta_reorient_transform": [
    [0.0, -1.0, 0.0, 103.0],
    [1.0, 0.0, 0.0, 0.0],
    [0.0, 0.0, 1.0, 0.0],
    [0.0, 0.0, 0.0, 1.0]
],
  "dcmmeta_shape": [104, 104, 60, 190],
  "dcmmeta_slice_dim": 2,
  "dcmmeta_version": 0.6,
  "global": {
    "const": {
      "AcquisitionMatrix": [104, 0, 0, 104],
      "AngioFlag": "N",
      "BitsAllocated": 16,
      "BitsStored": 16,
      "BodyPartExamined": "BRAIN",
      "Columns": 832,
      "EchoNumbers": 1,
      "EchoTime": 37.0,
      "EchoTrainLength": 104,
      "FlipAngle": 52.0,
      "HighBit": 15,
      "ImageOrientationPatient": [0.99932186053523, 0.00176395099889, 0.03677917254762, 0.00662787659026, 0.97391998665536, -0.2267949092134],
      "ImagePositionPatient": [-840.44344930141, -834.40340311748, 125.65869425484],
      "ImageType": [
        "ORIGINAL",
        "PRIMARY",
        "P",
        "MB",
        "ND",
        "MOSAIC"
],
      "ImagedNucleus": "1H",
      "ImagingFrequency": 123.258925,
      "InPlanePhaseEncodingDirection": "COL",
      "LargestImagePixelValue": 4095,
      "MRAcquisitionType": "2D",
      "MagneticFieldStrength": 3.0,
      "Manufacturer": "SIEMENS",
      "ManufacturerModelName": "Prisma_fit",
      "Modality": "MR",
      "NumberOfAverages": 1.0,
      "NumberOfPhaseEncodingSteps": 104,
      "PercentPhaseFieldOfView": 100.0,
      "PercentSampling": 100.0,
      "PerformedProcedureStepStartTime": "125911.406000",
      "PhotometricInterpretation": "MONOCHROME2",
      "PixelBandwidth": 2290.0,
      "PixelRepresentation": 0,
      "PixelSpacing": [2.0, 2.0],
      "ProtocolName": "func_task-things_run-5",
      "RepetitionTime": 1490.0,
      "RescaleIntercept": -4096.0,
      "RescaleSlope": 2.0,
      "RescaleType": "US",
      "Rows": 832,
      "SAR": 0.05195881885346,
      "SamplesPerPixel": 1,
      "ScanOptions": "FS",
      "ScanningSequence": "EP",
      "SequenceName": "epfid2d1_104",
      "SequenceVariant": [
        "SK",
        "SS"
],
      "SeriesDescription": "func_task-things_run-5",
      "SeriesNumber": 23,
      "SeriesTime": "134230.216000",
      "SliceLocation": -36.575577831882,
      "SliceThickness": 2.0,
      "SmallestImagePixelValue": 0,
      "SoftwareVersions": "syngo MR E11",
      "SpacingBetweenSlices": 2.0000000819017,
      "SpecificCharacterSet": "ISO_IR 100",
      "StudyID": "1",
      "StudyTime": "125911.191000",
      "TransmitCoilName": "Body",
      "VariableFlipAngleFlag": "N",
      "WindowCenterWidthExplanation": "Algo1",
      "dBdt": 0.0},
    "slices": {}
  },
  "time": {
    "samples": {
      "AcquisitionNumber": [1, 2, 3, 4, 5, 6, 7, 8, 9, 10, 11, 12, 13, 14, 15, 16, 17, 18, 19, 20, 21, 22, 23, 24, 25, 26, 27, 28, 29, 30, 31, 32, 33, 34, 35, 36, 37, 38, 39, 40, 41, 42, 43, 44, 45, 46, 47, 48, 49, 50, 51, 52, 53, 54, 55, 56, 57, 58, 59, 60, 61, 62, 63, 64, 65, 66, 67, 68, 69, 70, 71, 72, 73, 74, 75, 76, 77, 78, 79, 80, 81, 82, 83, 84, 85, 86, 87, 88, 89, 90, 91, 92, 93, 94, 95, 96, 97, 98, 99, 100, 101, 102, 103, 104, 105, 106, 107, 108, 109, 110, 111, 112, 113, 114, 115, 116, 117, 118, 119, 120, 121, 122, 123, 124, 125, 126, 127, 128, 129, 130, 131, 132, 133, 134, 135, 136, 137, 138, 139, 140, 141, 142, 143, 144, 145, 146, 147, 148, 149, 150, 151, 152, 153, 154, 155, 156, 157, 158, 159, 160, 161, 162, 163, 164, 165, 166, 167, 168, 169, 170, 171, 172, 173, 174, 175, 176, 177, 178, 179, 180, 181, 182, 183, 184, 185, 186, 187, 188, 189, 190],
      "AcquisitionTime": ["134123.757500", "134125.247500", "134126.737500", "134128.227500", "134129.717500", "134131.207500", "134132.697500", "134134.187500", "134135.677500", "134137.167500", "134138.657500", "134140.147500", "134141.637500", "134143.127500", "134144.617500", "134146.107500", "134147.597500", "134149.087500", "134150.577500", "134152.067500", "134153.557500", "134155.047500", "134156.537500", "134158.027500", "134159.517500", "134201.007500", "134202.497500", "134203.987500", "134205.477500", "134206.967500", "134208.457500", "134209.947500", "134211.437500", "134212.927500", "134214.417500", "134215.907500", "134217.397500", "134218.887500", "134220.377500", "134221.867500", "134223.357500", "134224.847500", "134226.337500", "134227.827500", "134229.317500", "134230.807500", "134232.297500", "134233.787500", "134235.277500", "134236.767500", "134238.257500", "134239.747500", "134241.237500", "134242.727500", "134244.217500", "134245.707500", "134247.197500", "134248.687500", "134250.177500", "134251.667500", "134253.157500", "134254.647500", "134256.137500", "134257.627500", "134259.117500", "134300.607500", "134302.097500", "134303.587500", "134305.077500", "134306.567500", "134308.057500", "134309.547500", "134311.037500", "134312.527500", "134314.017500", "134315.507500", "134316.997500", "134318.487500", "134319.977500", "134321.467500", "134322.957500", "134324.447500", "134325.937500", "134327.427500", "134328.917500", "134330.407500", "134331.897500", "134333.387500", "134334.877500", "134336.367500", "134337.857500", "134339.347500", "134340.837500", "134342.327500", "134343.817500", "134345.307500", "134346.797500", "134348.287500", "134349.777500", "134351.267500", "134352.757500", "134354.247500", "134355.737500", "134357.227500", "134358.717500", "134400.207500", "134401.697500", "134403.187500", "134404.677500", "134406.167500", "134407.657500", "134409.147500", "134410.637500", "134412.127500", "134413.617500", "134415.107500", "134416.597500", "134418.087500", "134419.577500", "134421.067500", "134422.557500", "134424.047500", "134425.537500", "134427.027500", "134428.517500", "134430.007500", "134431.497500", "134432.987500", "134434.477500", "134435.967500", "134437.457500", "134438.947500", "134440.437500", "134441.927500", "134443.417500", "134444.907500", "134446.397500", "134447.887500", "134449.377500", "134450.867500", "134452.357500", "134453.847500", "134455.337500", "134456.827500", "134458.317500", "134459.807500", "134501.297500", "134502.787500", "134504.277500", "134505.767500", "134507.257500", "134508.747500", "134510.237500", "134511.727500", "134513.217500", "134514.707500", "134516.197500", "134517.687500", "134519.177500", "134520.667500", "134522.157500", "134523.647500", "134525.137500", "134526.627500", "134528.117500", "134529.607500", "134531.097500", "134532.587500", "134534.077500", "134535.567500", "134537.057500", "134538.547500", "134540.037500", "134541.527500", "134543.017500", "134544.507500", "134545.997500", "134547.487500", "134548.977500", "134550.467500", "134551.957500", "134553.447500", "134554.937500", "134556.427500", "134557.917500", "134559.407500", "134600.897500", "134602.387500", "134603.877500", "134605.367500"],
      "ContentTime": ["134230.218000", "134230.221000", "134230.224000", "134230.226000", "134230.229000", "134230.232000", "134230.234000", "134230.237000", "134230.239000", "134230.242000", "134230.244000", "134230.247000", "134230.249000", "134250.193000", "134250.196000", "134250.199000", "134250.201000", "134250.204000", "134250.206000", "134250.209000", "134250.211000", "134250.214000", "134250.216000", "134250.219000", "134250.221000", "134250.224000", "134250.226000", "134250.229000", "134250.231000", "134250.243000", "134250.245000", "134250.248000", "134250.250000", "134250.253000", "134310.192000", "134310.195000", "134310.198000", "134310.200000", "134310.203000", "134310.205000", "134310.208000", "134310.210000", "134310.213000", "134310.215000", "134310.218000", "134310.220000", "134310.223000", "134310.225000", "134310.228000", "134310.236000", "134310.238000", "134310.241000", "134310.243000", "134310.246000", "134330.203000", "134330.205000", "134330.208000", "134330.210000", "134330.213000", "134330.215000", "134330.218000", "134330.221000", "134330.223000", "134330.226000", "134330.228000", "134330.231000", "134330.233000", "134330.236000", "134330.238000", "134330.241000", "134330.243000", "134330.246000", "134330.248000", "134330.251000", "134350.196000", "134350.199000", "134350.201000", "134350.204000", "134350.211000", "134350.214000", "134350.216000", "134350.219000", "134350.222000", "134350.224000", "134350.227000", "134350.229000", "134350.232000", "134350.234000", "134350.237000", "134350.239000", "134350.242000", "134350.244000", "134350.247000", "134350.249000", "134430.245000", "134430.248000", "134430.251000", "134430.253000", "134430.256000", "134430.258000", "134430.261000", "134430.264000", "134430.266000", "134430.269000", "134430.271000", "134430.274000", "134430.276000", "134430.279000", "134430.282000", "134430.284000", "134430.287000", "134430.289000", "134430.292000", "134430.295000", "134430.297000", "134430.300000", "134430.302000", "134430.305000", "134430.307000", "134430.310000", "134430.313000", "134430.315000", "134430.318000", "134430.320000", "134510.235000", "134510.238000", "134510.241000", "134510.243000", "134510.246000", "134510.248000", "134510.251000", "134510.254000", "134510.256000", "134510.259000", "134510.261000", "134510.264000", "134510.266000", "134510.269000", "134510.272000", "134510.274000", "134510.277000", "134510.279000", "134510.282000", "134510.284000", "134510.287000", "134510.290000", "134510.292000", "134510.295000", "134510.297000", "134510.300000", "134510.303000", "134550.249000", "134550.251000", "134550.254000", "134550.256000", "134550.259000", "134550.262000", "134550.264000", "134550.267000", "134550.269000", "134550.272000", "134550.274000", "134550.277000", "134550.279000", "134550.282000", "134550.285000", "134550.287000", "134550.290000", "134550.292000", "134550.295000", "134550.297000", "134550.300000", "134550.302000", "134550.305000", "134550.308000", "134550.310000", "134550.313000", "134550.315000", "134607.122000", "134607.124000", "134607.127000", "134607.130000", "134607.132000", "134607.135000", "134607.138000", "134607.140000", "134607.143000", "134607.145000", "134607.152000", "134607.154000"],
      "InstanceCreationTime": ["134230.218000", "134230.221000", "134230.224000", "134230.226000", "134230.229000", "134230.232000", "134230.234000", "134230.237000", "134230.239000", "134230.242000", "134230.244000", "134230.247000", "134230.249000", "134250.193000", "134250.196000", "134250.199000", "134250.201000", "134250.204000", "134250.206000", "134250.209000", "134250.211000", "134250.214000", "134250.216000", "134250.219000", "134250.221000", "134250.224000", "134250.226000", "134250.229000", "134250.231000", "134250.243000", "134250.245000", "134250.248000", "134250.250000", "134250.253000", "134310.192000", "134310.195000", "134310.198000", "134310.200000", "134310.203000", "134310.205000", "134310.208000", "134310.210000", "134310.213000", "134310.215000", "134310.218000", "134310.220000", "134310.223000", "134310.225000", "134310.228000", "134310.236000", "134310.238000", "134310.241000", "134310.243000", "134310.246000", "134330.203000", "134330.205000", "134330.208000", "134330.210000", "134330.213000", "134330.215000", "134330.218000", "134330.221000", "134330.223000", "134330.226000", "134330.228000", "134330.231000", "134330.233000", "134330.236000", "134330.238000", "134330.241000", "134330.243000", "134330.246000", "134330.248000", "134330.251000", "134350.196000", "134350.199000", "134350.201000", "134350.204000", "134350.211000", "134350.214000", "134350.216000", "134350.219000", "134350.222000", "134350.224000", "134350.227000", "134350.229000", "134350.232000", "134350.234000", "134350.237000", "134350.239000", "134350.242000", "134350.244000", "134350.247000", "134350.249000", "134430.245000", "134430.248000", "134430.251000", "134430.253000", "134430.256000", "134430.258000", "134430.261000", "134430.264000", "134430.266000", "134430.269000", "134430.271000", "134430.274000", "134430.276000", "134430.279000", "134430.282000", "134430.284000", "134430.287000", "134430.289000", "134430.292000", "134430.295000", "134430.297000", "134430.300000", "134430.302000", "134430.305000", "134430.307000", "134430.310000", "134430.313000", "134430.315000", "134430.318000", "134430.320000", "134510.235000", "134510.238000", "134510.241000", "134510.243000", "134510.246000", "134510.248000", "134510.251000", "134510.254000", "134510.256000", "134510.259000", "134510.261000", "134510.264000", "134510.266000", "134510.269000", "134510.272000", "134510.274000", "134510.277000", "134510.279000", "134510.282000", "134510.284000", "134510.287000", "134510.290000", "134510.292000", "134510.295000", "134510.297000", "134510.300000", "134510.303000", "134550.249000", "134550.251000", "134550.254000", "134550.256000", "134550.259000", "134550.262000", "134550.264000", "134550.267000", "134550.269000", "134550.272000", "134550.274000", "134550.277000", "134550.279000", "134550.282000", "134550.285000", "134550.287000", "134550.290000", "134550.292000", "134550.295000", "134550.297000", "134550.300000", "134550.302000", "134550.305000", "134550.308000", "134550.310000", "134550.313000", "134550.315000", "134607.122000", "134607.124000", "134607.127000", "134607.130000", "134607.132000", "134607.135000", "134607.138000", "134607.140000", "134607.143000", "134607.145000", "134607.152000", "134607.154000"],
      "InstanceNumber": [1, 2, 3, 4, 5, 6, 7, 8, 9, 10, 11, 12, 13, 14, 15, 16, 17, 18, 19, 20, 21, 22, 23, 24, 25, 26, 27, 28, 29, 30, 31, 32, 33, 34, 35, 36, 37, 38, 39, 40, 41, 42, 43, 44, 45, 46, 47, 48, 49, 50, 51, 52, 53, 54, 55, 56, 57, 58, 59, 60, 61, 62, 63, 64, 65, 66, 67, 68, 69, 70, 71, 72, 73, 74, 75, 76, 77, 78, 79, 80, 81, 82, 83, 84, 85, 86, 87, 88, 89, 90, 91, 92, 93, 94, 95, 96, 97, 98, 99, 100, 101, 102, 103, 104, 105, 106, 107, 108, 109, 110, 111, 112, 113, 114, 115, 116, 117, 118, 119, 120, 121, 122, 123, 124, 125, 126, 127, 128, 129, 130, 131, 132, 133, 134, 135, 136, 137, 138, 139, 140, 141, 142, 143, 144, 145, 146, 147, 148, 149, 150, 151, 152, 153, 154, 155, 156, 157, 158, 159, 160, 161, 162, 163, 164, 165, 166, 167, 168, 169, 170, 171, 172, 173, 174, 175, 176, 177, 178, 179, 180, 181, 182, 183, 184, 185, 186, 187, 188, 189, 190],
      "WindowCenter": [4748.0, 4770.0, 4746.0, 4746.0, 4752.0, 4752.0, 4750.0, 4748.0, 4750.0, 4748.0, 4744.0, 4746.0, 4746.0, 4750.0, 4748.0, 4750.0, 4748.0, 4748.0, 4744.0, 4748.0, 4752.0, 4752.0, 4750.0, 4750.0, 4750.0, 4750.0, 4748.0, 4748.0, 4748.0, 4750.0, 4748.0, 4774.0, 4752.0, 4750.0, 4748.0, 4748.0, 4750.0, 4746.0, 4748.0, 4750.0, 4748.0, 4750.0, 4748.0, 4748.0, 4750.0, 4750.0, 4748.0, 4746.0, 4746.0, 4774.0, 4750.0, 4752.0, 4746.0, 4748.0, 4746.0, 4748.0, 4752.0, 4750.0, 4748.0, 4752.0, 4750.0, 4774.0, 4748.0, 4748.0, 4750.0, 4748.0, 4752.0, 4748.0, 4750.0, 4750.0, 4750.0, 4750.0, 4750.0, 4752.0, 4770.0, 4750.0, 4750.0, 4750.0, 4750.0, 4750.0, 4752.0, 4750.0, 4750.0, 4750.0, 4748.0, 4748.0, 4750.0, 4752.0, 4750.0, 4752.0, 4750.0, 4752.0, 4748.0, 4752.0, 4748.0, 4750.0, 4748.0, 4748.0, 4748.0, 4748.0, 4752.0, 4748.0, 4752.0, 4748.0, 4748.0, 4750.0, 4752.0, 4750.0, 4750.0, 4774.0, 4752.0, 4748.0, 4750.0, 4776.0, 4750.0, 4750.0, 4748.0, 4752.0, 4750.0, 4750.0, 4752.0, 4752.0, 4750.0, 4754.0, 4752.0, 4750.0, 4750.0, 4748.0, 4750.0, 4752.0, 4752.0, 4750.0, 4774.0, 4750.0, 4752.0, 4752.0, 4752.0, 4750.0, 4752.0, 4750.0, 4750.0, 4748.0, 4752.0, 4752.0, 4752.0, 4750.0, 4752.0, 4750.0, 4750.0, 4750.0, 4750.0, 4756.0, 4752.0, 4752.0, 4748.0, 4754.0, 4776.0, 4752.0, 4754.0, 4750.0, 4752.0, 4752.0, 4752.0, 4746.0, 4752.0, 4752.0, 4750.0, 4752.0, 4748.0, 4750.0, 4750.0, 4750.0, 4754.0, 4754.0, 4752.0, 4754.0, 4752.0, 4754.0, 4754.0, 4752.0, 4752.0, 4752.0, 4750.0, 4752.0, 4752.0, 4752.0, 4748.0, 4754.0, 4752.0, 4752.0],
      "WindowWidth": [18540.0, 18572.0, 18538.0, 18540.0, 18542.0, 18546.0, 18542.0, 18540.0, 18544.0, 18536.0, 18536.0, 18534.0, 18540.0, 18540.0, 18536.0, 18540.0, 18538.0, 18540.0, 18532.0, 18544.0, 18538.0, 18542.0, 18542.0, 18540.0, 18538.0, 18540.0, 18540.0, 18538.0, 18540.0, 18542.0, 18540.0, 18574.0, 18542.0, 18542.0, 18538.0, 18534.0, 18538.0, 18538.0, 18536.0, 18544.0, 18538.0, 18546.0, 18544.0, 18540.0, 18538.0, 18538.0, 18542.0, 18540.0, 18544.0, 18572.0, 18538.0, 18542.0, 18542.0, 18538.0, 18538.0, 18538.0, 18544.0, 18544.0, 18536.0, 18542.0, 18544.0, 18576.0, 18538.0, 18538.0, 18540.0, 18540.0, 18540.0, 18540.0, 18536.0, 18540.0, 18538.0, 18544.0, 18538.0, 18540.0, 18572.0, 18536.0, 18538.0, 18534.0, 18542.0, 18538.0, 18540.0, 18536.0, 18542.0, 18540.0, 18542.0, 18536.0, 18542.0, 18540.0, 18538.0, 18540.0, 18534.0, 18542.0, 18534.0, 18542.0, 18540.0, 18544.0, 18534.0, 18538.0, 18538.0, 18540.0, 18542.0, 18536.0, 18538.0, 18540.0, 18536.0, 18542.0, 18540.0, 18542.0, 18534.0, 18572.0, 18542.0, 18538.0, 18538.0, 18572.0, 18536.0, 18538.0, 18536.0, 18540.0, 18542.0, 18536.0, 18540.0, 18542.0, 18538.0, 18544.0, 18542.0, 18540.0, 18540.0, 18536.0, 18542.0, 18546.0, 18544.0, 18538.0, 18570.0, 18542.0, 18540.0, 18542.0, 18540.0, 18536.0, 18538.0, 18542.0, 18540.0, 18536.0, 18544.0, 18536.0, 18540.0, 18540.0, 18542.0, 18536.0, 18536.0, 18540.0, 18540.0, 18544.0, 18542.0, 18540.0, 18536.0, 18542.0, 18572.0, 18540.0, 18542.0, 18542.0, 18540.0, 18540.0, 18542.0, 18538.0, 18542.0, 18536.0, 18540.0, 18538.0, 18540.0, 18540.0, 18536.0, 18540.0, 18542.0, 18540.0, 18540.0, 18542.0, 18540.0, 18542.0, 18544.0, 18538.0, 18542.0, 18538.0, 18536.0, 18542.0, 18540.0, 18540.0, 18536.0, 18526.0, 18538.0, 18540.0]
    },
    "slices": {}
  }
}