{
  "AcquisitionMatrixPE": 104,
  "AcquisitionNumber": 1,
  "AcquisitionTime": "13:16:21.345000",
  "BandwidthPerPixelPhaseEncode": 17.17,
  "BaseResolution": 104,
  "BodyPartExamined": "BRAIN",
  "CoilString": "HC1-7;NC1_2",
  "ConsistencyInfo": "N4_VE11C_LATEST_20160120",
  "ConversionSoftware": "dcm2niix",
  "ConversionSoftwareVersion": "v1.0.20190902",
  "DerivedVendorReportedEchoSpacing": 0.000560011,
  "DeviceSerialNumber": "167006",
  "DwellTime": 2.1e-06,
  "EchoTime": 0.037,
  "EchoTrainLength": 104,
  "EffectiveEchoSpacing": 0.000560011,
  "FlipAngle": 52,
  "ImageComments": "Unaliased_MB4_PE3_LB",
  "ImageOrientationPatientDICOM": [0.999322, 0.00176395, 0.0367792, 0.00662788, 0.97392, -0.226795],
  "ImageType": [
    "ORIGINAL",
    "PRIMARY",
    "M",
    "MB",
    "ND",
    "MOSAIC"
],
  "ImagingFrequency": 123.259,
  "InPlanePhaseEncodingDirectionDICOM": "COL",
  "InstitutionAddress": "Chemin_Queen-Mary_4565_Montreal_District_CA_H3W_1W5",
  "InstitutionName": "IUGM",
  "InstitutionalDepartmentName": "Department",
  "MRAcquisitionType": "2D",
  "MagneticFieldStrength": 3,
  "Manufacturer": "Siemens",
  "ManufacturersModelName": "Prisma_fit",
  "Modality": "MR",
  "MultibandAccelerationFactor": 4,
  "PartialFourier": 1,
  "PatientPosition": "HFS",
  "PercentPhaseFOV": 100,
  "PhaseEncodingDirection": "j",
  "PhaseEncodingSteps": 104,
  "PhaseResolution": 1,
  "PixelBandwidth": 2290,
  "ProcedureStepDescription": "memory_things",
  "ProtocolName": "func_task-things_run-1",
  "PulseSequenceDetails": "%CustomerSeq%_cmrr_mbep2d_bold",
  "ReceiveCoilActiveElements": "HC1-7;NC1,2",
  "ReceiveCoilName": "HeadNeck_64",
  "ReconMatrixPE": 104,
  "RepetitionTime": 1.49,
  "SAR": 0.0519588,
  "ScanOptions": "FS",
  "ScanningSequence": "EP",
  "SequenceName": "epfid2d1_104",
  "SequenceVariant": "SK_SS",
  "SeriesDescription": "func_task-things_run-1",
  "SeriesNumber": 10,
  "ShimSetting": [638, -7229, -8771, 720, 37, -44, 113, -18],
  "SliceThickness": 2,
  "SliceTiming": [0, 0.7825, 0.0975, 0.8825, 0.195, 0.98, 0.2925, 1.0775, 0.3925, 1.175, 0.49, 1.2725, 0.5875, 1.3725, 0.685, 0, 0.7825, 0.0975, 0.8825, 0.195, 0.98, 0.2925, 1.0775, 0.3925, 1.175, 0.49, 1.2725, 0.5875, 1.3725, 0.685, 0, 0.7825, 0.0975, 0.8825, 0.195, 0.98, 0.2925, 1.0775, 0.3925, 1.175, 0.49, 1.2725, 0.5875, 1.3725, 0.685, 0, 0.7825, 0.0975, 0.8825, 0.195, 0.98, 0.2925, 1.0775, 0.3925, 1.175, 0.49, 1.2725, 0.5875, 1.3725, 0.685],
  "SoftwareVersions": "syngo_MR_E11",
  "SpacingBetweenSlices": 2,
  "StationName": "MRC35049",
  "TaskName": "things",
  "TotalReadoutTime": 0.0576811,
  "TxRefAmp": 238.16,
  "WipMemBlock": "56b60073-e198-4f9e-bebd-84ad59dbfa43||Sequence: R016 ve11c/master r/e634e98; Dec 19 2017 11:00:25 by eja",
  "dcmmeta_affine": [
    [-1.9986437559127808, 0.013255753554403782, 0.07244005799293518, 106.74669647216797],
    [-0.003527902066707611, 1.9478399753570557, -0.4537697732448578, -76.52201843261719],
    [0.07355834543704987, 0.4535898268222809, 1.946495771408081, -59.392513275146484],
    [0.0, 0.0, 0.0, 1.0]
],
  "dcmmeta_reorient_transform": [
    [0.0, -1.0, 0.0, 103.0],
    [1.0, 0.0, 0.0, 0.0],
    [0.0, 0.0, 1.0, 0.0],
    [0.0, 0.0, 0.0, 1.0]
],
  "dcmmeta_shape": [104, 104, 60, 190],
  "dcmmeta_slice_dim": 2,
  "dcmmeta_version": 0.6,
  "global": {
    "const": {
      "AcquisitionMatrix": [104, 0, 0, 104],
      "AngioFlag": "N",
      "BitsAllocated": 16,
      "BitsStored": 16,
      "BodyPartExamined": "BRAIN",
      "Columns": 832,
      "EchoNumbers": 1,
      "EchoTime": 37.0,
      "EchoTrainLength": 104,
      "FlipAngle": 52.0,
      "HighBit": 15,
      "ImageOrientationPatient": [0.99932186053523, 0.00176395099889, 0.03677917254762, 0.00662787659026, 0.97391998665536, -0.2267949092134],
      "ImagePositionPatient": [-840.44344930141, -834.40340311748, 125.65869425484],
      "ImageType": [
        "ORIGINAL",
        "PRIMARY",
        "M",
        "MB",
        "ND",
        "MOSAIC"
],
      "ImagedNucleus": "1H",
      "ImagingFrequency": 123.258912,
      "InPlanePhaseEncodingDirection": "COL",
      "MRAcquisitionType": "2D",
      "MagneticFieldStrength": 3.0,
      "Manufacturer": "SIEMENS",
      "ManufacturerModelName": "Prisma_fit",
      "Modality": "MR",
      "NumberOfAverages": 1.0,
      "NumberOfPhaseEncodingSteps": 104,
      "PercentPhaseFieldOfView": 100.0,
      "PercentSampling": 100.0,
      "PerformedProcedureStepStartTime": "125911.406000",
      "PhotometricInterpretation": "MONOCHROME2",
      "PixelBandwidth": 2290.0,
      "PixelRepresentation": 0,
      "PixelSpacing": [2.0, 2.0],
      "ProtocolName": "func_task-things_run-1",
      "RepetitionTime": 1490.0,
      "Rows": 832,
      "SAR": 0.05195881885346,
      "SamplesPerPixel": 1,
      "ScanOptions": "FS",
      "ScanningSequence": "EP",
      "SequenceName": "epfid2d1_104",
      "SequenceVariant": [
        "SK",
        "SS"
],
      "SeriesDescription": "func_task-things_run-1",
      "SeriesNumber": 10,
      "SeriesTime": "131742.150000",
      "SliceLocation": -36.575577831882,
      "SliceThickness": 2.0,
      "SmallestImagePixelValue": 0,
      "SoftwareVersions": "syngo MR E11",
      "SpacingBetweenSlices": 2.0000000819017,
      "SpecificCharacterSet": "ISO_IR 100",
      "StudyID": "1",
      "StudyTime": "125911.191000",
      "TransmitCoilName": "Body",
      "VariableFlipAngleFlag": "N",
      "WindowCenterWidthExplanation": "Algo1",
      "dBdt": 0.0},
    "slices": {}
  },
  "time": {
    "samples": {
      "AcquisitionNumber": [1, 2, 3, 4, 5, 6, 7, 8, 9, 10, 11, 12, 13, 14, 15, 16, 17, 18, 19, 20, 21, 22, 23, 24, 25, 26, 27, 28, 29, 30, 31, 32, 33, 34, 35, 36, 37, 38, 39, 40, 41, 42, 43, 44, 45, 46, 47, 48, 49, 50, 51, 52, 53, 54, 55, 56, 57, 58, 59, 60, 61, 62, 63, 64, 65, 66, 67, 68, 69, 70, 71, 72, 73, 74, 75, 76, 77, 78, 79, 80, 81, 82, 83, 84, 85, 86, 87, 88, 89, 90, 91, 92, 93, 94, 95, 96, 97, 98, 99, 100, 101, 102, 103, 104, 105, 106, 107, 108, 109, 110, 111, 112, 113, 114, 115, 116, 117, 118, 119, 120, 121, 122, 123, 124, 125, 126, 127, 128, 129, 130, 131, 132, 133, 134, 135, 136, 137, 138, 139, 140, 141, 142, 143, 144, 145, 146, 147, 148, 149, 150, 151, 152, 153, 154, 155, 156, 157, 158, 159, 160, 161, 162, 163, 164, 165, 166, 167, 168, 169, 170, 171, 172, 173, 174, 175, 176, 177, 178, 179, 180, 181, 182, 183, 184, 185, 186, 187, 188, 189, 190],
      "AcquisitionTime": ["131621.345000", "131622.835000", "131624.325000", "131625.815000", "131627.305000", "131628.795000", "131630.285000", "131631.775000", "131633.265000", "131634.755000", "131636.245000", "131637.735000", "131639.225000", "131640.715000", "131642.205000", "131643.695000", "131645.185000", "131646.675000", "131648.165000", "131649.655000", "131651.145000", "131652.635000", "131654.125000", "131655.615000", "131657.105000", "131658.595000", "131700.085000", "131701.575000", "131703.065000", "131704.555000", "131706.045000", "131707.535000", "131709.025000", "131710.515000", "131712.005000", "131713.495000", "131714.985000", "131716.475000", "131717.965000", "131719.455000", "131720.945000", "131722.435000", "131723.925000", "131725.415000", "131726.905000", "131728.395000", "131729.885000", "131731.375000", "131732.865000", "131734.355000", "131735.845000", "131737.335000", "131738.825000", "131740.315000", "131741.805000", "131743.295000", "131744.785000", "131746.275000", "131747.765000", "131749.255000", "131750.745000", "131752.235000", "131753.725000", "131755.215000", "131756.705000", "131758.195000", "131759.685000", "131801.175000", "131802.665000", "131804.155000", "131805.645000", "131807.135000", "131808.625000", "131810.115000", "131811.605000", "131813.095000", "131814.585000", "131816.075000", "131817.565000", "131819.055000", "131820.545000", "131822.035000", "131823.525000", "131825.015000", "131826.505000", "131827.995000", "131829.485000", "131830.975000", "131832.465000", "131833.955000", "131835.445000", "131836.935000", "131838.425000", "131839.915000", "131841.405000", "131842.895000", "131844.385000", "131845.875000", "131847.365000", "131848.855000", "131850.345000", "131851.835000", "131853.325000", "131854.815000", "131856.305000", "131857.795000", "131859.285000", "131900.775000", "131902.265000", "131903.755000", "131905.245000", "131906.735000", "131908.225000", "131909.715000", "131911.205000", "131912.695000", "131914.185000", "131915.675000", "131917.165000", "131918.655000", "131920.145000", "131921.635000", "131923.125000", "131924.615000", "131926.105000", "131927.595000", "131929.085000", "131930.575000", "131932.065000", "131933.555000", "131935.045000", "131936.535000", "131938.025000", "131939.515000", "131941.005000", "131942.495000", "131943.985000", "131945.475000", "131946.965000", "131948.455000", "131949.945000", "131951.435000", "131952.925000", "131954.415000", "131955.905000", "131957.395000", "131958.885000", "132000.375000", "132001.865000", "132003.355000", "132004.845000", "132006.335000", "132007.825000", "132009.315000", "132010.805000", "132012.295000", "132013.785000", "132015.275000", "132016.765000", "132018.255000", "132019.745000", "132021.235000", "132022.725000", "132024.215000", "132025.705000", "132027.195000", "132028.685000", "132030.175000", "132031.665000", "132033.155000", "132034.645000", "132036.135000", "132037.625000", "132039.115000", "132040.605000", "132042.095000", "132043.585000", "132045.075000", "132046.565000", "132048.055000", "132049.545000", "132051.035000", "132052.525000", "132054.015000", "132055.505000", "132056.995000", "132058.485000", "132059.975000", "132101.465000", "132102.955000"],
      "ContentTime": ["131742.153000", "131742.157000", "131742.161000", "131742.164000", "131742.167000", "131742.171000", "131742.174000", "131742.177000", "131742.181000", "131742.184000", "131742.187000", "131742.191000", "131742.194000", "131742.197000", "131742.201000", "131742.204000", "131742.207000", "131742.210000", "131742.214000", "131742.217000", "131742.220000", "131742.224000", "131742.283000", "131742.287000", "131742.290000", "131742.293000", "131742.297000", "131742.300000", "131802.111000", "131802.115000", "131802.122000", "131802.126000", "131802.129000", "131802.132000", "131802.135000", "131802.139000", "131802.142000", "131802.145000", "131802.155000", "131802.159000", "131802.249000", "131802.252000", "131802.255000", "131802.258000", "131802.262000", "131802.265000", "131802.268000", "131802.272000", "131822.111000", "131822.115000", "131822.118000", "131822.121000", "131822.125000", "131822.128000", "131822.131000", "131822.135000", "131822.138000", "131822.141000", "131822.144000", "131822.148000", "131822.151000", "131822.154000", "131822.158000", "131822.161000", "131822.165000", "131822.168000", "131822.181000", "131822.184000", "131842.110000", "131842.114000", "131842.117000", "131842.121000", "131842.125000", "131842.128000", "131842.131000", "131842.135000", "131842.138000", "131842.141000", "131842.145000", "131842.148000", "131842.151000", "131842.155000", "131842.158000", "131842.161000", "131842.165000", "131842.168000", "131842.172000", "131842.175000", "131922.110000", "131922.114000", "131922.117000", "131922.121000", "131922.138000", "131922.141000", "131922.145000", "131922.148000", "131922.152000", "131922.155000", "131922.158000", "131922.162000", "131922.165000", "131922.169000", "131922.172000", "131922.175000", "131922.179000", "131922.182000", "131922.186000", "131922.189000", "131922.192000", "131922.196000", "131922.199000", "131922.202000", "131922.206000", "131922.209000", "131922.212000", "131922.215000", "131922.219000", "131922.222000", "131922.225000", "131922.229000", "132002.111000", "132002.115000", "132002.118000", "132002.122000", "132002.125000", "132002.128000", "132002.132000", "132002.141000", "132002.145000", "132002.149000", "132002.152000", "132002.156000", "132002.159000", "132002.162000", "132002.166000", "132002.169000", "132002.172000", "132002.176000", "132002.179000", "132002.183000", "132002.186000", "132002.189000", "132002.193000", "132002.196000", "132002.199000", "132002.203000", "132002.206000", "132042.111000", "132042.115000", "132042.118000", "132042.122000", "132042.125000", "132042.128000", "132042.132000", "132042.135000", "132042.138000", "132042.142000", "132042.145000", "132042.148000", "132042.152000", "132042.155000", "132042.159000", "132042.162000", "132042.180000", "132042.183000", "132042.186000", "132042.190000", "132042.193000", "132042.196000", "132042.200000", "132042.203000", "132042.206000", "132042.210000", "132042.213000", "132105.376000", "132105.380000", "132105.383000", "132105.387000", "132105.400000", "132105.403000", "132105.407000", "132105.410000", "132105.414000", "132105.417000", "132105.420000", "132105.424000", "132105.427000", "132105.431000", "132105.434000", "132105.437000"],
      "InstanceCreationTime": ["131742.153000", "131742.157000", "131742.161000", "131742.164000", "131742.167000", "131742.171000", "131742.174000", "131742.177000", "131742.181000", "131742.184000", "131742.187000", "131742.191000", "131742.194000", "131742.197000", "131742.201000", "131742.204000", "131742.207000", "131742.210000", "131742.214000", "131742.217000", "131742.220000", "131742.224000", "131742.283000", "131742.287000", "131742.290000", "131742.293000", "131742.297000", "131742.300000", "131802.111000", "131802.115000", "131802.122000", "131802.126000", "131802.129000", "131802.132000", "131802.135000", "131802.139000", "131802.142000", "131802.145000", "131802.155000", "131802.159000", "131802.249000", "131802.252000", "131802.255000", "131802.258000", "131802.262000", "131802.265000", "131802.268000", "131802.272000", "131822.111000", "131822.115000", "131822.118000", "131822.121000", "131822.125000", "131822.128000", "131822.131000", "131822.135000", "131822.138000", "131822.141000", "131822.144000", "131822.148000", "131822.151000", "131822.154000", "131822.158000", "131822.161000", "131822.165000", "131822.168000", "131822.181000", "131822.184000", "131842.110000", "131842.114000", "131842.117000", "131842.121000", "131842.125000", "131842.128000", "131842.131000", "131842.135000", "131842.138000", "131842.141000", "131842.145000", "131842.148000", "131842.151000", "131842.155000", "131842.158000", "131842.161000", "131842.165000", "131842.168000", "131842.172000", "131842.175000", "131922.110000", "131922.114000", "131922.117000", "131922.121000", "131922.138000", "131922.141000", "131922.145000", "131922.148000", "131922.152000", "131922.155000", "131922.158000", "131922.162000", "131922.165000", "131922.169000", "131922.172000", "131922.175000", "131922.179000", "131922.182000", "131922.186000", "131922.189000", "131922.192000", "131922.196000", "131922.199000", "131922.202000", "131922.206000", "131922.209000", "131922.212000", "131922.215000", "131922.219000", "131922.222000", "131922.225000", "131922.229000", "132002.111000", "132002.115000", "132002.118000", "132002.122000", "132002.125000", "132002.128000", "132002.132000", "132002.141000", "132002.145000", "132002.149000", "132002.152000", "132002.156000", "132002.159000", "132002.162000", "132002.166000", "132002.169000", "132002.172000", "132002.176000", "132002.179000", "132002.183000", "132002.186000", "132002.189000", "132002.193000", "132002.196000", "132002.199000", "132002.203000", "132002.206000", "132042.111000", "132042.115000", "132042.118000", "132042.122000", "132042.125000", "132042.128000", "132042.132000", "132042.135000", "132042.138000", "132042.142000", "132042.145000", "132042.148000", "132042.152000", "132042.155000", "132042.159000", "132042.162000", "132042.180000", "132042.183000", "132042.186000", "132042.190000", "132042.193000", "132042.196000", "132042.200000", "132042.203000", "132042.206000", "132042.210000", "132042.213000", "132105.376000", "132105.380000", "132105.383000", "132105.387000", "132105.400000", "132105.403000", "132105.407000", "132105.410000", "132105.414000", "132105.417000", "132105.420000", "132105.424000", "132105.427000", "132105.431000", "132105.434000", "132105.437000"],
      "InstanceNumber": [1, 2, 3, 4, 5, 6, 7, 8, 9, 10, 11, 12, 13, 14, 15, 16, 17, 18, 19, 20, 21, 22, 23, 24, 25, 26, 27, 28, 29, 30, 31, 32, 33, 34, 35, 36, 37, 38, 39, 40, 41, 42, 43, 44, 45, 46, 47, 48, 49, 50, 51, 52, 53, 54, 55, 56, 57, 58, 59, 60, 61, 62, 63, 64, 65, 66, 67, 68, 69, 70, 71, 72, 73, 74, 75, 76, 77, 78, 79, 80, 81, 82, 83, 84, 85, 86, 87, 88, 89, 90, 91, 92, 93, 94, 95, 96, 97, 98, 99, 100, 101, 102, 103, 104, 105, 106, 107, 108, 109, 110, 111, 112, 113, 114, 115, 116, 117, 118, 119, 120, 121, 122, 123, 124, 125, 126, 127, 128, 129, 130, 131, 132, 133, 134, 135, 136, 137, 138, 139, 140, 141, 142, 143, 144, 145, 146, 147, 148, 149, 150, 151, 152, 153, 154, 155, 156, 157, 158, 159, 160, 161, 162, 163, 164, 165, 166, 167, 168, 169, 170, 171, 172, 173, 174, 175, 176, 177, 178, 179, 180, 181, 182, 183, 184, 185, 186, 187, 188, 189, 190],
      "LargestImagePixelValue": [40882, 40059, 39257, 39136, 38458, 38717, 38148, 38219, 38109, 38667, 38575, 38448, 38242, 37756, 37753, 38035, 38447, 38804, 38663, 38588, 38408, 38037, 38446, 38707, 38338, 38676, 38131, 37826, 38299, 38426, 38319, 38061, 38318, 38450, 38246, 38640, 38455, 38450, 38509, 38253, 38102, 38279, 38256, 38382, 38635, 38289, 37844, 38487, 38327, 38236, 38299, 38458, 38278, 38428, 37873, 37979, 38546, 38326, 38493, 38525, 38237, 38136, 38224, 37812, 38247, 38426, 38288, 38620, 37953, 38171, 38095, 38112, 38343, 38097, 37963, 38216, 38083, 38210, 38474, 38275, 38583, 38048, 38183, 38313, 37961, 38352, 37899, 38023, 37971, 37722, 37897, 38443, 38426, 37797, 38484, 37951, 38176, 37941, 37825, 38422, 38677, 37872, 38103, 37967, 37808, 37806, 38228, 38103, 38217, 37948, 38006, 37230, 37555, 37722, 38444, 37918, 38104, 38427, 38142, 38288, 38141, 38227, 37907, 37816, 37759, 37804, 37799, 37760, 37946, 37586, 37413, 37756, 38048, 38164, 37915, 37752, 37257, 37946, 37490, 37636, 38023, 37856, 37552, 37738, 37365, 37097, 37524, 37679, 37888, 37581, 37697, 37475, 37227, 37089, 37552, 37605, 37811, 37618, 37413, 37436, 37429, 37827, 37839, 37753, 37955, 37720, 37740, 37613, 37253, 37807, 37729, 37798, 37306, 37296, 37254, 37466, 37318, 37666, 37780, 37449, 37586, 36923, 37535, 37269, 37918, 37683, 37755, 37605, 37129, 37474],
      "WindowCenter": [10209.0, 10188.0, 10163.0, 10159.0, 10162.0, 10177.0, 10164.0, 10176.0, 10168.0, 10177.0, 10183.0, 10184.0, 10187.0, 10182.0, 10182.0, 10162.0, 10160.0, 10159.0, 10169.0, 10161.0, 10152.0, 10152.0, 10152.0, 10167.0, 10163.0, 10177.0, 10164.0, 10170.0, 10161.0, 10161.0, 10164.0, 10146.0, 10154.0, 10152.0, 10165.0, 10173.0, 10169.0, 10169.0, 10156.0, 10153.0, 10151.0, 10166.0, 10161.0, 10153.0, 10150.0, 10151.0, 10155.0, 10170.0, 10171.0, 10171.0, 10164.0, 10154.0, 10154.0, 10146.0, 10147.0, 10156.0, 10153.0, 10145.0, 10135.0, 10151.0, 10170.0, 10172.0, 10148.0, 10124.0, 10119.0, 10119.0, 10135.0, 10149.0, 10155.0, 10155.0, 10149.0, 10132.0, 10138.0, 10136.0, 10138.0, 10144.0, 10145.0, 10154.0, 10153.0, 10144.0, 10136.0, 10136.0, 10128.0, 10143.0, 10143.0, 10160.0, 10158.0, 10158.0, 10158.0, 10149.0, 10148.0, 10147.0, 10153.0, 10149.0, 10155.0, 10155.0, 10138.0, 10138.0, 10129.0, 10135.0, 10136.0, 10146.0, 10148.0, 10148.0, 10141.0, 10132.0, 10139.0, 10151.0, 10164.0, 10190.0, 10193.0, 10163.0, 10136.0, 10116.0, 10111.0, 10097.0, 10088.0, 10101.0, 10117.0, 10134.0, 10140.0, 10139.0, 10141.0, 10125.0, 10125.0, 10108.0, 10114.0, 10114.0, 10132.0, 10141.0, 10127.0, 10132.0, 10137.0, 10149.0, 10159.0, 10166.0, 10146.0, 10140.0, 10133.0, 10139.0, 10146.0, 10141.0, 10135.0, 10151.0, 10145.0, 10143.0, 10134.0, 10141.0, 10150.0, 10160.0, 10143.0, 10134.0, 10128.0, 10118.0, 10132.0, 10156.0, 10169.0, 10154.0, 10130.0, 10117.0, 10106.0, 10116.0, 10131.0, 10135.0, 10140.0, 10139.0, 10149.0, 10151.0, 10152.0, 10149.0, 10143.0, 10150.0, 10160.0, 10164.0, 10157.0, 10136.0, 10110.0, 10108.0, 10106.0, 10133.0, 10144.0, 10138.0, 10119.0, 10105.0, 10103.0, 10105.0, 10113.0, 10134.0, 10128.0, 10135.0],
      "WindowWidth": [21762.0, 21694.0, 21627.0, 21610.0, 21615.0, 21644.0, 21615.0, 21640.0, 21623.0, 21641.0, 21655.0, 21657.0, 21666.0, 21660.0, 21659.0, 21606.0, 21600.0, 21598.0, 21622.0, 21604.0, 21585.0, 21583.0, 21584.0, 21615.0, 21608.0, 21640.0, 21613.0, 21623.0, 21602.0, 21601.0, 21611.0, 21571.0, 21587.0, 21582.0, 21609.0, 21626.0, 21621.0, 21621.0, 21592.0, 21585.0, 21577.0, 21611.0, 21602.0, 21583.0, 21573.0, 21578.0, 21591.0, 21623.0, 21626.0, 21625.0, 21611.0, 21587.0, 21588.0, 21569.0, 21572.0, 21594.0, 21582.0, 21565.0, 21541.0, 21575.0, 21624.0, 21628.0, 21571.0, 21518.0, 21504.0, 21504.0, 21542.0, 21572.0, 21590.0, 21589.0, 21578.0, 21537.0, 21549.0, 21543.0, 21548.0, 21562.0, 21566.0, 21586.0, 21579.0, 21561.0, 21542.0, 21542.0, 21524.0, 21560.0, 21560.0, 21597.0, 21596.0, 21597.0, 21597.0, 21576.0, 21573.0, 21570.0, 21581.0, 21578.0, 21587.0, 21586.0, 21547.0, 21548.0, 21528.0, 21541.0, 21544.0, 21567.0, 21573.0, 21569.0, 21555.0, 21534.0, 21552.0, 21574.0, 21610.0, 21669.0, 21676.0, 21607.0, 21541.0, 21496.0, 21483.0, 21453.0, 21433.0, 21461.0, 21496.0, 21537.0, 21556.0, 21551.0, 21556.0, 21520.0, 21518.0, 21480.0, 21491.0, 21494.0, 21536.0, 21557.0, 21528.0, 21536.0, 21544.0, 21576.0, 21598.0, 21612.0, 21570.0, 21550.0, 21538.0, 21550.0, 21565.0, 21555.0, 21544.0, 21578.0, 21566.0, 21560.0, 21540.0, 21557.0, 21575.0, 21599.0, 21561.0, 21540.0, 21528.0, 21504.0, 21535.0, 21589.0, 21624.0, 21588.0, 21531.0, 21500.0, 21473.0, 21499.0, 21530.0, 21542.0, 21550.0, 21548.0, 21573.0, 21578.0, 21582.0, 21571.0, 21559.0, 21575.0, 21601.0, 21611.0, 21595.0, 21544.0, 21483.0, 21478.0, 21472.0, 21538.0, 21562.0, 21548.0, 21504.0, 21475.0, 21464.0, 21469.0, 21488.0, 21538.0, 21526.0, 21540.0]
    },
    "slices": {}
  }
}