{
  "AcquisitionMatrixPE": 104,
  "AcquisitionNumber": 1,
  "AcquisitionTime": "13:22:33.810000",
  "BandwidthPerPixelPhaseEncode": 17.17,
  "BaseResolution": 104,
  "BodyPartExamined": "BRAIN",
  "CoilString": "HC1-7;NC1_2",
  "ConsistencyInfo": "N4_VE11C_LATEST_20160120",
  "ConversionSoftware": "dcm2niix",
  "ConversionSoftwareVersion": "v1.0.20190902",
  "DerivedVendorReportedEchoSpacing": 0.000560011,
  "DeviceSerialNumber": "167006",
  "DwellTime": 2.1e-06,
  "EchoTime": 0.037,
  "EchoTrainLength": 104,
  "EffectiveEchoSpacing": 0.000560011,
  "FlipAngle": 52,
  "ImageComments": "Unaliased_MB4_PE3_LB",
  "ImageOrientationPatientDICOM": [0.999322, 0.00176395, 0.0367792, 0.00662788, 0.97392, -0.226795],
  "ImageType": [
    "ORIGINAL",
    "PRIMARY",
    "P",
    "MB",
    "ND",
    "MOSAIC"
],
  "ImagingFrequency": 123.259,
  "InPlanePhaseEncodingDirectionDICOM": "COL",
  "InstitutionAddress": "Chemin_Queen-Mary_4565_Montreal_District_CA_H3W_1W5",
  "InstitutionName": "IUGM",
  "InstitutionalDepartmentName": "Department",
  "MRAcquisitionType": "2D",
  "MagneticFieldStrength": 3,
  "Manufacturer": "Siemens",
  "ManufacturersModelName": "Prisma_fit",
  "Modality": "MR",
  "MultibandAccelerationFactor": 4,
  "PartialFourier": 1,
  "PatientPosition": "HFS",
  "PercentPhaseFOV": 100,
  "PhaseEncodingDirection": "j",
  "PhaseEncodingSteps": 104,
  "PhaseResolution": 1,
  "PixelBandwidth": 2290,
  "ProcedureStepDescription": "memory_things",
  "ProtocolName": "func_task-things_run-2",
  "PulseSequenceDetails": "%CustomerSeq%_cmrr_mbep2d_bold",
  "ReceiveCoilActiveElements": "HC1-7;NC1,2",
  "ReceiveCoilName": "HeadNeck_64",
  "ReconMatrixPE": 104,
  "RepetitionTime": 1.49,
  "SAR": 0.0519588,
  "ScanOptions": "FS",
  "ScanningSequence": "EP",
  "SequenceName": "epfid2d1_104",
  "SequenceVariant": "SK_SS",
  "SeriesDescription": "func_task-things_run-2",
  "SeriesNumber": 14,
  "ShimSetting": [638, -7229, -8771, 720, 37, -44, 113, -18],
  "SliceThickness": 2,
  "SliceTiming": [0, 0.785, 0.1, 0.8825, 0.1975, 0.98, 0.295, 1.08, 0.3925, 1.1775, 0.49, 1.275, 0.59, 1.3725, 0.6875, 0, 0.785, 0.1, 0.8825, 0.1975, 0.98, 0.295, 1.08, 0.3925, 1.1775, 0.49, 1.275, 0.59, 1.3725, 0.6875, 0, 0.785, 0.1, 0.8825, 0.1975, 0.98, 0.295, 1.08, 0.3925, 1.1775, 0.49, 1.275, 0.59, 1.3725, 0.6875, 0, 0.785, 0.1, 0.8825, 0.1975, 0.98, 0.295, 1.08, 0.3925, 1.1775, 0.49, 1.275, 0.59, 1.3725, 0.6875],
  "SoftwareVersions": "syngo_MR_E11",
  "SpacingBetweenSlices": 2,
  "StationName": "MRC35049",
  "TaskName": "things",
  "TotalReadoutTime": 0.0576811,
  "TxRefAmp": 238.16,
  "WipMemBlock": "aa7d64f0-8dab-4aed-bfb5-3c0ff3ce5c73||Sequence: R016 ve11c/master r/e634e98; Dec 19 2017 11:00:25 by eja",
  "dcmmeta_affine": [
    [-1.9986437559127808, 0.013255753554403782, 0.07244005799293518, 106.74669647216797],
    [-0.003527902066707611, 1.9478399753570557, -0.4537697732448578, -76.52201843261719],
    [0.07355834543704987, 0.4535898268222809, 1.946495771408081, -59.392513275146484],
    [0.0, 0.0, 0.0, 1.0]
],
  "dcmmeta_reorient_transform": [
    [0.0, -1.0, 0.0, 103.0],
    [1.0, 0.0, 0.0, 0.0],
    [0.0, 0.0, 1.0, 0.0],
    [0.0, 0.0, 0.0, 1.0]
],
  "dcmmeta_shape": [104, 104, 60, 190],
  "dcmmeta_slice_dim": 2,
  "dcmmeta_version": 0.6,
  "global": {
    "const": {
      "AcquisitionMatrix": [104, 0, 0, 104],
      "AngioFlag": "N",
      "BitsAllocated": 16,
      "BitsStored": 16,
      "BodyPartExamined": "BRAIN",
      "Columns": 832,
      "EchoNumbers": 1,
      "EchoTime": 37.0,
      "EchoTrainLength": 104,
      "FlipAngle": 52.0,
      "HighBit": 15,
      "ImageOrientationPatient": [0.99932186053523, 0.00176395099889, 0.03677917254762, 0.00662787659026, 0.97391998665536, -0.2267949092134],
      "ImagePositionPatient": [-840.44344930141, -834.40340311748, 125.65869425484],
      "ImageType": [
        "ORIGINAL",
        "PRIMARY",
        "P",
        "MB",
        "ND",
        "MOSAIC"
],
      "ImagedNucleus": "1H",
      "ImagingFrequency": 123.258917,
      "InPlanePhaseEncodingDirection": "COL",
      "LargestImagePixelValue": 4095,
      "MRAcquisitionType": "2D",
      "MagneticFieldStrength": 3.0,
      "Manufacturer": "SIEMENS",
      "ManufacturerModelName": "Prisma_fit",
      "Modality": "MR",
      "NumberOfAverages": 1.0,
      "NumberOfPhaseEncodingSteps": 104,
      "PercentPhaseFieldOfView": 100.0,
      "PercentSampling": 100.0,
      "PerformedProcedureStepStartTime": "125911.406000",
      "PhotometricInterpretation": "MONOCHROME2",
      "PixelBandwidth": 2290.0,
      "PixelRepresentation": 0,
      "PixelSpacing": [2.0, 2.0],
      "ProtocolName": "func_task-things_run-2",
      "RepetitionTime": 1490.0,
      "RescaleIntercept": -4096.0,
      "RescaleSlope": 2.0,
      "RescaleType": "US",
      "Rows": 832,
      "SAR": 0.05195881885346,
      "SamplesPerPixel": 1,
      "ScanOptions": "FS",
      "ScanningSequence": "EP",
      "SequenceName": "epfid2d1_104",
      "SequenceVariant": [
        "SK",
        "SS"
],
      "SeriesDescription": "func_task-things_run-2",
      "SeriesNumber": 14,
      "SeriesTime": "132350.203000",
      "SliceLocation": -36.575577831882,
      "SliceThickness": 2.0,
      "SmallestImagePixelValue": 0,
      "SoftwareVersions": "syngo MR E11",
      "SpacingBetweenSlices": 2.0000000819017,
      "SpecificCharacterSet": "ISO_IR 100",
      "StudyID": "1",
      "StudyTime": "125911.191000",
      "TransmitCoilName": "Body",
      "VariableFlipAngleFlag": "N",
      "WindowCenterWidthExplanation": "Algo1",
      "dBdt": 0.0},
    "slices": {}
  },
  "time": {
    "samples": {
      "AcquisitionNumber": [1, 2, 3, 4, 5, 6, 7, 8, 9, 10, 11, 12, 13, 14, 15, 16, 17, 18, 19, 20, 21, 22, 23, 24, 25, 26, 27, 28, 29, 30, 31, 32, 33, 34, 35, 36, 37, 38, 39, 40, 41, 42, 43, 44, 45, 46, 47, 48, 49, 50, 51, 52, 53, 54, 55, 56, 57, 58, 59, 60, 61, 62, 63, 64, 65, 66, 67, 68, 69, 70, 71, 72, 73, 74, 75, 76, 77, 78, 79, 80, 81, 82, 83, 84, 85, 86, 87, 88, 89, 90, 91, 92, 93, 94, 95, 96, 97, 98, 99, 100, 101, 102, 103, 104, 105, 106, 107, 108, 109, 110, 111, 112, 113, 114, 115, 116, 117, 118, 119, 120, 121, 122, 123, 124, 125, 126, 127, 128, 129, 130, 131, 132, 133, 134, 135, 136, 137, 138, 139, 140, 141, 142, 143, 144, 145, 146, 147, 148, 149, 150, 151, 152, 153, 154, 155, 156, 157, 158, 159, 160, 161, 162, 163, 164, 165, 166, 167, 168, 169, 170, 171, 172, 173, 174, 175, 176, 177, 178, 179, 180, 181, 182, 183, 184, 185, 186, 187, 188, 189, 190],
      "AcquisitionTime": ["132233.810000", "132235.300000", "132236.790000", "132238.280000", "132239.770000", "132241.260000", "132242.750000", "132244.240000", "132245.730000", "132247.220000", "132248.710000", "132250.200000", "132251.690000", "132253.180000", "132254.670000", "132256.160000", "132257.650000", "132259.140000", "132300.630000", "132302.120000", "132303.610000", "132305.100000", "132306.590000", "132308.080000", "132309.570000", "132311.060000", "132312.550000", "132314.040000", "132315.530000", "132317.020000", "132318.510000", "132320.000000", "132321.490000", "132322.980000", "132324.470000", "132325.960000", "132327.450000", "132328.940000", "132330.430000", "132331.920000", "132333.410000", "132334.900000", "132336.390000", "132337.880000", "132339.370000", "132340.860000", "132342.350000", "132343.840000", "132345.330000", "132346.820000", "132348.310000", "132349.800000", "132351.290000", "132352.780000", "132354.270000", "132355.760000", "132357.250000", "132358.740000", "132400.230000", "132401.720000", "132403.210000", "132404.700000", "132406.190000", "132407.680000", "132409.170000", "132410.660000", "132412.150000", "132413.640000", "132415.130000", "132416.620000", "132418.110000", "132419.600000", "132421.090000", "132422.580000", "132424.070000", "132425.560000", "132427.050000", "132428.540000", "132430.030000", "132431.520000", "132433.010000", "132434.500000", "132435.990000", "132437.480000", "132438.970000", "132440.460000", "132441.950000", "132443.440000", "132444.930000", "132446.420000", "132447.910000", "132449.400000", "132450.890000", "132452.380000", "132453.870000", "132455.360000", "132456.850000", "132458.340000", "132459.830000", "132501.320000", "132502.810000", "132504.300000", "132505.790000", "132507.280000", "132508.770000", "132510.260000", "132511.750000", "132513.240000", "132514.730000", "132516.220000", "132517.710000", "132519.200000", "132520.690000", "132522.180000", "132523.670000", "132525.160000", "132526.650000", "132528.140000", "132529.630000", "132531.120000", "132532.610000", "132534.100000", "132535.590000", "132537.080000", "132538.570000", "132540.060000", "132541.550000", "132543.040000", "132544.530000", "132546.020000", "132547.510000", "132549.000000", "132550.490000", "132551.980000", "132553.470000", "132554.960000", "132556.450000", "132557.940000", "132559.430000", "132600.920000", "132602.410000", "132603.900000", "132605.390000", "132606.880000", "132608.370000", "132609.860000", "132611.350000", "132612.840000", "132614.330000", "132615.820000", "132617.310000", "132618.800000", "132620.290000", "132621.780000", "132623.270000", "132624.760000", "132626.250000", "132627.740000", "132629.230000", "132630.720000", "132632.210000", "132633.700000", "132635.190000", "132636.680000", "132638.170000", "132639.660000", "132641.150000", "132642.640000", "132644.130000", "132645.620000", "132647.110000", "132648.600000", "132650.090000", "132651.580000", "132653.070000", "132654.560000", "132656.050000", "132657.540000", "132659.030000", "132700.520000", "132702.010000", "132703.500000", "132704.990000", "132706.480000", "132707.970000", "132709.460000", "132710.950000", "132712.440000", "132713.930000", "132715.420000"],
      "ContentTime": ["132350.205000", "132350.208000", "132350.211000", "132350.213000", "132350.216000", "132350.218000", "132350.221000", "132350.224000", "132350.226000", "132350.229000", "132350.231000", "132350.234000", "132350.236000", "132350.239000", "132350.241000", "132350.251000", "132350.253000", "132350.256000", "132350.258000", "132350.261000", "132410.192000", "132410.194000", "132410.197000", "132410.199000", "132410.202000", "132410.205000", "132410.207000", "132410.210000", "132410.212000", "132410.215000", "132410.217000", "132410.220000", "132410.222000", "132410.225000", "132410.227000", "132410.230000", "132410.234000", "132410.237000", "132410.239000", "132410.247000", "132410.249000", "132430.196000", "132430.199000", "132430.201000", "132430.204000", "132430.207000", "132430.209000", "132430.212000", "132430.214000", "132430.217000", "132430.219000", "132430.221000", "132430.224000", "132430.226000", "132430.229000", "132430.231000", "132430.234000", "132430.236000", "132430.239000", "132430.242000", "132430.245000", "132450.230000", "132450.232000", "132450.235000", "132450.238000", "132450.240000", "132450.243000", "132450.245000", "132450.248000", "132450.250000", "132450.253000", "132450.255000", "132450.258000", "132450.260000", "132450.263000", "132450.265000", "132450.268000", "132450.270000", "132450.275000", "132450.278000", "132450.280000", "132450.283000", "132510.229000", "132510.231000", "132510.244000", "132510.246000", "132510.249000", "132510.251000", "132510.254000", "132510.256000", "132510.258000", "132510.261000", "132510.263000", "132510.266000", "132510.268000", "132510.271000", "132510.273000", "132510.276000", "132510.278000", "132510.281000", "132510.284000", "132510.286000", "132550.237000", "132550.239000", "132550.242000", "132550.244000", "132550.247000", "132550.249000", "132550.252000", "132550.255000", "132550.257000", "132550.260000", "132550.262000", "132550.265000", "132550.267000", "132550.270000", "132550.272000", "132550.275000", "132550.277000", "132550.280000", "132550.282000", "132550.285000", "132550.287000", "132550.290000", "132550.292000", "132550.295000", "132550.297000", "132550.300000", "132550.303000", "132550.305000", "132550.308000", "132630.222000", "132630.225000", "132630.227000", "132630.230000", "132630.233000", "132630.235000", "132630.238000", "132630.240000", "132630.243000", "132630.245000", "132630.248000", "132630.250000", "132630.253000", "132630.255000", "132630.258000", "132630.260000", "132630.262000", "132630.265000", "132630.267000", "132630.270000", "132630.272000", "132630.275000", "132630.277000", "132630.280000", "132630.282000", "132630.285000", "132630.287000", "132710.241000", "132710.244000", "132710.246000", "132710.249000", "132710.251000", "132710.254000", "132710.256000", "132710.259000", "132710.261000", "132710.264000", "132710.266000", "132710.269000", "132710.271000", "132710.274000", "132710.277000", "132710.279000", "132710.281000", "132710.284000", "132710.286000", "132710.289000", "132710.292000", "132710.294000", "132710.297000", "132710.299000", "132710.302000", "132710.304000", "132710.307000", "132717.379000", "132717.382000", "132717.385000", "132717.390000", "132717.393000"],
      "InstanceCreationTime": ["132350.205000", "132350.208000", "132350.211000", "132350.213000", "132350.216000", "132350.218000", "132350.221000", "132350.224000", "132350.226000", "132350.229000", "132350.231000", "132350.234000", "132350.236000", "132350.239000", "132350.241000", "132350.251000", "132350.253000", "132350.256000", "132350.258000", "132350.261000", "132410.192000", "132410.194000", "132410.197000", "132410.199000", "132410.202000", "132410.205000", "132410.207000", "132410.210000", "132410.212000", "132410.215000", "132410.217000", "132410.220000", "132410.222000", "132410.225000", "132410.227000", "132410.230000", "132410.234000", "132410.237000", "132410.239000", "132410.247000", "132410.249000", "132430.196000", "132430.199000", "132430.201000", "132430.204000", "132430.207000", "132430.209000", "132430.212000", "132430.214000", "132430.217000", "132430.219000", "132430.221000", "132430.224000", "132430.226000", "132430.229000", "132430.231000", "132430.234000", "132430.236000", "132430.239000", "132430.242000", "132430.245000", "132450.230000", "132450.232000", "132450.235000", "132450.238000", "132450.240000", "132450.243000", "132450.245000", "132450.248000", "132450.250000", "132450.253000", "132450.255000", "132450.258000", "132450.260000", "132450.263000", "132450.265000", "132450.268000", "132450.270000", "132450.275000", "132450.278000", "132450.280000", "132450.283000", "132510.229000", "132510.231000", "132510.244000", "132510.246000", "132510.249000", "132510.251000", "132510.254000", "132510.256000", "132510.258000", "132510.261000", "132510.263000", "132510.266000", "132510.268000", "132510.271000", "132510.273000", "132510.276000", "132510.278000", "132510.281000", "132510.284000", "132510.286000", "132550.237000", "132550.239000", "132550.242000", "132550.244000", "132550.247000", "132550.249000", "132550.252000", "132550.255000", "132550.257000", "132550.260000", "132550.262000", "132550.265000", "132550.267000", "132550.270000", "132550.272000", "132550.275000", "132550.277000", "132550.280000", "132550.282000", "132550.285000", "132550.287000", "132550.290000", "132550.292000", "132550.295000", "132550.297000", "132550.300000", "132550.303000", "132550.305000", "132550.308000", "132630.222000", "132630.225000", "132630.227000", "132630.230000", "132630.233000", "132630.235000", "132630.238000", "132630.240000", "132630.243000", "132630.245000", "132630.248000", "132630.250000", "132630.253000", "132630.255000", "132630.258000", "132630.260000", "132630.262000", "132630.265000", "132630.267000", "132630.270000", "132630.272000", "132630.275000", "132630.277000", "132630.280000", "132630.282000", "132630.285000", "132630.287000", "132710.241000", "132710.244000", "132710.246000", "132710.249000", "132710.251000", "132710.254000", "132710.256000", "132710.259000", "132710.261000", "132710.264000", "132710.266000", "132710.269000", "132710.271000", "132710.274000", "132710.277000", "132710.279000", "132710.281000", "132710.284000", "132710.286000", "132710.289000", "132710.292000", "132710.294000", "132710.297000", "132710.299000", "132710.302000", "132710.304000", "132710.307000", "132717.379000", "132717.382000", "132717.385000", "132717.390000", "132717.393000"],
      "InstanceNumber": [1, 2, 3, 4, 5, 6, 7, 8, 9, 10, 11, 12, 13, 14, 15, 16, 17, 18, 19, 20, 21, 22, 23, 24, 25, 26, 27, 28, 29, 30, 31, 32, 33, 34, 35, 36, 37, 38, 39, 40, 41, 42, 43, 44, 45, 46, 47, 48, 49, 50, 51, 52, 53, 54, 55, 56, 57, 58, 59, 60, 61, 62, 63, 64, 65, 66, 67, 68, 69, 70, 71, 72, 73, 74, 75, 76, 77, 78, 79, 80, 81, 82, 83, 84, 85, 86, 87, 88, 89, 90, 91, 92, 93, 94, 95, 96, 97, 98, 99, 100, 101, 102, 103, 104, 105, 106, 107, 108, 109, 110, 111, 112, 113, 114, 115, 116, 117, 118, 119, 120, 121, 122, 123, 124, 125, 126, 127, 128, 129, 130, 131, 132, 133, 134, 135, 136, 137, 138, 139, 140, 141, 142, 143, 144, 145, 146, 147, 148, 149, 150, 151, 152, 153, 154, 155, 156, 157, 158, 159, 160, 161, 162, 163, 164, 165, 166, 167, 168, 169, 170, 171, 172, 173, 174, 175, 176, 177, 178, 179, 180, 181, 182, 183, 184, 185, 186, 187, 188, 189, 190],
      "WindowCenter": [4748.0, 4750.0, 4748.0, 4750.0, 4746.0, 4748.0, 4746.0, 4752.0, 4748.0, 4748.0, 4748.0, 4746.0, 4748.0, 4748.0, 4748.0, 4750.0, 4750.0, 4750.0, 4752.0, 4750.0, 4752.0, 4752.0, 4750.0, 4754.0, 4752.0, 4748.0, 4750.0, 4750.0, 4748.0, 4750.0, 4748.0, 4752.0, 4750.0, 4754.0, 4752.0, 4750.0, 4752.0, 4752.0, 4752.0, 4750.0, 4748.0, 4750.0, 4750.0, 4750.0, 4748.0, 4750.0, 4748.0, 4748.0, 4752.0, 4750.0, 4750.0, 4748.0, 4748.0, 4750.0, 4752.0, 4750.0, 4748.0, 4750.0, 4752.0, 4750.0, 4750.0, 4752.0, 4750.0, 4752.0, 4746.0, 4748.0, 4752.0, 4746.0, 4750.0, 4754.0, 4748.0, 4750.0, 4750.0, 4750.0, 4754.0, 4752.0, 4754.0, 4750.0, 4754.0, 4752.0, 4750.0, 4748.0, 4752.0, 4752.0, 4752.0, 4754.0, 4748.0, 4752.0, 4748.0, 4752.0, 4752.0, 4748.0, 4750.0, 4748.0, 4750.0, 4748.0, 4750.0, 4752.0, 4750.0, 4750.0, 4752.0, 4750.0, 4752.0, 4752.0, 4750.0, 4752.0, 4748.0, 4750.0, 4750.0, 4752.0, 4750.0, 4754.0, 4752.0, 4754.0, 4748.0, 4750.0, 4750.0, 4752.0, 4752.0, 4772.0, 4748.0, 4750.0, 4754.0, 4750.0, 4748.0, 4748.0, 4752.0, 4752.0, 4752.0, 4750.0, 4750.0, 4754.0, 4752.0, 4752.0, 4752.0, 4748.0, 4750.0, 4754.0, 4750.0, 4752.0, 4750.0, 4750.0, 4750.0, 4752.0, 4748.0, 4752.0, 4750.0, 4750.0, 4750.0, 4750.0, 4752.0, 4750.0, 4752.0, 4748.0, 4748.0, 4748.0, 4754.0, 4752.0, 4752.0, 4754.0, 4752.0, 4752.0, 4750.0, 4754.0, 4750.0, 4748.0, 4750.0, 4752.0, 4752.0, 4750.0, 4752.0, 4750.0, 4750.0, 4750.0, 4754.0, 4752.0, 4750.0, 4752.0, 4750.0, 4750.0, 4750.0, 4754.0, 4750.0, 4754.0, 4752.0, 4752.0, 4752.0, 4750.0, 4748.0, 4752.0],
      "WindowWidth": [18536.0, 18536.0, 18542.0, 18536.0, 18536.0, 18536.0, 18538.0, 18538.0, 18540.0, 18540.0, 18536.0, 18538.0, 18540.0, 18534.0, 18538.0, 18542.0, 18532.0, 18538.0, 18544.0, 18540.0, 18540.0, 18544.0, 18540.0, 18540.0, 18542.0, 18538.0, 18544.0, 18540.0, 18538.0, 18538.0, 18536.0, 18536.0, 18538.0, 18540.0, 18546.0, 18542.0, 18540.0, 18542.0, 18540.0, 18542.0, 18534.0, 18538.0, 18538.0, 18538.0, 18536.0, 18536.0, 18538.0, 18538.0, 18542.0, 18540.0, 18536.0, 18536.0, 18536.0, 18540.0, 18546.0, 18536.0, 18540.0, 18542.0, 18544.0, 18538.0, 18536.0, 18540.0, 18536.0, 18542.0, 18534.0, 18542.0, 18542.0, 18538.0, 18538.0, 18542.0, 18534.0, 18538.0, 18538.0, 18538.0, 18544.0, 18542.0, 18542.0, 18542.0, 18540.0, 18536.0, 18540.0, 18542.0, 18544.0, 18540.0, 18540.0, 18544.0, 18540.0, 18540.0, 18538.0, 18542.0, 18538.0, 18544.0, 18544.0, 18538.0, 18538.0, 18536.0, 18540.0, 18540.0, 18542.0, 18540.0, 18542.0, 18542.0, 18544.0, 18538.0, 18542.0, 18544.0, 18538.0, 18540.0, 18544.0, 18538.0, 18536.0, 18536.0, 18540.0, 18540.0, 18536.0, 18536.0, 18538.0, 18538.0, 18540.0, 18574.0, 18534.0, 18536.0, 18542.0, 18536.0, 18534.0, 18538.0, 18538.0, 18540.0, 18540.0, 18542.0, 18538.0, 18542.0, 18542.0, 18538.0, 18540.0, 18536.0, 18538.0, 18540.0, 18538.0, 18540.0, 18538.0, 18538.0, 18542.0, 18542.0, 18538.0, 18540.0, 18542.0, 18536.0, 18540.0, 18538.0, 18534.0, 18542.0, 18544.0, 18536.0, 18536.0, 18542.0, 18540.0, 18542.0, 18542.0, 18536.0, 18540.0, 18540.0, 18540.0, 18542.0, 18538.0, 18538.0, 18538.0, 18540.0, 18544.0, 18538.0, 18536.0, 18538.0, 18534.0, 18538.0, 18546.0, 18540.0, 18536.0, 18538.0, 18540.0, 18538.0, 18542.0, 18538.0, 18538.0, 18540.0, 18540.0, 18538.0, 18542.0, 18540.0, 18536.0, 18548.0]
    },
    "slices": {}
  }
}