{
  "AcquisitionMatrixPE": 104,
  "AcquisitionNumber": 1,
  "AcquisitionTime": "13:22:33.810000",
  "BandwidthPerPixelPhaseEncode": 17.17,
  "BaseResolution": 104,
  "BodyPartExamined": "BRAIN",
  "CoilString": "HC1-7;NC1_2",
  "ConsistencyInfo": "N4_VE11C_LATEST_20160120",
  "ConversionSoftware": "dcm2niix",
  "ConversionSoftwareVersion": "v1.0.20190902",
  "DerivedVendorReportedEchoSpacing": 0.000560011,
  "DeviceSerialNumber": "167006",
  "DwellTime": 2.1e-06,
  "EchoTime": 0.037,
  "EchoTrainLength": 104,
  "EffectiveEchoSpacing": 0.000560011,
  "FlipAngle": 52,
  "ImageComments": "Unaliased_MB4_PE3_LB",
  "ImageOrientationPatientDICOM": [0.999322, 0.00176395, 0.0367792, 0.00662788, 0.97392, -0.226795],
  "ImageType": [
    "ORIGINAL",
    "PRIMARY",
    "M",
    "MB",
    "ND",
    "MOSAIC"
],
  "ImagingFrequency": 123.259,
  "InPlanePhaseEncodingDirectionDICOM": "COL",
  "InstitutionAddress": "Chemin_Queen-Mary_4565_Montreal_District_CA_H3W_1W5",
  "InstitutionName": "IUGM",
  "InstitutionalDepartmentName": "Department",
  "MRAcquisitionType": "2D",
  "MagneticFieldStrength": 3,
  "Manufacturer": "Siemens",
  "ManufacturersModelName": "Prisma_fit",
  "Modality": "MR",
  "MultibandAccelerationFactor": 4,
  "PartialFourier": 1,
  "PatientPosition": "HFS",
  "PercentPhaseFOV": 100,
  "PhaseEncodingDirection": "j",
  "PhaseEncodingSteps": 104,
  "PhaseResolution": 1,
  "PixelBandwidth": 2290,
  "ProcedureStepDescription": "memory_things",
  "ProtocolName": "func_task-things_run-2",
  "PulseSequenceDetails": "%CustomerSeq%_cmrr_mbep2d_bold",
  "ReceiveCoilActiveElements": "HC1-7;NC1,2",
  "ReceiveCoilName": "HeadNeck_64",
  "ReconMatrixPE": 104,
  "RepetitionTime": 1.49,
  "SAR": 0.0519588,
  "ScanOptions": "FS",
  "ScanningSequence": "EP",
  "SequenceName": "epfid2d1_104",
  "SequenceVariant": "SK_SS",
  "SeriesDescription": "func_task-things_run-2",
  "SeriesNumber": 13,
  "ShimSetting": [638, -7229, -8771, 720, 37, -44, 113, -18],
  "SliceThickness": 2,
  "SliceTiming": [0, 0.785, 0.1, 0.8825, 0.1975, 0.98, 0.295, 1.08, 0.3925, 1.1775, 0.49, 1.275, 0.59, 1.3725, 0.6875, 0, 0.785, 0.1, 0.8825, 0.1975, 0.98, 0.295, 1.08, 0.3925, 1.1775, 0.49, 1.275, 0.59, 1.3725, 0.6875, 0, 0.785, 0.1, 0.8825, 0.1975, 0.98, 0.295, 1.08, 0.3925, 1.1775, 0.49, 1.275, 0.59, 1.3725, 0.6875, 0, 0.785, 0.1, 0.8825, 0.1975, 0.98, 0.295, 1.08, 0.3925, 1.1775, 0.49, 1.275, 0.59, 1.3725, 0.6875],
  "SoftwareVersions": "syngo_MR_E11",
  "SpacingBetweenSlices": 2,
  "StationName": "MRC35049",
  "TaskName": "things",
  "TotalReadoutTime": 0.0576811,
  "TxRefAmp": 238.16,
  "WipMemBlock": "aa7d64f0-8dab-4aed-bfb5-3c0ff3ce5c73||Sequence: R016 ve11c/master r/e634e98; Dec 19 2017 11:00:25 by eja",
  "dcmmeta_affine": [
    [-1.9986437559127808, 0.013255753554403782, 0.07244005799293518, 106.74669647216797],
    [-0.003527902066707611, 1.9478399753570557, -0.4537697732448578, -76.52201843261719],
    [0.07355834543704987, 0.4535898268222809, 1.946495771408081, -59.392513275146484],
    [0.0, 0.0, 0.0, 1.0]
],
  "dcmmeta_reorient_transform": [
    [0.0, -1.0, 0.0, 103.0],
    [1.0, 0.0, 0.0, 0.0],
    [0.0, 0.0, 1.0, 0.0],
    [0.0, 0.0, 0.0, 1.0]
],
  "dcmmeta_shape": [104, 104, 60, 190],
  "dcmmeta_slice_dim": 2,
  "dcmmeta_version": 0.6,
  "global": {
    "const": {
      "AcquisitionMatrix": [104, 0, 0, 104],
      "AngioFlag": "N",
      "BitsAllocated": 16,
      "BitsStored": 16,
      "BodyPartExamined": "BRAIN",
      "Columns": 832,
      "EchoNumbers": 1,
      "EchoTime": 37.0,
      "EchoTrainLength": 104,
      "FlipAngle": 52.0,
      "HighBit": 15,
      "ImageOrientationPatient": [0.99932186053523, 0.00176395099889, 0.03677917254762, 0.00662787659026, 0.97391998665536, -0.2267949092134],
      "ImagePositionPatient": [-840.44344930141, -834.40340311748, 125.65869425484],
      "ImageType": [
        "ORIGINAL",
        "PRIMARY",
        "M",
        "MB",
        "ND",
        "MOSAIC"
],
      "ImagedNucleus": "1H",
      "ImagingFrequency": 123.258917,
      "InPlanePhaseEncodingDirection": "COL",
      "MRAcquisitionType": "2D",
      "MagneticFieldStrength": 3.0,
      "Manufacturer": "SIEMENS",
      "ManufacturerModelName": "Prisma_fit",
      "Modality": "MR",
      "NumberOfAverages": 1.0,
      "NumberOfPhaseEncodingSteps": 104,
      "PercentPhaseFieldOfView": 100.0,
      "PercentSampling": 100.0,
      "PerformedProcedureStepStartTime": "125911.406000",
      "PhotometricInterpretation": "MONOCHROME2",
      "PixelBandwidth": 2290.0,
      "PixelRepresentation": 0,
      "PixelSpacing": [2.0, 2.0],
      "ProtocolName": "func_task-things_run-2",
      "RepetitionTime": 1490.0,
      "Rows": 832,
      "SAR": 0.05195881885346,
      "SamplesPerPixel": 1,
      "ScanOptions": "FS",
      "ScanningSequence": "EP",
      "SequenceName": "epfid2d1_104",
      "SequenceVariant": [
        "SK",
        "SS"
],
      "SeriesDescription": "func_task-things_run-2",
      "SeriesNumber": 13,
      "SeriesTime": "132350.079000",
      "SliceLocation": -36.575577831882,
      "SliceThickness": 2.0,
      "SmallestImagePixelValue": 0,
      "SoftwareVersions": "syngo MR E11",
      "SpacingBetweenSlices": 2.0000000819017,
      "SpecificCharacterSet": "ISO_IR 100",
      "StudyID": "1",
      "StudyTime": "125911.191000",
      "TransmitCoilName": "Body",
      "VariableFlipAngleFlag": "N",
      "WindowCenterWidthExplanation": "Algo1",
      "dBdt": 0.0},
    "slices": {}
  },
  "time": {
    "samples": {
      "AcquisitionNumber": [1, 2, 3, 4, 5, 6, 7, 8, 9, 10, 11, 12, 13, 14, 15, 16, 17, 18, 19, 20, 21, 22, 23, 24, 25, 26, 27, 28, 29, 30, 31, 32, 33, 34, 35, 36, 37, 38, 39, 40, 41, 42, 43, 44, 45, 46, 47, 48, 49, 50, 51, 52, 53, 54, 55, 56, 57, 58, 59, 60, 61, 62, 63, 64, 65, 66, 67, 68, 69, 70, 71, 72, 73, 74, 75, 76, 77, 78, 79, 80, 81, 82, 83, 84, 85, 86, 87, 88, 89, 90, 91, 92, 93, 94, 95, 96, 97, 98, 99, 100, 101, 102, 103, 104, 105, 106, 107, 108, 109, 110, 111, 112, 113, 114, 115, 116, 117, 118, 119, 120, 121, 122, 123, 124, 125, 126, 127, 128, 129, 130, 131, 132, 133, 134, 135, 136, 137, 138, 139, 140, 141, 142, 143, 144, 145, 146, 147, 148, 149, 150, 151, 152, 153, 154, 155, 156, 157, 158, 159, 160, 161, 162, 163, 164, 165, 166, 167, 168, 169, 170, 171, 172, 173, 174, 175, 176, 177, 178, 179, 180, 181, 182, 183, 184, 185, 186, 187, 188, 189, 190],
      "AcquisitionTime": ["132233.810000", "132235.300000", "132236.790000", "132238.280000", "132239.770000", "132241.260000", "132242.750000", "132244.240000", "132245.730000", "132247.220000", "132248.710000", "132250.200000", "132251.690000", "132253.180000", "132254.670000", "132256.160000", "132257.650000", "132259.140000", "132300.630000", "132302.120000", "132303.610000", "132305.100000", "132306.590000", "132308.080000", "132309.570000", "132311.060000", "132312.550000", "132314.040000", "132315.530000", "132317.020000", "132318.510000", "132320.000000", "132321.490000", "132322.980000", "132324.470000", "132325.960000", "132327.450000", "132328.940000", "132330.430000", "132331.920000", "132333.410000", "132334.900000", "132336.390000", "132337.880000", "132339.370000", "132340.860000", "132342.350000", "132343.840000", "132345.330000", "132346.820000", "132348.310000", "132349.800000", "132351.290000", "132352.780000", "132354.270000", "132355.760000", "132357.250000", "132358.740000", "132400.230000", "132401.720000", "132403.210000", "132404.700000", "132406.190000", "132407.680000", "132409.170000", "132410.660000", "132412.150000", "132413.640000", "132415.130000", "132416.620000", "132418.110000", "132419.600000", "132421.090000", "132422.580000", "132424.070000", "132425.560000", "132427.050000", "132428.540000", "132430.030000", "132431.520000", "132433.010000", "132434.500000", "132435.990000", "132437.480000", "132438.970000", "132440.460000", "132441.950000", "132443.440000", "132444.930000", "132446.420000", "132447.910000", "132449.400000", "132450.890000", "132452.380000", "132453.870000", "132455.360000", "132456.850000", "132458.340000", "132459.830000", "132501.320000", "132502.810000", "132504.300000", "132505.790000", "132507.280000", "132508.770000", "132510.260000", "132511.750000", "132513.240000", "132514.730000", "132516.220000", "132517.710000", "132519.200000", "132520.690000", "132522.180000", "132523.670000", "132525.160000", "132526.650000", "132528.140000", "132529.630000", "132531.120000", "132532.610000", "132534.100000", "132535.590000", "132537.080000", "132538.570000", "132540.060000", "132541.550000", "132543.040000", "132544.530000", "132546.020000", "132547.510000", "132549.000000", "132550.490000", "132551.980000", "132553.470000", "132554.960000", "132556.450000", "132557.940000", "132559.430000", "132600.920000", "132602.410000", "132603.900000", "132605.390000", "132606.880000", "132608.370000", "132609.860000", "132611.350000", "132612.840000", "132614.330000", "132615.820000", "132617.310000", "132618.800000", "132620.290000", "132621.780000", "132623.270000", "132624.760000", "132626.250000", "132627.740000", "132629.230000", "132630.720000", "132632.210000", "132633.700000", "132635.190000", "132636.680000", "132638.170000", "132639.660000", "132641.150000", "132642.640000", "132644.130000", "132645.620000", "132647.110000", "132648.600000", "132650.090000", "132651.580000", "132653.070000", "132654.560000", "132656.050000", "132657.540000", "132659.030000", "132700.520000", "132702.010000", "132703.500000", "132704.990000", "132706.480000", "132707.970000", "132709.460000", "132710.950000", "132712.440000", "132713.930000", "132715.420000"],
      "ContentTime": ["132350.082000", "132350.086000", "132350.089000", "132350.097000", "132350.101000", "132350.104000", "132350.108000", "132350.111000", "132350.116000", "132350.121000", "132350.125000", "132350.129000", "132350.133000", "132350.136000", "132350.140000", "132350.143000", "132350.147000", "132350.150000", "132350.154000", "132350.157000", "132410.080000", "132410.084000", "132410.087000", "132410.091000", "132410.094000", "132410.097000", "132410.101000", "132410.104000", "132410.107000", "132410.111000", "132410.114000", "132410.118000", "132410.121000", "132410.124000", "132410.128000", "132410.131000", "132410.134000", "132410.138000", "132410.141000", "132410.144000", "132410.148000", "132430.079000", "132430.083000", "132430.086000", "132430.089000", "132430.093000", "132430.107000", "132430.111000", "132430.114000", "132430.117000", "132430.120000", "132430.124000", "132430.127000", "132430.130000", "132430.134000", "132430.137000", "132430.140000", "132430.143000", "132430.147000", "132430.150000", "132430.154000", "132450.079000", "132450.083000", "132450.086000", "132450.104000", "132450.111000", "132450.115000", "132450.118000", "132450.121000", "132450.125000", "132450.128000", "132450.131000", "132450.135000", "132450.138000", "132450.141000", "132450.145000", "132450.148000", "132450.151000", "132450.155000", "132450.158000", "132450.161000", "132450.165000", "132510.079000", "132510.083000", "132510.086000", "132510.090000", "132510.093000", "132510.096000", "132510.100000", "132510.103000", "132510.107000", "132510.110000", "132510.114000", "132510.117000", "132510.120000", "132510.124000", "132510.127000", "132510.130000", "132510.134000", "132510.137000", "132510.141000", "132510.144000", "132550.079000", "132550.083000", "132550.087000", "132550.090000", "132550.093000", "132550.097000", "132550.100000", "132550.103000", "132550.107000", "132550.110000", "132550.114000", "132550.117000", "132550.120000", "132550.124000", "132550.127000", "132550.131000", "132550.134000", "132550.137000", "132550.141000", "132550.144000", "132550.148000", "132550.151000", "132550.154000", "132550.158000", "132550.161000", "132550.165000", "132550.174000", "132550.177000", "132550.181000", "132630.079000", "132630.083000", "132630.086000", "132630.090000", "132630.093000", "132630.097000", "132630.100000", "132630.103000", "132630.107000", "132630.110000", "132630.113000", "132630.117000", "132630.120000", "132630.123000", "132630.127000", "132630.130000", "132630.133000", "132630.136000", "132630.140000", "132630.143000", "132630.147000", "132630.150000", "132630.153000", "132630.157000", "132630.160000", "132630.163000", "132630.167000", "132710.079000", "132710.083000", "132710.087000", "132710.090000", "132710.104000", "132710.107000", "132710.110000", "132710.114000", "132710.117000", "132710.120000", "132710.123000", "132710.127000", "132710.130000", "132710.134000", "132710.137000", "132710.140000", "132710.144000", "132710.147000", "132710.150000", "132710.154000", "132710.157000", "132710.160000", "132710.164000", "132710.167000", "132710.170000", "132710.174000", "132710.177000", "132717.324000", "132717.328000", "132717.332000", "132717.335000", "132717.346000"],
      "InstanceCreationTime": ["132350.082000", "132350.086000", "132350.089000", "132350.097000", "132350.101000", "132350.104000", "132350.108000", "132350.111000", "132350.116000", "132350.121000", "132350.125000", "132350.129000", "132350.133000", "132350.136000", "132350.140000", "132350.143000", "132350.147000", "132350.150000", "132350.154000", "132350.157000", "132410.080000", "132410.084000", "132410.087000", "132410.091000", "132410.094000", "132410.097000", "132410.101000", "132410.104000", "132410.107000", "132410.111000", "132410.114000", "132410.118000", "132410.121000", "132410.124000", "132410.128000", "132410.131000", "132410.134000", "132410.138000", "132410.141000", "132410.144000", "132410.148000", "132430.079000", "132430.083000", "132430.086000", "132430.089000", "132430.093000", "132430.107000", "132430.111000", "132430.114000", "132430.117000", "132430.120000", "132430.124000", "132430.127000", "132430.130000", "132430.134000", "132430.137000", "132430.140000", "132430.143000", "132430.147000", "132430.150000", "132430.154000", "132450.079000", "132450.083000", "132450.086000", "132450.104000", "132450.111000", "132450.115000", "132450.118000", "132450.121000", "132450.125000", "132450.128000", "132450.131000", "132450.135000", "132450.138000", "132450.141000", "132450.145000", "132450.148000", "132450.151000", "132450.155000", "132450.158000", "132450.161000", "132450.165000", "132510.079000", "132510.083000", "132510.086000", "132510.090000", "132510.093000", "132510.096000", "132510.100000", "132510.103000", "132510.107000", "132510.110000", "132510.114000", "132510.117000", "132510.120000", "132510.124000", "132510.127000", "132510.130000", "132510.134000", "132510.137000", "132510.141000", "132510.144000", "132550.079000", "132550.083000", "132550.087000", "132550.090000", "132550.093000", "132550.097000", "132550.100000", "132550.103000", "132550.107000", "132550.110000", "132550.114000", "132550.117000", "132550.120000", "132550.124000", "132550.127000", "132550.131000", "132550.134000", "132550.137000", "132550.141000", "132550.144000", "132550.148000", "132550.151000", "132550.154000", "132550.158000", "132550.161000", "132550.165000", "132550.174000", "132550.177000", "132550.181000", "132630.079000", "132630.083000", "132630.086000", "132630.090000", "132630.093000", "132630.097000", "132630.100000", "132630.103000", "132630.107000", "132630.110000", "132630.113000", "132630.117000", "132630.120000", "132630.123000", "132630.127000", "132630.130000", "132630.133000", "132630.136000", "132630.140000", "132630.143000", "132630.147000", "132630.150000", "132630.153000", "132630.157000", "132630.160000", "132630.163000", "132630.167000", "132710.079000", "132710.083000", "132710.087000", "132710.090000", "132710.104000", "132710.107000", "132710.110000", "132710.114000", "132710.117000", "132710.120000", "132710.123000", "132710.127000", "132710.130000", "132710.134000", "132710.137000", "132710.140000", "132710.144000", "132710.147000", "132710.150000", "132710.154000", "132710.157000", "132710.160000", "132710.164000", "132710.167000", "132710.170000", "132710.174000", "132710.177000", "132717.324000", "132717.328000", "132717.332000", "132717.335000", "132717.346000"],
      "InstanceNumber": [1, 2, 3, 4, 5, 6, 7, 8, 9, 10, 11, 12, 13, 14, 15, 16, 17, 18, 19, 20, 21, 22, 23, 24, 25, 26, 27, 28, 29, 30, 31, 32, 33, 34, 35, 36, 37, 38, 39, 40, 41, 42, 43, 44, 45, 46, 47, 48, 49, 50, 51, 52, 53, 54, 55, 56, 57, 58, 59, 60, 61, 62, 63, 64, 65, 66, 67, 68, 69, 70, 71, 72, 73, 74, 75, 76, 77, 78, 79, 80, 81, 82, 83, 84, 85, 86, 87, 88, 89, 90, 91, 92, 93, 94, 95, 96, 97, 98, 99, 100, 101, 102, 103, 104, 105, 106, 107, 108, 109, 110, 111, 112, 113, 114, 115, 116, 117, 118, 119, 120, 121, 122, 123, 124, 125, 126, 127, 128, 129, 130, 131, 132, 133, 134, 135, 136, 137, 138, 139, 140, 141, 142, 143, 144, 145, 146, 147, 148, 149, 150, 151, 152, 153, 154, 155, 156, 157, 158, 159, 160, 161, 162, 163, 164, 165, 166, 167, 168, 169, 170, 171, 172, 173, 174, 175, 176, 177, 178, 179, 180, 181, 182, 183, 184, 185, 186, 187, 188, 189, 190],
      "LargestImagePixelValue": [40805, 39514, 38789, 38080, 38465, 38842, 38261, 38169, 38065, 37768, 38194, 38020, 37796, 37985, 38484, 38237, 38447, 37699, 38197, 37901, 38055, 38142, 37815, 37800, 38115, 38002, 37650, 38222, 37992, 37984, 38067, 38061, 38253, 37927, 37900, 37928, 38054, 37962, 38592, 38096, 37748, 37468, 38066, 38188, 37847, 38313, 38067, 37980, 37653, 38146, 38098, 38131, 37496, 38088, 37890, 37897, 37694, 37809, 38248, 38089, 37685, 38129, 37910, 38030, 38039, 38198, 37927, 37628, 37576, 38002, 38265, 37937, 37451, 37913, 37897, 38236, 37607, 37304, 37563, 38201, 38005, 38155, 38015, 37922, 38002, 37948, 38209, 37344, 37987, 38172, 37826, 37783, 37720, 37972, 37914, 38264, 38072, 38152, 37724, 37694, 37662, 37589, 37800, 37733, 37665, 37903, 38296, 37856, 38009, 38283, 37922, 38401, 37803, 38242, 37780, 37398, 37483, 38004, 38023, 38192, 38480, 38099, 37790, 38192, 38056, 37528, 37629, 37707, 37339, 37763, 37581, 37435, 37330, 37842, 37895, 37705, 37742, 37925, 38177, 38415, 37927, 37975, 37846, 37879, 37994, 38104, 37761, 37735, 37697, 38018, 37806, 37491, 37715, 38096, 37846, 38087, 38228, 37913, 37702, 38298, 37803, 37520, 37760, 37804, 38282, 37986, 37848, 38100, 38023, 37800, 37839, 38204, 37920, 37931, 37814, 37869, 38346, 37742, 37729, 37382, 37823, 37806, 37711, 37711, 37938, 37944, 37621, 37711, 37784, 37379],
      "WindowCenter": [10174.0, 10131.0, 10123.0, 10130.0, 10136.0, 10129.0, 10120.0, 10122.0, 10119.0, 10121.0, 10119.0, 10135.0, 10129.0, 10137.0, 10135.0, 10137.0, 10144.0, 10138.0, 10137.0, 10137.0, 10155.0, 10147.0, 10139.0, 10130.0, 10130.0, 10126.0, 10122.0, 10128.0, 10128.0, 10122.0, 10119.0, 10118.0, 10118.0, 10128.0, 10129.0, 10128.0, 10113.0, 10111.0, 10123.0, 10137.0, 10138.0, 10133.0, 10137.0, 10144.0, 10148.0, 10154.0, 10140.0, 10130.0, 10139.0, 10144.0, 10164.0, 10158.0, 10144.0, 10138.0, 10114.0, 10105.0, 10110.0, 10113.0, 10126.0, 10128.0, 10115.0, 10130.0, 10124.0, 10128.0, 10137.0, 10131.0, 10122.0, 10100.0, 10091.0, 10094.0, 10102.0, 10104.0, 10107.0, 10103.0, 10112.0, 10120.0, 10131.0, 10118.0, 10114.0, 10112.0, 10112.0, 10105.0, 10103.0, 10118.0, 10119.0, 10129.0, 10115.0, 10114.0, 10112.0, 10129.0, 10140.0, 10150.0, 10127.0, 10120.0, 10105.0, 10103.0, 10106.0, 10112.0, 10123.0, 10130.0, 10140.0, 10135.0, 10127.0, 10126.0, 10123.0, 10123.0, 10119.0, 10108.0, 10104.0, 10111.0, 10113.0, 10127.0, 10131.0, 10138.0, 10141.0, 10135.0, 10128.0, 10115.0, 10114.0, 10113.0, 10128.0, 10123.0, 10123.0, 10114.0, 10120.0, 10116.0, 10124.0, 10131.0, 10134.0, 10134.0, 10127.0, 10126.0, 10110.0, 10107.0, 10112.0, 10116.0, 10117.0, 10124.0, 10112.0, 10112.0, 10098.0, 10120.0, 10115.0, 10124.0, 10115.0, 10114.0, 10107.0, 10106.0, 10111.0, 10121.0, 10124.0, 10118.0, 10100.0, 10089.0, 10086.0, 10084.0, 10093.0, 10104.0, 10131.0, 10140.0, 10128.0, 10108.0, 10097.0, 10090.0, 10113.0, 10105.0, 10109.0, 10112.0, 10115.0, 10107.0, 10114.0, 10121.0, 10131.0, 10139.0, 10125.0, 10123.0, 10121.0, 10117.0, 10123.0, 10126.0, 10123.0, 10115.0, 10113.0, 10124.0, 10129.0, 10140.0, 10133.0, 10125.0, 10093.0, 10076.0],
      "WindowWidth": [21672.0, 21556.0, 21528.0, 21536.0, 21544.0, 21529.0, 21506.0, 21512.0, 21503.0, 21510.0, 21503.0, 21540.0, 21527.0, 21546.0, 21539.0, 21545.0, 21557.0, 21548.0, 21545.0, 21546.0, 21585.0, 21566.0, 21548.0, 21526.0, 21527.0, 21515.0, 21511.0, 21524.0, 21523.0, 21512.0, 21501.0, 21500.0, 21499.0, 21526.0, 21525.0, 21523.0, 21487.0, 21483.0, 21508.0, 21544.0, 21544.0, 21538.0, 21542.0, 21559.0, 21570.0, 21584.0, 21552.0, 21530.0, 21548.0, 21558.0, 21605.0, 21592.0, 21560.0, 21544.0, 21489.0, 21470.0, 21480.0, 21489.0, 21517.0, 21523.0, 21495.0, 21527.0, 21516.0, 21523.0, 21543.0, 21531.0, 21508.0, 21459.0, 21441.0, 21444.0, 21464.0, 21467.0, 21476.0, 21462.0, 21485.0, 21501.0, 21530.0, 21504.0, 21491.0, 21485.0, 21485.0, 21470.0, 21465.0, 21497.0, 21501.0, 21524.0, 21494.0, 21490.0, 21484.0, 21524.0, 21552.0, 21574.0, 21523.0, 21498.0, 21469.0, 21461.0, 21471.0, 21485.0, 21510.0, 21529.0, 21554.0, 21546.0, 21525.0, 21522.0, 21510.0, 21508.0, 21496.0, 21475.0, 21463.0, 21478.0, 21485.0, 21514.0, 21527.0, 21543.0, 21554.0, 21543.0, 21527.0, 21494.0, 21487.0, 21487.0, 21518.0, 21511.0, 21510.0, 21488.0, 21500.0, 21496.0, 21515.0, 21530.0, 21538.0, 21540.0, 21524.0, 21521.0, 21484.0, 21474.0, 21483.0, 21497.0, 21499.0, 21514.0, 21480.0, 21479.0, 21450.0, 21499.0, 21492.0, 21513.0, 21493.0, 21489.0, 21475.0, 21474.0, 21482.0, 21504.0, 21509.0, 21498.0, 21457.0, 21429.0, 21419.0, 21414.0, 21440.0, 21467.0, 21529.0, 21550.0, 21522.0, 21471.0, 21447.0, 21431.0, 21485.0, 21466.0, 21480.0, 21484.0, 21490.0, 21474.0, 21488.0, 21504.0, 21526.0, 21545.0, 21515.0, 21511.0, 21504.0, 21495.0, 21508.0, 21518.0, 21507.0, 21490.0, 21485.0, 21512.0, 21523.0, 21547.0, 21531.0, 21510.0, 21440.0, 21401.0]
    },
    "slices": {}
  }
}