{
  "AcquisitionMatrixPE": 104,
  "AcquisitionNumber": 1,
  "AcquisitionTime": "13:35:5.372500",
  "BandwidthPerPixelPhaseEncode": 17.17,
  "BaseResolution": 104,
  "BodyPartExamined": "BRAIN",
  "CoilString": "HC1-7;NC1_2",
  "ConsistencyInfo": "N4_VE11C_LATEST_20160120",
  "ConversionSoftware": "dcm2niix",
  "ConversionSoftwareVersion": "v1.0.20190902",
  "DerivedVendorReportedEchoSpacing": 0.000560011,
  "DeviceSerialNumber": "167006",
  "DwellTime": 2.1e-06,
  "EchoTime": 0.037,
  "EchoTrainLength": 104,
  "EffectiveEchoSpacing": 0.000560011,
  "FlipAngle": 52,
  "ImageComments": "Unaliased_MB4_PE3_LB",
  "ImageOrientationPatientDICOM": [0.999322, 0.00176395, 0.0367792, 0.00662788, 0.97392, -0.226795],
  "ImageType": [
    "ORIGINAL",
    "PRIMARY",
    "P",
    "MB",
    "ND",
    "MOSAIC"
],
  "ImagingFrequency": 123.259,
  "InPlanePhaseEncodingDirectionDICOM": "COL",
  "InstitutionAddress": "Chemin_Queen-Mary_4565_Montreal_District_CA_H3W_1W5",
  "InstitutionName": "IUGM",
  "InstitutionalDepartmentName": "Department",
  "MRAcquisitionType": "2D",
  "MagneticFieldStrength": 3,
  "Manufacturer": "Siemens",
  "ManufacturersModelName": "Prisma_fit",
  "Modality": "MR",
  "MultibandAccelerationFactor": 4,
  "PartialFourier": 1,
  "PatientPosition": "HFS",
  "PercentPhaseFOV": 100,
  "PhaseEncodingDirection": "j",
  "PhaseEncodingSteps": 104,
  "PhaseResolution": 1,
  "PixelBandwidth": 2290,
  "ProcedureStepDescription": "memory_things",
  "ProtocolName": "func_task-things_run-4",
  "PulseSequenceDetails": "%CustomerSeq%_cmrr_mbep2d_bold",
  "ReceiveCoilActiveElements": "HC1-7;NC1,2",
  "ReceiveCoilName": "HeadNeck_64",
  "ReconMatrixPE": 104,
  "RepetitionTime": 1.49,
  "SAR": 0.0519588,
  "ScanOptions": "FS",
  "ScanningSequence": "EP",
  "SequenceName": "epfid2d1_104",
  "SequenceVariant": "SK_SS",
  "SeriesDescription": "func_task-things_run-4",
  "SeriesNumber": 20,
  "ShimSetting": [638, -7229, -8771, 720, 37, -44, 113, -18],
  "SliceThickness": 2,
  "SliceTiming": [0, 0.785, 0.0975, 0.8825, 0.1975, 0.98, 0.295, 1.0775, 0.3925, 1.175, 0.49, 1.275, 0.5875, 1.3725, 0.685, 0, 0.785, 0.0975, 0.8825, 0.1975, 0.98, 0.295, 1.0775, 0.3925, 1.175, 0.49, 1.275, 0.5875, 1.3725, 0.685, 0, 0.785, 0.0975, 0.8825, 0.1975, 0.98, 0.295, 1.0775, 0.3925, 1.175, 0.49, 1.275, 0.5875, 1.3725, 0.685, 0, 0.785, 0.0975, 0.8825, 0.1975, 0.98, 0.295, 1.0775, 0.3925, 1.175, 0.49, 1.275, 0.5875, 1.3725, 0.685],
  "SoftwareVersions": "syngo_MR_E11",
  "SpacingBetweenSlices": 2,
  "StationName": "MRC35049",
  "TaskName": "things",
  "TotalReadoutTime": 0.0576811,
  "TxRefAmp": 238.16,
  "WipMemBlock": "65fd9ac4-13e2-4241-9e0d-edca3fb62403||Sequence: R016 ve11c/master r/e634e98; Dec 19 2017 11:00:25 by eja",
  "dcmmeta_affine": [
    [-1.9986437559127808, 0.013255753554403782, 0.07244005799293518, 106.74669647216797],
    [-0.003527902066707611, 1.9478399753570557, -0.4537697732448578, -76.52201843261719],
    [0.07355834543704987, 0.4535898268222809, 1.946495771408081, -59.392513275146484],
    [0.0, 0.0, 0.0, 1.0]
],
  "dcmmeta_reorient_transform": [
    [0.0, -1.0, 0.0, 103.0],
    [1.0, 0.0, 0.0, 0.0],
    [0.0, 0.0, 1.0, 0.0],
    [0.0, 0.0, 0.0, 1.0]
],
  "dcmmeta_shape": [104, 104, 60, 190],
  "dcmmeta_slice_dim": 2,
  "dcmmeta_version": 0.6,
  "global": {
    "const": {
      "AcquisitionMatrix": [104, 0, 0, 104],
      "AngioFlag": "N",
      "BitsAllocated": 16,
      "BitsStored": 16,
      "BodyPartExamined": "BRAIN",
      "Columns": 832,
      "EchoNumbers": 1,
      "EchoTime": 37.0,
      "EchoTrainLength": 104,
      "FlipAngle": 52.0,
      "HighBit": 15,
      "ImageOrientationPatient": [0.99932186053523, 0.00176395099889, 0.03677917254762, 0.00662787659026, 0.97391998665536, -0.2267949092134],
      "ImagePositionPatient": [-840.44344930141, -834.40340311748, 125.65869425484],
      "ImageType": [
        "ORIGINAL",
        "PRIMARY",
        "P",
        "MB",
        "ND",
        "MOSAIC"
],
      "ImagedNucleus": "1H",
      "ImagingFrequency": 123.258922,
      "InPlanePhaseEncodingDirection": "COL",
      "LargestImagePixelValue": 4095,
      "MRAcquisitionType": "2D",
      "MagneticFieldStrength": 3.0,
      "Manufacturer": "SIEMENS",
      "ManufacturerModelName": "Prisma_fit",
      "Modality": "MR",
      "NumberOfAverages": 1.0,
      "NumberOfPhaseEncodingSteps": 104,
      "PercentPhaseFieldOfView": 100.0,
      "PercentSampling": 100.0,
      "PerformedProcedureStepStartTime": "125911.406000",
      "PhotometricInterpretation": "MONOCHROME2",
      "PixelBandwidth": 2290.0,
      "PixelRepresentation": 0,
      "PixelSpacing": [2.0, 2.0],
      "ProtocolName": "func_task-things_run-4",
      "RepetitionTime": 1490.0,
      "RescaleIntercept": -4096.0,
      "RescaleSlope": 2.0,
      "RescaleType": "US",
      "Rows": 832,
      "SAR": 0.05195881885346,
      "SamplesPerPixel": 1,
      "ScanOptions": "FS",
      "ScanningSequence": "EP",
      "SequenceName": "epfid2d1_104",
      "SequenceVariant": [
        "SK",
        "SS"
],
      "SeriesDescription": "func_task-things_run-4",
      "SeriesNumber": 20,
      "SeriesTime": "133622.265000",
      "SliceLocation": -36.575577831882,
      "SliceThickness": 2.0,
      "SmallestImagePixelValue": 0,
      "SoftwareVersions": "syngo MR E11",
      "SpacingBetweenSlices": 2.0000000819017,
      "SpecificCharacterSet": "ISO_IR 100",
      "StudyID": "1",
      "StudyTime": "125911.191000",
      "TransmitCoilName": "Body",
      "VariableFlipAngleFlag": "N",
      "WindowCenterWidthExplanation": "Algo1",
      "dBdt": 0.0},
    "slices": {}
  },
  "time": {
    "samples": {
      "AcquisitionNumber": [1, 2, 3, 4, 5, 6, 7, 8, 9, 10, 11, 12, 13, 14, 15, 16, 17, 18, 19, 20, 21, 22, 23, 24, 25, 26, 27, 28, 29, 30, 31, 32, 33, 34, 35, 36, 37, 38, 39, 40, 41, 42, 43, 44, 45, 46, 47, 48, 49, 50, 51, 52, 53, 54, 55, 56, 57, 58, 59, 60, 61, 62, 63, 64, 65, 66, 67, 68, 69, 70, 71, 72, 73, 74, 75, 76, 77, 78, 79, 80, 81, 82, 83, 84, 85, 86, 87, 88, 89, 90, 91, 92, 93, 94, 95, 96, 97, 98, 99, 100, 101, 102, 103, 104, 105, 106, 107, 108, 109, 110, 111, 112, 113, 114, 115, 116, 117, 118, 119, 120, 121, 122, 123, 124, 125, 126, 127, 128, 129, 130, 131, 132, 133, 134, 135, 136, 137, 138, 139, 140, 141, 142, 143, 144, 145, 146, 147, 148, 149, 150, 151, 152, 153, 154, 155, 156, 157, 158, 159, 160, 161, 162, 163, 164, 165, 166, 167, 168, 169, 170, 171, 172, 173, 174, 175, 176, 177, 178, 179, 180, 181, 182, 183, 184, 185, 186, 187, 188, 189, 190],
      "AcquisitionTime": ["133505.372500", "133506.862500", "133508.352500", "133509.842500", "133511.332500", "133512.822500", "133514.312500", "133515.802500", "133517.292500", "133518.782500", "133520.272500", "133521.762500", "133523.252500", "133524.742500", "133526.232500", "133527.722500", "133529.212500", "133530.702500", "133532.192500", "133533.682500", "133535.172500", "133536.662500", "133538.152500", "133539.642500", "133541.132500", "133542.622500", "133544.112500", "133545.602500", "133547.092500", "133548.582500", "133550.072500", "133551.562500", "133553.052500", "133554.542500", "133556.032500", "133557.522500", "133559.012500", "133600.502500", "133601.992500", "133603.482500", "133604.972500", "133606.462500", "133607.952500", "133609.442500", "133610.932500", "133612.422500", "133613.912500", "133615.402500", "133616.892500", "133618.382500", "133619.872500", "133621.362500", "133622.852500", "133624.342500", "133625.832500", "133627.322500", "133628.812500", "133630.302500", "133631.792500", "133633.282500", "133634.772500", "133636.262500", "133637.752500", "133639.242500", "133640.732500", "133642.222500", "133643.712500", "133645.202500", "133646.692500", "133648.182500", "133649.672500", "133651.162500", "133652.652500", "133654.142500", "133655.632500", "133657.122500", "133658.612500", "133700.102500", "133701.592500", "133703.082500", "133704.572500", "133706.062500", "133707.552500", "133709.042500", "133710.532500", "133712.022500", "133713.512500", "133715.002500", "133716.492500", "133717.982500", "133719.472500", "133720.962500", "133722.452500", "133723.942500", "133725.432500", "133726.922500", "133728.412500", "133729.902500", "133731.392500", "133732.882500", "133734.372500", "133735.862500", "133737.352500", "133738.842500", "133740.332500", "133741.822500", "133743.312500", "133744.802500", "133746.292500", "133747.782500", "133749.272500", "133750.762500", "133752.252500", "133753.742500", "133755.232500", "133756.722500", "133758.212500", "133759.702500", "133801.192500", "133802.682500", "133804.172500", "133805.662500", "133807.152500", "133808.642500", "133810.132500", "133811.622500", "133813.112500", "133814.602500", "133816.092500", "133817.582500", "133819.072500", "133820.562500", "133822.052500", "133823.542500", "133825.032500", "133826.522500", "133828.012500", "133829.502500", "133830.992500", "133832.482500", "133833.972500", "133835.462500", "133836.952500", "133838.442500", "133839.932500", "133841.422500", "133842.912500", "133844.402500", "133845.892500", "133847.382500", "133848.872500", "133850.362500", "133851.852500", "133853.342500", "133854.832500", "133856.322500", "133857.812500", "133859.302500", "133900.792500", "133902.282500", "133903.772500", "133905.262500", "133906.752500", "133908.242500", "133909.732500", "133911.222500", "133912.712500", "133914.202500", "133915.692500", "133917.182500", "133918.672500", "133920.162500", "133921.652500", "133923.142500", "133924.632500", "133926.122500", "133927.612500", "133929.102500", "133930.592500", "133932.082500", "133933.572500", "133935.062500", "133936.552500", "133938.042500", "133939.532500", "133941.022500", "133942.512500", "133944.002500", "133945.492500", "133946.982500"],
      "ContentTime": ["133622.267000", "133622.270000", "133622.272000", "133622.275000", "133622.277000", "133622.280000", "133622.282000", "133622.285000", "133622.287000", "133622.290000", "133622.292000", "133622.294000", "133622.297000", "133622.299000", "133622.302000", "133622.304000", "133622.307000", "133622.309000", "133622.312000", "133622.314000", "133622.317000", "133622.320000", "133642.219000", "133642.221000", "133642.224000", "133642.226000", "133642.229000", "133642.231000", "133642.234000", "133642.236000", "133642.239000", "133642.241000", "133642.244000", "133642.246000", "133642.249000", "133642.251000", "133642.254000", "133642.256000", "133642.259000", "133642.261000", "133642.264000", "133642.266000", "133702.234000", "133702.237000", "133702.239000", "133702.242000", "133702.244000", "133702.247000", "133702.249000", "133702.252000", "133702.254000", "133702.257000", "133702.260000", "133702.264000", "133702.266000", "133702.269000", "133702.272000", "133702.275000", "133702.278000", "133702.281000", "133702.284000", "133702.286000", "133722.221000", "133722.224000", "133722.226000", "133722.229000", "133722.231000", "133722.234000", "133722.236000", "133722.239000", "133722.248000", "133722.250000", "133722.253000", "133722.255000", "133722.258000", "133722.260000", "133722.263000", "133722.265000", "133722.268000", "133722.270000", "133722.273000", "133722.275000", "133722.278000", "133742.249000", "133742.251000", "133742.254000", "133742.256000", "133742.259000", "133742.262000", "133742.264000", "133742.267000", "133742.269000", "133742.272000", "133742.274000", "133742.277000", "133742.280000", "133742.282000", "133742.285000", "133742.287000", "133742.290000", "133742.292000", "133742.295000", "133742.297000", "133822.285000", "133822.288000", "133822.290000", "133822.293000", "133822.296000", "133822.298000", "133822.301000", "133822.303000", "133822.306000", "133822.308000", "133822.311000", "133822.313000", "133822.316000", "133822.319000", "133822.321000", "133822.324000", "133822.326000", "133822.329000", "133822.331000", "133822.334000", "133822.336000", "133822.339000", "133822.342000", "133822.344000", "133822.347000", "133822.349000", "133822.352000", "133822.354000", "133902.259000", "133902.262000", "133902.264000", "133902.267000", "133902.280000", "133902.282000", "133902.285000", "133902.287000", "133902.290000", "133902.293000", "133902.295000", "133902.298000", "133902.300000", "133902.303000", "133902.305000", "133902.308000", "133902.310000", "133902.313000", "133902.315000", "133902.318000", "133902.321000", "133902.323000", "133902.326000", "133902.328000", "133902.331000", "133902.342000", "133902.345000", "133942.255000", "133942.258000", "133942.261000", "133942.263000", "133942.266000", "133942.268000", "133942.271000", "133942.273000", "133942.276000", "133942.278000", "133942.281000", "133942.283000", "133942.286000", "133942.288000", "133942.291000", "133942.293000", "133942.296000", "133942.299000", "133942.301000", "133942.304000", "133942.306000", "133942.309000", "133942.311000", "133942.314000", "133942.316000", "133942.319000", "133942.321000", "133949.247000", "133949.250000", "133949.253000", "133949.255000", "133949.258000"],
      "InstanceCreationTime": ["133622.267000", "133622.270000", "133622.272000", "133622.275000", "133622.277000", "133622.280000", "133622.282000", "133622.285000", "133622.287000", "133622.290000", "133622.292000", "133622.294000", "133622.297000", "133622.299000", "133622.302000", "133622.304000", "133622.307000", "133622.309000", "133622.312000", "133622.314000", "133622.317000", "133622.320000", "133642.219000", "133642.221000", "133642.224000", "133642.226000", "133642.229000", "133642.231000", "133642.234000", "133642.236000", "133642.239000", "133642.241000", "133642.244000", "133642.246000", "133642.249000", "133642.251000", "133642.254000", "133642.256000", "133642.259000", "133642.261000", "133642.264000", "133642.266000", "133702.234000", "133702.237000", "133702.239000", "133702.242000", "133702.244000", "133702.247000", "133702.249000", "133702.252000", "133702.254000", "133702.257000", "133702.260000", "133702.264000", "133702.266000", "133702.269000", "133702.272000", "133702.275000", "133702.278000", "133702.281000", "133702.284000", "133702.286000", "133722.221000", "133722.224000", "133722.226000", "133722.229000", "133722.231000", "133722.234000", "133722.236000", "133722.239000", "133722.248000", "133722.250000", "133722.253000", "133722.255000", "133722.258000", "133722.260000", "133722.263000", "133722.265000", "133722.268000", "133722.270000", "133722.273000", "133722.275000", "133722.278000", "133742.249000", "133742.251000", "133742.254000", "133742.256000", "133742.259000", "133742.262000", "133742.264000", "133742.267000", "133742.269000", "133742.272000", "133742.274000", "133742.277000", "133742.280000", "133742.282000", "133742.285000", "133742.287000", "133742.290000", "133742.292000", "133742.295000", "133742.297000", "133822.285000", "133822.288000", "133822.290000", "133822.293000", "133822.296000", "133822.298000", "133822.301000", "133822.303000", "133822.306000", "133822.308000", "133822.311000", "133822.313000", "133822.316000", "133822.319000", "133822.321000", "133822.324000", "133822.326000", "133822.329000", "133822.331000", "133822.334000", "133822.336000", "133822.339000", "133822.342000", "133822.344000", "133822.347000", "133822.349000", "133822.352000", "133822.354000", "133902.259000", "133902.262000", "133902.264000", "133902.267000", "133902.280000", "133902.282000", "133902.285000", "133902.287000", "133902.290000", "133902.293000", "133902.295000", "133902.298000", "133902.300000", "133902.303000", "133902.305000", "133902.308000", "133902.310000", "133902.313000", "133902.315000", "133902.318000", "133902.321000", "133902.323000", "133902.326000", "133902.328000", "133902.331000", "133902.342000", "133902.345000", "133942.255000", "133942.258000", "133942.261000", "133942.263000", "133942.266000", "133942.268000", "133942.271000", "133942.273000", "133942.276000", "133942.278000", "133942.281000", "133942.283000", "133942.286000", "133942.288000", "133942.291000", "133942.293000", "133942.296000", "133942.299000", "133942.301000", "133942.304000", "133942.306000", "133942.309000", "133942.311000", "133942.314000", "133942.316000", "133942.319000", "133942.321000", "133949.247000", "133949.250000", "133949.253000", "133949.255000", "133949.258000"],
      "InstanceNumber": [1, 2, 3, 4, 5, 6, 7, 8, 9, 10, 11, 12, 13, 14, 15, 16, 17, 18, 19, 20, 21, 22, 23, 24, 25, 26, 27, 28, 29, 30, 31, 32, 33, 34, 35, 36, 37, 38, 39, 40, 41, 42, 43, 44, 45, 46, 47, 48, 49, 50, 51, 52, 53, 54, 55, 56, 57, 58, 59, 60, 61, 62, 63, 64, 65, 66, 67, 68, 69, 70, 71, 72, 73, 74, 75, 76, 77, 78, 79, 80, 81, 82, 83, 84, 85, 86, 87, 88, 89, 90, 91, 92, 93, 94, 95, 96, 97, 98, 99, 100, 101, 102, 103, 104, 105, 106, 107, 108, 109, 110, 111, 112, 113, 114, 115, 116, 117, 118, 119, 120, 121, 122, 123, 124, 125, 126, 127, 128, 129, 130, 131, 132, 133, 134, 135, 136, 137, 138, 139, 140, 141, 142, 143, 144, 145, 146, 147, 148, 149, 150, 151, 152, 153, 154, 155, 156, 157, 158, 159, 160, 161, 162, 163, 164, 165, 166, 167, 168, 169, 170, 171, 172, 173, 174, 175, 176, 177, 178, 179, 180, 181, 182, 183, 184, 185, 186, 187, 188, 189, 190],
      "WindowCenter": [4752.0, 4750.0, 4754.0, 4750.0, 4752.0, 4754.0, 4754.0, 4754.0, 4754.0, 4748.0, 4756.0, 4754.0, 4752.0, 4756.0, 4752.0, 4752.0, 4754.0, 4754.0, 4756.0, 4754.0, 4754.0, 4754.0, 4752.0, 4754.0, 4756.0, 4754.0, 4758.0, 4750.0, 4758.0, 4758.0, 4754.0, 4752.0, 4754.0, 4750.0, 4750.0, 4748.0, 4752.0, 4748.0, 4752.0, 4752.0, 4754.0, 4754.0, 4752.0, 4752.0, 4754.0, 4754.0, 4756.0, 4754.0, 4750.0, 4754.0, 4752.0, 4758.0, 4752.0, 4754.0, 4756.0, 4752.0, 4752.0, 4754.0, 4754.0, 4756.0, 4752.0, 4754.0, 4750.0, 4756.0, 4756.0, 4758.0, 4756.0, 4754.0, 4756.0, 4750.0, 4756.0, 4756.0, 4756.0, 4752.0, 4752.0, 4754.0, 4756.0, 4754.0, 4758.0, 4754.0, 4756.0, 4752.0, 4752.0, 4750.0, 4754.0, 4754.0, 4754.0, 4754.0, 4754.0, 4754.0, 4754.0, 4754.0, 4750.0, 4754.0, 4752.0, 4756.0, 4752.0, 4754.0, 4752.0, 4754.0, 4756.0, 4756.0, 4754.0, 4754.0, 4754.0, 4750.0, 4752.0, 4750.0, 4752.0, 4754.0, 4758.0, 4752.0, 4758.0, 4758.0, 4752.0, 4756.0, 4752.0, 4754.0, 4752.0, 4754.0, 4754.0, 4752.0, 4754.0, 4752.0, 4752.0, 4754.0, 4754.0, 4756.0, 4752.0, 4750.0, 4752.0, 4752.0, 4752.0, 4752.0, 4752.0, 4752.0, 4756.0, 4754.0, 4752.0, 4754.0, 4752.0, 4754.0, 4752.0, 4754.0, 4750.0, 4756.0, 4754.0, 4752.0, 4752.0, 4752.0, 4752.0, 4754.0, 4752.0, 4754.0, 4752.0, 4756.0, 4756.0, 4752.0, 4756.0, 4756.0, 4752.0, 4752.0, 4756.0, 4754.0, 4756.0, 4752.0, 4752.0, 4754.0, 4754.0, 4756.0, 4766.0, 4756.0, 4754.0, 4748.0, 4752.0, 4754.0, 4750.0, 4756.0, 4758.0, 4758.0, 4758.0, 4756.0, 4754.0, 4754.0, 4750.0, 4756.0, 4750.0, 4752.0, 4756.0, 4754.0],
      "WindowWidth": [18534.0, 18534.0, 18538.0, 18536.0, 18534.0, 18538.0, 18536.0, 18538.0, 18538.0, 18534.0, 18540.0, 18540.0, 18536.0, 18534.0, 18542.0, 18538.0, 18538.0, 18538.0, 18540.0, 18536.0, 18540.0, 18530.0, 18538.0, 18538.0, 18536.0, 18538.0, 18540.0, 18534.0, 18540.0, 18538.0, 18536.0, 18538.0, 18538.0, 18532.0, 18534.0, 18536.0, 18534.0, 18532.0, 18534.0, 18532.0, 18536.0, 18536.0, 18534.0, 18540.0, 18538.0, 18540.0, 18536.0, 18534.0, 18534.0, 18534.0, 18536.0, 18542.0, 18532.0, 18540.0, 18540.0, 18536.0, 18536.0, 18536.0, 18532.0, 18538.0, 18536.0, 18538.0, 18530.0, 18540.0, 18532.0, 18540.0, 18540.0, 18540.0, 18540.0, 18540.0, 18534.0, 18540.0, 18538.0, 18540.0, 18536.0, 18538.0, 18536.0, 18544.0, 18540.0, 18538.0, 18542.0, 18538.0, 18542.0, 18536.0, 18534.0, 18536.0, 18536.0, 18538.0, 18542.0, 18536.0, 18534.0, 18534.0, 18536.0, 18538.0, 18534.0, 18538.0, 18538.0, 18530.0, 18536.0, 18540.0, 18540.0, 18534.0, 18532.0, 18536.0, 18536.0, 18536.0, 18532.0, 18534.0, 18538.0, 18538.0, 18542.0, 18534.0, 18536.0, 18540.0, 18534.0, 18538.0, 18536.0, 18538.0, 18538.0, 18542.0, 18536.0, 18536.0, 18538.0, 18532.0, 18530.0, 18532.0, 18538.0, 18540.0, 18534.0, 18534.0, 18536.0, 18536.0, 18536.0, 18532.0, 18540.0, 18534.0, 18536.0, 18534.0, 18530.0, 18538.0, 18536.0, 18536.0, 18538.0, 18538.0, 18534.0, 18536.0, 18536.0, 18530.0, 18532.0, 18532.0, 18534.0, 18540.0, 18532.0, 18542.0, 18532.0, 18540.0, 18538.0, 18532.0, 18536.0, 18542.0, 18534.0, 18536.0, 18538.0, 18536.0, 18536.0, 18532.0, 18530.0, 18534.0, 18536.0, 18538.0, 18534.0, 18536.0, 18546.0, 18534.0, 18540.0, 18540.0, 18534.0, 18534.0, 18532.0, 18536.0, 18532.0, 18538.0, 18532.0, 18540.0, 18534.0, 18540.0, 18536.0, 18540.0, 18536.0, 18538.0]
    },
    "slices": {}
  }
}