{
  "AcquisitionMatrixPE": 104,
  "AcquisitionNumber": 1,
  "AcquisitionTime": "13:47:52.560000",
  "BandwidthPerPixelPhaseEncode": 17.17,
  "BaseResolution": 104,
  "BodyPartExamined": "BRAIN",
  "CoilString": "HC1-7;NC1_2",
  "ConsistencyInfo": "N4_VE11C_LATEST_20160120",
  "ConversionSoftware": "dcm2niix",
  "ConversionSoftwareVersion": "v1.0.20190902",
  "DerivedVendorReportedEchoSpacing": 0.000560011,
  "DeviceSerialNumber": "167006",
  "DwellTime": 2.1e-06,
  "EchoTime": 0.037,
  "EchoTrainLength": 104,
  "EffectiveEchoSpacing": 0.000560011,
  "FlipAngle": 52,
  "ImageComments": "Unaliased_MB4_PE3_LB",
  "ImageOrientationPatientDICOM": [0.999322, 0.00176395, 0.0367792, 0.00662788, 0.97392, -0.226795],
  "ImageType": [
    "ORIGINAL",
    "PRIMARY",
    "M",
    "MB",
    "ND",
    "MOSAIC"
],
  "ImagingFrequency": 123.259,
  "InPlanePhaseEncodingDirectionDICOM": "COL",
  "InstitutionAddress": "Chemin_Queen-Mary_4565_Montreal_District_CA_H3W_1W5",
  "InstitutionName": "IUGM",
  "InstitutionalDepartmentName": "Department",
  "MRAcquisitionType": "2D",
  "MagneticFieldStrength": 3,
  "Manufacturer": "Siemens",
  "ManufacturersModelName": "Prisma_fit",
  "Modality": "MR",
  "MultibandAccelerationFactor": 4,
  "PartialFourier": 1,
  "PatientPosition": "HFS",
  "PercentPhaseFOV": 100,
  "PhaseEncodingDirection": "j",
  "PhaseEncodingSteps": 104,
  "PhaseResolution": 1,
  "PixelBandwidth": 2290,
  "ProcedureStepDescription": "memory_things",
  "ProtocolName": "func_task-things_run-6",
  "PulseSequenceDetails": "%CustomerSeq%_cmrr_mbep2d_bold",
  "ReceiveCoilActiveElements": "HC1-7;NC1,2",
  "ReceiveCoilName": "HeadNeck_64",
  "ReconMatrixPE": 104,
  "RepetitionTime": 1.49,
  "SAR": 0.0519588,
  "ScanOptions": "FS",
  "ScanningSequence": "EP",
  "SequenceName": "epfid2d1_104",
  "SequenceVariant": "SK_SS",
  "SeriesDescription": "func_task-things_run-6",
  "SeriesNumber": 25,
  "ShimSetting": [638, -7229, -8771, 720, 37, -44, 113, -18],
  "SliceThickness": 2,
  "SliceTiming": [0, 0.785, 0.0975, 0.8825, 0.1975, 0.98, 0.295, 1.0775, 0.3925, 1.175, 0.49, 1.275, 0.5875, 1.3725, 0.6875, 0, 0.785, 0.0975, 0.8825, 0.1975, 0.98, 0.295, 1.0775, 0.3925, 1.175, 0.49, 1.275, 0.5875, 1.3725, 0.6875, 0, 0.785, 0.0975, 0.8825, 0.1975, 0.98, 0.295, 1.0775, 0.3925, 1.175, 0.49, 1.275, 0.5875, 1.3725, 0.6875, 0, 0.785, 0.0975, 0.8825, 0.1975, 0.98, 0.295, 1.0775, 0.3925, 1.175, 0.49, 1.275, 0.5875, 1.3725, 0.6875],
  "SoftwareVersions": "syngo_MR_E11",
  "SpacingBetweenSlices": 2,
  "StationName": "MRC35049",
  "TaskName": "things",
  "TotalReadoutTime": 0.0576811,
  "TxRefAmp": 238.16,
  "WipMemBlock": "a5df2424-e015-4d90-b884-460e819184b2||Sequence: R016 ve11c/master r/e634e98; Dec 19 2017 11:00:25 by eja",
  "dcmmeta_affine": [
    [-1.9986437559127808, 0.013255753554403782, 0.07244005799293518, 106.74669647216797],
    [-0.003527902066707611, 1.9478399753570557, -0.4537697732448578, -76.52201843261719],
    [0.07355834543704987, 0.4535898268222809, 1.946495771408081, -59.392513275146484],
    [0.0, 0.0, 0.0, 1.0]
],
  "dcmmeta_reorient_transform": [
    [0.0, -1.0, 0.0, 103.0],
    [1.0, 0.0, 0.0, 0.0],
    [0.0, 0.0, 1.0, 0.0],
    [0.0, 0.0, 0.0, 1.0]
],
  "dcmmeta_shape": [104, 104, 60, 190],
  "dcmmeta_slice_dim": 2,
  "dcmmeta_version": 0.6,
  "global": {
    "const": {
      "AcquisitionMatrix": [104, 0, 0, 104],
      "AngioFlag": "N",
      "BitsAllocated": 16,
      "BitsStored": 16,
      "BodyPartExamined": "BRAIN",
      "Columns": 832,
      "EchoNumbers": 1,
      "EchoTime": 37.0,
      "EchoTrainLength": 104,
      "FlipAngle": 52.0,
      "HighBit": 15,
      "ImageOrientationPatient": [0.99932186053523, 0.00176395099889, 0.03677917254762, 0.00662787659026, 0.97391998665536, -0.2267949092134],
      "ImagePositionPatient": [-840.44344930141, -834.40340311748, 125.65869425484],
      "ImageType": [
        "ORIGINAL",
        "PRIMARY",
        "M",
        "MB",
        "ND",
        "MOSAIC"
],
      "ImagedNucleus": "1H",
      "ImagingFrequency": 123.258926,
      "InPlanePhaseEncodingDirection": "COL",
      "MRAcquisitionType": "2D",
      "MagneticFieldStrength": 3.0,
      "Manufacturer": "SIEMENS",
      "ManufacturerModelName": "Prisma_fit",
      "Modality": "MR",
      "NumberOfAverages": 1.0,
      "NumberOfPhaseEncodingSteps": 104,
      "PercentPhaseFieldOfView": 100.0,
      "PercentSampling": 100.0,
      "PerformedProcedureStepStartTime": "125911.406000",
      "PhotometricInterpretation": "MONOCHROME2",
      "PixelBandwidth": 2290.0,
      "PixelRepresentation": 0,
      "PixelSpacing": [2.0, 2.0],
      "ProtocolName": "func_task-things_run-6",
      "RepetitionTime": 1490.0,
      "Rows": 832,
      "SAR": 0.05195881885346,
      "SamplesPerPixel": 1,
      "ScanOptions": "FS",
      "ScanningSequence": "EP",
      "SequenceName": "epfid2d1_104",
      "SequenceVariant": [
        "SK",
        "SS"
],
      "SeriesDescription": "func_task-things_run-6",
      "SeriesNumber": 25,
      "SeriesTime": "134915.983000",
      "SliceLocation": -36.575577831882,
      "SliceThickness": 2.0,
      "SmallestImagePixelValue": 0,
      "SoftwareVersions": "syngo MR E11",
      "SpacingBetweenSlices": 2.0000000819017,
      "SpecificCharacterSet": "ISO_IR 100",
      "StudyID": "1",
      "StudyTime": "125911.191000",
      "TransmitCoilName": "Body",
      "VariableFlipAngleFlag": "N",
      "WindowCenterWidthExplanation": "Algo1",
      "dBdt": 0.0},
    "slices": {}
  },
  "time": {
    "samples": {
      "AcquisitionNumber": [1, 2, 3, 4, 5, 6, 7, 8, 9, 10, 11, 12, 13, 14, 15, 16, 17, 18, 19, 20, 21, 22, 23, 24, 25, 26, 27, 28, 29, 30, 31, 32, 33, 34, 35, 36, 37, 38, 39, 40, 41, 42, 43, 44, 45, 46, 47, 48, 49, 50, 51, 52, 53, 54, 55, 56, 57, 58, 59, 60, 61, 62, 63, 64, 65, 66, 67, 68, 69, 70, 71, 72, 73, 74, 75, 76, 77, 78, 79, 80, 81, 82, 83, 84, 85, 86, 87, 88, 89, 90, 91, 92, 93, 94, 95, 96, 97, 98, 99, 100, 101, 102, 103, 104, 105, 106, 107, 108, 109, 110, 111, 112, 113, 114, 115, 116, 117, 118, 119, 120, 121, 122, 123, 124, 125, 126, 127, 128, 129, 130, 131, 132, 133, 134, 135, 136, 137, 138, 139, 140, 141, 142, 143, 144, 145, 146, 147, 148, 149, 150, 151, 152, 153, 154, 155, 156, 157, 158, 159, 160, 161, 162, 163, 164, 165, 166, 167, 168, 169, 170, 171, 172, 173, 174, 175, 176, 177, 178, 179, 180, 181, 182, 183, 184, 185, 186, 187, 188, 189, 190],
      "AcquisitionTime": ["134752.560000", "134754.050000", "134755.540000", "134757.030000", "134758.520000", "134800.010000", "134801.500000", "134802.990000", "134804.480000", "134805.970000", "134807.460000", "134808.950000", "134810.440000", "134811.930000", "134813.420000", "134814.910000", "134816.400000", "134817.890000", "134819.380000", "134820.870000", "134822.360000", "134823.850000", "134825.340000", "134826.830000", "134828.320000", "134829.810000", "134831.300000", "134832.790000", "134834.280000", "134835.770000", "134837.260000", "134838.750000", "134840.240000", "134841.730000", "134843.220000", "134844.710000", "134846.200000", "134847.690000", "134849.180000", "134850.670000", "134852.160000", "134853.650000", "134855.140000", "134856.630000", "134858.120000", "134859.610000", "134901.100000", "134902.590000", "134904.080000", "134905.570000", "134907.060000", "134908.550000", "134910.040000", "134911.530000", "134913.020000", "134914.510000", "134916.000000", "134917.490000", "134918.980000", "134920.470000", "134921.960000", "134923.450000", "134924.940000", "134926.430000", "134927.920000", "134929.410000", "134930.900000", "134932.390000", "134933.880000", "134935.370000", "134936.860000", "134938.350000", "134939.840000", "134941.330000", "134942.820000", "134944.310000", "134945.800000", "134947.290000", "134948.780000", "134950.270000", "134951.760000", "134953.250000", "134954.740000", "134956.230000", "134957.720000", "134959.210000", "135000.700000", "135002.190000", "135003.680000", "135005.170000", "135006.660000", "135008.150000", "135009.640000", "135011.130000", "135012.620000", "135014.110000", "135015.600000", "135017.090000", "135018.580000", "135020.070000", "135021.560000", "135023.050000", "135024.540000", "135026.030000", "135027.520000", "135029.010000", "135030.500000", "135031.990000", "135033.480000", "135034.970000", "135036.460000", "135037.950000", "135039.440000", "135040.930000", "135042.420000", "135043.910000", "135045.400000", "135046.890000", "135048.380000", "135049.870000", "135051.360000", "135052.850000", "135054.340000", "135055.830000", "135057.320000", "135058.810000", "135100.300000", "135101.790000", "135103.280000", "135104.770000", "135106.260000", "135107.750000", "135109.240000", "135110.730000", "135112.220000", "135113.710000", "135115.200000", "135116.690000", "135118.180000", "135119.670000", "135121.160000", "135122.650000", "135124.140000", "135125.630000", "135127.120000", "135128.610000", "135130.100000", "135131.590000", "135133.080000", "135134.570000", "135136.060000", "135137.550000", "135139.040000", "135140.530000", "135142.020000", "135143.510000", "135145.000000", "135146.490000", "135147.980000", "135149.470000", "135150.960000", "135152.450000", "135153.940000", "135155.430000", "135156.920000", "135158.410000", "135159.900000", "135201.390000", "135202.880000", "135204.370000", "135205.860000", "135207.350000", "135208.840000", "135210.330000", "135211.820000", "135213.310000", "135214.800000", "135216.290000", "135217.780000", "135219.270000", "135220.760000", "135222.250000", "135223.740000", "135225.230000", "135226.720000", "135228.210000", "135229.700000", "135231.190000", "135232.680000", "135234.170000"],
      "ContentTime": ["134915.986000", "134915.994000", "134915.997000", "134916.001000", "134916.004000", "134916.007000", "134916.011000", "134916.014000", "134916.017000", "134916.021000", "134916.024000", "134916.027000", "134916.031000", "134916.034000", "134916.038000", "134916.041000", "134916.044000", "134916.047000", "134916.051000", "134916.054000", "134916.057000", "134916.067000", "134916.071000", "134916.074000", "134916.077000", "134916.081000", "134916.084000", "134916.088000", "134916.091000", "134935.943000", "134935.947000", "134935.950000", "134935.954000", "134935.957000", "134935.960000", "134935.964000", "134935.967000", "134935.970000", "134935.973000", "134935.977000", "134935.980000", "134935.984000", "134935.987000", "134935.990000", "134935.993000", "134935.997000", "134936.000000", "134936.003000", "134936.007000", "134955.943000", "134955.947000", "134955.950000", "134955.953000", "134955.957000", "134955.960000", "134955.964000", "134955.967000", "134955.970000", "134955.974000", "134955.977000", "134955.980000", "134955.984000", "134955.987000", "134955.990000", "134955.994000", "134955.997000", "134956.020000", "134956.023000", "134956.026000", "135015.943000", "135015.947000", "135015.950000", "135015.954000", "135015.957000", "135015.961000", "135015.965000", "135015.968000", "135015.971000", "135015.975000", "135015.978000", "135015.981000", "135015.985000", "135015.988000", "135015.991000", "135015.995000", "135015.998000", "135016.002000", "135016.006000", "135016.009000", "135016.012000", "135055.943000", "135055.947000", "135055.950000", "135055.954000", "135055.957000", "135055.960000", "135055.964000", "135055.967000", "135055.970000", "135055.974000", "135055.977000", "135055.986000", "135055.990000", "135055.993000", "135055.997000", "135056.001000", "135056.004000", "135056.008000", "135056.011000", "135056.014000", "135056.018000", "135056.021000", "135056.025000", "135056.028000", "135056.031000", "135056.034000", "135056.038000", "135056.041000", "135056.044000", "135056.048000", "135056.051000", "135056.055000", "135135.943000", "135135.947000", "135135.950000", "135135.954000", "135135.957000", "135135.960000", "135135.964000", "135135.967000", "135135.971000", "135135.974000", "135135.977000", "135135.981000", "135135.984000", "135135.987000", "135135.991000", "135135.994000", "135135.997000", "135136.002000", "135136.005000", "135136.008000", "135136.012000", "135136.015000", "135136.019000", "135136.022000", "135136.025000", "135136.029000", "135136.032000", "135215.943000", "135215.947000", "135215.950000", "135215.954000", "135215.957000", "135215.960000", "135215.964000", "135215.967000", "135215.970000", "135215.974000", "135215.977000", "135215.988000", "135215.992000", "135215.995000", "135216.012000", "135216.015000", "135216.018000", "135216.022000", "135216.025000", "135216.028000", "135216.032000", "135216.035000", "135216.038000", "135216.042000", "135216.045000", "135216.048000", "135216.052000", "135236.637000", "135236.640000", "135236.644000", "135236.647000", "135236.651000", "135236.654000", "135236.657000", "135236.661000", "135236.664000", "135236.668000", "135236.671000", "135236.674000", "135236.678000", "135236.681000"],
      "InstanceCreationTime": ["134915.986000", "134915.994000", "134915.997000", "134916.001000", "134916.004000", "134916.007000", "134916.011000", "134916.014000", "134916.017000", "134916.021000", "134916.024000", "134916.027000", "134916.031000", "134916.034000", "134916.038000", "134916.041000", "134916.044000", "134916.047000", "134916.051000", "134916.054000", "134916.057000", "134916.067000", "134916.071000", "134916.074000", "134916.077000", "134916.081000", "134916.084000", "134916.088000", "134916.091000", "134935.943000", "134935.947000", "134935.950000", "134935.954000", "134935.957000", "134935.960000", "134935.964000", "134935.967000", "134935.970000", "134935.973000", "134935.977000", "134935.980000", "134935.984000", "134935.987000", "134935.990000", "134935.993000", "134935.997000", "134936.000000", "134936.003000", "134936.007000", "134955.943000", "134955.947000", "134955.950000", "134955.953000", "134955.957000", "134955.960000", "134955.964000", "134955.967000", "134955.970000", "134955.974000", "134955.977000", "134955.980000", "134955.984000", "134955.987000", "134955.990000", "134955.994000", "134955.997000", "134956.020000", "134956.023000", "134956.026000", "135015.943000", "135015.947000", "135015.950000", "135015.954000", "135015.957000", "135015.961000", "135015.965000", "135015.968000", "135015.971000", "135015.975000", "135015.978000", "135015.981000", "135015.985000", "135015.988000", "135015.991000", "135015.995000", "135015.998000", "135016.002000", "135016.006000", "135016.009000", "135016.012000", "135055.943000", "135055.947000", "135055.950000", "135055.954000", "135055.957000", "135055.960000", "135055.964000", "135055.967000", "135055.970000", "135055.974000", "135055.977000", "135055.986000", "135055.990000", "135055.993000", "135055.997000", "135056.001000", "135056.004000", "135056.008000", "135056.011000", "135056.014000", "135056.018000", "135056.021000", "135056.025000", "135056.028000", "135056.031000", "135056.034000", "135056.038000", "135056.041000", "135056.044000", "135056.048000", "135056.051000", "135056.055000", "135135.943000", "135135.947000", "135135.950000", "135135.954000", "135135.957000", "135135.960000", "135135.964000", "135135.967000", "135135.971000", "135135.974000", "135135.977000", "135135.981000", "135135.984000", "135135.987000", "135135.991000", "135135.994000", "135135.997000", "135136.002000", "135136.005000", "135136.008000", "135136.012000", "135136.015000", "135136.019000", "135136.022000", "135136.025000", "135136.029000", "135136.032000", "135215.943000", "135215.947000", "135215.950000", "135215.954000", "135215.957000", "135215.960000", "135215.964000", "135215.967000", "135215.970000", "135215.974000", "135215.977000", "135215.988000", "135215.992000", "135215.995000", "135216.012000", "135216.015000", "135216.018000", "135216.022000", "135216.025000", "135216.028000", "135216.032000", "135216.035000", "135216.038000", "135216.042000", "135216.045000", "135216.048000", "135216.052000", "135236.637000", "135236.640000", "135236.644000", "135236.647000", "135236.651000", "135236.654000", "135236.657000", "135236.661000", "135236.664000", "135236.668000", "135236.671000", "135236.674000", "135236.678000", "135236.681000"],
      "InstanceNumber": [1, 2, 3, 4, 5, 6, 7, 8, 9, 10, 11, 12, 13, 14, 15, 16, 17, 18, 19, 20, 21, 22, 23, 24, 25, 26, 27, 28, 29, 30, 31, 32, 33, 34, 35, 36, 37, 38, 39, 40, 41, 42, 43, 44, 45, 46, 47, 48, 49, 50, 51, 52, 53, 54, 55, 56, 57, 58, 59, 60, 61, 62, 63, 64, 65, 66, 67, 68, 69, 70, 71, 72, 73, 74, 75, 76, 77, 78, 79, 80, 81, 82, 83, 84, 85, 86, 87, 88, 89, 90, 91, 92, 93, 94, 95, 96, 97, 98, 99, 100, 101, 102, 103, 104, 105, 106, 107, 108, 109, 110, 111, 112, 113, 114, 115, 116, 117, 118, 119, 120, 121, 122, 123, 124, 125, 126, 127, 128, 129, 130, 131, 132, 133, 134, 135, 136, 137, 138, 139, 140, 141, 142, 143, 144, 145, 146, 147, 148, 149, 150, 151, 152, 153, 154, 155, 156, 157, 158, 159, 160, 161, 162, 163, 164, 165, 166, 167, 168, 169, 170, 171, 172, 173, 174, 175, 176, 177, 178, 179, 180, 181, 182, 183, 184, 185, 186, 187, 188, 189, 190],
      "LargestImagePixelValue": [40017, 39397, 38722, 38418, 38360, 37926, 38440, 38015, 37973, 37932, 38067, 38126, 38183, 37777, 37986, 37744, 37650, 37940, 37668, 37731, 37914, 37929, 38022, 37664, 37712, 37779, 37873, 37754, 37914, 37716, 37650, 37350, 37880, 37861, 37674, 37579, 37567, 37709, 37499, 37527, 37864, 37349, 37740, 37379, 37428, 37648, 37801, 37606, 37473, 37490, 37174, 37447, 37778, 37439, 37991, 37443, 37881, 37699, 37694, 37590, 37500, 37535, 37549, 37240, 37377, 37599, 37705, 37320, 37434, 37711, 37432, 37547, 37629, 37611, 37538, 37528, 37665, 37776, 37750, 37585, 37328, 37736, 37670, 37940, 37774, 37473, 37627, 37537, 37506, 37859, 37686, 37515, 37475, 37848, 37864, 37496, 37698, 37604, 37252, 37675, 37539, 37411, 37588, 37564, 37978, 37688, 37670, 37566, 37769, 37635, 38034, 37533, 37745, 37473, 38075, 37901, 38002, 37884, 37861, 38562, 37702, 38177, 38128, 38368, 38025, 38214, 37906, 38235, 37599, 38739, 37600, 38516, 37936, 38342, 38218, 38636, 37941, 38596, 37983, 38924, 38170, 38648, 38438, 38098, 38502, 38571, 38505, 38538, 38521, 38010, 39003, 38462, 38607, 37990, 38478, 38619, 38884, 38545, 38739, 38102, 38628, 38358, 38969, 38280, 38808, 38626, 38824, 38529, 39147, 38384, 39364, 38399, 39133, 38723, 38994, 38539, 38994, 38311, 38484, 38385, 38572, 38795, 37910, 39538, 38524, 37866, 38061, 37836, 37686, 37868],
      "WindowCenter": [10179.0, 10131.0, 10103.0, 10085.0, 10092.0, 10101.0, 10100.0, 10108.0, 10110.0, 10104.0, 10099.0, 10100.0, 10107.0, 10104.0, 10125.0, 10123.0, 10139.0, 10145.0, 10145.0, 10138.0, 10130.0, 10128.0, 10118.0, 10120.0, 10116.0, 10129.0, 10131.0, 10137.0, 10129.0, 10130.0, 10126.0, 10114.0, 10119.0, 10127.0, 10129.0, 10136.0, 10123.0, 10128.0, 10123.0, 10131.0, 10138.0, 10148.0, 10163.0, 10149.0, 10134.0, 10129.0, 10127.0, 10128.0, 10132.0, 10131.0, 10131.0, 10129.0, 10129.0, 10129.0, 10126.0, 10120.0, 10119.0, 10112.0, 10105.0, 10110.0, 10104.0, 10103.0, 10113.0, 10129.0, 10130.0, 10122.0, 10113.0, 10111.0, 10112.0, 10126.0, 10122.0, 10121.0, 10118.0, 10112.0, 10118.0, 10114.0, 10118.0, 10119.0, 10122.0, 10122.0, 10120.0, 10120.0, 10119.0, 10127.0, 10128.0, 10129.0, 10115.0, 10106.0, 10105.0, 10118.0, 10129.0, 10124.0, 10131.0, 10127.0, 10128.0, 10132.0, 10139.0, 10131.0, 10108.0, 10112.0, 10110.0, 10121.0, 10122.0, 10122.0, 10126.0, 10130.0, 10130.0, 10122.0, 10111.0, 10104.0, 10117.0, 10131.0, 10134.0, 10130.0, 10134.0, 10127.0, 10126.0, 10120.0, 10127.0, 10131.0, 10118.0, 10111.0, 10116.0, 10114.0, 10108.0, 10110.0, 10118.0, 10123.0, 10129.0, 10148.0, 10138.0, 10125.0, 10109.0, 10104.0, 10108.0, 10130.0, 10142.0, 10148.0, 10130.0, 10132.0, 10128.0, 10148.0, 10150.0, 10135.0, 10132.0, 10140.0, 10134.0, 10132.0, 10106.0, 10091.0, 10100.0, 10111.0, 10121.0, 10127.0, 10132.0, 10133.0, 10127.0, 10116.0, 10120.0, 10132.0, 10157.0, 10170.0, 10163.0, 10142.0, 10125.0, 10124.0, 10114.0, 10117.0, 10137.0, 10124.0, 10147.0, 10133.0, 10121.0, 10120.0, 10111.0, 10115.0, 10115.0, 10114.0, 10099.0, 10105.0, 10128.0, 10140.0, 10154.0, 10154.0, 10118.0, 10084.0, 10078.0, 10099.0, 10110.0, 10103.0],
      "WindowWidth": [21690.0, 21556.0, 21480.0, 21433.0, 21444.0, 21463.0, 21459.0, 21476.0, 21482.0, 21470.0, 21456.0, 21460.0, 21476.0, 21474.0, 21517.0, 21516.0, 21551.0, 21565.0, 21564.0, 21551.0, 21533.0, 21526.0, 21501.0, 21507.0, 21495.0, 21528.0, 21533.0, 21546.0, 21528.0, 21530.0, 21519.0, 21497.0, 21505.0, 21524.0, 21528.0, 21545.0, 21518.0, 21525.0, 21518.0, 21534.0, 21551.0, 21574.0, 21608.0, 21574.0, 21543.0, 21529.0, 21524.0, 21525.0, 21540.0, 21538.0, 21536.0, 21529.0, 21528.0, 21528.0, 21518.0, 21507.0, 21504.0, 21490.0, 21473.0, 21484.0, 21470.0, 21469.0, 21494.0, 21528.0, 21531.0, 21512.0, 21490.0, 21486.0, 21490.0, 21520.0, 21513.0, 21510.0, 21502.0, 21491.0, 21503.0, 21496.0, 21500.0, 21505.0, 21512.0, 21513.0, 21507.0, 21506.0, 21502.0, 21522.0, 21526.0, 21528.0, 21497.0, 21475.0, 21474.0, 21501.0, 21530.0, 21520.0, 21535.0, 21521.0, 21523.0, 21536.0, 21551.0, 21533.0, 21483.0, 21488.0, 21485.0, 21510.0, 21515.0, 21511.0, 21518.0, 21529.0, 21530.0, 21513.0, 21486.0, 21473.0, 21500.0, 21535.0, 21537.0, 21532.0, 21536.0, 21520.0, 21516.0, 21506.0, 21522.0, 21527.0, 21500.0, 21486.0, 21494.0, 21487.0, 21478.0, 21483.0, 21502.0, 21510.0, 21528.0, 21566.0, 21547.0, 21512.0, 21475.0, 21461.0, 21477.0, 21526.0, 21555.0, 21567.0, 21529.0, 21528.0, 21526.0, 21565.0, 21573.0, 21539.0, 21530.0, 21544.0, 21536.0, 21528.0, 21467.0, 21437.0, 21450.0, 21479.0, 21504.0, 21523.0, 21530.0, 21533.0, 21515.0, 21494.0, 21503.0, 21533.0, 21588.0, 21620.0, 21597.0, 21550.0, 21514.0, 21509.0, 21487.0, 21495.0, 21539.0, 21513.0, 21561.0, 21531.0, 21501.0, 21499.0, 21477.0, 21491.0, 21489.0, 21487.0, 21454.0, 21467.0, 21519.0, 21547.0, 21584.0, 21574.0, 21493.0, 21416.0, 21399.0, 21453.0, 21477.0, 21464.0]
    },
    "slices": {}
  }
}