{
  "AcquisitionMatrixPE": 104,
  "AcquisitionNumber": 1,
  "AcquisitionTime": "13:41:23.757500",
  "BandwidthPerPixelPhaseEncode": 17.17,
  "BaseResolution": 104,
  "BodyPartExamined": "BRAIN",
  "CoilString": "HC1-7;NC1_2",
  "ConsistencyInfo": "N4_VE11C_LATEST_20160120",
  "ConversionSoftware": "dcm2niix",
  "ConversionSoftwareVersion": "v1.0.20190902",
  "DerivedVendorReportedEchoSpacing": 0.000560011,
  "DeviceSerialNumber": "167006",
  "DwellTime": 2.1e-06,
  "EchoTime": 0.037,
  "EchoTrainLength": 104,
  "EffectiveEchoSpacing": 0.000560011,
  "FlipAngle": 52,
  "ImageComments": "Unaliased_MB4_PE3_LB",
  "ImageOrientationPatientDICOM": [0.999322, 0.00176395, 0.0367792, 0.00662788, 0.97392, -0.226795],
  "ImageType": [
    "ORIGINAL",
    "PRIMARY",
    "M",
    "MB",
    "ND",
    "MOSAIC"
],
  "ImagingFrequency": 123.259,
  "InPlanePhaseEncodingDirectionDICOM": "COL",
  "InstitutionAddress": "Chemin_Queen-Mary_4565_Montreal_District_CA_H3W_1W5",
  "InstitutionName": "IUGM",
  "InstitutionalDepartmentName": "Department",
  "MRAcquisitionType": "2D",
  "MagneticFieldStrength": 3,
  "Manufacturer": "Siemens",
  "ManufacturersModelName": "Prisma_fit",
  "Modality": "MR",
  "MultibandAccelerationFactor": 4,
  "PartialFourier": 1,
  "PatientPosition": "HFS",
  "PercentPhaseFOV": 100,
  "PhaseEncodingDirection": "j",
  "PhaseEncodingSteps": 104,
  "PhaseResolution": 1,
  "PixelBandwidth": 2290,
  "ProcedureStepDescription": "memory_things",
  "ProtocolName": "func_task-things_run-5",
  "PulseSequenceDetails": "%CustomerSeq%_cmrr_mbep2d_bold",
  "ReceiveCoilActiveElements": "HC1-7;NC1,2",
  "ReceiveCoilName": "HeadNeck_64",
  "ReconMatrixPE": 104,
  "RepetitionTime": 1.49,
  "SAR": 0.0519588,
  "ScanOptions": "FS",
  "ScanningSequence": "EP",
  "SequenceName": "epfid2d1_104",
  "SequenceVariant": "SK_SS",
  "SeriesDescription": "func_task-things_run-5",
  "SeriesNumber": 22,
  "ShimSetting": [638, -7229, -8771, 720, 37, -44, 113, -18],
  "SliceThickness": 2,
  "SliceTiming": [0, 0.7825, 0.0975, 0.88, 0.195, 0.98, 0.2925, 1.0775, 0.39, 1.175, 0.49, 1.2725, 0.5875, 1.37, 0.685, 0, 0.7825, 0.0975, 0.88, 0.195, 0.98, 0.2925, 1.0775, 0.39, 1.175, 0.49, 1.2725, 0.5875, 1.37, 0.685, 0, 0.7825, 0.0975, 0.88, 0.195, 0.98, 0.2925, 1.0775, 0.39, 1.175, 0.49, 1.2725, 0.5875, 1.37, 0.685, 0, 0.7825, 0.0975, 0.88, 0.195, 0.98, 0.2925, 1.0775, 0.39, 1.175, 0.49, 1.2725, 0.5875, 1.37, 0.685],
  "SoftwareVersions": "syngo_MR_E11",
  "SpacingBetweenSlices": 2,
  "StationName": "MRC35049",
  "TaskName": "things",
  "TotalReadoutTime": 0.0576811,
  "TxRefAmp": 238.16,
  "WipMemBlock": "7d7f843c-fd88-4bb6-8a02-f65c55d01af7||Sequence: R016 ve11c/master r/e634e98; Dec 19 2017 11:00:25 by eja",
  "dcmmeta_affine": [
    [-1.9986437559127808, 0.013255753554403782, 0.07244005799293518, 106.74669647216797],
    [-0.003527902066707611, 1.9478399753570557, -0.4537697732448578, -76.52201843261719],
    [0.07355834543704987, 0.4535898268222809, 1.946495771408081, -59.392513275146484],
    [0.0, 0.0, 0.0, 1.0]
],
  "dcmmeta_reorient_transform": [
    [0.0, -1.0, 0.0, 103.0],
    [1.0, 0.0, 0.0, 0.0],
    [0.0, 0.0, 1.0, 0.0],
    [0.0, 0.0, 0.0, 1.0]
],
  "dcmmeta_shape": [104, 104, 60, 190],
  "dcmmeta_slice_dim": 2,
  "dcmmeta_version": 0.6,
  "global": {
    "const": {
      "AcquisitionMatrix": [104, 0, 0, 104],
      "AngioFlag": "N",
      "BitsAllocated": 16,
      "BitsStored": 16,
      "BodyPartExamined": "BRAIN",
      "Columns": 832,
      "EchoNumbers": 1,
      "EchoTime": 37.0,
      "EchoTrainLength": 104,
      "FlipAngle": 52.0,
      "HighBit": 15,
      "ImageOrientationPatient": [0.99932186053523, 0.00176395099889, 0.03677917254762, 0.00662787659026, 0.97391998665536, -0.2267949092134],
      "ImagePositionPatient": [-840.44344930141, -834.40340311748, 125.65869425484],
      "ImageType": [
        "ORIGINAL",
        "PRIMARY",
        "M",
        "MB",
        "ND",
        "MOSAIC"
],
      "ImagedNucleus": "1H",
      "ImagingFrequency": 123.258925,
      "InPlanePhaseEncodingDirection": "COL",
      "MRAcquisitionType": "2D",
      "MagneticFieldStrength": 3.0,
      "Manufacturer": "SIEMENS",
      "ManufacturerModelName": "Prisma_fit",
      "Modality": "MR",
      "NumberOfAverages": 1.0,
      "NumberOfPhaseEncodingSteps": 104,
      "PercentPhaseFieldOfView": 100.0,
      "PercentSampling": 100.0,
      "PerformedProcedureStepStartTime": "125911.406000",
      "PhotometricInterpretation": "MONOCHROME2",
      "PixelBandwidth": 2290.0,
      "PixelRepresentation": 0,
      "PixelSpacing": [2.0, 2.0],
      "ProtocolName": "func_task-things_run-5",
      "RepetitionTime": 1490.0,
      "Rows": 832,
      "SAR": 0.05195881885346,
      "SamplesPerPixel": 1,
      "ScanOptions": "FS",
      "ScanningSequence": "EP",
      "SequenceName": "epfid2d1_104",
      "SequenceVariant": [
        "SK",
        "SS"
],
      "SeriesDescription": "func_task-things_run-5",
      "SeriesNumber": 22,
      "SeriesTime": "134230.113000",
      "SliceLocation": -36.575577831882,
      "SliceThickness": 2.0,
      "SmallestImagePixelValue": 0,
      "SoftwareVersions": "syngo MR E11",
      "SpacingBetweenSlices": 2.0000000819017,
      "SpecificCharacterSet": "ISO_IR 100",
      "StudyID": "1",
      "StudyTime": "125911.191000",
      "TransmitCoilName": "Body",
      "VariableFlipAngleFlag": "N",
      "WindowCenterWidthExplanation": "Algo1",
      "dBdt": 0.0},
    "slices": {}
  },
  "time": {
    "samples": {
      "AcquisitionNumber": [1, 2, 3, 4, 5, 6, 7, 8, 9, 10, 11, 12, 13, 14, 15, 16, 17, 18, 19, 20, 21, 22, 23, 24, 25, 26, 27, 28, 29, 30, 31, 32, 33, 34, 35, 36, 37, 38, 39, 40, 41, 42, 43, 44, 45, 46, 47, 48, 49, 50, 51, 52, 53, 54, 55, 56, 57, 58, 59, 60, 61, 62, 63, 64, 65, 66, 67, 68, 69, 70, 71, 72, 73, 74, 75, 76, 77, 78, 79, 80, 81, 82, 83, 84, 85, 86, 87, 88, 89, 90, 91, 92, 93, 94, 95, 96, 97, 98, 99, 100, 101, 102, 103, 104, 105, 106, 107, 108, 109, 110, 111, 112, 113, 114, 115, 116, 117, 118, 119, 120, 121, 122, 123, 124, 125, 126, 127, 128, 129, 130, 131, 132, 133, 134, 135, 136, 137, 138, 139, 140, 141, 142, 143, 144, 145, 146, 147, 148, 149, 150, 151, 152, 153, 154, 155, 156, 157, 158, 159, 160, 161, 162, 163, 164, 165, 166, 167, 168, 169, 170, 171, 172, 173, 174, 175, 176, 177, 178, 179, 180, 181, 182, 183, 184, 185, 186, 187, 188, 189, 190],
      "AcquisitionTime": ["134123.757500", "134125.247500", "134126.737500", "134128.227500", "134129.717500", "134131.207500", "134132.697500", "134134.187500", "134135.677500", "134137.167500", "134138.657500", "134140.147500", "134141.637500", "134143.127500", "134144.617500", "134146.107500", "134147.597500", "134149.087500", "134150.577500", "134152.067500", "134153.557500", "134155.047500", "134156.537500", "134158.027500", "134159.517500", "134201.007500", "134202.497500", "134203.987500", "134205.477500", "134206.967500", "134208.457500", "134209.947500", "134211.437500", "134212.927500", "134214.417500", "134215.907500", "134217.397500", "134218.887500", "134220.377500", "134221.867500", "134223.357500", "134224.847500", "134226.337500", "134227.827500", "134229.317500", "134230.807500", "134232.297500", "134233.787500", "134235.277500", "134236.767500", "134238.257500", "134239.747500", "134241.237500", "134242.727500", "134244.217500", "134245.707500", "134247.197500", "134248.687500", "134250.177500", "134251.667500", "134253.157500", "134254.647500", "134256.137500", "134257.627500", "134259.117500", "134300.607500", "134302.097500", "134303.587500", "134305.077500", "134306.567500", "134308.057500", "134309.547500", "134311.037500", "134312.527500", "134314.017500", "134315.507500", "134316.997500", "134318.487500", "134319.977500", "134321.467500", "134322.957500", "134324.447500", "134325.937500", "134327.427500", "134328.917500", "134330.407500", "134331.897500", "134333.387500", "134334.877500", "134336.367500", "134337.857500", "134339.347500", "134340.837500", "134342.327500", "134343.817500", "134345.307500", "134346.797500", "134348.287500", "134349.777500", "134351.267500", "134352.757500", "134354.247500", "134355.737500", "134357.227500", "134358.717500", "134400.207500", "134401.697500", "134403.187500", "134404.677500", "134406.167500", "134407.657500", "134409.147500", "134410.637500", "134412.127500", "134413.617500", "134415.107500", "134416.597500", "134418.087500", "134419.577500", "134421.067500", "134422.557500", "134424.047500", "134425.537500", "134427.027500", "134428.517500", "134430.007500", "134431.497500", "134432.987500", "134434.477500", "134435.967500", "134437.457500", "134438.947500", "134440.437500", "134441.927500", "134443.417500", "134444.907500", "134446.397500", "134447.887500", "134449.377500", "134450.867500", "134452.357500", "134453.847500", "134455.337500", "134456.827500", "134458.317500", "134459.807500", "134501.297500", "134502.787500", "134504.277500", "134505.767500", "134507.257500", "134508.747500", "134510.237500", "134511.727500", "134513.217500", "134514.707500", "134516.197500", "134517.687500", "134519.177500", "134520.667500", "134522.157500", "134523.647500", "134525.137500", "134526.627500", "134528.117500", "134529.607500", "134531.097500", "134532.587500", "134534.077500", "134535.567500", "134537.057500", "134538.547500", "134540.037500", "134541.527500", "134543.017500", "134544.507500", "134545.997500", "134547.487500", "134548.977500", "134550.467500", "134551.957500", "134553.447500", "134554.937500", "134556.427500", "134557.917500", "134559.407500", "134600.897500", "134602.387500", "134603.877500", "134605.367500"],
      "ContentTime": ["134230.116000", "134230.119000", "134230.123000", "134230.126000", "134230.129000", "134230.133000", "134230.136000", "134230.139000", "134230.143000", "134230.146000", "134230.156000", "134230.160000", "134230.163000", "134250.079000", "134250.083000", "134250.086000", "134250.090000", "134250.093000", "134250.096000", "134250.100000", "134250.103000", "134250.106000", "134250.109000", "134250.113000", "134250.116000", "134250.119000", "134250.123000", "134250.126000", "134250.129000", "134250.133000", "134250.136000", "134250.139000", "134250.143000", "134250.146000", "134310.079000", "134310.083000", "134310.086000", "134310.089000", "134310.093000", "134310.096000", "134310.100000", "134310.103000", "134310.106000", "134310.110000", "134310.113000", "134310.117000", "134310.120000", "134310.123000", "134310.127000", "134310.130000", "134310.133000", "134310.137000", "134310.140000", "134310.144000", "134330.079000", "134330.083000", "134330.086000", "134330.090000", "134330.093000", "134330.097000", "134330.100000", "134330.103000", "134330.107000", "134330.110000", "134330.113000", "134330.134000", "134330.138000", "134330.141000", "134330.145000", "134330.148000", "134330.151000", "134330.155000", "134330.158000", "134330.161000", "134350.079000", "134350.083000", "134350.086000", "134350.090000", "134350.093000", "134350.097000", "134350.100000", "134350.104000", "134350.108000", "134350.112000", "134350.117000", "134350.120000", "134350.124000", "134350.128000", "134350.131000", "134350.135000", "134350.138000", "134350.142000", "134350.145000", "134350.149000", "134430.080000", "134430.084000", "134430.087000", "134430.091000", "134430.098000", "134430.101000", "134430.105000", "134430.108000", "134430.112000", "134430.115000", "134430.119000", "134430.123000", "134430.126000", "134430.130000", "134430.134000", "134430.138000", "134430.141000", "134430.145000", "134430.149000", "134430.152000", "134430.156000", "134430.160000", "134430.163000", "134430.166000", "134430.170000", "134430.173000", "134430.177000", "134430.180000", "134430.184000", "134430.187000", "134510.079000", "134510.083000", "134510.086000", "134510.090000", "134510.103000", "134510.106000", "134510.109000", "134510.113000", "134510.116000", "134510.119000", "134510.122000", "134510.126000", "134510.129000", "134510.132000", "134510.136000", "134510.139000", "134510.142000", "134510.146000", "134510.149000", "134510.152000", "134510.156000", "134510.159000", "134510.163000", "134510.166000", "134510.170000", "134510.173000", "134510.176000", "134550.079000", "134550.083000", "134550.091000", "134550.094000", "134550.098000", "134550.101000", "134550.104000", "134550.108000", "134550.111000", "134550.122000", "134550.126000", "134550.129000", "134550.145000", "134550.148000", "134550.151000", "134550.163000", "134550.166000", "134550.170000", "134550.173000", "134550.176000", "134550.180000", "134550.183000", "134550.186000", "134550.190000", "134550.193000", "134550.196000", "134550.200000", "134607.040000", "134607.044000", "134607.047000", "134607.051000", "134607.055000", "134607.058000", "134607.061000", "134607.065000", "134607.069000", "134607.072000", "134607.080000", "134607.083000"],
      "InstanceCreationTime": ["134230.116000", "134230.119000", "134230.123000", "134230.126000", "134230.129000", "134230.133000", "134230.136000", "134230.139000", "134230.143000", "134230.146000", "134230.156000", "134230.160000", "134230.163000", "134250.079000", "134250.083000", "134250.086000", "134250.090000", "134250.093000", "134250.096000", "134250.100000", "134250.103000", "134250.106000", "134250.109000", "134250.113000", "134250.116000", "134250.119000", "134250.123000", "134250.126000", "134250.129000", "134250.133000", "134250.136000", "134250.139000", "134250.143000", "134250.146000", "134310.079000", "134310.083000", "134310.086000", "134310.089000", "134310.093000", "134310.096000", "134310.100000", "134310.103000", "134310.106000", "134310.110000", "134310.113000", "134310.117000", "134310.120000", "134310.123000", "134310.127000", "134310.130000", "134310.133000", "134310.137000", "134310.140000", "134310.144000", "134330.079000", "134330.083000", "134330.086000", "134330.090000", "134330.093000", "134330.097000", "134330.100000", "134330.103000", "134330.107000", "134330.110000", "134330.113000", "134330.134000", "134330.138000", "134330.141000", "134330.145000", "134330.148000", "134330.151000", "134330.155000", "134330.158000", "134330.161000", "134350.079000", "134350.083000", "134350.086000", "134350.090000", "134350.093000", "134350.097000", "134350.100000", "134350.104000", "134350.108000", "134350.112000", "134350.117000", "134350.120000", "134350.124000", "134350.128000", "134350.131000", "134350.135000", "134350.138000", "134350.142000", "134350.145000", "134350.149000", "134430.080000", "134430.084000", "134430.087000", "134430.091000", "134430.098000", "134430.101000", "134430.105000", "134430.108000", "134430.112000", "134430.115000", "134430.119000", "134430.123000", "134430.126000", "134430.130000", "134430.134000", "134430.138000", "134430.141000", "134430.145000", "134430.149000", "134430.152000", "134430.156000", "134430.160000", "134430.163000", "134430.166000", "134430.170000", "134430.173000", "134430.177000", "134430.180000", "134430.184000", "134430.187000", "134510.079000", "134510.083000", "134510.086000", "134510.090000", "134510.103000", "134510.106000", "134510.109000", "134510.113000", "134510.116000", "134510.119000", "134510.122000", "134510.126000", "134510.129000", "134510.132000", "134510.136000", "134510.139000", "134510.142000", "134510.146000", "134510.149000", "134510.152000", "134510.156000", "134510.159000", "134510.163000", "134510.166000", "134510.170000", "134510.173000", "134510.176000", "134550.079000", "134550.083000", "134550.091000", "134550.094000", "134550.098000", "134550.101000", "134550.104000", "134550.108000", "134550.111000", "134550.122000", "134550.126000", "134550.129000", "134550.145000", "134550.148000", "134550.151000", "134550.163000", "134550.166000", "134550.170000", "134550.173000", "134550.176000", "134550.180000", "134550.183000", "134550.186000", "134550.190000", "134550.193000", "134550.196000", "134550.200000", "134607.040000", "134607.044000", "134607.047000", "134607.051000", "134607.055000", "134607.058000", "134607.061000", "134607.065000", "134607.069000", "134607.072000", "134607.080000", "134607.083000"],
      "InstanceNumber": [1, 2, 3, 4, 5, 6, 7, 8, 9, 10, 11, 12, 13, 14, 15, 16, 17, 18, 19, 20, 21, 22, 23, 24, 25, 26, 27, 28, 29, 30, 31, 32, 33, 34, 35, 36, 37, 38, 39, 40, 41, 42, 43, 44, 45, 46, 47, 48, 49, 50, 51, 52, 53, 54, 55, 56, 57, 58, 59, 60, 61, 62, 63, 64, 65, 66, 67, 68, 69, 70, 71, 72, 73, 74, 75, 76, 77, 78, 79, 80, 81, 82, 83, 84, 85, 86, 87, 88, 89, 90, 91, 92, 93, 94, 95, 96, 97, 98, 99, 100, 101, 102, 103, 104, 105, 106, 107, 108, 109, 110, 111, 112, 113, 114, 115, 116, 117, 118, 119, 120, 121, 122, 123, 124, 125, 126, 127, 128, 129, 130, 131, 132, 133, 134, 135, 136, 137, 138, 139, 140, 141, 142, 143, 144, 145, 146, 147, 148, 149, 150, 151, 152, 153, 154, 155, 156, 157, 158, 159, 160, 161, 162, 163, 164, 165, 166, 167, 168, 169, 170, 171, 172, 173, 174, 175, 176, 177, 178, 179, 180, 181, 182, 183, 184, 185, 186, 187, 188, 189, 190],
      "LargestImagePixelValue": [39835, 38931, 38366, 38416, 38134, 37869, 38069, 38050, 37945, 37906, 37527, 37929, 37889, 37445, 37302, 37428, 37469, 37256, 37475, 37492, 37255, 37227, 37295, 37190, 37661, 37545, 37495, 36990, 37768, 37877, 37618, 37607, 37571, 37600, 37919, 37712, 37571, 37326, 37610, 37473, 37526, 37407, 37763, 37868, 37334, 37627, 36972, 37540, 37344, 37696, 37298, 37433, 37531, 37355, 37646, 37152, 37566, 37437, 37606, 37126, 37535, 37610, 37409, 38119, 38012, 37515, 37500, 37668, 37219, 37532, 37430, 37820, 37765, 37478, 37547, 37570, 37799, 38110, 37624, 37741, 37368, 37104, 38032, 37667, 38196, 38007, 37881, 37501, 37812, 37659, 37300, 37327, 37458, 37596, 37492, 37825, 37611, 37796, 38193, 38542, 37840, 37806, 38026, 37633, 38062, 37801, 38196, 38192, 38052, 37563, 37900, 37578, 37913, 37566, 37873, 37579, 37613, 37805, 37695, 37505, 37847, 37752, 37777, 37514, 37460, 37218, 37588, 37431, 37592, 37880, 37665, 37904, 37500, 37547, 37655, 37765, 37890, 37614, 37597, 37785, 37350, 37759, 37587, 37566, 37812, 37546, 37923, 37517, 37211, 37521, 37724, 37896, 37323, 37456, 37531, 37267, 37880, 38197, 37688, 37718, 37372, 37786, 37431, 37713, 37748, 37789, 37604, 37644, 37530, 37745, 37183, 37753, 38259, 37535, 37474, 37769, 37569, 37738, 37789, 37777, 37411, 37245, 37835, 37572, 37639, 37682, 37827, 38105, 37629, 37683],
      "WindowCenter": [10144.0, 10114.0, 10104.0, 10101.0, 10085.0, 10086.0, 10089.0, 10100.0, 10109.0, 10119.0, 10115.0, 10125.0, 10113.0, 10111.0, 10114.0, 10127.0, 10131.0, 10130.0, 10129.0, 10123.0, 10125.0, 10141.0, 10146.0, 10135.0, 10130.0, 10120.0, 10114.0, 10117.0, 10118.0, 10118.0, 10118.0, 10129.0, 10122.0, 10104.0, 10078.0, 10082.0, 10087.0, 10107.0, 10111.0, 10094.0, 10085.0, 10078.0, 10092.0, 10116.0, 10128.0, 10128.0, 10108.0, 10103.0, 10094.0, 10116.0, 10122.0, 10123.0, 10114.0, 10104.0, 10110.0, 10116.0, 10130.0, 10139.0, 10124.0, 10110.0, 10105.0, 10104.0, 10087.0, 10093.0, 10098.0, 10105.0, 10104.0, 10103.0, 10105.0, 10107.0, 10112.0, 10130.0, 10137.0, 10116.0, 10098.0, 10095.0, 10090.0, 10100.0, 10118.0, 10129.0, 10124.0, 10108.0, 10109.0, 10104.0, 10109.0, 10108.0, 10112.0, 10120.0, 10128.0, 10129.0, 10123.0, 10107.0, 10112.0, 10097.0, 10104.0, 10102.0, 10094.0, 10078.0, 10075.0, 10065.0, 10066.0, 10080.0, 10098.0, 10092.0, 10107.0, 10103.0, 10094.0, 10085.0, 10103.0, 10106.0, 10112.0, 10089.0, 10096.0, 10098.0, 10113.0, 10123.0, 10147.0, 10133.0, 10110.0, 10083.0, 10077.0, 10084.0, 10102.0, 10113.0, 10107.0, 10099.0, 10095.0, 10096.0, 10101.0, 10119.0, 10112.0, 10105.0, 10084.0, 10087.0, 10102.0, 10111.0, 10105.0, 10111.0, 10105.0, 10110.0, 10091.0, 10084.0, 10076.0, 10092.0, 10102.0, 10108.0, 10117.0, 10121.0, 10107.0, 10112.0, 10095.0, 10105.0, 10107.0, 10115.0, 10090.0, 10075.0, 10077.0, 10090.0, 10110.0, 10130.0, 10114.0, 10111.0, 10095.0, 10108.0, 10113.0, 10132.0, 10128.0, 10146.0, 10142.0, 10125.0, 10092.0, 10079.0, 10075.0, 10080.0, 10090.0, 10103.0, 10089.0, 10079.0, 10061.0, 10084.0, 10094.0, 10106.0, 10113.0, 10098.0, 10077.0, 10068.0, 10092.0, 10154.0, 10153.0, 10158.0],
      "WindowWidth": [21607.0, 21515.0, 21481.0, 21467.0, 21428.0, 21429.0, 21432.0, 21457.0, 21478.0, 21504.0, 21497.0, 21512.0, 21491.0, 21486.0, 21496.0, 21519.0, 21530.0, 21530.0, 21525.0, 21513.0, 21519.0, 21554.0, 21564.0, 21543.0, 21526.0, 21503.0, 21488.0, 21497.0, 21495.0, 21496.0, 21496.0, 21523.0, 21509.0, 21464.0, 21406.0, 21413.0, 21428.0, 21477.0, 21482.0, 21442.0, 21422.0, 21406.0, 21436.0, 21489.0, 21519.0, 21520.0, 21477.0, 21463.0, 21445.0, 21493.0, 21510.0, 21511.0, 21491.0, 21466.0, 21480.0, 21497.0, 21529.0, 21547.0, 21513.0, 21484.0, 21468.0, 21465.0, 21428.0, 21436.0, 21449.0, 21471.0, 21470.0, 21465.0, 21471.0, 21476.0, 21486.0, 21527.0, 21540.0, 21494.0, 21452.0, 21444.0, 21430.0, 21456.0, 21498.0, 21525.0, 21514.0, 21478.0, 21475.0, 21468.0, 21475.0, 21473.0, 21484.0, 21502.0, 21521.0, 21525.0, 21511.0, 21472.0, 21481.0, 21450.0, 21464.0, 21460.0, 21440.0, 21404.0, 21398.0, 21375.0, 21378.0, 21410.0, 21451.0, 21439.0, 21471.0, 21463.0, 21443.0, 21421.0, 21462.0, 21473.0, 21486.0, 21434.0, 21448.0, 21455.0, 21488.0, 21513.0, 21566.0, 21534.0, 21482.0, 21419.0, 21403.0, 21421.0, 21465.0, 21493.0, 21479.0, 21460.0, 21448.0, 21450.0, 21460.0, 21500.0, 21484.0, 21467.0, 21419.0, 21429.0, 21463.0, 21485.0, 21472.0, 21484.0, 21469.0, 21476.0, 21438.0, 21420.0, 21403.0, 21439.0, 21464.0, 21481.0, 21496.0, 21507.0, 21478.0, 21485.0, 21446.0, 21469.0, 21477.0, 21492.0, 21436.0, 21403.0, 21404.0, 21434.0, 21481.0, 21528.0, 21490.0, 21480.0, 21446.0, 21475.0, 21490.0, 21536.0, 21524.0, 21562.0, 21556.0, 21514.0, 21439.0, 21405.0, 21395.0, 21414.0, 21437.0, 21464.0, 21433.0, 21409.0, 21368.0, 21424.0, 21447.0, 21476.0, 21489.0, 21455.0, 21403.0, 21382.0, 21437.0, 21585.0, 21581.0, 21587.0]
    },
    "slices": {}
  }
}