{
  "AcquisitionMatrixPE": 104,
  "AcquisitionNumber": 1,
  "AcquisitionTime": "13:47:52.560000",
  "BandwidthPerPixelPhaseEncode": 17.17,
  "BaseResolution": 104,
  "BodyPartExamined": "BRAIN",
  "CoilString": "HC1-7;NC1_2",
  "ConsistencyInfo": "N4_VE11C_LATEST_20160120",
  "ConversionSoftware": "dcm2niix",
  "ConversionSoftwareVersion": "v1.0.20190902",
  "DerivedVendorReportedEchoSpacing": 0.000560011,
  "DeviceSerialNumber": "167006",
  "DwellTime": 2.1e-06,
  "EchoTime": 0.037,
  "EchoTrainLength": 104,
  "EffectiveEchoSpacing": 0.000560011,
  "FlipAngle": 52,
  "ImageComments": "Unaliased_MB4_PE3_LB",
  "ImageOrientationPatientDICOM": [0.999322, 0.00176395, 0.0367792, 0.00662788, 0.97392, -0.226795],
  "ImageType": [
    "ORIGINAL",
    "PRIMARY",
    "P",
    "MB",
    "ND",
    "MOSAIC"
],
  "ImagingFrequency": 123.259,
  "InPlanePhaseEncodingDirectionDICOM": "COL",
  "InstitutionAddress": "Chemin_Queen-Mary_4565_Montreal_District_CA_H3W_1W5",
  "InstitutionName": "IUGM",
  "InstitutionalDepartmentName": "Department",
  "MRAcquisitionType": "2D",
  "MagneticFieldStrength": 3,
  "Manufacturer": "Siemens",
  "ManufacturersModelName": "Prisma_fit",
  "Modality": "MR",
  "MultibandAccelerationFactor": 4,
  "PartialFourier": 1,
  "PatientPosition": "HFS",
  "PercentPhaseFOV": 100,
  "PhaseEncodingDirection": "j",
  "PhaseEncodingSteps": 104,
  "PhaseResolution": 1,
  "PixelBandwidth": 2290,
  "ProcedureStepDescription": "memory_things",
  "ProtocolName": "func_task-things_run-6",
  "PulseSequenceDetails": "%CustomerSeq%_cmrr_mbep2d_bold",
  "ReceiveCoilActiveElements": "HC1-7;NC1,2",
  "ReceiveCoilName": "HeadNeck_64",
  "ReconMatrixPE": 104,
  "RepetitionTime": 1.49,
  "SAR": 0.0519588,
  "ScanOptions": "FS",
  "ScanningSequence": "EP",
  "SequenceName": "epfid2d1_104",
  "SequenceVariant": "SK_SS",
  "SeriesDescription": "func_task-things_run-6",
  "SeriesNumber": 26,
  "ShimSetting": [638, -7229, -8771, 720, 37, -44, 113, -18],
  "SliceThickness": 2,
  "SliceTiming": [0, 0.785, 0.0975, 0.8825, 0.1975, 0.98, 0.295, 1.0775, 0.3925, 1.175, 0.49, 1.275, 0.5875, 1.3725, 0.6875, 0, 0.785, 0.0975, 0.8825, 0.1975, 0.98, 0.295, 1.0775, 0.3925, 1.175, 0.49, 1.275, 0.5875, 1.3725, 0.6875, 0, 0.785, 0.0975, 0.8825, 0.1975, 0.98, 0.295, 1.0775, 0.3925, 1.175, 0.49, 1.275, 0.5875, 1.3725, 0.6875, 0, 0.785, 0.0975, 0.8825, 0.1975, 0.98, 0.295, 1.0775, 0.3925, 1.175, 0.49, 1.275, 0.5875, 1.3725, 0.6875],
  "SoftwareVersions": "syngo_MR_E11",
  "SpacingBetweenSlices": 2,
  "StationName": "MRC35049",
  "TaskName": "things",
  "TotalReadoutTime": 0.0576811,
  "TxRefAmp": 238.16,
  "WipMemBlock": "a5df2424-e015-4d90-b884-460e819184b2||Sequence: R016 ve11c/master r/e634e98; Dec 19 2017 11:00:25 by eja",
  "dcmmeta_affine": [
    [-1.9986437559127808, 0.013255753554403782, 0.07244005799293518, 106.74669647216797],
    [-0.003527902066707611, 1.9478399753570557, -0.4537697732448578, -76.52201843261719],
    [0.07355834543704987, 0.4535898268222809, 1.946495771408081, -59.392513275146484],
    [0.0, 0.0, 0.0, 1.0]
],
  "dcmmeta_reorient_transform": [
    [0.0, -1.0, 0.0, 103.0],
    [1.0, 0.0, 0.0, 0.0],
    [0.0, 0.0, 1.0, 0.0],
    [0.0, 0.0, 0.0, 1.0]
],
  "dcmmeta_shape": [104, 104, 60, 190],
  "dcmmeta_slice_dim": 2,
  "dcmmeta_version": 0.6,
  "global": {
    "const": {
      "AcquisitionMatrix": [104, 0, 0, 104],
      "AngioFlag": "N",
      "BitsAllocated": 16,
      "BitsStored": 16,
      "BodyPartExamined": "BRAIN",
      "Columns": 832,
      "EchoNumbers": 1,
      "EchoTime": 37.0,
      "EchoTrainLength": 104,
      "FlipAngle": 52.0,
      "HighBit": 15,
      "ImageOrientationPatient": [0.99932186053523, 0.00176395099889, 0.03677917254762, 0.00662787659026, 0.97391998665536, -0.2267949092134],
      "ImagePositionPatient": [-840.44344930141, -834.40340311748, 125.65869425484],
      "ImageType": [
        "ORIGINAL",
        "PRIMARY",
        "P",
        "MB",
        "ND",
        "MOSAIC"
],
      "ImagedNucleus": "1H",
      "ImagingFrequency": 123.258926,
      "InPlanePhaseEncodingDirection": "COL",
      "LargestImagePixelValue": 4095,
      "MRAcquisitionType": "2D",
      "MagneticFieldStrength": 3.0,
      "Manufacturer": "SIEMENS",
      "ManufacturerModelName": "Prisma_fit",
      "Modality": "MR",
      "NumberOfAverages": 1.0,
      "NumberOfPhaseEncodingSteps": 104,
      "PercentPhaseFieldOfView": 100.0,
      "PercentSampling": 100.0,
      "PerformedProcedureStepStartTime": "125911.406000",
      "PhotometricInterpretation": "MONOCHROME2",
      "PixelBandwidth": 2290.0,
      "PixelRepresentation": 0,
      "PixelSpacing": [2.0, 2.0],
      "ProtocolName": "func_task-things_run-6",
      "RepetitionTime": 1490.0,
      "RescaleIntercept": -4096.0,
      "RescaleSlope": 2.0,
      "RescaleType": "US",
      "Rows": 832,
      "SAR": 0.05195881885346,
      "SamplesPerPixel": 1,
      "ScanOptions": "FS",
      "ScanningSequence": "EP",
      "SequenceName": "epfid2d1_104",
      "SequenceVariant": [
        "SK",
        "SS"
],
      "SeriesDescription": "func_task-things_run-6",
      "SeriesNumber": 26,
      "SeriesTime": "134916.569000",
      "SliceLocation": -36.575577831882,
      "SliceThickness": 2.0,
      "SmallestImagePixelValue": 0,
      "SoftwareVersions": "syngo MR E11",
      "SpacingBetweenSlices": 2.0000000819017,
      "SpecificCharacterSet": "ISO_IR 100",
      "StudyID": "1",
      "StudyTime": "125911.191000",
      "TransmitCoilName": "Body",
      "VariableFlipAngleFlag": "N",
      "WindowCenterWidthExplanation": "Algo1",
      "dBdt": 0.0},
    "slices": {}
  },
  "time": {
    "samples": {
      "AcquisitionNumber": [1, 2, 3, 4, 5, 6, 7, 8, 9, 10, 11, 12, 13, 14, 15, 16, 17, 18, 19, 20, 21, 22, 23, 24, 25, 26, 27, 28, 29, 30, 31, 32, 33, 34, 35, 36, 37, 38, 39, 40, 41, 42, 43, 44, 45, 46, 47, 48, 49, 50, 51, 52, 53, 54, 55, 56, 57, 58, 59, 60, 61, 62, 63, 64, 65, 66, 67, 68, 69, 70, 71, 72, 73, 74, 75, 76, 77, 78, 79, 80, 81, 82, 83, 84, 85, 86, 87, 88, 89, 90, 91, 92, 93, 94, 95, 96, 97, 98, 99, 100, 101, 102, 103, 104, 105, 106, 107, 108, 109, 110, 111, 112, 113, 114, 115, 116, 117, 118, 119, 120, 121, 122, 123, 124, 125, 126, 127, 128, 129, 130, 131, 132, 133, 134, 135, 136, 137, 138, 139, 140, 141, 142, 143, 144, 145, 146, 147, 148, 149, 150, 151, 152, 153, 154, 155, 156, 157, 158, 159, 160, 161, 162, 163, 164, 165, 166, 167, 168, 169, 170, 171, 172, 173, 174, 175, 176, 177, 178, 179, 180, 181, 182, 183, 184, 185, 186, 187, 188, 189, 190],
      "AcquisitionTime": ["134752.560000", "134754.050000", "134755.540000", "134757.030000", "134758.520000", "134800.010000", "134801.500000", "134802.990000", "134804.480000", "134805.970000", "134807.460000", "134808.950000", "134810.440000", "134811.930000", "134813.420000", "134814.910000", "134816.400000", "134817.890000", "134819.380000", "134820.870000", "134822.360000", "134823.850000", "134825.340000", "134826.830000", "134828.320000", "134829.810000", "134831.300000", "134832.790000", "134834.280000", "134835.770000", "134837.260000", "134838.750000", "134840.240000", "134841.730000", "134843.220000", "134844.710000", "134846.200000", "134847.690000", "134849.180000", "134850.670000", "134852.160000", "134853.650000", "134855.140000", "134856.630000", "134858.120000", "134859.610000", "134901.100000", "134902.590000", "134904.080000", "134905.570000", "134907.060000", "134908.550000", "134910.040000", "134911.530000", "134913.020000", "134914.510000", "134916.000000", "134917.490000", "134918.980000", "134920.470000", "134921.960000", "134923.450000", "134924.940000", "134926.430000", "134927.920000", "134929.410000", "134930.900000", "134932.390000", "134933.880000", "134935.370000", "134936.860000", "134938.350000", "134939.840000", "134941.330000", "134942.820000", "134944.310000", "134945.800000", "134947.290000", "134948.780000", "134950.270000", "134951.760000", "134953.250000", "134954.740000", "134956.230000", "134957.720000", "134959.210000", "135000.700000", "135002.190000", "135003.680000", "135005.170000", "135006.660000", "135008.150000", "135009.640000", "135011.130000", "135012.620000", "135014.110000", "135015.600000", "135017.090000", "135018.580000", "135020.070000", "135021.560000", "135023.050000", "135024.540000", "135026.030000", "135027.520000", "135029.010000", "135030.500000", "135031.990000", "135033.480000", "135034.970000", "135036.460000", "135037.950000", "135039.440000", "135040.930000", "135042.420000", "135043.910000", "135045.400000", "135046.890000", "135048.380000", "135049.870000", "135051.360000", "135052.850000", "135054.340000", "135055.830000", "135057.320000", "135058.810000", "135100.300000", "135101.790000", "135103.280000", "135104.770000", "135106.260000", "135107.750000", "135109.240000", "135110.730000", "135112.220000", "135113.710000", "135115.200000", "135116.690000", "135118.180000", "135119.670000", "135121.160000", "135122.650000", "135124.140000", "135125.630000", "135127.120000", "135128.610000", "135130.100000", "135131.590000", "135133.080000", "135134.570000", "135136.060000", "135137.550000", "135139.040000", "135140.530000", "135142.020000", "135143.510000", "135145.000000", "135146.490000", "135147.980000", "135149.470000", "135150.960000", "135152.450000", "135153.940000", "135155.430000", "135156.920000", "135158.410000", "135159.900000", "135201.390000", "135202.880000", "135204.370000", "135205.860000", "135207.350000", "135208.840000", "135210.330000", "135211.820000", "135213.310000", "135214.800000", "135216.290000", "135217.780000", "135219.270000", "135220.760000", "135222.250000", "135223.740000", "135225.230000", "135226.720000", "135228.210000", "135229.700000", "135231.190000", "135232.680000", "135234.170000"],
      "ContentTime": ["134916.571000", "134916.574000", "134916.577000", "134916.579000", "134916.582000", "134916.584000", "134916.587000", "134916.590000", "134916.592000", "134916.595000", "134916.597000", "134916.600000", "134916.603000", "134916.605000", "134916.607000", "134916.610000", "134916.613000", "134916.615000", "134916.618000", "134916.633000", "134916.636000", "134916.638000", "134916.641000", "134916.643000", "134916.646000", "134916.648000", "134916.651000", "134916.654000", "134916.656000", "134936.049000", "134936.062000", "134936.065000", "134936.067000", "134936.070000", "134936.072000", "134936.075000", "134936.077000", "134936.080000", "134936.083000", "134936.085000", "134936.088000", "134936.090000", "134936.093000", "134936.096000", "134936.098000", "134936.101000", "134936.103000", "134936.106000", "134936.108000", "134956.082000", "134956.085000", "134956.088000", "134956.090000", "134956.093000", "134956.096000", "134956.099000", "134956.101000", "134956.104000", "134956.107000", "134956.109000", "134956.113000", "134956.116000", "134956.118000", "134956.121000", "134956.124000", "134956.126000", "134956.129000", "134956.131000", "134956.134000", "135016.064000", "135016.067000", "135016.070000", "135016.072000", "135016.075000", "135016.077000", "135016.080000", "135016.082000", "135016.085000", "135016.087000", "135016.090000", "135016.092000", "135016.095000", "135016.097000", "135016.100000", "135016.111000", "135016.114000", "135016.116000", "135016.119000", "135016.121000", "135016.124000", "135056.108000", "135056.111000", "135056.113000", "135056.116000", "135056.118000", "135056.121000", "135056.124000", "135056.126000", "135056.129000", "135056.131000", "135056.134000", "135056.136000", "135056.139000", "135056.141000", "135056.144000", "135056.146000", "135056.149000", "135056.151000", "135056.154000", "135056.156000", "135056.159000", "135056.162000", "135056.164000", "135056.167000", "135056.169000", "135056.172000", "135056.174000", "135056.177000", "135056.179000", "135056.182000", "135056.184000", "135056.187000", "135136.092000", "135136.095000", "135136.097000", "135136.100000", "135136.102000", "135136.105000", "135136.113000", "135136.115000", "135136.118000", "135136.120000", "135136.123000", "135136.125000", "135136.128000", "135136.130000", "135136.133000", "135136.136000", "135136.138000", "135136.141000", "135136.143000", "135136.146000", "135136.148000", "135136.151000", "135136.154000", "135136.156000", "135136.159000", "135136.161000", "135136.164000", "135216.110000", "135216.113000", "135216.115000", "135216.118000", "135216.120000", "135216.123000", "135216.125000", "135216.128000", "135216.131000", "135216.133000", "135216.136000", "135216.138000", "135216.141000", "135216.143000", "135216.146000", "135216.148000", "135216.151000", "135216.153000", "135216.156000", "135216.158000", "135216.161000", "135216.163000", "135216.166000", "135216.168000", "135216.171000", "135216.173000", "135216.176000", "135236.724000", "135236.727000", "135236.729000", "135236.732000", "135236.734000", "135236.737000", "135236.739000", "135236.742000", "135236.744000", "135236.747000", "135236.749000", "135236.752000", "135236.754000", "135236.757000"],
      "InstanceCreationTime": ["134916.571000", "134916.574000", "134916.577000", "134916.579000", "134916.582000", "134916.584000", "134916.587000", "134916.590000", "134916.592000", "134916.595000", "134916.597000", "134916.600000", "134916.603000", "134916.605000", "134916.607000", "134916.610000", "134916.613000", "134916.615000", "134916.618000", "134916.633000", "134916.636000", "134916.638000", "134916.641000", "134916.643000", "134916.646000", "134916.648000", "134916.651000", "134916.654000", "134916.656000", "134936.049000", "134936.062000", "134936.065000", "134936.067000", "134936.070000", "134936.072000", "134936.075000", "134936.077000", "134936.080000", "134936.083000", "134936.085000", "134936.088000", "134936.090000", "134936.093000", "134936.096000", "134936.098000", "134936.101000", "134936.103000", "134936.106000", "134936.108000", "134956.082000", "134956.085000", "134956.088000", "134956.090000", "134956.093000", "134956.096000", "134956.099000", "134956.101000", "134956.104000", "134956.107000", "134956.109000", "134956.113000", "134956.116000", "134956.118000", "134956.121000", "134956.124000", "134956.126000", "134956.129000", "134956.131000", "134956.134000", "135016.064000", "135016.067000", "135016.070000", "135016.072000", "135016.075000", "135016.077000", "135016.080000", "135016.082000", "135016.085000", "135016.087000", "135016.090000", "135016.092000", "135016.095000", "135016.097000", "135016.100000", "135016.111000", "135016.114000", "135016.116000", "135016.119000", "135016.121000", "135016.124000", "135056.108000", "135056.111000", "135056.113000", "135056.116000", "135056.118000", "135056.121000", "135056.124000", "135056.126000", "135056.129000", "135056.131000", "135056.134000", "135056.136000", "135056.139000", "135056.141000", "135056.144000", "135056.146000", "135056.149000", "135056.151000", "135056.154000", "135056.156000", "135056.159000", "135056.162000", "135056.164000", "135056.167000", "135056.169000", "135056.172000", "135056.174000", "135056.177000", "135056.179000", "135056.182000", "135056.184000", "135056.187000", "135136.092000", "135136.095000", "135136.097000", "135136.100000", "135136.102000", "135136.105000", "135136.113000", "135136.115000", "135136.118000", "135136.120000", "135136.123000", "135136.125000", "135136.128000", "135136.130000", "135136.133000", "135136.136000", "135136.138000", "135136.141000", "135136.143000", "135136.146000", "135136.148000", "135136.151000", "135136.154000", "135136.156000", "135136.159000", "135136.161000", "135136.164000", "135216.110000", "135216.113000", "135216.115000", "135216.118000", "135216.120000", "135216.123000", "135216.125000", "135216.128000", "135216.131000", "135216.133000", "135216.136000", "135216.138000", "135216.141000", "135216.143000", "135216.146000", "135216.148000", "135216.151000", "135216.153000", "135216.156000", "135216.158000", "135216.161000", "135216.163000", "135216.166000", "135216.168000", "135216.171000", "135216.173000", "135216.176000", "135236.724000", "135236.727000", "135236.729000", "135236.732000", "135236.734000", "135236.737000", "135236.739000", "135236.742000", "135236.744000", "135236.747000", "135236.749000", "135236.752000", "135236.754000", "135236.757000"],
      "InstanceNumber": [1, 2, 3, 4, 5, 6, 7, 8, 9, 10, 11, 12, 13, 14, 15, 16, 17, 18, 19, 20, 21, 22, 23, 24, 25, 26, 27, 28, 29, 30, 31, 32, 33, 34, 35, 36, 37, 38, 39, 40, 41, 42, 43, 44, 45, 46, 47, 48, 49, 50, 51, 52, 53, 54, 55, 56, 57, 58, 59, 60, 61, 62, 63, 64, 65, 66, 67, 68, 69, 70, 71, 72, 73, 74, 75, 76, 77, 78, 79, 80, 81, 82, 83, 84, 85, 86, 87, 88, 89, 90, 91, 92, 93, 94, 95, 96, 97, 98, 99, 100, 101, 102, 103, 104, 105, 106, 107, 108, 109, 110, 111, 112, 113, 114, 115, 116, 117, 118, 119, 120, 121, 122, 123, 124, 125, 126, 127, 128, 129, 130, 131, 132, 133, 134, 135, 136, 137, 138, 139, 140, 141, 142, 143, 144, 145, 146, 147, 148, 149, 150, 151, 152, 153, 154, 155, 156, 157, 158, 159, 160, 161, 162, 163, 164, 165, 166, 167, 168, 169, 170, 171, 172, 173, 174, 175, 176, 177, 178, 179, 180, 181, 182, 183, 184, 185, 186, 187, 188, 189, 190],
      "WindowCenter": [4752.0, 4746.0, 4750.0, 4750.0, 4750.0, 4752.0, 4748.0, 4752.0, 4750.0, 4750.0, 4748.0, 4774.0, 4750.0, 4750.0, 4756.0, 4776.0, 4748.0, 4750.0, 4750.0, 4752.0, 4774.0, 4752.0, 4750.0, 4752.0, 4752.0, 4754.0, 4750.0, 4752.0, 4752.0, 4752.0, 4752.0, 4776.0, 4752.0, 4752.0, 4776.0, 4748.0, 4754.0, 4750.0, 4752.0, 4750.0, 4754.0, 4754.0, 4752.0, 4752.0, 4752.0, 4752.0, 4752.0, 4752.0, 4750.0, 4752.0, 4756.0, 4752.0, 4752.0, 4752.0, 4778.0, 4750.0, 4750.0, 4752.0, 4754.0, 4756.0, 4756.0, 4776.0, 4752.0, 4754.0, 4748.0, 4750.0, 4752.0, 4754.0, 4750.0, 4750.0, 4754.0, 4754.0, 4754.0, 4776.0, 4752.0, 4754.0, 4752.0, 4752.0, 4754.0, 4750.0, 4754.0, 4754.0, 4754.0, 4754.0, 4752.0, 4778.0, 4754.0, 4754.0, 4752.0, 4756.0, 4754.0, 4752.0, 4754.0, 4750.0, 4756.0, 4750.0, 4754.0, 4776.0, 4750.0, 4750.0, 4754.0, 4752.0, 4754.0, 4754.0, 4754.0, 4778.0, 4778.0, 4754.0, 4750.0, 4752.0, 4748.0, 4746.0, 4752.0, 4752.0, 4750.0, 4756.0, 4758.0, 4756.0, 4754.0, 4754.0, 4754.0, 4754.0, 4778.0, 4752.0, 4750.0, 4752.0, 4750.0, 4754.0, 4752.0, 4752.0, 4750.0, 4752.0, 4778.0, 4754.0, 4754.0, 4754.0, 4752.0, 4754.0, 4754.0, 4776.0, 4754.0, 4750.0, 4754.0, 4752.0, 4752.0, 4752.0, 4754.0, 4754.0, 4754.0, 4752.0, 4750.0, 4754.0, 4750.0, 4752.0, 4752.0, 4778.0, 4756.0, 4750.0, 4752.0, 4754.0, 4754.0, 4754.0, 4754.0, 4754.0, 4752.0, 4752.0, 4748.0, 4756.0, 4754.0, 4754.0, 4754.0, 4754.0, 4776.0, 4758.0, 4754.0, 4752.0, 4754.0, 4754.0, 4752.0, 4750.0, 4756.0, 4748.0, 4754.0, 4752.0, 4752.0, 4750.0, 4772.0, 4752.0, 4754.0, 4752.0],
      "WindowWidth": [18532.0, 18532.0, 18534.0, 18532.0, 18534.0, 18536.0, 18530.0, 18534.0, 18532.0, 18534.0, 18534.0, 18566.0, 18536.0, 18534.0, 18534.0, 18568.0, 18530.0, 18536.0, 18534.0, 18532.0, 18562.0, 18532.0, 18532.0, 18536.0, 18532.0, 18532.0, 18534.0, 18534.0, 18536.0, 18534.0, 18536.0, 18568.0, 18536.0, 18532.0, 18570.0, 18530.0, 18536.0, 18534.0, 18538.0, 18530.0, 18536.0, 18536.0, 18536.0, 18536.0, 18534.0, 18538.0, 18536.0, 18534.0, 18532.0, 18536.0, 18534.0, 18536.0, 18534.0, 18538.0, 18566.0, 18534.0, 18528.0, 18536.0, 18536.0, 18536.0, 18536.0, 18562.0, 18536.0, 18534.0, 18530.0, 18530.0, 18534.0, 18534.0, 18534.0, 18530.0, 18532.0, 18534.0, 18532.0, 18568.0, 18538.0, 18538.0, 18536.0, 18530.0, 18538.0, 18532.0, 18532.0, 18534.0, 18534.0, 18534.0, 18538.0, 18568.0, 18538.0, 18536.0, 18532.0, 18536.0, 18534.0, 18538.0, 18536.0, 18532.0, 18542.0, 18534.0, 18532.0, 18570.0, 18538.0, 18532.0, 18538.0, 18530.0, 18534.0, 18538.0, 18534.0, 18566.0, 18568.0, 18534.0, 18532.0, 18534.0, 18530.0, 18532.0, 18532.0, 18534.0, 18534.0, 18540.0, 18534.0, 18538.0, 18532.0, 18538.0, 18536.0, 18534.0, 18566.0, 18536.0, 18530.0, 18536.0, 18532.0, 18534.0, 18534.0, 18538.0, 18532.0, 18534.0, 18568.0, 18536.0, 18532.0, 18538.0, 18532.0, 18538.0, 18536.0, 18566.0, 18536.0, 18534.0, 18536.0, 18538.0, 18534.0, 18534.0, 18532.0, 18532.0, 18530.0, 18532.0, 18532.0, 18538.0, 18532.0, 18538.0, 18536.0, 18568.0, 18538.0, 18532.0, 18532.0, 18534.0, 18536.0, 18536.0, 18534.0, 18538.0, 18538.0, 18530.0, 18536.0, 18534.0, 18538.0, 18534.0, 18538.0, 18530.0, 18568.0, 18534.0, 18538.0, 18534.0, 18538.0, 18536.0, 18536.0, 18534.0, 18538.0, 18532.0, 18532.0, 18534.0, 18538.0, 18538.0, 18568.0, 18536.0, 18534.0, 18532.0]
    },
    "slices": {}
  }
}