{
  "AcquisitionMatrixPE": 104,
  "AcquisitionNumber": 1,
  "AcquisitionTime": "13:29:1.295000",
  "BandwidthPerPixelPhaseEncode": 17.17,
  "BaseResolution": 104,
  "BodyPartExamined": "BRAIN",
  "CoilString": "HC1-7;NC1_2",
  "ConsistencyInfo": "N4_VE11C_LATEST_20160120",
  "ConversionSoftware": "dcm2niix",
  "ConversionSoftwareVersion": "v1.0.20190902",
  "DerivedVendorReportedEchoSpacing": 0.000560011,
  "DeviceSerialNumber": "167006",
  "DwellTime": 2.1e-06,
  "EchoTime": 0.037,
  "EchoTrainLength": 104,
  "EffectiveEchoSpacing": 0.000560011,
  "FlipAngle": 52,
  "ImageComments": "Unaliased_MB4_PE3_LB",
  "ImageOrientationPatientDICOM": [0.999322, 0.00176395, 0.0367792, 0.00662788, 0.97392, -0.226795],
  "ImageType": [
    "ORIGINAL",
    "PRIMARY",
    "M",
    "MB",
    "ND",
    "MOSAIC"
],
  "ImagingFrequency": 123.259,
  "InPlanePhaseEncodingDirectionDICOM": "COL",
  "InstitutionAddress": "Chemin_Queen-Mary_4565_Montreal_District_CA_H3W_1W5",
  "InstitutionName": "IUGM",
  "InstitutionalDepartmentName": "Department",
  "MRAcquisitionType": "2D",
  "MagneticFieldStrength": 3,
  "Manufacturer": "Siemens",
  "ManufacturersModelName": "Prisma_fit",
  "Modality": "MR",
  "MultibandAccelerationFactor": 4,
  "PartialFourier": 1,
  "PatientPosition": "HFS",
  "PercentPhaseFOV": 100,
  "PhaseEncodingDirection": "j",
  "PhaseEncodingSteps": 104,
  "PhaseResolution": 1,
  "PixelBandwidth": 2290,
  "ProcedureStepDescription": "memory_things",
  "ProtocolName": "func_task-things_run-3",
  "PulseSequenceDetails": "%CustomerSeq%_cmrr_mbep2d_bold",
  "ReceiveCoilActiveElements": "HC1-7;NC1,2",
  "ReceiveCoilName": "HeadNeck_64",
  "ReconMatrixPE": 104,
  "RepetitionTime": 1.49,
  "SAR": 0.0519588,
  "ScanOptions": "FS",
  "ScanningSequence": "EP",
  "SequenceName": "epfid2d1_104",
  "SequenceVariant": "SK_SS",
  "SeriesDescription": "func_task-things_run-3",
  "SeriesNumber": 16,
  "ShimSetting": [638, -7229, -8771, 720, 37, -44, 113, -18],
  "SliceThickness": 2,
  "SliceTiming": [0, 0.785, 0.0975, 0.8825, 0.1975, 0.98, 0.295, 1.0775, 0.3925, 1.1775, 0.49, 1.275, 0.5875, 1.3725, 0.6875, 0, 0.785, 0.0975, 0.8825, 0.1975, 0.98, 0.295, 1.0775, 0.3925, 1.1775, 0.49, 1.275, 0.5875, 1.3725, 0.6875, 0, 0.785, 0.0975, 0.8825, 0.1975, 0.98, 0.295, 1.0775, 0.3925, 1.1775, 0.49, 1.275, 0.5875, 1.3725, 0.6875, 0, 0.785, 0.0975, 0.8825, 0.1975, 0.98, 0.295, 1.0775, 0.3925, 1.1775, 0.49, 1.275, 0.5875, 1.3725, 0.6875],
  "SoftwareVersions": "syngo_MR_E11",
  "SpacingBetweenSlices": 2,
  "StationName": "MRC35049",
  "TaskName": "things",
  "TotalReadoutTime": 0.0576811,
  "TxRefAmp": 238.16,
  "WipMemBlock": "d3147103-7b1d-4cb4-a098-280e890707f1||Sequence: R016 ve11c/master r/e634e98; Dec 19 2017 11:00:25 by eja",
  "dcmmeta_affine": [
    [-1.9986437559127808, 0.013255753554403782, 0.07244005799293518, 106.74669647216797],
    [-0.003527902066707611, 1.9478399753570557, -0.4537697732448578, -76.52201843261719],
    [0.07355834543704987, 0.4535898268222809, 1.946495771408081, -59.392513275146484],
    [0.0, 0.0, 0.0, 1.0]
],
  "dcmmeta_reorient_transform": [
    [0.0, -1.0, 0.0, 103.0],
    [1.0, 0.0, 0.0, 0.0],
    [0.0, 0.0, 1.0, 0.0],
    [0.0, 0.0, 0.0, 1.0]
],
  "dcmmeta_shape": [104, 104, 60, 190],
  "dcmmeta_slice_dim": 2,
  "dcmmeta_version": 0.6,
  "global": {
    "const": {
      "AcquisitionMatrix": [104, 0, 0, 104],
      "AngioFlag": "N",
      "BitsAllocated": 16,
      "BitsStored": 16,
      "BodyPartExamined": "BRAIN",
      "Columns": 832,
      "EchoNumbers": 1,
      "EchoTime": 37.0,
      "EchoTrainLength": 104,
      "FlipAngle": 52.0,
      "HighBit": 15,
      "ImageOrientationPatient": [0.99932186053523, 0.00176395099889, 0.03677917254762, 0.00662787659026, 0.97391998665536, -0.2267949092134],
      "ImagePositionPatient": [-840.44344930141, -834.40340311748, 125.65869425484],
      "ImageType": [
        "ORIGINAL",
        "PRIMARY",
        "M",
        "MB",
        "ND",
        "MOSAIC"
],
      "ImagedNucleus": "1H",
      "ImagingFrequency": 123.25892,
      "InPlanePhaseEncodingDirection": "COL",
      "MRAcquisitionType": "2D",
      "MagneticFieldStrength": 3.0,
      "Manufacturer": "SIEMENS",
      "ManufacturerModelName": "Prisma_fit",
      "Modality": "MR",
      "NumberOfAverages": 1.0,
      "NumberOfPhaseEncodingSteps": 104,
      "PercentPhaseFieldOfView": 100.0,
      "PercentSampling": 100.0,
      "PerformedProcedureStepStartTime": "125911.406000",
      "PhotometricInterpretation": "MONOCHROME2",
      "PixelBandwidth": 2290.0,
      "PixelRepresentation": 0,
      "PixelSpacing": [2.0, 2.0],
      "ProtocolName": "func_task-things_run-3",
      "RepetitionTime": 1490.0,
      "Rows": 832,
      "SAR": 0.05195881885346,
      "SamplesPerPixel": 1,
      "ScanOptions": "FS",
      "ScanningSequence": "EP",
      "SequenceName": "epfid2d1_104",
      "SequenceVariant": [
        "SK",
        "SS"
],
      "SeriesDescription": "func_task-things_run-3",
      "SeriesNumber": 16,
      "SeriesTime": "133015.978000",
      "SliceLocation": -36.575577831882,
      "SliceThickness": 2.0,
      "SmallestImagePixelValue": 0,
      "SoftwareVersions": "syngo MR E11",
      "SpacingBetweenSlices": 2.0000000819017,
      "SpecificCharacterSet": "ISO_IR 100",
      "StudyID": "1",
      "StudyTime": "125911.191000",
      "TransmitCoilName": "Body",
      "VariableFlipAngleFlag": "N",
      "WindowCenterWidthExplanation": "Algo1",
      "dBdt": 0.0},
    "slices": {}
  },
  "time": {
    "samples": {
      "AcquisitionNumber": [1, 2, 3, 4, 5, 6, 7, 8, 9, 10, 11, 12, 13, 14, 15, 16, 17, 18, 19, 20, 21, 22, 23, 24, 25, 26, 27, 28, 29, 30, 31, 32, 33, 34, 35, 36, 37, 38, 39, 40, 41, 42, 43, 44, 45, 46, 47, 48, 49, 50, 51, 52, 53, 54, 55, 56, 57, 58, 59, 60, 61, 62, 63, 64, 65, 66, 67, 68, 69, 70, 71, 72, 73, 74, 75, 76, 77, 78, 79, 80, 81, 82, 83, 84, 85, 86, 87, 88, 89, 90, 91, 92, 93, 94, 95, 96, 97, 98, 99, 100, 101, 102, 103, 104, 105, 106, 107, 108, 109, 110, 111, 112, 113, 114, 115, 116, 117, 118, 119, 120, 121, 122, 123, 124, 125, 126, 127, 128, 129, 130, 131, 132, 133, 134, 135, 136, 137, 138, 139, 140, 141, 142, 143, 144, 145, 146, 147, 148, 149, 150, 151, 152, 153, 154, 155, 156, 157, 158, 159, 160, 161, 162, 163, 164, 165, 166, 167, 168, 169, 170, 171, 172, 173, 174, 175, 176, 177, 178, 179, 180, 181, 182, 183, 184, 185, 186, 187, 188, 189, 190],
      "AcquisitionTime": ["132901.295000", "132902.785000", "132904.275000", "132905.765000", "132907.255000", "132908.745000", "132910.235000", "132911.725000", "132913.215000", "132914.705000", "132916.195000", "132917.685000", "132919.175000", "132920.665000", "132922.155000", "132923.645000", "132925.135000", "132926.625000", "132928.115000", "132929.605000", "132931.095000", "132932.585000", "132934.075000", "132935.565000", "132937.055000", "132938.545000", "132940.035000", "132941.525000", "132943.015000", "132944.505000", "132945.995000", "132947.485000", "132948.975000", "132950.465000", "132951.955000", "132953.445000", "132954.935000", "132956.425000", "132957.915000", "132959.405000", "133000.895000", "133002.385000", "133003.875000", "133005.365000", "133006.855000", "133008.345000", "133009.835000", "133011.325000", "133012.815000", "133014.305000", "133015.795000", "133017.285000", "133018.775000", "133020.265000", "133021.755000", "133023.245000", "133024.735000", "133026.225000", "133027.715000", "133029.205000", "133030.695000", "133032.185000", "133033.675000", "133035.165000", "133036.655000", "133038.145000", "133039.635000", "133041.125000", "133042.615000", "133044.105000", "133045.595000", "133047.085000", "133048.575000", "133050.065000", "133051.555000", "133053.045000", "133054.535000", "133056.025000", "133057.515000", "133059.005000", "133100.495000", "133101.985000", "133103.475000", "133104.965000", "133106.455000", "133107.945000", "133109.435000", "133110.925000", "133112.415000", "133113.905000", "133115.395000", "133116.885000", "133118.375000", "133119.865000", "133121.355000", "133122.845000", "133124.335000", "133125.825000", "133127.315000", "133128.805000", "133130.295000", "133131.785000", "133133.275000", "133134.765000", "133136.255000", "133137.745000", "133139.235000", "133140.725000", "133142.215000", "133143.705000", "133145.195000", "133146.685000", "133148.175000", "133149.665000", "133151.155000", "133152.645000", "133154.135000", "133155.625000", "133157.115000", "133158.605000", "133200.095000", "133201.585000", "133203.075000", "133204.565000", "133206.055000", "133207.545000", "133209.035000", "133210.525000", "133212.015000", "133213.505000", "133214.995000", "133216.485000", "133217.975000", "133219.465000", "133220.955000", "133222.445000", "133223.935000", "133225.425000", "133226.915000", "133228.405000", "133229.895000", "133231.385000", "133232.875000", "133234.365000", "133235.855000", "133237.345000", "133238.835000", "133240.325000", "133241.815000", "133243.305000", "133244.795000", "133246.285000", "133247.775000", "133249.265000", "133250.755000", "133252.245000", "133253.735000", "133255.225000", "133256.715000", "133258.205000", "133259.695000", "133301.185000", "133302.675000", "133304.165000", "133305.655000", "133307.145000", "133308.635000", "133310.125000", "133311.615000", "133313.105000", "133314.595000", "133316.085000", "133317.575000", "133319.065000", "133320.555000", "133322.045000", "133323.535000", "133325.025000", "133326.515000", "133328.005000", "133329.495000", "133330.985000", "133332.475000", "133333.965000", "133335.455000", "133336.945000", "133338.435000", "133339.925000", "133341.415000", "133342.905000"],
      "ContentTime": ["133015.981000", "133015.988000", "133015.992000", "133015.995000", "133015.998000", "133016.003000", "133016.006000", "133016.010000", "133016.021000", "133016.024000", "133016.028000", "133016.031000", "133016.034000", "133016.038000", "133016.046000", "133016.049000", "133016.053000", "133016.056000", "133016.059000", "133016.063000", "133016.066000", "133016.069000", "133035.943000", "133035.947000", "133035.950000", "133035.953000", "133035.957000", "133035.960000", "133035.963000", "133035.967000", "133035.970000", "133035.973000", "133035.977000", "133035.980000", "133035.983000", "133035.987000", "133035.990000", "133035.993000", "133035.997000", "133036.001000", "133036.004000", "133036.008000", "133055.943000", "133055.947000", "133055.951000", "133055.955000", "133055.959000", "133055.963000", "133055.967000", "133055.971000", "133055.975000", "133055.978000", "133055.982000", "133055.986000", "133055.996000", "133056.001000", "133056.005000", "133056.009000", "133056.013000", "133056.017000", "133056.021000", "133056.025000", "133115.943000", "133115.947000", "133115.967000", "133115.970000", "133115.974000", "133115.977000", "133115.980000", "133115.984000", "133115.987000", "133115.990000", "133115.994000", "133115.997000", "133116.000000", "133116.004000", "133116.007000", "133116.010000", "133116.014000", "133116.017000", "133116.021000", "133116.024000", "133135.943000", "133135.947000", "133135.950000", "133135.954000", "133135.957000", "133135.960000", "133135.963000", "133135.967000", "133135.970000", "133135.974000", "133135.977000", "133135.981000", "133135.984000", "133135.987000", "133135.991000", "133135.994000", "133135.997000", "133136.001000", "133136.004000", "133136.007000", "133136.015000", "133215.943000", "133215.947000", "133215.950000", "133215.954000", "133215.957000", "133215.960000", "133215.964000", "133215.971000", "133215.975000", "133215.978000", "133215.981000", "133215.984000", "133215.988000", "133215.991000", "133215.995000", "133215.998000", "133216.001000", "133216.005000", "133216.008000", "133216.012000", "133216.015000", "133216.018000", "133216.022000", "133216.025000", "133216.028000", "133216.032000", "133216.035000", "133255.943000", "133255.947000", "133255.950000", "133255.954000", "133255.957000", "133255.960000", "133255.964000", "133255.967000", "133255.971000", "133255.974000", "133255.977000", "133255.981000", "133255.984000", "133255.988000", "133255.991000", "133255.994000", "133255.998000", "133256.001000", "133256.005000", "133256.008000", "133256.012000", "133256.015000", "133256.018000", "133256.022000", "133256.025000", "133256.028000", "133256.032000", "133335.943000", "133335.947000", "133335.950000", "133335.954000", "133335.957000", "133335.977000", "133335.981000", "133335.984000", "133335.987000", "133335.991000", "133335.999000", "133336.002000", "133336.006000", "133336.009000", "133336.012000", "133336.016000", "133336.019000", "133336.022000", "133336.026000", "133336.029000", "133336.032000", "133336.036000", "133336.039000", "133336.043000", "133336.046000", "133336.049000", "133336.053000", "133344.751000", "133344.755000", "133344.758000", "133344.761000", "133344.771000", "133344.775000"],
      "InstanceCreationTime": ["133015.981000", "133015.988000", "133015.992000", "133015.995000", "133015.998000", "133016.003000", "133016.006000", "133016.010000", "133016.021000", "133016.024000", "133016.028000", "133016.031000", "133016.034000", "133016.038000", "133016.046000", "133016.049000", "133016.053000", "133016.056000", "133016.059000", "133016.063000", "133016.066000", "133016.069000", "133035.943000", "133035.947000", "133035.950000", "133035.953000", "133035.957000", "133035.960000", "133035.963000", "133035.967000", "133035.970000", "133035.973000", "133035.977000", "133035.980000", "133035.983000", "133035.987000", "133035.990000", "133035.993000", "133035.997000", "133036.001000", "133036.004000", "133036.008000", "133055.943000", "133055.947000", "133055.951000", "133055.955000", "133055.959000", "133055.963000", "133055.967000", "133055.971000", "133055.975000", "133055.978000", "133055.982000", "133055.986000", "133055.996000", "133056.001000", "133056.005000", "133056.009000", "133056.013000", "133056.017000", "133056.021000", "133056.025000", "133115.943000", "133115.947000", "133115.967000", "133115.970000", "133115.974000", "133115.977000", "133115.980000", "133115.984000", "133115.987000", "133115.990000", "133115.994000", "133115.997000", "133116.000000", "133116.004000", "133116.007000", "133116.010000", "133116.014000", "133116.017000", "133116.021000", "133116.024000", "133135.943000", "133135.947000", "133135.950000", "133135.954000", "133135.957000", "133135.960000", "133135.963000", "133135.967000", "133135.970000", "133135.974000", "133135.977000", "133135.981000", "133135.984000", "133135.987000", "133135.991000", "133135.994000", "133135.997000", "133136.001000", "133136.004000", "133136.007000", "133136.015000", "133215.943000", "133215.947000", "133215.950000", "133215.954000", "133215.957000", "133215.960000", "133215.964000", "133215.971000", "133215.975000", "133215.978000", "133215.981000", "133215.984000", "133215.988000", "133215.991000", "133215.995000", "133215.998000", "133216.001000", "133216.005000", "133216.008000", "133216.012000", "133216.015000", "133216.018000", "133216.022000", "133216.025000", "133216.028000", "133216.032000", "133216.035000", "133255.943000", "133255.947000", "133255.950000", "133255.954000", "133255.957000", "133255.960000", "133255.964000", "133255.967000", "133255.971000", "133255.974000", "133255.977000", "133255.981000", "133255.984000", "133255.988000", "133255.991000", "133255.994000", "133255.998000", "133256.001000", "133256.005000", "133256.008000", "133256.012000", "133256.015000", "133256.018000", "133256.022000", "133256.025000", "133256.028000", "133256.032000", "133335.943000", "133335.947000", "133335.950000", "133335.954000", "133335.957000", "133335.977000", "133335.981000", "133335.984000", "133335.987000", "133335.991000", "133335.999000", "133336.002000", "133336.006000", "133336.009000", "133336.012000", "133336.016000", "133336.019000", "133336.022000", "133336.026000", "133336.029000", "133336.032000", "133336.036000", "133336.039000", "133336.043000", "133336.046000", "133336.049000", "133336.053000", "133344.751000", "133344.755000", "133344.758000", "133344.761000", "133344.771000", "133344.775000"],
      "InstanceNumber": [1, 2, 3, 4, 5, 6, 7, 8, 9, 10, 11, 12, 13, 14, 15, 16, 17, 18, 19, 20, 21, 22, 23, 24, 25, 26, 27, 28, 29, 30, 31, 32, 33, 34, 35, 36, 37, 38, 39, 40, 41, 42, 43, 44, 45, 46, 47, 48, 49, 50, 51, 52, 53, 54, 55, 56, 57, 58, 59, 60, 61, 62, 63, 64, 65, 66, 67, 68, 69, 70, 71, 72, 73, 74, 75, 76, 77, 78, 79, 80, 81, 82, 83, 84, 85, 86, 87, 88, 89, 90, 91, 92, 93, 94, 95, 96, 97, 98, 99, 100, 101, 102, 103, 104, 105, 106, 107, 108, 109, 110, 111, 112, 113, 114, 115, 116, 117, 118, 119, 120, 121, 122, 123, 124, 125, 126, 127, 128, 129, 130, 131, 132, 133, 134, 135, 136, 137, 138, 139, 140, 141, 142, 143, 144, 145, 146, 147, 148, 149, 150, 151, 152, 153, 154, 155, 156, 157, 158, 159, 160, 161, 162, 163, 164, 165, 166, 167, 168, 169, 170, 171, 172, 173, 174, 175, 176, 177, 178, 179, 180, 181, 182, 183, 184, 185, 186, 187, 188, 189, 190],
      "LargestImagePixelValue": [40687, 39261, 38538, 38081, 38255, 37918, 38313, 37702, 38287, 38054, 38262, 37674, 37512, 37621, 37518, 37654, 37477, 37692, 38097, 37610, 37876, 37679, 37932, 37868, 37617, 37740, 37992, 38117, 38019, 37831, 37779, 37645, 37803, 37967, 37776, 37688, 38024, 37782, 38029, 37825, 37778, 37847, 38135, 38115, 37822, 37488, 37730, 37765, 37746, 37790, 37530, 37844, 37739, 38278, 37838, 37737, 37699, 37877, 37719, 37442, 37796, 37604, 38283, 37963, 37759, 37792, 37963, 38330, 37714, 37460, 37944, 37652, 37687, 37561, 37346, 37522, 37983, 37754, 37538, 37816, 37500, 37889, 37653, 37348, 37538, 37542, 38108, 37887, 37782, 37861, 37772, 37586, 37820, 37754, 37443, 37622, 37545, 37518, 37521, 37530, 37668, 37612, 37465, 37320, 37821, 38210, 37566, 37648, 37428, 38004, 37812, 37764, 37392, 37584, 37659, 37765, 37467, 37394, 37849, 37647, 37587, 37582, 37555, 37649, 37741, 37177, 37337, 37306, 37732, 36977, 37054, 37149, 37600, 37186, 37140, 37171, 37583, 37445, 37418, 37026, 37736, 36855, 37167, 37299, 37218, 37086, 37456, 37219, 36871, 37231, 36979, 36806, 36963, 37343, 37331, 37527, 37158, 37348, 37033, 37335, 36862, 37335, 36936, 37235, 36951, 37118, 37105, 37217, 37266, 37326, 37043, 37025, 36734, 37192, 36621, 37235, 36580, 37007, 37032, 37035, 36906, 37280, 36885, 37036, 36481, 37244, 36751, 37247, 37426, 37156],
      "WindowCenter": [10200.0, 10154.0, 10113.0, 10102.0, 10105.0, 10107.0, 10112.0, 10091.0, 10096.0, 10097.0, 10114.0, 10116.0, 10119.0, 10125.0, 10118.0, 10126.0, 10119.0, 10125.0, 10107.0, 10100.0, 10088.0, 10105.0, 10124.0, 10136.0, 10126.0, 10116.0, 10113.0, 10112.0, 10122.0, 10131.0, 10128.0, 10139.0, 10135.0, 10134.0, 10118.0, 10109.0, 10112.0, 10116.0, 10116.0, 10108.0, 10096.0, 10097.0, 10095.0, 10112.0, 10114.0, 10102.0, 10105.0, 10106.0, 10107.0, 10114.0, 10108.0, 10102.0, 10100.0, 10096.0, 10089.0, 10090.0, 10099.0, 10109.0, 10117.0, 10117.0, 10100.0, 10089.0, 10096.0, 10100.0, 10109.0, 10114.0, 10108.0, 10104.0, 10099.0, 10097.0, 10104.0, 10115.0, 10125.0, 10127.0, 10119.0, 10126.0, 10125.0, 10119.0, 10101.0, 10099.0, 10088.0, 10097.0, 10107.0, 10118.0, 10101.0, 10085.0, 10073.0, 10072.0, 10077.0, 10083.0, 10098.0, 10108.0, 10125.0, 10134.0, 10126.0, 10109.0, 10093.0, 10090.0, 10101.0, 10120.0, 10118.0, 10111.0, 10099.0, 10091.0, 10097.0, 10106.0, 10111.0, 10117.0, 10110.0, 10107.0, 10099.0, 10091.0, 10101.0, 10108.0, 10110.0, 10098.0, 10092.0, 10089.0, 10099.0, 10106.0, 10109.0, 10101.0, 10093.0, 10080.0, 10082.0, 10082.0, 10092.0, 10101.0, 10116.0, 10111.0, 10119.0, 10128.0, 10135.0, 10121.0, 10113.0, 10107.0, 10108.0, 10116.0, 10128.0, 10128.0, 10142.0, 10138.0, 10135.0, 10112.0, 10087.0, 10083.0, 10089.0, 10108.0, 10112.0, 10129.0, 10121.0, 10120.0, 10110.0, 10109.0, 10101.0, 10094.0, 10087.0, 10099.0, 10093.0, 10102.0, 10095.0, 10095.0, 10078.0, 10069.0, 10060.0, 10069.0, 10074.0, 10083.0, 10076.0, 10084.0, 10092.0, 10109.0, 10099.0, 10097.0, 10081.0, 10084.0, 10072.0, 10085.0, 10093.0, 10102.0, 10102.0, 10117.0, 10107.0, 10105.0, 10082.0, 10079.0, 10069.0, 10108.0, 10110.0, 10111.0],
      "WindowWidth": [21732.0, 21606.0, 21504.0, 21470.0, 21472.0, 21475.0, 21481.0, 21434.0, 21446.0, 21449.0, 21489.0, 21495.0, 21504.0, 21514.0, 21501.0, 21516.0, 21502.0, 21512.0, 21471.0, 21455.0, 21427.0, 21468.0, 21510.0, 21543.0, 21517.0, 21491.0, 21483.0, 21480.0, 21505.0, 21525.0, 21524.0, 21544.0, 21537.0, 21531.0, 21496.0, 21478.0, 21480.0, 21492.0, 21491.0, 21473.0, 21443.0, 21449.0, 21443.0, 21482.0, 21488.0, 21464.0, 21465.0, 21466.0, 21472.0, 21487.0, 21475.0, 21460.0, 21454.0, 21444.0, 21429.0, 21435.0, 21455.0, 21479.0, 21498.0, 21496.0, 21454.0, 21427.0, 21444.0, 21455.0, 21480.0, 21487.0, 21474.0, 21459.0, 21453.0, 21448.0, 21465.0, 21491.0, 21513.0, 21518.0, 21502.0, 21515.0, 21511.0, 21501.0, 21459.0, 21451.0, 21426.0, 21447.0, 21473.0, 21499.0, 21460.0, 21421.0, 21393.0, 21390.0, 21401.0, 21418.0, 21453.0, 21477.0, 21513.0, 21535.0, 21514.0, 21474.0, 21438.0, 21432.0, 21462.0, 21505.0, 21498.0, 21482.0, 21453.0, 21433.0, 21446.0, 21467.0, 21483.0, 21495.0, 21480.0, 21469.0, 21453.0, 21435.0, 21460.0, 21473.0, 21478.0, 21449.0, 21436.0, 21430.0, 21453.0, 21468.0, 21477.0, 21460.0, 21439.0, 21407.0, 21414.0, 21415.0, 21440.0, 21460.0, 21494.0, 21484.0, 21503.0, 21521.0, 21534.0, 21504.0, 21489.0, 21471.0, 21475.0, 21492.0, 21521.0, 21521.0, 21551.0, 21545.0, 21534.0, 21480.0, 21425.0, 21417.0, 21429.0, 21476.0, 21488.0, 21525.0, 21506.0, 21502.0, 21476.0, 21475.0, 21457.0, 21444.0, 21427.0, 21452.0, 21441.0, 21461.0, 21447.0, 21446.0, 21408.0, 21386.0, 21367.0, 21388.0, 21396.0, 21417.0, 21402.0, 21417.0, 21437.0, 21476.0, 21456.0, 21451.0, 21415.0, 21418.0, 21396.0, 21422.0, 21439.0, 21460.0, 21461.0, 21495.0, 21477.0, 21466.0, 21417.0, 21405.0, 21381.0, 21468.0, 21478.0, 21480.0]
    },
    "slices": {}
  }
}