{
  "AcquisitionMatrixPE": 104,
  "AcquisitionNumber": 1,
  "AcquisitionTime": "13:35:5.372500",
  "BandwidthPerPixelPhaseEncode": 17.17,
  "BaseResolution": 104,
  "BodyPartExamined": "BRAIN",
  "CoilString": "HC1-7;NC1_2",
  "ConsistencyInfo": "N4_VE11C_LATEST_20160120",
  "ConversionSoftware": "dcm2niix",
  "ConversionSoftwareVersion": "v1.0.20190902",
  "DerivedVendorReportedEchoSpacing": 0.000560011,
  "DeviceSerialNumber": "167006",
  "DwellTime": 2.1e-06,
  "EchoTime": 0.037,
  "EchoTrainLength": 104,
  "EffectiveEchoSpacing": 0.000560011,
  "FlipAngle": 52,
  "ImageComments": "Unaliased_MB4_PE3_LB",
  "ImageOrientationPatientDICOM": [0.999322, 0.00176395, 0.0367792, 0.00662788, 0.97392, -0.226795],
  "ImageType": [
    "ORIGINAL",
    "PRIMARY",
    "M",
    "MB",
    "ND",
    "MOSAIC"
],
  "ImagingFrequency": 123.259,
  "InPlanePhaseEncodingDirectionDICOM": "COL",
  "InstitutionAddress": "Chemin_Queen-Mary_4565_Montreal_District_CA_H3W_1W5",
  "InstitutionName": "IUGM",
  "InstitutionalDepartmentName": "Department",
  "MRAcquisitionType": "2D",
  "MagneticFieldStrength": 3,
  "Manufacturer": "Siemens",
  "ManufacturersModelName": "Prisma_fit",
  "Modality": "MR",
  "MultibandAccelerationFactor": 4,
  "PartialFourier": 1,
  "PatientPosition": "HFS",
  "PercentPhaseFOV": 100,
  "PhaseEncodingDirection": "j",
  "PhaseEncodingSteps": 104,
  "PhaseResolution": 1,
  "PixelBandwidth": 2290,
  "ProcedureStepDescription": "memory_things",
  "ProtocolName": "func_task-things_run-4",
  "PulseSequenceDetails": "%CustomerSeq%_cmrr_mbep2d_bold",
  "ReceiveCoilActiveElements": "HC1-7;NC1,2",
  "ReceiveCoilName": "HeadNeck_64",
  "ReconMatrixPE": 104,
  "RepetitionTime": 1.49,
  "SAR": 0.0519588,
  "ScanOptions": "FS",
  "ScanningSequence": "EP",
  "SequenceName": "epfid2d1_104",
  "SequenceVariant": "SK_SS",
  "SeriesDescription": "func_task-things_run-4",
  "SeriesNumber": 19,
  "ShimSetting": [638, -7229, -8771, 720, 37, -44, 113, -18],
  "SliceThickness": 2,
  "SliceTiming": [0, 0.785, 0.0975, 0.8825, 0.1975, 0.98, 0.295, 1.0775, 0.3925, 1.175, 0.49, 1.275, 0.5875, 1.3725, 0.685, 0, 0.785, 0.0975, 0.8825, 0.1975, 0.98, 0.295, 1.0775, 0.3925, 1.175, 0.49, 1.275, 0.5875, 1.3725, 0.685, 0, 0.785, 0.0975, 0.8825, 0.1975, 0.98, 0.295, 1.0775, 0.3925, 1.175, 0.49, 1.275, 0.5875, 1.3725, 0.685, 0, 0.785, 0.0975, 0.8825, 0.1975, 0.98, 0.295, 1.0775, 0.3925, 1.175, 0.49, 1.275, 0.5875, 1.3725, 0.685],
  "SoftwareVersions": "syngo_MR_E11",
  "SpacingBetweenSlices": 2,
  "StationName": "MRC35049",
  "TaskName": "things",
  "TotalReadoutTime": 0.0576811,
  "TxRefAmp": 238.16,
  "WipMemBlock": "65fd9ac4-13e2-4241-9e0d-edca3fb62403||Sequence: R016 ve11c/master r/e634e98; Dec 19 2017 11:00:25 by eja",
  "dcmmeta_affine": [
    [-1.9986437559127808, 0.013255753554403782, 0.07244005799293518, 106.74669647216797],
    [-0.003527902066707611, 1.9478399753570557, -0.4537697732448578, -76.52201843261719],
    [0.07355834543704987, 0.4535898268222809, 1.946495771408081, -59.392513275146484],
    [0.0, 0.0, 0.0, 1.0]
],
  "dcmmeta_reorient_transform": [
    [0.0, -1.0, 0.0, 103.0],
    [1.0, 0.0, 0.0, 0.0],
    [0.0, 0.0, 1.0, 0.0],
    [0.0, 0.0, 0.0, 1.0]
],
  "dcmmeta_shape": [104, 104, 60, 190],
  "dcmmeta_slice_dim": 2,
  "dcmmeta_version": 0.6,
  "global": {
    "const": {
      "AcquisitionMatrix": [104, 0, 0, 104],
      "AngioFlag": "N",
      "BitsAllocated": 16,
      "BitsStored": 16,
      "BodyPartExamined": "BRAIN",
      "Columns": 832,
      "EchoNumbers": 1,
      "EchoTime": 37.0,
      "EchoTrainLength": 104,
      "FlipAngle": 52.0,
      "HighBit": 15,
      "ImageOrientationPatient": [0.99932186053523, 0.00176395099889, 0.03677917254762, 0.00662787659026, 0.97391998665536, -0.2267949092134],
      "ImagePositionPatient": [-840.44344930141, -834.40340311748, 125.65869425484],
      "ImageType": [
        "ORIGINAL",
        "PRIMARY",
        "M",
        "MB",
        "ND",
        "MOSAIC"
],
      "ImagedNucleus": "1H",
      "ImagingFrequency": 123.258922,
      "InPlanePhaseEncodingDirection": "COL",
      "MRAcquisitionType": "2D",
      "MagneticFieldStrength": 3.0,
      "Manufacturer": "SIEMENS",
      "ManufacturerModelName": "Prisma_fit",
      "Modality": "MR",
      "NumberOfAverages": 1.0,
      "NumberOfPhaseEncodingSteps": 104,
      "PercentPhaseFieldOfView": 100.0,
      "PercentSampling": 100.0,
      "PerformedProcedureStepStartTime": "125911.406000",
      "PhotometricInterpretation": "MONOCHROME2",
      "PixelBandwidth": 2290.0,
      "PixelRepresentation": 0,
      "PixelSpacing": [2.0, 2.0],
      "ProtocolName": "func_task-things_run-4",
      "RepetitionTime": 1490.0,
      "Rows": 832,
      "SAR": 0.05195881885346,
      "SamplesPerPixel": 1,
      "ScanOptions": "FS",
      "ScanningSequence": "EP",
      "SequenceName": "epfid2d1_104",
      "SequenceVariant": [
        "SK",
        "SS"
],
      "SeriesDescription": "func_task-things_run-4",
      "SeriesNumber": 19,
      "SeriesTime": "133622.148000",
      "SliceLocation": -36.575577831882,
      "SliceThickness": 2.0,
      "SmallestImagePixelValue": 0,
      "SoftwareVersions": "syngo MR E11",
      "SpacingBetweenSlices": 2.0000000819017,
      "SpecificCharacterSet": "ISO_IR 100",
      "StudyID": "1",
      "StudyTime": "125911.191000",
      "TransmitCoilName": "Body",
      "VariableFlipAngleFlag": "N",
      "WindowCenterWidthExplanation": "Algo1",
      "dBdt": 0.0},
    "slices": {}
  },
  "time": {
    "samples": {
      "AcquisitionNumber": [1, 2, 3, 4, 5, 6, 7, 8, 9, 10, 11, 12, 13, 14, 15, 16, 17, 18, 19, 20, 21, 22, 23, 24, 25, 26, 27, 28, 29, 30, 31, 32, 33, 34, 35, 36, 37, 38, 39, 40, 41, 42, 43, 44, 45, 46, 47, 48, 49, 50, 51, 52, 53, 54, 55, 56, 57, 58, 59, 60, 61, 62, 63, 64, 65, 66, 67, 68, 69, 70, 71, 72, 73, 74, 75, 76, 77, 78, 79, 80, 81, 82, 83, 84, 85, 86, 87, 88, 89, 90, 91, 92, 93, 94, 95, 96, 97, 98, 99, 100, 101, 102, 103, 104, 105, 106, 107, 108, 109, 110, 111, 112, 113, 114, 115, 116, 117, 118, 119, 120, 121, 122, 123, 124, 125, 126, 127, 128, 129, 130, 131, 132, 133, 134, 135, 136, 137, 138, 139, 140, 141, 142, 143, 144, 145, 146, 147, 148, 149, 150, 151, 152, 153, 154, 155, 156, 157, 158, 159, 160, 161, 162, 163, 164, 165, 166, 167, 168, 169, 170, 171, 172, 173, 174, 175, 176, 177, 178, 179, 180, 181, 182, 183, 184, 185, 186, 187, 188, 189, 190],
      "AcquisitionTime": ["133505.372500", "133506.862500", "133508.352500", "133509.842500", "133511.332500", "133512.822500", "133514.312500", "133515.802500", "133517.292500", "133518.782500", "133520.272500", "133521.762500", "133523.252500", "133524.742500", "133526.232500", "133527.722500", "133529.212500", "133530.702500", "133532.192500", "133533.682500", "133535.172500", "133536.662500", "133538.152500", "133539.642500", "133541.132500", "133542.622500", "133544.112500", "133545.602500", "133547.092500", "133548.582500", "133550.072500", "133551.562500", "133553.052500", "133554.542500", "133556.032500", "133557.522500", "133559.012500", "133600.502500", "133601.992500", "133603.482500", "133604.972500", "133606.462500", "133607.952500", "133609.442500", "133610.932500", "133612.422500", "133613.912500", "133615.402500", "133616.892500", "133618.382500", "133619.872500", "133621.362500", "133622.852500", "133624.342500", "133625.832500", "133627.322500", "133628.812500", "133630.302500", "133631.792500", "133633.282500", "133634.772500", "133636.262500", "133637.752500", "133639.242500", "133640.732500", "133642.222500", "133643.712500", "133645.202500", "133646.692500", "133648.182500", "133649.672500", "133651.162500", "133652.652500", "133654.142500", "133655.632500", "133657.122500", "133658.612500", "133700.102500", "133701.592500", "133703.082500", "133704.572500", "133706.062500", "133707.552500", "133709.042500", "133710.532500", "133712.022500", "133713.512500", "133715.002500", "133716.492500", "133717.982500", "133719.472500", "133720.962500", "133722.452500", "133723.942500", "133725.432500", "133726.922500", "133728.412500", "133729.902500", "133731.392500", "133732.882500", "133734.372500", "133735.862500", "133737.352500", "133738.842500", "133740.332500", "133741.822500", "133743.312500", "133744.802500", "133746.292500", "133747.782500", "133749.272500", "133750.762500", "133752.252500", "133753.742500", "133755.232500", "133756.722500", "133758.212500", "133759.702500", "133801.192500", "133802.682500", "133804.172500", "133805.662500", "133807.152500", "133808.642500", "133810.132500", "133811.622500", "133813.112500", "133814.602500", "133816.092500", "133817.582500", "133819.072500", "133820.562500", "133822.052500", "133823.542500", "133825.032500", "133826.522500", "133828.012500", "133829.502500", "133830.992500", "133832.482500", "133833.972500", "133835.462500", "133836.952500", "133838.442500", "133839.932500", "133841.422500", "133842.912500", "133844.402500", "133845.892500", "133847.382500", "133848.872500", "133850.362500", "133851.852500", "133853.342500", "133854.832500", "133856.322500", "133857.812500", "133859.302500", "133900.792500", "133902.282500", "133903.772500", "133905.262500", "133906.752500", "133908.242500", "133909.732500", "133911.222500", "133912.712500", "133914.202500", "133915.692500", "133917.182500", "133918.672500", "133920.162500", "133921.652500", "133923.142500", "133924.632500", "133926.122500", "133927.612500", "133929.102500", "133930.592500", "133932.082500", "133933.572500", "133935.062500", "133936.552500", "133938.042500", "133939.532500", "133941.022500", "133942.512500", "133944.002500", "133945.492500", "133946.982500"],
      "ContentTime": ["133622.151000", "133622.155000", "133622.158000", "133622.161000", "133622.174000", "133622.177000", "133622.181000", "133622.184000", "133622.187000", "133622.191000", "133622.194000", "133622.197000", "133622.200000", "133622.204000", "133622.207000", "133622.210000", "133622.214000", "133622.217000", "133622.220000", "133622.224000", "133622.227000", "133622.230000", "133642.111000", "133642.115000", "133642.118000", "133642.122000", "133642.125000", "133642.128000", "133642.131000", "133642.135000", "133642.138000", "133642.141000", "133642.145000", "133642.148000", "133642.151000", "133642.155000", "133642.158000", "133642.161000", "133642.165000", "133642.168000", "133642.172000", "133642.175000", "133702.111000", "133702.116000", "133702.120000", "133702.123000", "133702.126000", "133702.130000", "133702.133000", "133702.136000", "133702.145000", "133702.148000", "133702.152000", "133702.155000", "133702.158000", "133702.162000", "133702.165000", "133702.168000", "133702.172000", "133702.188000", "133702.192000", "133702.195000", "133722.110000", "133722.114000", "133722.118000", "133722.121000", "133722.125000", "133722.128000", "133722.131000", "133722.135000", "133722.138000", "133722.141000", "133722.145000", "133722.148000", "133722.152000", "133722.155000", "133722.158000", "133722.162000", "133722.165000", "133722.169000", "133722.172000", "133722.175000", "133722.179000", "133742.110000", "133742.114000", "133742.117000", "133742.121000", "133742.124000", "133742.127000", "133742.131000", "133742.134000", "133742.147000", "133742.150000", "133742.153000", "133742.157000", "133742.164000", "133742.167000", "133742.171000", "133742.174000", "133742.177000", "133742.181000", "133742.184000", "133742.187000", "133822.110000", "133822.114000", "133822.117000", "133822.121000", "133822.124000", "133822.127000", "133822.131000", "133822.134000", "133822.138000", "133822.141000", "133822.145000", "133822.148000", "133822.151000", "133822.161000", "133822.165000", "133822.168000", "133822.180000", "133822.183000", "133822.187000", "133822.190000", "133822.193000", "133822.197000", "133822.200000", "133822.203000", "133822.207000", "133822.210000", "133822.214000", "133822.217000", "133902.111000", "133902.115000", "133902.118000", "133902.122000", "133902.125000", "133902.128000", "133902.132000", "133902.135000", "133902.138000", "133902.142000", "133902.145000", "133902.148000", "133902.152000", "133902.155000", "133902.158000", "133902.162000", "133902.165000", "133902.168000", "133902.172000", "133902.175000", "133902.178000", "133902.182000", "133902.185000", "133902.188000", "133902.192000", "133902.195000", "133902.198000", "133942.110000", "133942.114000", "133942.118000", "133942.121000", "133942.124000", "133942.128000", "133942.131000", "133942.134000", "133942.138000", "133942.141000", "133942.145000", "133942.148000", "133942.151000", "133942.155000", "133942.158000", "133942.161000", "133942.165000", "133942.168000", "133942.171000", "133942.175000", "133942.178000", "133942.181000", "133942.185000", "133942.188000", "133942.191000", "133942.195000", "133942.198000", "133949.184000", "133949.188000", "133949.192000", "133949.195000", "133949.199000"],
      "InstanceCreationTime": ["133622.151000", "133622.155000", "133622.158000", "133622.161000", "133622.174000", "133622.177000", "133622.181000", "133622.184000", "133622.187000", "133622.191000", "133622.194000", "133622.197000", "133622.200000", "133622.204000", "133622.207000", "133622.210000", "133622.214000", "133622.217000", "133622.220000", "133622.224000", "133622.227000", "133622.230000", "133642.111000", "133642.115000", "133642.118000", "133642.122000", "133642.125000", "133642.128000", "133642.131000", "133642.135000", "133642.138000", "133642.141000", "133642.145000", "133642.148000", "133642.151000", "133642.155000", "133642.158000", "133642.161000", "133642.165000", "133642.168000", "133642.172000", "133642.175000", "133702.111000", "133702.116000", "133702.120000", "133702.123000", "133702.126000", "133702.130000", "133702.133000", "133702.136000", "133702.145000", "133702.148000", "133702.152000", "133702.155000", "133702.158000", "133702.162000", "133702.165000", "133702.168000", "133702.172000", "133702.188000", "133702.192000", "133702.195000", "133722.110000", "133722.114000", "133722.118000", "133722.121000", "133722.125000", "133722.128000", "133722.131000", "133722.135000", "133722.138000", "133722.141000", "133722.145000", "133722.148000", "133722.152000", "133722.155000", "133722.158000", "133722.162000", "133722.165000", "133722.169000", "133722.172000", "133722.175000", "133722.179000", "133742.110000", "133742.114000", "133742.117000", "133742.121000", "133742.124000", "133742.127000", "133742.131000", "133742.134000", "133742.147000", "133742.150000", "133742.153000", "133742.157000", "133742.164000", "133742.167000", "133742.171000", "133742.174000", "133742.177000", "133742.181000", "133742.184000", "133742.187000", "133822.110000", "133822.114000", "133822.117000", "133822.121000", "133822.124000", "133822.127000", "133822.131000", "133822.134000", "133822.138000", "133822.141000", "133822.145000", "133822.148000", "133822.151000", "133822.161000", "133822.165000", "133822.168000", "133822.180000", "133822.183000", "133822.187000", "133822.190000", "133822.193000", "133822.197000", "133822.200000", "133822.203000", "133822.207000", "133822.210000", "133822.214000", "133822.217000", "133902.111000", "133902.115000", "133902.118000", "133902.122000", "133902.125000", "133902.128000", "133902.132000", "133902.135000", "133902.138000", "133902.142000", "133902.145000", "133902.148000", "133902.152000", "133902.155000", "133902.158000", "133902.162000", "133902.165000", "133902.168000", "133902.172000", "133902.175000", "133902.178000", "133902.182000", "133902.185000", "133902.188000", "133902.192000", "133902.195000", "133902.198000", "133942.110000", "133942.114000", "133942.118000", "133942.121000", "133942.124000", "133942.128000", "133942.131000", "133942.134000", "133942.138000", "133942.141000", "133942.145000", "133942.148000", "133942.151000", "133942.155000", "133942.158000", "133942.161000", "133942.165000", "133942.168000", "133942.171000", "133942.175000", "133942.178000", "133942.181000", "133942.185000", "133942.188000", "133942.191000", "133942.195000", "133942.198000", "133949.184000", "133949.188000", "133949.192000", "133949.195000", "133949.199000"],
      "InstanceNumber": [1, 2, 3, 4, 5, 6, 7, 8, 9, 10, 11, 12, 13, 14, 15, 16, 17, 18, 19, 20, 21, 22, 23, 24, 25, 26, 27, 28, 29, 30, 31, 32, 33, 34, 35, 36, 37, 38, 39, 40, 41, 42, 43, 44, 45, 46, 47, 48, 49, 50, 51, 52, 53, 54, 55, 56, 57, 58, 59, 60, 61, 62, 63, 64, 65, 66, 67, 68, 69, 70, 71, 72, 73, 74, 75, 76, 77, 78, 79, 80, 81, 82, 83, 84, 85, 86, 87, 88, 89, 90, 91, 92, 93, 94, 95, 96, 97, 98, 99, 100, 101, 102, 103, 104, 105, 106, 107, 108, 109, 110, 111, 112, 113, 114, 115, 116, 117, 118, 119, 120, 121, 122, 123, 124, 125, 126, 127, 128, 129, 130, 131, 132, 133, 134, 135, 136, 137, 138, 139, 140, 141, 142, 143, 144, 145, 146, 147, 148, 149, 150, 151, 152, 153, 154, 155, 156, 157, 158, 159, 160, 161, 162, 163, 164, 165, 166, 167, 168, 169, 170, 171, 172, 173, 174, 175, 176, 177, 178, 179, 180, 181, 182, 183, 184, 185, 186, 187, 188, 189, 190],
      "LargestImagePixelValue": [39593, 38479, 37890, 37705, 37263, 37229, 36932, 36518, 36621, 36605, 36619, 36760, 36788, 36614, 37280, 36846, 36703, 37491, 36760, 36526, 36835, 37195, 36769, 36627, 36898, 36939, 36652, 36680, 37424, 37008, 36890, 36950, 36892, 36811, 36686, 37453, 37120, 36687, 36932, 36898, 36678, 36742, 37384, 36948, 36804, 36827, 37193, 37218, 36873, 37200, 36854, 37007, 36578, 36814, 37289, 37146, 36696, 36441, 37251, 36897, 36961, 36858, 36941, 37032, 36788, 36727, 37287, 37001, 36934, 36645, 37689, 36744, 36570, 36678, 36691, 37220, 36799, 36823, 36969, 37053, 37228, 36759, 36853, 36835, 37408, 37000, 36970, 37029, 37095, 36784, 37136, 36720, 36662, 36618, 37115, 37083, 36933, 36810, 36796, 37061, 37111, 37380, 36679, 36685, 36576, 37014, 37275, 36799, 36912, 36792, 36926, 36901, 37252, 37011, 37087, 36737, 36896, 36893, 37249, 37106, 36815, 36933, 37235, 37110, 37138, 37067, 37333, 37497, 36906, 36759, 36813, 37169, 37192, 36881, 36656, 36999, 36688, 37224, 37657, 37172, 36613, 37185, 37401, 37247, 37211, 36882, 36917, 36986, 37130, 36667, 36961, 36881, 36988, 37034, 36680, 37061, 36692, 36975, 37120, 37148, 36776, 37042, 37163, 36914, 37281, 36937, 36725, 37133, 37271, 37263, 37191, 37344, 37323, 36991, 37214, 37639, 37211, 37840, 37953, 38106, 38140, 37675, 37701, 37173, 37548, 37384, 37371, 37372, 37538, 37258],
      "WindowCenter": [10172.0, 10133.0, 10117.0, 10121.0, 10116.0, 10108.0, 10109.0, 10117.0, 10127.0, 10119.0, 10112.0, 10107.0, 10104.0, 10104.0, 10111.0, 10114.0, 10107.0, 10111.0, 10088.0, 10081.0, 10089.0, 10094.0, 10081.0, 10080.0, 10085.0, 10087.0, 10097.0, 10105.0, 10110.0, 10102.0, 10096.0, 10079.0, 10087.0, 10089.0, 10094.0, 10086.0, 10078.0, 10070.0, 10077.0, 10081.0, 10104.0, 10100.0, 10110.0, 10090.0, 10106.0, 10114.0, 10122.0, 10107.0, 10091.0, 10086.0, 10081.0, 10104.0, 10108.0, 10121.0, 10119.0, 10105.0, 10106.0, 10115.0, 10114.0, 10094.0, 10088.0, 10069.0, 10079.0, 10088.0, 10089.0, 10089.0, 10103.0, 10098.0, 10098.0, 10088.0, 10100.0, 10092.0, 10101.0, 10109.0, 10117.0, 10107.0, 10093.0, 10083.0, 10088.0, 10096.0, 10113.0, 10102.0, 10091.0, 10072.0, 10069.0, 10067.0, 10085.0, 10089.0, 10091.0, 10088.0, 10097.0, 10099.0, 10116.0, 10125.0, 10125.0, 10125.0, 10110.0, 10108.0, 10100.0, 10090.0, 10094.0, 10113.0, 10123.0, 10128.0, 10112.0, 10099.0, 10096.0, 10082.0, 10084.0, 10082.0, 10081.0, 10073.0, 10086.0, 10096.0, 10107.0, 10110.0, 10109.0, 10091.0, 10077.0, 10071.0, 10072.0, 10081.0, 10096.0, 10089.0, 10080.0, 10080.0, 10084.0, 10094.0, 10105.0, 10108.0, 10100.0, 10096.0, 10097.0, 10100.0, 10109.0, 10108.0, 10084.0, 10072.0, 10074.0, 10060.0, 10049.0, 10053.0, 10075.0, 10079.0, 10089.0, 10082.0, 10089.0, 10093.0, 10094.0, 10091.0, 10103.0, 10106.0, 10113.0, 10105.0, 10093.0, 10103.0, 10115.0, 10122.0, 10109.0, 10089.0, 10081.0, 10096.0, 10122.0, 10125.0, 10124.0, 10100.0, 10090.0, 10088.0, 10102.0, 10123.0, 10135.0, 10125.0, 10123.0, 10093.0, 10088.0, 10085.0, 10065.0, 10051.0, 10041.0, 10038.0, 10048.0, 10066.0, 10077.0, 10072.0, 10062.0, 10062.0, 10062.0, 10080.0, 10081.0, 10073.0],
      "WindowWidth": [21666.0, 21558.0, 21511.0, 21510.0, 21502.0, 21481.0, 21482.0, 21502.0, 21524.0, 21507.0, 21490.0, 21475.0, 21466.0, 21469.0, 21482.0, 21490.0, 21475.0, 21480.0, 21429.0, 21416.0, 21434.0, 21445.0, 21415.0, 21412.0, 21423.0, 21429.0, 21453.0, 21468.0, 21477.0, 21461.0, 21448.0, 21411.0, 21426.0, 21432.0, 21443.0, 21423.0, 21405.0, 21388.0, 21404.0, 21419.0, 21467.0, 21463.0, 21478.0, 21434.0, 21472.0, 21491.0, 21508.0, 21473.0, 21436.0, 21423.0, 21415.0, 21465.0, 21480.0, 21505.0, 21499.0, 21467.0, 21472.0, 21494.0, 21491.0, 21448.0, 21427.0, 21384.0, 21408.0, 21430.0, 21432.0, 21434.0, 21462.0, 21451.0, 21452.0, 21430.0, 21455.0, 21442.0, 21465.0, 21481.0, 21500.0, 21475.0, 21445.0, 21419.0, 21429.0, 21445.0, 21485.0, 21464.0, 21437.0, 21390.0, 21381.0, 21377.0, 21420.0, 21432.0, 21437.0, 21427.0, 21449.0, 21458.0, 21497.0, 21519.0, 21516.0, 21516.0, 21480.0, 21475.0, 21458.0, 21433.0, 21441.0, 21486.0, 21511.0, 21523.0, 21486.0, 21455.0, 21444.0, 21417.0, 21422.0, 21416.0, 21416.0, 21397.0, 21425.0, 21448.0, 21474.0, 21483.0, 21476.0, 21435.0, 21398.0, 21388.0, 21393.0, 21416.0, 21448.0, 21431.0, 21410.0, 21412.0, 21417.0, 21443.0, 21470.0, 21478.0, 21456.0, 21445.0, 21449.0, 21461.0, 21480.0, 21475.0, 21419.0, 21388.0, 21388.0, 21363.0, 21342.0, 21352.0, 21398.0, 21409.0, 21432.0, 21418.0, 21434.0, 21439.0, 21443.0, 21439.0, 21464.0, 21471.0, 21487.0, 21466.0, 21442.0, 21461.0, 21492.0, 21505.0, 21479.0, 21432.0, 21415.0, 21447.0, 21509.0, 21518.0, 21510.0, 21455.0, 21431.0, 21429.0, 21461.0, 21509.0, 21541.0, 21516.0, 21508.0, 21440.0, 21425.0, 21418.0, 21376.0, 21339.0, 21316.0, 21308.0, 21335.0, 21377.0, 21404.0, 21393.0, 21368.0, 21366.0, 21367.0, 21410.0, 21413.0, 21395.0]
    },
    "slices": {}
  }
}