{
  "AcquisitionMatrixPE": 104,
  "AcquisitionNumber": 1,
  "AcquisitionTime": "09:59:21.447500",
  "BandwidthPerPixelPhaseEncode": 17.17,
  "BaseResolution": 104,
  "BodyPartExamined": "BRAIN",
  "CoilString": "HC1-7;NC1_2",
  "ConsistencyInfo": "N4_VE11C_LATEST_20160120",
  "ConversionSoftware": "dcm2niix",
  "ConversionSoftwareVersion": "v1.0.20190902",
  "DerivedVendorReportedEchoSpacing": 0.000560011,
  "DeviceSerialNumber": "167006",
  "DwellTime": 2.1e-06,
  "EchoTime": 0.037,
  "EchoTrainLength": 104,
  "EffectiveEchoSpacing": 0.000560011,
  "FlipAngle": 52,
  "ImageComments": "Unaliased_MB4_PE3_LB",
  "ImageOrientationPatientDICOM": [0.99549, 0.0872083, 0.0373374, -0.0664695, 0.922032, -0.381364],
  "ImageType": [
    "ORIGINAL",
    "PRIMARY",
    "P",
    "MB",
    "ND",
    "MOSAIC"
],
  "ImagingFrequency": 123.259,
  "InPlanePhaseEncodingDirectionDICOM": "COL",
  "InstitutionAddress": "Chemin_Queen-Mary_4565_Montreal_District_CA_H3W_1W5",
  "InstitutionName": "IUGM",
  "InstitutionalDepartmentName": "Department",
  "MRAcquisitionType": "2D",
  "MagneticFieldStrength": 3,
  "Manufacturer": "Siemens",
  "ManufacturersModelName": "Prisma_fit",
  "Modality": "MR",
  "MultibandAccelerationFactor": 4,
  "PartialFourier": 1,
  "PatientPosition": "HFS",
  "PercentPhaseFOV": 100,
  "PhaseEncodingDirection": "j",
  "PhaseEncodingSteps": 104,
  "PhaseResolution": 1,
  "PixelBandwidth": 2290,
  "ProcedureStepDescription": "memory_things",
  "ProtocolName": "func_task-things_run-6",
  "PulseSequenceDetails": "%CustomerSeq%_cmrr_mbep2d_bold",
  "ReceiveCoilActiveElements": "HC1-7;NC1,2",
  "ReceiveCoilName": "HeadNeck_64",
  "ReconMatrixPE": 104,
  "RepetitionTime": 1.49,
  "SAR": 0.0573719,
  "ScanOptions": "FS",
  "ScanningSequence": "EP",
  "SequenceName": "epfid2d1_104",
  "SequenceVariant": "SK_SS",
  "SeriesDescription": "func_task-things_run-6",
  "SeriesNumber": 26,
  "ShimSetting": [645, -7152, -8806, 649, 113, 123, -35, -17],
  "SliceThickness": 2,
  "SliceTiming": [0, 0.785, 0.1, 0.8825, 0.1975, 0.98, 0.295, 1.08, 0.3925, 1.1775, 0.49, 1.275, 0.59, 1.3725, 0.6875, 0, 0.785, 0.1, 0.8825, 0.1975, 0.98, 0.295, 1.08, 0.3925, 1.1775, 0.49, 1.275, 0.59, 1.3725, 0.6875, 0, 0.785, 0.1, 0.8825, 0.1975, 0.98, 0.295, 1.08, 0.3925, 1.1775, 0.49, 1.275, 0.59, 1.3725, 0.6875, 0, 0.785, 0.1, 0.8825, 0.1975, 0.98, 0.295, 1.08, 0.3925, 1.1775, 0.49, 1.275, 0.59, 1.3725, 0.6875],
  "SoftwareVersions": "syngo_MR_E11",
  "SpacingBetweenSlices": 2,
  "StationName": "MRC35049",
  "TaskName": "things",
  "TotalReadoutTime": 0.0576811,
  "TxRefAmp": 285.299,
  "WipMemBlock": "3e3d21d2-9392-4b53-a19f-f14d9d94829d||Sequence: R016 ve11c/master r/e634e98; Dec 19 2017 11:00:25 by eja",
  "dcmmeta_affine": [
    [-1.9909802675247192, -0.1329389214515686, 0.13536882400512695, 109.24909973144531],
    [-0.17441660165786743, 1.8440641164779663, -0.7543252110481262, -48.4652099609375],
    [0.07467480003833771, 0.7627285718917847, 1.8473409414291382, -63.28386688232422],
    [0.0, 0.0, 0.0, 1.0]
],
  "dcmmeta_reorient_transform": [
    [0.0, -1.0, 0.0, 103.0],
    [1.0, 0.0, 0.0, 0.0],
    [0.0, 0.0, 1.0, 0.0],
    [0.0, 0.0, 0.0, 1.0]
],
  "dcmmeta_shape": [104, 104, 60, 190],
  "dcmmeta_slice_dim": 2,
  "dcmmeta_version": 0.6,
  "global": {
    "const": {
      "AcquisitionMatrix": [104, 0, 0, 104],
      "AngioFlag": "N",
      "BitsAllocated": 16,
      "BitsStored": 16,
      "BodyPartExamined": "BRAIN",
      "Columns": 832,
      "EchoNumbers": 1,
      "EchoTime": 37.0,
      "EchoTrainLength": 104,
      "FlipAngle": 52.0,
      "HighBit": 15,
      "ImageOrientationPatient": [0.99549014608377, 0.08720829967629, 0.03733740105697, -0.0664694620718, 0.92203203885934, -0.3813643008054],
      "ImagePositionPatient": [-771.88344724184, -876.20035561306, 265.72876315902],
      "ImageType": [
        "ORIGINAL",
        "PRIMARY",
        "P",
        "MB",
        "ND",
        "MOSAIC"
],
      "ImagedNucleus": "1H",
      "ImagingFrequency": 123.258954,
      "InPlanePhaseEncodingDirection": "COL",
      "LargestImagePixelValue": 4095,
      "MRAcquisitionType": "2D",
      "MagneticFieldStrength": 3.0,
      "Manufacturer": "SIEMENS",
      "ManufacturerModelName": "Prisma_fit",
      "Modality": "MR",
      "NumberOfAverages": 1.0,
      "NumberOfPhaseEncodingSteps": 104,
      "PercentPhaseFieldOfView": 100.0,
      "PercentSampling": 100.0,
      "PerformedProcedureStepStartTime": "090626.405000",
      "PhotometricInterpretation": "MONOCHROME2",
      "PixelBandwidth": 2290.0,
      "PixelRepresentation": 0,
      "PixelSpacing": [2.0, 2.0],
      "ProtocolName": "func_task-things_run-6",
      "RepetitionTime": 1490.0,
      "RescaleIntercept": -4096.0,
      "RescaleSlope": 2.0,
      "RescaleType": "US",
      "Rows": 832,
      "SAR": 0.05737189980384,
      "SamplesPerPixel": 1,
      "ScanOptions": "FS",
      "ScanningSequence": "EP",
      "SequenceName": "epfid2d1_104",
      "SequenceVariant": [
        "SK",
        "SS"
],
      "SeriesDescription": "func_task-things_run-6",
      "SeriesNumber": 26,
      "SeriesTime": "100047.389000",
      "SliceLocation": -32.779713580828,
      "SliceThickness": 2.0,
      "SmallestImagePixelValue": 0,
      "SoftwareVersions": "syngo MR E11",
      "SpacingBetweenSlices": 1.999999988814,
      "SpecificCharacterSet": "ISO_IR 100",
      "StudyID": "1",
      "StudyTime": "090626.281000",
      "TransmitCoilName": "Body",
      "VariableFlipAngleFlag": "N",
      "WindowCenterWidthExplanation": "Algo1",
      "dBdt": 0.0},
    "slices": {}
  },
  "time": {
    "samples": {
      "AcquisitionNumber": [1, 2, 3, 4, 5, 6, 7, 8, 9, 10, 11, 12, 13, 14, 15, 16, 17, 18, 19, 20, 21, 22, 23, 24, 25, 26, 27, 28, 29, 30, 31, 32, 33, 34, 35, 36, 37, 38, 39, 40, 41, 42, 43, 44, 45, 46, 47, 48, 49, 50, 51, 52, 53, 54, 55, 56, 57, 58, 59, 60, 61, 62, 63, 64, 65, 66, 67, 68, 69, 70, 71, 72, 73, 74, 75, 76, 77, 78, 79, 80, 81, 82, 83, 84, 85, 86, 87, 88, 89, 90, 91, 92, 93, 94, 95, 96, 97, 98, 99, 100, 101, 102, 103, 104, 105, 106, 107, 108, 109, 110, 111, 112, 113, 114, 115, 116, 117, 118, 119, 120, 121, 122, 123, 124, 125, 126, 127, 128, 129, 130, 131, 132, 133, 134, 135, 136, 137, 138, 139, 140, 141, 142, 143, 144, 145, 146, 147, 148, 149, 150, 151, 152, 153, 154, 155, 156, 157, 158, 159, 160, 161, 162, 163, 164, 165, 166, 167, 168, 169, 170, 171, 172, 173, 174, 175, 176, 177, 178, 179, 180, 181, 182, 183, 184, 185, 186, 187, 188, 189, 190],
      "AcquisitionTime": ["095921.447500", "095922.937500", "095924.427500", "095925.917500", "095927.407500", "095928.897500", "095930.387500", "095931.877500", "095933.367500", "095934.857500", "095936.347500", "095937.837500", "095939.327500", "095940.817500", "095942.307500", "095943.797500", "095945.287500", "095946.777500", "095948.267500", "095949.757500", "095951.247500", "095952.737500", "095954.227500", "095955.717500", "095957.207500", "095958.697500", "100000.187500", "100001.677500", "100003.167500", "100004.657500", "100006.147500", "100007.637500", "100009.127500", "100010.617500", "100012.107500", "100013.597500", "100015.087500", "100016.577500", "100018.067500", "100019.557500", "100021.047500", "100022.537500", "100024.027500", "100025.517500", "100027.007500", "100028.497500", "100029.987500", "100031.477500", "100032.967500", "100034.457500", "100035.947500", "100037.437500", "100038.927500", "100040.417500", "100041.907500", "100043.397500", "100044.887500", "100046.377500", "100047.867500", "100049.357500", "100050.847500", "100052.337500", "100053.827500", "100055.317500", "100056.807500", "100058.297500", "100059.787500", "100101.277500", "100102.767500", "100104.257500", "100105.747500", "100107.237500", "100108.727500", "100110.217500", "100111.707500", "100113.197500", "100114.687500", "100116.177500", "100117.667500", "100119.157500", "100120.647500", "100122.137500", "100123.627500", "100125.117500", "100126.607500", "100128.097500", "100129.587500", "100131.077500", "100132.567500", "100134.057500", "100135.547500", "100137.037500", "100138.527500", "100140.017500", "100141.507500", "100142.997500", "100144.487500", "100145.977500", "100147.467500", "100148.957500", "100150.447500", "100151.937500", "100153.427500", "100154.917500", "100156.407500", "100157.897500", "100159.387500", "100200.877500", "100202.367500", "100203.857500", "100205.347500", "100206.837500", "100208.327500", "100209.817500", "100211.307500", "100212.797500", "100214.287500", "100215.777500", "100217.267500", "100218.757500", "100220.247500", "100221.737500", "100223.227500", "100224.717500", "100226.207500", "100227.697500", "100229.187500", "100230.677500", "100232.167500", "100233.657500", "100235.147500", "100236.637500", "100238.127500", "100239.617500", "100241.107500", "100242.597500", "100244.087500", "100245.577500", "100247.067500", "100248.557500", "100250.047500", "100251.537500", "100253.027500", "100254.517500", "100256.007500", "100257.497500", "100258.987500", "100300.477500", "100301.967500", "100303.457500", "100304.947500", "100306.437500", "100307.927500", "100309.417500", "100310.907500", "100312.397500", "100313.887500", "100315.377500", "100316.867500", "100318.357500", "100319.847500", "100321.337500", "100322.827500", "100324.317500", "100325.807500", "100327.297500", "100328.787500", "100330.277500", "100331.767500", "100333.257500", "100334.747500", "100336.237500", "100337.727500", "100339.217500", "100340.707500", "100342.197500", "100343.687500", "100345.177500", "100346.667500", "100348.157500", "100349.647500", "100351.137500", "100352.627500", "100354.117500", "100355.607500", "100357.097500", "100358.587500", "100400.077500", "100401.567500", "100403.057500"],
      "ContentTime": ["100047.391000", "100047.394000", "100047.396000", "100047.399000", "100047.401000", "100047.404000", "100047.407000", "100047.415000", "100047.418000", "100047.420000", "100047.423000", "100047.425000", "100047.428000", "100047.431000", "100047.435000", "100047.438000", "100047.441000", "100047.444000", "100047.446000", "100047.448000", "100047.451000", "100047.453000", "100047.456000", "100047.458000", "100047.461000", "100047.464000", "100047.466000", "100047.468000", "100047.471000", "100047.474000", "100047.476000", "100107.319000", "100107.322000", "100107.325000", "100107.327000", "100107.329000", "100107.332000", "100107.334000", "100107.337000", "100107.340000", "100107.342000", "100107.345000", "100107.347000", "100107.350000", "100107.352000", "100107.355000", "100107.357000", "100107.360000", "100107.362000", "100107.365000", "100107.367000", "100127.307000", "100127.310000", "100127.312000", "100127.315000", "100127.317000", "100127.320000", "100127.322000", "100127.325000", "100127.327000", "100127.330000", "100127.332000", "100127.335000", "100127.337000", "100127.340000", "100127.342000", "100127.345000", "100127.347000", "100127.350000", "100127.352000", "100127.355000", "100127.357000", "100147.306000", "100147.309000", "100147.311000", "100147.314000", "100147.316000", "100147.319000", "100147.321000", "100147.324000", "100147.326000", "100147.329000", "100147.331000", "100147.334000", "100147.336000", "100147.339000", "100147.341000", "100147.344000", "100147.346000", "100147.349000", "100147.351000", "100147.354000", "100227.354000", "100227.357000", "100227.360000", "100227.362000", "100227.365000", "100227.367000", "100227.370000", "100227.372000", "100227.375000", "100227.377000", "100227.380000", "100227.382000", "100227.385000", "100227.387000", "100227.390000", "100227.392000", "100227.395000", "100227.397000", "100227.400000", "100227.402000", "100227.405000", "100227.407000", "100227.410000", "100227.412000", "100227.415000", "100227.417000", "100227.420000", "100227.422000", "100227.425000", "100227.427000", "100227.430000", "100227.432000", "100307.351000", "100307.354000", "100307.356000", "100307.359000", "100307.361000", "100307.364000", "100307.366000", "100307.369000", "100307.371000", "100307.374000", "100307.376000", "100307.379000", "100307.381000", "100307.384000", "100307.386000", "100307.389000", "100307.391000", "100307.394000", "100307.396000", "100307.399000", "100307.401000", "100307.404000", "100307.406000", "100307.409000", "100307.411000", "100307.414000", "100307.416000", "100347.341000", "100347.344000", "100347.347000", "100347.349000", "100347.352000", "100347.354000", "100347.357000", "100347.359000", "100347.362000", "100347.364000", "100347.367000", "100347.369000", "100347.372000", "100347.375000", "100347.377000", "100347.380000", "100347.382000", "100347.385000", "100347.387000", "100347.390000", "100347.392000", "100347.395000", "100347.397000", "100347.400000", "100347.402000", "100347.405000", "100405.341000", "100405.344000", "100405.346000", "100405.349000", "100405.351000", "100405.354000", "100405.356000", "100405.359000", "100405.362000", "100405.364000", "100405.367000", "100405.369000", "100405.372000"],
      "InstanceCreationTime": ["100047.391000", "100047.394000", "100047.396000", "100047.399000", "100047.401000", "100047.404000", "100047.407000", "100047.415000", "100047.418000", "100047.420000", "100047.423000", "100047.425000", "100047.428000", "100047.431000", "100047.435000", "100047.438000", "100047.441000", "100047.444000", "100047.446000", "100047.448000", "100047.451000", "100047.453000", "100047.456000", "100047.458000", "100047.461000", "100047.464000", "100047.466000", "100047.468000", "100047.471000", "100047.474000", "100047.476000", "100107.319000", "100107.322000", "100107.325000", "100107.327000", "100107.329000", "100107.332000", "100107.334000", "100107.337000", "100107.340000", "100107.342000", "100107.345000", "100107.347000", "100107.350000", "100107.352000", "100107.355000", "100107.357000", "100107.360000", "100107.362000", "100107.365000", "100107.367000", "100127.307000", "100127.310000", "100127.312000", "100127.315000", "100127.317000", "100127.320000", "100127.322000", "100127.325000", "100127.327000", "100127.330000", "100127.332000", "100127.335000", "100127.337000", "100127.340000", "100127.342000", "100127.345000", "100127.347000", "100127.350000", "100127.352000", "100127.355000", "100127.357000", "100147.306000", "100147.309000", "100147.311000", "100147.314000", "100147.316000", "100147.319000", "100147.321000", "100147.324000", "100147.326000", "100147.329000", "100147.331000", "100147.334000", "100147.336000", "100147.339000", "100147.341000", "100147.344000", "100147.346000", "100147.349000", "100147.351000", "100147.354000", "100227.354000", "100227.357000", "100227.360000", "100227.362000", "100227.365000", "100227.367000", "100227.370000", "100227.372000", "100227.375000", "100227.377000", "100227.380000", "100227.382000", "100227.385000", "100227.387000", "100227.390000", "100227.392000", "100227.395000", "100227.397000", "100227.400000", "100227.402000", "100227.405000", "100227.407000", "100227.410000", "100227.412000", "100227.415000", "100227.417000", "100227.420000", "100227.422000", "100227.425000", "100227.427000", "100227.430000", "100227.432000", "100307.351000", "100307.354000", "100307.356000", "100307.359000", "100307.361000", "100307.364000", "100307.366000", "100307.369000", "100307.371000", "100307.374000", "100307.376000", "100307.379000", "100307.381000", "100307.384000", "100307.386000", "100307.389000", "100307.391000", "100307.394000", "100307.396000", "100307.399000", "100307.401000", "100307.404000", "100307.406000", "100307.409000", "100307.411000", "100307.414000", "100307.416000", "100347.341000", "100347.344000", "100347.347000", "100347.349000", "100347.352000", "100347.354000", "100347.357000", "100347.359000", "100347.362000", "100347.364000", "100347.367000", "100347.369000", "100347.372000", "100347.375000", "100347.377000", "100347.380000", "100347.382000", "100347.385000", "100347.387000", "100347.390000", "100347.392000", "100347.395000", "100347.397000", "100347.400000", "100347.402000", "100347.405000", "100405.341000", "100405.344000", "100405.346000", "100405.349000", "100405.351000", "100405.354000", "100405.356000", "100405.359000", "100405.362000", "100405.364000", "100405.367000", "100405.369000", "100405.372000"],
      "InstanceNumber": [1, 2, 3, 4, 5, 6, 7, 8, 9, 10, 11, 12, 13, 14, 15, 16, 17, 18, 19, 20, 21, 22, 23, 24, 25, 26, 27, 28, 29, 30, 31, 32, 33, 34, 35, 36, 37, 38, 39, 40, 41, 42, 43, 44, 45, 46, 47, 48, 49, 50, 51, 52, 53, 54, 55, 56, 57, 58, 59, 60, 61, 62, 63, 64, 65, 66, 67, 68, 69, 70, 71, 72, 73, 74, 75, 76, 77, 78, 79, 80, 81, 82, 83, 84, 85, 86, 87, 88, 89, 90, 91, 92, 93, 94, 95, 96, 97, 98, 99, 100, 101, 102, 103, 104, 105, 106, 107, 108, 109, 110, 111, 112, 113, 114, 115, 116, 117, 118, 119, 120, 121, 122, 123, 124, 125, 126, 127, 128, 129, 130, 131, 132, 133, 134, 135, 136, 137, 138, 139, 140, 141, 142, 143, 144, 145, 146, 147, 148, 149, 150, 151, 152, 153, 154, 155, 156, 157, 158, 159, 160, 161, 162, 163, 164, 165, 166, 167, 168, 169, 170, 171, 172, 173, 174, 175, 176, 177, 178, 179, 180, 181, 182, 183, 184, 185, 186, 187, 188, 189, 190],
      "WindowCenter": [4850.0, 4850.0, 4844.0, 4872.0, 4874.0, 4872.0, 4846.0, 4848.0, 4878.0, 4850.0, 4844.0, 4872.0, 4872.0, 4872.0, 4846.0, 4876.0, 4874.0, 4870.0, 4874.0, 4874.0, 4874.0, 4846.0, 4870.0, 4872.0, 4874.0, 4848.0, 4844.0, 4848.0, 4872.0, 4870.0, 4874.0, 4876.0, 4874.0, 4844.0, 4872.0, 4848.0, 4868.0, 4848.0, 4872.0, 4876.0, 4872.0, 4844.0, 4842.0, 4872.0, 4874.0, 4872.0, 4870.0, 4876.0, 4880.0, 4848.0, 4848.0, 4876.0, 4848.0, 4848.0, 4874.0, 4872.0, 4872.0, 4872.0, 4872.0, 4848.0, 4844.0, 4874.0, 4872.0, 4844.0, 4850.0, 4872.0, 4848.0, 4848.0, 4850.0, 4874.0, 4846.0, 4844.0, 4872.0, 4850.0, 4846.0, 4844.0, 4870.0, 4872.0, 4848.0, 4872.0, 4872.0, 4874.0, 4874.0, 4846.0, 4840.0, 4846.0, 4850.0, 4838.0, 4844.0, 4876.0, 4876.0, 4878.0, 4872.0, 4848.0, 4848.0, 4872.0, 4874.0, 4846.0, 4870.0, 4874.0, 4874.0, 4872.0, 4874.0, 4874.0, 4872.0, 4876.0, 4852.0, 4844.0, 4846.0, 4848.0, 4848.0, 4870.0, 4876.0, 4874.0, 4870.0, 4874.0, 4872.0, 4872.0, 4870.0, 4844.0, 4848.0, 4872.0, 4846.0, 4874.0, 4878.0, 4848.0, 4846.0, 4850.0, 4848.0, 4848.0, 4874.0, 4872.0, 4870.0, 4844.0, 4846.0, 4870.0, 4846.0, 4848.0, 4872.0, 4848.0, 4846.0, 4872.0, 4874.0, 4846.0, 4852.0, 4870.0, 4846.0, 4848.0, 4872.0, 4872.0, 4870.0, 4872.0, 4874.0, 4874.0, 4846.0, 4848.0, 4846.0, 4848.0, 4846.0, 4876.0, 4870.0, 4870.0, 4850.0, 4872.0, 4844.0, 4844.0, 4848.0, 4848.0, 4844.0, 4872.0, 4850.0, 4846.0, 4848.0, 4872.0, 4844.0, 4870.0, 4846.0, 4846.0, 4872.0, 4870.0, 4848.0, 4844.0, 4848.0, 4872.0, 4840.0, 4848.0, 4870.0, 4848.0, 4850.0, 4870.0],
      "WindowWidth": [18638.0, 18644.0, 18638.0, 18672.0, 18668.0, 18676.0, 18640.0, 18640.0, 18674.0, 18644.0, 18636.0, 18670.0, 18670.0, 18672.0, 18638.0, 18668.0, 18670.0, 18674.0, 18676.0, 18672.0, 18672.0, 18642.0, 18672.0, 18670.0, 18670.0, 18636.0, 18640.0, 18640.0, 18670.0, 18676.0, 18668.0, 18670.0, 18674.0, 18642.0, 18674.0, 18638.0, 18672.0, 18644.0, 18672.0, 18674.0, 18670.0, 18638.0, 18638.0, 18672.0, 18670.0, 18674.0, 18670.0, 18672.0, 18680.0, 18642.0, 18638.0, 18668.0, 18640.0, 18644.0, 18672.0, 18674.0, 18670.0, 18672.0, 18668.0, 18636.0, 18636.0, 18676.0, 18674.0, 18642.0, 18644.0, 18670.0, 18642.0, 18644.0, 18640.0, 18672.0, 18638.0, 18636.0, 18674.0, 18644.0, 18644.0, 18640.0, 18672.0, 18672.0, 18644.0, 18672.0, 18674.0, 18672.0, 18672.0, 18642.0, 18630.0, 18642.0, 18646.0, 18632.0, 18640.0, 18674.0, 18670.0, 18674.0, 18672.0, 18638.0, 18640.0, 18670.0, 18666.0, 18644.0, 18672.0, 18670.0, 18668.0, 18670.0, 18670.0, 18670.0, 18666.0, 18672.0, 18640.0, 18642.0, 18640.0, 18638.0, 18642.0, 18674.0, 18680.0, 18674.0, 18676.0, 18674.0, 18670.0, 18670.0, 18672.0, 18638.0, 18642.0, 18672.0, 18644.0, 18674.0, 18672.0, 18642.0, 18642.0, 18638.0, 18640.0, 18640.0, 18674.0, 18672.0, 18674.0, 18638.0, 18640.0, 18674.0, 18640.0, 18640.0, 18672.0, 18644.0, 18640.0, 18670.0, 18672.0, 18638.0, 18640.0, 18670.0, 18642.0, 18642.0, 18670.0, 18672.0, 18672.0, 18674.0, 18668.0, 18670.0, 18636.0, 18640.0, 18638.0, 18640.0, 18644.0, 18672.0, 18670.0, 18666.0, 18638.0, 18670.0, 18640.0, 18640.0, 18640.0, 18638.0, 18640.0, 18672.0, 18642.0, 18644.0, 18638.0, 18674.0, 18642.0, 18668.0, 18636.0, 18640.0, 18668.0, 18668.0, 18640.0, 18640.0, 18640.0, 18670.0, 18640.0, 18644.0, 18672.0, 18644.0, 18644.0, 18672.0]
    },
    "slices": {}
  }
}