{
  "AcquisitionMatrixPE": 104,
  "AcquisitionNumber": 1,
  "AcquisitionTime": "09:33:37.925000",
  "BandwidthPerPixelPhaseEncode": 17.17,
  "BaseResolution": 104,
  "BodyPartExamined": "BRAIN",
  "CoilString": "HC1-7;NC1_2",
  "ConsistencyInfo": "N4_VE11C_LATEST_20160120",
  "ConversionSoftware": "dcm2niix",
  "ConversionSoftwareVersion": "v1.0.20190902",
  "DerivedVendorReportedEchoSpacing": 0.000560011,
  "DeviceSerialNumber": "167006",
  "DwellTime": 2.1e-06,
  "EchoTime": 0.037,
  "EchoTrainLength": 104,
  "EffectiveEchoSpacing": 0.000560011,
  "FlipAngle": 52,
  "ImageComments": "Unaliased_MB4_PE3_LB",
  "ImageOrientationPatientDICOM": [0.99549, 0.0872083, 0.0373374, -0.0664695, 0.922032, -0.381364],
  "ImageType": [
    "ORIGINAL",
    "PRIMARY",
    "P",
    "MB",
    "ND",
    "MOSAIC"
],
  "ImagingFrequency": 123.259,
  "InPlanePhaseEncodingDirectionDICOM": "COL",
  "InstitutionAddress": "Chemin_Queen-Mary_4565_Montreal_District_CA_H3W_1W5",
  "InstitutionName": "IUGM",
  "InstitutionalDepartmentName": "Department",
  "MRAcquisitionType": "2D",
  "MagneticFieldStrength": 3,
  "Manufacturer": "Siemens",
  "ManufacturersModelName": "Prisma_fit",
  "Modality": "MR",
  "MultibandAccelerationFactor": 4,
  "PartialFourier": 1,
  "PatientPosition": "HFS",
  "PercentPhaseFOV": 100,
  "PhaseEncodingDirection": "j",
  "PhaseEncodingSteps": 104,
  "PhaseResolution": 1,
  "PixelBandwidth": 2290,
  "ProcedureStepDescription": "memory_things",
  "ProtocolName": "func_task-things_run-2",
  "PulseSequenceDetails": "%CustomerSeq%_cmrr_mbep2d_bold",
  "ReceiveCoilActiveElements": "HC1-7;NC1,2",
  "ReceiveCoilName": "HeadNeck_64",
  "ReconMatrixPE": 104,
  "RepetitionTime": 1.49,
  "SAR": 0.0573719,
  "ScanOptions": "FS",
  "ScanningSequence": "EP",
  "SequenceName": "epfid2d1_104",
  "SequenceVariant": "SK_SS",
  "SeriesDescription": "func_task-things_run-2",
  "SeriesNumber": 14,
  "ShimSetting": [645, -7152, -8806, 649, 113, 123, -35, -17],
  "SliceThickness": 2,
  "SliceTiming": [0, 0.7825, 0.0975, 0.88, 0.195, 0.98, 0.2925, 1.0775, 0.39, 1.175, 0.49, 1.2725, 0.5875, 1.37, 0.685, 0, 0.7825, 0.0975, 0.88, 0.195, 0.98, 0.2925, 1.0775, 0.39, 1.175, 0.49, 1.2725, 0.5875, 1.37, 0.685, 0, 0.7825, 0.0975, 0.88, 0.195, 0.98, 0.2925, 1.0775, 0.39, 1.175, 0.49, 1.2725, 0.5875, 1.37, 0.685, 0, 0.7825, 0.0975, 0.88, 0.195, 0.98, 0.2925, 1.0775, 0.39, 1.175, 0.49, 1.2725, 0.5875, 1.37, 0.685],
  "SoftwareVersions": "syngo_MR_E11",
  "SpacingBetweenSlices": 2,
  "StationName": "MRC35049",
  "TaskName": "things",
  "TotalReadoutTime": 0.0576811,
  "TxRefAmp": 285.299,
  "WipMemBlock": "41c4ef7b-166d-4a58-b73e-221cdf751afe||Sequence: R016 ve11c/master r/e634e98; Dec 19 2017 11:00:25 by eja",
  "dcmmeta_affine": [
    [-1.9909802675247192, -0.1329389214515686, 0.13536882400512695, 109.24909973144531],
    [-0.17441660165786743, 1.8440641164779663, -0.7543252110481262, -48.4652099609375],
    [0.07467480003833771, 0.7627285718917847, 1.8473409414291382, -63.28386688232422],
    [0.0, 0.0, 0.0, 1.0]
],
  "dcmmeta_reorient_transform": [
    [0.0, -1.0, 0.0, 103.0],
    [1.0, 0.0, 0.0, 0.0],
    [0.0, 0.0, 1.0, 0.0],
    [0.0, 0.0, 0.0, 1.0]
],
  "dcmmeta_shape": [104, 104, 60, 190],
  "dcmmeta_slice_dim": 2,
  "dcmmeta_version": 0.6,
  "global": {
    "const": {
      "AcquisitionMatrix": [104, 0, 0, 104],
      "AngioFlag": "N",
      "BitsAllocated": 16,
      "BitsStored": 16,
      "BodyPartExamined": "BRAIN",
      "Columns": 832,
      "EchoNumbers": 1,
      "EchoTime": 37.0,
      "EchoTrainLength": 104,
      "FlipAngle": 52.0,
      "HighBit": 15,
      "ImageOrientationPatient": [0.99549014608377, 0.08720829967629, 0.03733740105697, -0.0664694620718, 0.92203203885934, -0.3813643008054],
      "ImagePositionPatient": [-771.88344724184, -876.20035561306, 265.72876315902],
      "ImageType": [
        "ORIGINAL",
        "PRIMARY",
        "P",
        "MB",
        "ND",
        "MOSAIC"
],
      "ImagedNucleus": "1H",
      "ImagingFrequency": 123.258944,
      "InPlanePhaseEncodingDirection": "COL",
      "LargestImagePixelValue": 4095,
      "MRAcquisitionType": "2D",
      "MagneticFieldStrength": 3.0,
      "Manufacturer": "SIEMENS",
      "ManufacturerModelName": "Prisma_fit",
      "Modality": "MR",
      "NumberOfAverages": 1.0,
      "NumberOfPhaseEncodingSteps": 104,
      "PercentPhaseFieldOfView": 100.0,
      "PercentSampling": 100.0,
      "PerformedProcedureStepStartTime": "090626.405000",
      "PhotometricInterpretation": "MONOCHROME2",
      "PixelBandwidth": 2290.0,
      "PixelRepresentation": 0,
      "PixelSpacing": [2.0, 2.0],
      "ProtocolName": "func_task-things_run-2",
      "RepetitionTime": 1490.0,
      "RescaleIntercept": -4096.0,
      "RescaleSlope": 2.0,
      "RescaleType": "US",
      "Rows": 832,
      "SAR": 0.05737189980384,
      "SamplesPerPixel": 1,
      "ScanOptions": "FS",
      "ScanningSequence": "EP",
      "SequenceName": "epfid2d1_104",
      "SequenceVariant": [
        "SK",
        "SS"
],
      "SeriesDescription": "func_task-things_run-2",
      "SeriesNumber": 14,
      "SeriesTime": "093507.511000",
      "SliceLocation": -32.779713580828,
      "SliceThickness": 2.0,
      "SmallestImagePixelValue": 0,
      "SoftwareVersions": "syngo MR E11",
      "SpacingBetweenSlices": 1.999999988814,
      "SpecificCharacterSet": "ISO_IR 100",
      "StudyID": "1",
      "StudyTime": "090626.281000",
      "TransmitCoilName": "Body",
      "VariableFlipAngleFlag": "N",
      "WindowCenterWidthExplanation": "Algo1",
      "dBdt": 0.0},
    "slices": {}
  },
  "time": {
    "samples": {
      "AcquisitionNumber": [1, 2, 3, 4, 5, 6, 7, 8, 9, 10, 11, 12, 13, 14, 15, 16, 17, 18, 19, 20, 21, 22, 23, 24, 25, 26, 27, 28, 29, 30, 31, 32, 33, 34, 35, 36, 37, 38, 39, 40, 41, 42, 43, 44, 45, 46, 47, 48, 49, 50, 51, 52, 53, 54, 55, 56, 57, 58, 59, 60, 61, 62, 63, 64, 65, 66, 67, 68, 69, 70, 71, 72, 73, 74, 75, 76, 77, 78, 79, 80, 81, 82, 83, 84, 85, 86, 87, 88, 89, 90, 91, 92, 93, 94, 95, 96, 97, 98, 99, 100, 101, 102, 103, 104, 105, 106, 107, 108, 109, 110, 111, 112, 113, 114, 115, 116, 117, 118, 119, 120, 121, 122, 123, 124, 125, 126, 127, 128, 129, 130, 131, 132, 133, 134, 135, 136, 137, 138, 139, 140, 141, 142, 143, 144, 145, 146, 147, 148, 149, 150, 151, 152, 153, 154, 155, 156, 157, 158, 159, 160, 161, 162, 163, 164, 165, 166, 167, 168, 169, 170, 171, 172, 173, 174, 175, 176, 177, 178, 179, 180, 181, 182, 183, 184, 185, 186, 187, 188, 189, 190],
      "AcquisitionTime": ["093337.925000", "093339.415000", "093340.905000", "093342.395000", "093343.885000", "093345.375000", "093346.865000", "093348.355000", "093349.845000", "093351.335000", "093352.825000", "093354.315000", "093355.805000", "093357.295000", "093358.785000", "093400.275000", "093401.765000", "093403.255000", "093404.745000", "093406.235000", "093407.725000", "093409.215000", "093410.705000", "093412.195000", "093413.685000", "093415.175000", "093416.665000", "093418.155000", "093419.645000", "093421.135000", "093422.625000", "093424.115000", "093425.605000", "093427.095000", "093428.585000", "093430.075000", "093431.565000", "093433.055000", "093434.545000", "093436.035000", "093437.525000", "093439.015000", "093440.505000", "093441.995000", "093443.485000", "093444.975000", "093446.465000", "093447.955000", "093449.445000", "093450.935000", "093452.425000", "093453.915000", "093455.405000", "093456.895000", "093458.385000", "093459.875000", "093501.365000", "093502.855000", "093504.345000", "093505.835000", "093507.325000", "093508.815000", "093510.305000", "093511.795000", "093513.285000", "093514.775000", "093516.265000", "093517.755000", "093519.245000", "093520.735000", "093522.225000", "093523.715000", "093525.205000", "093526.695000", "093528.185000", "093529.675000", "093531.165000", "093532.655000", "093534.145000", "093535.635000", "093537.125000", "093538.615000", "093540.105000", "093541.595000", "093543.085000", "093544.575000", "093546.065000", "093547.555000", "093549.045000", "093550.535000", "093552.025000", "093553.515000", "093555.005000", "093556.495000", "093557.985000", "093559.475000", "093600.965000", "093602.455000", "093603.945000", "093605.435000", "093606.925000", "093608.415000", "093609.905000", "093611.395000", "093612.885000", "093614.375000", "093615.865000", "093617.355000", "093618.845000", "093620.335000", "093621.825000", "093623.315000", "093624.805000", "093626.295000", "093627.785000", "093629.275000", "093630.765000", "093632.255000", "093633.745000", "093635.235000", "093636.725000", "093638.215000", "093639.705000", "093641.195000", "093642.685000", "093644.175000", "093645.665000", "093647.155000", "093648.645000", "093650.135000", "093651.625000", "093653.115000", "093654.605000", "093656.095000", "093657.585000", "093659.075000", "093700.565000", "093702.055000", "093703.545000", "093705.035000", "093706.525000", "093708.015000", "093709.505000", "093710.995000", "093712.485000", "093713.975000", "093715.465000", "093716.955000", "093718.445000", "093719.935000", "093721.425000", "093722.915000", "093724.405000", "093725.895000", "093727.385000", "093728.875000", "093730.365000", "093731.855000", "093733.345000", "093734.835000", "093736.325000", "093737.815000", "093739.305000", "093740.795000", "093742.285000", "093743.775000", "093745.265000", "093746.755000", "093748.245000", "093749.735000", "093751.225000", "093752.715000", "093754.205000", "093755.695000", "093757.185000", "093758.675000", "093800.165000", "093801.655000", "093803.145000", "093804.635000", "093806.125000", "093807.615000", "093809.105000", "093810.595000", "093812.085000", "093813.575000", "093815.065000", "093816.555000", "093818.045000", "093819.535000"],
      "ContentTime": ["093507.514000", "093507.516000", "093507.519000", "093507.522000", "093507.524000", "093507.527000", "093507.530000", "093507.533000", "093507.535000", "093507.538000", "093507.540000", "093507.543000", "093507.545000", "093507.548000", "093507.550000", "093507.553000", "093507.555000", "093507.558000", "093507.560000", "093507.563000", "093507.565000", "093507.568000", "093507.570000", "093507.573000", "093507.575000", "093507.578000", "093507.580000", "093507.583000", "093507.586000", "093507.588000", "093507.591000", "093507.611000", "093507.614000", "093507.616000", "093507.619000", "093507.622000", "093527.386000", "093527.389000", "093527.392000", "093527.394000", "093527.397000", "093527.399000", "093527.402000", "093527.405000", "093527.410000", "093527.412000", "093527.415000", "093527.417000", "093527.420000", "093527.422000", "093527.425000", "093527.427000", "093527.430000", "093527.432000", "093527.435000", "093527.437000", "093547.413000", "093547.416000", "093547.419000", "093547.421000", "093547.424000", "093547.426000", "093547.429000", "093547.431000", "093547.434000", "093547.436000", "093547.439000", "093547.441000", "093547.444000", "093547.446000", "093547.449000", "093547.451000", "093547.454000", "093547.456000", "093547.459000", "093547.461000", "093607.407000", "093607.410000", "093607.412000", "093607.415000", "093607.417000", "093607.420000", "093607.422000", "093607.425000", "093607.427000", "093607.430000", "093607.433000", "093607.435000", "093607.438000", "093607.440000", "093607.443000", "093607.445000", "093607.448000", "093607.450000", "093607.453000", "093607.455000", "093647.438000", "093647.441000", "093647.444000", "093647.446000", "093647.449000", "093647.451000", "093647.454000", "093647.456000", "093647.459000", "093647.461000", "093647.464000", "093647.466000", "093647.469000", "093647.471000", "093647.474000", "093647.477000", "093647.480000", "093647.483000", "093647.485000", "093647.488000", "093647.492000", "093647.496000", "093647.500000", "093647.503000", "093647.507000", "093647.509000", "093647.512000", "093647.515000", "093647.518000", "093647.520000", "093727.428000", "093727.431000", "093727.434000", "093727.436000", "093727.439000", "093727.442000", "093727.444000", "093727.447000", "093727.449000", "093727.452000", "093727.454000", "093727.457000", "093727.459000", "093727.462000", "093727.464000", "093727.467000", "093727.470000", "093727.472000", "093727.475000", "093727.477000", "093727.480000", "093727.482000", "093727.485000", "093727.487000", "093727.490000", "093727.492000", "093727.495000", "093807.442000", "093807.445000", "093807.447000", "093807.450000", "093807.452000", "093807.455000", "093807.458000", "093807.460000", "093807.463000", "093807.465000", "093807.468000", "093807.470000", "093807.473000", "093807.475000", "093807.478000", "093807.480000", "093807.483000", "093807.485000", "093807.488000", "093807.490000", "093807.493000", "093807.495000", "093807.498000", "093807.501000", "093807.503000", "093807.506000", "093807.508000", "093821.503000", "093821.506000", "093821.508000", "093821.511000", "093821.513000", "093821.516000", "093821.519000", "093821.521000", "093821.524000", "093821.526000"],
      "InstanceCreationTime": ["093507.514000", "093507.516000", "093507.519000", "093507.522000", "093507.524000", "093507.527000", "093507.530000", "093507.533000", "093507.535000", "093507.538000", "093507.540000", "093507.543000", "093507.545000", "093507.548000", "093507.550000", "093507.553000", "093507.555000", "093507.558000", "093507.560000", "093507.563000", "093507.565000", "093507.568000", "093507.570000", "093507.573000", "093507.575000", "093507.578000", "093507.580000", "093507.583000", "093507.586000", "093507.588000", "093507.591000", "093507.611000", "093507.614000", "093507.616000", "093507.619000", "093507.622000", "093527.386000", "093527.389000", "093527.392000", "093527.394000", "093527.397000", "093527.399000", "093527.402000", "093527.405000", "093527.410000", "093527.412000", "093527.415000", "093527.417000", "093527.420000", "093527.422000", "093527.425000", "093527.427000", "093527.430000", "093527.432000", "093527.435000", "093527.437000", "093547.413000", "093547.416000", "093547.419000", "093547.421000", "093547.424000", "093547.426000", "093547.429000", "093547.431000", "093547.434000", "093547.436000", "093547.439000", "093547.441000", "093547.444000", "093547.446000", "093547.449000", "093547.451000", "093547.454000", "093547.456000", "093547.459000", "093547.461000", "093607.407000", "093607.410000", "093607.412000", "093607.415000", "093607.417000", "093607.420000", "093607.422000", "093607.425000", "093607.427000", "093607.430000", "093607.433000", "093607.435000", "093607.438000", "093607.440000", "093607.443000", "093607.445000", "093607.448000", "093607.450000", "093607.453000", "093607.455000", "093647.438000", "093647.441000", "093647.444000", "093647.446000", "093647.449000", "093647.451000", "093647.454000", "093647.456000", "093647.459000", "093647.461000", "093647.464000", "093647.466000", "093647.469000", "093647.471000", "093647.474000", "093647.477000", "093647.480000", "093647.483000", "093647.485000", "093647.488000", "093647.492000", "093647.496000", "093647.500000", "093647.503000", "093647.507000", "093647.509000", "093647.512000", "093647.515000", "093647.518000", "093647.520000", "093727.428000", "093727.431000", "093727.434000", "093727.436000", "093727.439000", "093727.442000", "093727.444000", "093727.447000", "093727.449000", "093727.452000", "093727.454000", "093727.457000", "093727.459000", "093727.462000", "093727.464000", "093727.467000", "093727.470000", "093727.472000", "093727.475000", "093727.477000", "093727.480000", "093727.482000", "093727.485000", "093727.487000", "093727.490000", "093727.492000", "093727.495000", "093807.442000", "093807.445000", "093807.447000", "093807.450000", "093807.452000", "093807.455000", "093807.458000", "093807.460000", "093807.463000", "093807.465000", "093807.468000", "093807.470000", "093807.473000", "093807.475000", "093807.478000", "093807.480000", "093807.483000", "093807.485000", "093807.488000", "093807.490000", "093807.493000", "093807.495000", "093807.498000", "093807.501000", "093807.503000", "093807.506000", "093807.508000", "093821.503000", "093821.506000", "093821.508000", "093821.511000", "093821.513000", "093821.516000", "093821.519000", "093821.521000", "093821.524000", "093821.526000"],
      "InstanceNumber": [1, 2, 3, 4, 5, 6, 7, 8, 9, 10, 11, 12, 13, 14, 15, 16, 17, 18, 19, 20, 21, 22, 23, 24, 25, 26, 27, 28, 29, 30, 31, 32, 33, 34, 35, 36, 37, 38, 39, 40, 41, 42, 43, 44, 45, 46, 47, 48, 49, 50, 51, 52, 53, 54, 55, 56, 57, 58, 59, 60, 61, 62, 63, 64, 65, 66, 67, 68, 69, 70, 71, 72, 73, 74, 75, 76, 77, 78, 79, 80, 81, 82, 83, 84, 85, 86, 87, 88, 89, 90, 91, 92, 93, 94, 95, 96, 97, 98, 99, 100, 101, 102, 103, 104, 105, 106, 107, 108, 109, 110, 111, 112, 113, 114, 115, 116, 117, 118, 119, 120, 121, 122, 123, 124, 125, 126, 127, 128, 129, 130, 131, 132, 133, 134, 135, 136, 137, 138, 139, 140, 141, 142, 143, 144, 145, 146, 147, 148, 149, 150, 151, 152, 153, 154, 155, 156, 157, 158, 159, 160, 161, 162, 163, 164, 165, 166, 167, 168, 169, 170, 171, 172, 173, 174, 175, 176, 177, 178, 179, 180, 181, 182, 183, 184, 185, 186, 187, 188, 189, 190],
      "WindowCenter": [4842.0, 4844.0, 4848.0, 4844.0, 4840.0, 4812.0, 4838.0, 4846.0, 4846.0, 4846.0, 4840.0, 4842.0, 4842.0, 4848.0, 4840.0, 4838.0, 4844.0, 4846.0, 4842.0, 4814.0, 4840.0, 4850.0, 4848.0, 4848.0, 4838.0, 4836.0, 4842.0, 4846.0, 4848.0, 4846.0, 4842.0, 4840.0, 4846.0, 4848.0, 4844.0, 4840.0, 4838.0, 4844.0, 4846.0, 4848.0, 4836.0, 4838.0, 4848.0, 4850.0, 4876.0, 4848.0, 4838.0, 4840.0, 4842.0, 4844.0, 4842.0, 4836.0, 4844.0, 4872.0, 4852.0, 4844.0, 4844.0, 4844.0, 4838.0, 4838.0, 4844.0, 4844.0, 4838.0, 4834.0, 4844.0, 4850.0, 4848.0, 4836.0, 4844.0, 4842.0, 4840.0, 4836.0, 4836.0, 4838.0, 4846.0, 4842.0, 4810.0, 4838.0, 4844.0, 4844.0, 4836.0, 4836.0, 4840.0, 4846.0, 4842.0, 4836.0, 4812.0, 4840.0, 4842.0, 4844.0, 4842.0, 4838.0, 4812.0, 4842.0, 4842.0, 4842.0, 4836.0, 4810.0, 4838.0, 4842.0, 4848.0, 4844.0, 4842.0, 4844.0, 4842.0, 4840.0, 4810.0, 4838.0, 4842.0, 4852.0, 4846.0, 4838.0, 4838.0, 4844.0, 4842.0, 4812.0, 4838.0, 4846.0, 4850.0, 4844.0, 4838.0, 4844.0, 4846.0, 4842.0, 4814.0, 4842.0, 4844.0, 4848.0, 4844.0, 4814.0, 4840.0, 4842.0, 4844.0, 4838.0, 4840.0, 4846.0, 4848.0, 4838.0, 4838.0, 4842.0, 4846.0, 4840.0, 4838.0, 4838.0, 4846.0, 4844.0, 4812.0, 4844.0, 4842.0, 4844.0, 4836.0, 4812.0, 4836.0, 4840.0, 4840.0, 4842.0, 4836.0, 4838.0, 4842.0, 4844.0, 4842.0, 4836.0, 4812.0, 4838.0, 4840.0, 4840.0, 4836.0, 4836.0, 4840.0, 4844.0, 4836.0, 4810.0, 4836.0, 4842.0, 4840.0, 4838.0, 4810.0, 4838.0, 4838.0, 4814.0, 4812.0, 4838.0, 4836.0, 4836.0, 4840.0, 4836.0, 4836.0, 4834.0, 4810.0, 4810.0],
      "WindowWidth": [18630.0, 18628.0, 18632.0, 18632.0, 18628.0, 18596.0, 18626.0, 18630.0, 18630.0, 18638.0, 18626.0, 18628.0, 18628.0, 18638.0, 18628.0, 18622.0, 18626.0, 18628.0, 18630.0, 18594.0, 18628.0, 18638.0, 18638.0, 18634.0, 18628.0, 18628.0, 18626.0, 18630.0, 18632.0, 18632.0, 18626.0, 18624.0, 18632.0, 18630.0, 18628.0, 18628.0, 18624.0, 18628.0, 18634.0, 18632.0, 18624.0, 18626.0, 18632.0, 18634.0, 18666.0, 18630.0, 18630.0, 18626.0, 18626.0, 18634.0, 18628.0, 18624.0, 18628.0, 18668.0, 18638.0, 18626.0, 18630.0, 18628.0, 18626.0, 18626.0, 18630.0, 18632.0, 18624.0, 18626.0, 18630.0, 18636.0, 18634.0, 18628.0, 18632.0, 18628.0, 18632.0, 18622.0, 18622.0, 18624.0, 18630.0, 18628.0, 18596.0, 18620.0, 18628.0, 18630.0, 18616.0, 18626.0, 18630.0, 18634.0, 18628.0, 18624.0, 18594.0, 18626.0, 18632.0, 18632.0, 18630.0, 18622.0, 18598.0, 18630.0, 18632.0, 18636.0, 18622.0, 18590.0, 18624.0, 18630.0, 18634.0, 18628.0, 18630.0, 18630.0, 18626.0, 18628.0, 18592.0, 18626.0, 18632.0, 18636.0, 18634.0, 18628.0, 18630.0, 18632.0, 18624.0, 18594.0, 18626.0, 18634.0, 18634.0, 18628.0, 18626.0, 18630.0, 18630.0, 18628.0, 18594.0, 18632.0, 18630.0, 18632.0, 18630.0, 18596.0, 18620.0, 18630.0, 18626.0, 18624.0, 18626.0, 18630.0, 18634.0, 18624.0, 18624.0, 18628.0, 18630.0, 18626.0, 18624.0, 18628.0, 18634.0, 18632.0, 18594.0, 18628.0, 18630.0, 18628.0, 18622.0, 18590.0, 18628.0, 18630.0, 18630.0, 18624.0, 18622.0, 18626.0, 18626.0, 18630.0, 18630.0, 18624.0, 18592.0, 18628.0, 18626.0, 18626.0, 18622.0, 18626.0, 18628.0, 18632.0, 18626.0, 18588.0, 18632.0, 18630.0, 18626.0, 18628.0, 18592.0, 18622.0, 18628.0, 18594.0, 18596.0, 18630.0, 18630.0, 18628.0, 18630.0, 18624.0, 18622.0, 18626.0, 18588.0, 18596.0]
    },
    "slices": {}
  }
}