{
  "AcquisitionMatrixPE": 104,
  "AcquisitionNumber": 1,
  "AcquisitionTime": "09:40:15.615000",
  "BandwidthPerPixelPhaseEncode": 17.17,
  "BaseResolution": 104,
  "BodyPartExamined": "BRAIN",
  "CoilString": "HC1-7;NC1_2",
  "ConsistencyInfo": "N4_VE11C_LATEST_20160120",
  "ConversionSoftware": "dcm2niix",
  "ConversionSoftwareVersion": "v1.0.20190902",
  "DerivedVendorReportedEchoSpacing": 0.000560011,
  "DeviceSerialNumber": "167006",
  "DwellTime": 2.1e-06,
  "EchoTime": 0.037,
  "EchoTrainLength": 104,
  "EffectiveEchoSpacing": 0.000560011,
  "FlipAngle": 52,
  "ImageComments": "Unaliased_MB4_PE3_LB",
  "ImageOrientationPatientDICOM": [0.99549, 0.0872083, 0.0373374, -0.0664695, 0.922032, -0.381364],
  "ImageType": [
    "ORIGINAL",
    "PRIMARY",
    "M",
    "MB",
    "ND",
    "MOSAIC"
],
  "ImagingFrequency": 123.259,
  "InPlanePhaseEncodingDirectionDICOM": "COL",
  "InstitutionAddress": "Chemin_Queen-Mary_4565_Montreal_District_CA_H3W_1W5",
  "InstitutionName": "IUGM",
  "InstitutionalDepartmentName": "Department",
  "MRAcquisitionType": "2D",
  "MagneticFieldStrength": 3,
  "Manufacturer": "Siemens",
  "ManufacturersModelName": "Prisma_fit",
  "Modality": "MR",
  "MultibandAccelerationFactor": 4,
  "PartialFourier": 1,
  "PatientPosition": "HFS",
  "PercentPhaseFOV": 100,
  "PhaseEncodingDirection": "j",
  "PhaseEncodingSteps": 104,
  "PhaseResolution": 1,
  "PixelBandwidth": 2290,
  "ProcedureStepDescription": "memory_things",
  "ProtocolName": "func_task-things_run-3",
  "PulseSequenceDetails": "%CustomerSeq%_cmrr_mbep2d_bold",
  "ReceiveCoilActiveElements": "HC1-7;NC1,2",
  "ReceiveCoilName": "HeadNeck_64",
  "ReconMatrixPE": 104,
  "RepetitionTime": 1.49,
  "SAR": 0.0573719,
  "ScanOptions": "FS",
  "ScanningSequence": "EP",
  "SequenceName": "epfid2d1_104",
  "SequenceVariant": "SK_SS",
  "SeriesDescription": "func_task-things_run-3",
  "SeriesNumber": 16,
  "ShimSetting": [645, -7152, -8806, 649, 113, 123, -35, -17],
  "SliceThickness": 2,
  "SliceTiming": [0, 0.785, 0.0975, 0.8825, 0.195, 0.98, 0.295, 1.0775, 0.3925, 1.175, 0.49, 1.275, 0.5875, 1.3725, 0.685, 0, 0.785, 0.0975, 0.8825, 0.195, 0.98, 0.295, 1.0775, 0.3925, 1.175, 0.49, 1.275, 0.5875, 1.3725, 0.685, 0, 0.785, 0.0975, 0.8825, 0.195, 0.98, 0.295, 1.0775, 0.3925, 1.175, 0.49, 1.275, 0.5875, 1.3725, 0.685, 0, 0.785, 0.0975, 0.8825, 0.195, 0.98, 0.295, 1.0775, 0.3925, 1.175, 0.49, 1.275, 0.5875, 1.3725, 0.685],
  "SoftwareVersions": "syngo_MR_E11",
  "SpacingBetweenSlices": 2,
  "StationName": "MRC35049",
  "TaskName": "things",
  "TotalReadoutTime": 0.0576811,
  "TxRefAmp": 285.299,
  "WipMemBlock": "470600a7-0f7d-4183-98ac-2f6218d85885||Sequence: R016 ve11c/master r/e634e98; Dec 19 2017 11:00:25 by eja",
  "dcmmeta_affine": [
    [-1.9909802675247192, -0.1329389214515686, 0.13536882400512695, 109.24909973144531],
    [-0.17441660165786743, 1.8440641164779663, -0.7543252110481262, -48.4652099609375],
    [0.07467480003833771, 0.7627285718917847, 1.8473409414291382, -63.28386688232422],
    [0.0, 0.0, 0.0, 1.0]
],
  "dcmmeta_reorient_transform": [
    [0.0, -1.0, 0.0, 103.0],
    [1.0, 0.0, 0.0, 0.0],
    [0.0, 0.0, 1.0, 0.0],
    [0.0, 0.0, 0.0, 1.0]
],
  "dcmmeta_shape": [104, 104, 60, 190],
  "dcmmeta_slice_dim": 2,
  "dcmmeta_version": 0.6,
  "global": {
    "const": {
      "AcquisitionMatrix": [104, 0, 0, 104],
      "AngioFlag": "N",
      "BitsAllocated": 16,
      "BitsStored": 16,
      "BodyPartExamined": "BRAIN",
      "Columns": 832,
      "EchoNumbers": 1,
      "EchoTime": 37.0,
      "EchoTrainLength": 104,
      "FlipAngle": 52.0,
      "HighBit": 15,
      "ImageOrientationPatient": [0.99549014608377, 0.08720829967629, 0.03733740105697, -0.0664694620718, 0.92203203885934, -0.3813643008054],
      "ImagePositionPatient": [-771.88344724184, -876.20035561306, 265.72876315902],
      "ImageType": [
        "ORIGINAL",
        "PRIMARY",
        "M",
        "MB",
        "ND",
        "MOSAIC"
],
      "ImagedNucleus": "1H",
      "ImagingFrequency": 123.258947,
      "InPlanePhaseEncodingDirection": "COL",
      "MRAcquisitionType": "2D",
      "MagneticFieldStrength": 3.0,
      "Manufacturer": "SIEMENS",
      "ManufacturerModelName": "Prisma_fit",
      "Modality": "MR",
      "NumberOfAverages": 1.0,
      "NumberOfPhaseEncodingSteps": 104,
      "PercentPhaseFieldOfView": 100.0,
      "PercentSampling": 100.0,
      "PerformedProcedureStepStartTime": "090626.405000",
      "PhotometricInterpretation": "MONOCHROME2",
      "PixelBandwidth": 2290.0,
      "PixelRepresentation": 0,
      "PixelSpacing": [2.0, 2.0],
      "ProtocolName": "func_task-things_run-3",
      "RepetitionTime": 1490.0,
      "Rows": 832,
      "SAR": 0.05737189980384,
      "SamplesPerPixel": 1,
      "ScanOptions": "FS",
      "ScanningSequence": "EP",
      "SequenceName": "epfid2d1_104",
      "SequenceVariant": [
        "SK",
        "SS"
],
      "SeriesDescription": "func_task-things_run-3",
      "SeriesNumber": 16,
      "SeriesTime": "094147.251000",
      "SliceLocation": -32.779713580828,
      "SliceThickness": 2.0,
      "SmallestImagePixelValue": 0,
      "SoftwareVersions": "syngo MR E11",
      "SpacingBetweenSlices": 1.999999988814,
      "SpecificCharacterSet": "ISO_IR 100",
      "StudyID": "1",
      "StudyTime": "090626.281000",
      "TransmitCoilName": "Body",
      "VariableFlipAngleFlag": "N",
      "WindowCenterWidthExplanation": "Algo1",
      "dBdt": 0.0},
    "slices": {}
  },
  "time": {
    "samples": {
      "AcquisitionNumber": [1, 2, 3, 4, 5, 6, 7, 8, 9, 10, 11, 12, 13, 14, 15, 16, 17, 18, 19, 20, 21, 22, 23, 24, 25, 26, 27, 28, 29, 30, 31, 32, 33, 34, 35, 36, 37, 38, 39, 40, 41, 42, 43, 44, 45, 46, 47, 48, 49, 50, 51, 52, 53, 54, 55, 56, 57, 58, 59, 60, 61, 62, 63, 64, 65, 66, 67, 68, 69, 70, 71, 72, 73, 74, 75, 76, 77, 78, 79, 80, 81, 82, 83, 84, 85, 86, 87, 88, 89, 90, 91, 92, 93, 94, 95, 96, 97, 98, 99, 100, 101, 102, 103, 104, 105, 106, 107, 108, 109, 110, 111, 112, 113, 114, 115, 116, 117, 118, 119, 120, 121, 122, 123, 124, 125, 126, 127, 128, 129, 130, 131, 132, 133, 134, 135, 136, 137, 138, 139, 140, 141, 142, 143, 144, 145, 146, 147, 148, 149, 150, 151, 152, 153, 154, 155, 156, 157, 158, 159, 160, 161, 162, 163, 164, 165, 166, 167, 168, 169, 170, 171, 172, 173, 174, 175, 176, 177, 178, 179, 180, 181, 182, 183, 184, 185, 186, 187, 188, 189, 190],
      "AcquisitionTime": ["094015.615000", "094017.105000", "094018.595000", "094020.085000", "094021.575000", "094023.065000", "094024.555000", "094026.045000", "094027.535000", "094029.025000", "094030.515000", "094032.005000", "094033.495000", "094034.985000", "094036.475000", "094037.965000", "094039.455000", "094040.945000", "094042.435000", "094043.925000", "094045.415000", "094046.905000", "094048.395000", "094049.885000", "094051.375000", "094052.865000", "094054.355000", "094055.845000", "094057.335000", "094058.825000", "094100.315000", "094101.805000", "094103.295000", "094104.785000", "094106.275000", "094107.765000", "094109.255000", "094110.745000", "094112.235000", "094113.725000", "094115.215000", "094116.705000", "094118.195000", "094119.685000", "094121.175000", "094122.665000", "094124.155000", "094125.645000", "094127.135000", "094128.625000", "094130.115000", "094131.605000", "094133.095000", "094134.585000", "094136.075000", "094137.565000", "094139.055000", "094140.545000", "094142.035000", "094143.525000", "094145.015000", "094146.505000", "094147.995000", "094149.485000", "094150.975000", "094152.465000", "094153.955000", "094155.445000", "094156.935000", "094158.425000", "094159.915000", "094201.405000", "094202.895000", "094204.385000", "094205.875000", "094207.365000", "094208.855000", "094210.345000", "094211.835000", "094213.325000", "094214.815000", "094216.305000", "094217.795000", "094219.285000", "094220.775000", "094222.265000", "094223.755000", "094225.245000", "094226.735000", "094228.225000", "094229.715000", "094231.205000", "094232.695000", "094234.185000", "094235.675000", "094237.165000", "094238.655000", "094240.145000", "094241.635000", "094243.125000", "094244.615000", "094246.105000", "094247.595000", "094249.085000", "094250.575000", "094252.065000", "094253.555000", "094255.045000", "094256.535000", "094258.025000", "094259.515000", "094301.005000", "094302.495000", "094303.985000", "094305.475000", "094306.965000", "094308.455000", "094309.945000", "094311.435000", "094312.925000", "094314.415000", "094315.905000", "094317.395000", "094318.885000", "094320.375000", "094321.865000", "094323.355000", "094324.845000", "094326.335000", "094327.825000", "094329.315000", "094330.805000", "094332.295000", "094333.785000", "094335.275000", "094336.765000", "094338.255000", "094339.745000", "094341.235000", "094342.725000", "094344.215000", "094345.705000", "094347.195000", "094348.685000", "094350.175000", "094351.665000", "094353.155000", "094354.645000", "094356.135000", "094357.625000", "094359.115000", "094400.605000", "094402.095000", "094403.585000", "094405.075000", "094406.565000", "094408.055000", "094409.545000", "094411.035000", "094412.525000", "094414.015000", "094415.505000", "094416.995000", "094418.485000", "094419.975000", "094421.465000", "094422.955000", "094424.445000", "094425.935000", "094427.425000", "094428.915000", "094430.405000", "094431.895000", "094433.385000", "094434.875000", "094436.365000", "094437.855000", "094439.345000", "094440.835000", "094442.325000", "094443.815000", "094445.305000", "094446.795000", "094448.285000", "094449.775000", "094451.265000", "094452.755000", "094454.245000", "094455.735000", "094457.225000"],
      "ContentTime": ["094147.254000", "094147.258000", "094147.262000", "094147.265000", "094147.268000", "094147.271000", "094147.275000", "094147.278000", "094147.282000", "094147.285000", "094147.288000", "094147.291000", "094147.295000", "094147.298000", "094147.301000", "094147.305000", "094147.308000", "094147.311000", "094147.315000", "094147.318000", "094147.321000", "094147.325000", "094147.328000", "094147.331000", "094147.335000", "094147.338000", "094147.341000", "094147.344000", "094147.348000", "094147.351000", "094147.354000", "094147.358000", "094147.366000", "094147.370000", "094147.373000", "094147.376000", "094147.380000", "094207.195000", "094207.199000", "094207.202000", "094207.206000", "094207.209000", "094207.212000", "094207.215000", "094207.219000", "094207.222000", "094207.225000", "094207.229000", "094207.232000", "094207.235000", "094207.239000", "094207.242000", "094207.245000", "094207.249000", "094207.252000", "094207.255000", "094207.259000", "094227.196000", "094227.200000", "094227.203000", "094227.207000", "094227.210000", "094227.213000", "094227.217000", "094227.220000", "094227.223000", "094227.227000", "094227.230000", "094227.233000", "094227.236000", "094227.240000", "094227.243000", "094227.247000", "094227.250000", "094227.253000", "094227.256000", "094227.260000", "094247.196000", "094247.200000", "094247.203000", "094247.207000", "094247.210000", "094247.213000", "094247.217000", "094247.220000", "094247.223000", "094247.227000", "094247.230000", "094247.233000", "094247.237000", "094247.240000", "094247.243000", "094247.247000", "094247.250000", "094247.253000", "094247.257000", "094247.260000", "094327.195000", "094327.199000", "094327.202000", "094327.206000", "094327.209000", "094327.212000", "094327.216000", "094327.219000", "094327.222000", "094327.226000", "094327.229000", "094327.232000", "094327.236000", "094327.239000", "094327.242000", "094327.246000", "094327.249000", "094327.252000", "094327.256000", "094327.259000", "094327.262000", "094327.266000", "094327.269000", "094327.273000", "094327.276000", "094327.279000", "094327.283000", "094327.286000", "094327.289000", "094327.293000", "094327.296000", "094407.195000", "094407.199000", "094407.202000", "094407.206000", "094407.209000", "094407.212000", "094407.216000", "094407.219000", "094407.222000", "094407.226000", "094407.229000", "094407.232000", "094407.235000", "094407.239000", "094407.242000", "094407.246000", "094407.249000", "094407.252000", "094407.255000", "094407.259000", "094407.262000", "094407.266000", "094407.269000", "094407.272000", "094407.276000", "094407.279000", "094407.282000", "094447.196000", "094447.200000", "094447.203000", "094447.207000", "094447.210000", "094447.213000", "094447.217000", "094447.220000", "094447.224000", "094447.227000", "094447.230000", "094447.234000", "094447.237000", "094447.240000", "094447.244000", "094447.261000", "094447.264000", "094447.267000", "094447.271000", "094447.274000", "094447.277000", "094447.281000", "094447.284000", "094447.287000", "094447.291000", "094447.294000", "094447.297000", "094459.169000", "094459.172000", "094459.176000", "094459.179000", "094459.183000", "094459.186000", "094459.190000", "094459.193000"],
      "InstanceCreationTime": ["094147.254000", "094147.258000", "094147.262000", "094147.265000", "094147.268000", "094147.271000", "094147.275000", "094147.278000", "094147.282000", "094147.285000", "094147.288000", "094147.291000", "094147.295000", "094147.298000", "094147.301000", "094147.305000", "094147.308000", "094147.311000", "094147.315000", "094147.318000", "094147.321000", "094147.325000", "094147.328000", "094147.331000", "094147.335000", "094147.338000", "094147.341000", "094147.344000", "094147.348000", "094147.351000", "094147.354000", "094147.358000", "094147.366000", "094147.370000", "094147.373000", "094147.376000", "094147.380000", "094207.195000", "094207.199000", "094207.202000", "094207.206000", "094207.209000", "094207.212000", "094207.215000", "094207.219000", "094207.222000", "094207.225000", "094207.229000", "094207.232000", "094207.235000", "094207.239000", "094207.242000", "094207.245000", "094207.249000", "094207.252000", "094207.255000", "094207.259000", "094227.196000", "094227.200000", "094227.203000", "094227.207000", "094227.210000", "094227.213000", "094227.217000", "094227.220000", "094227.223000", "094227.227000", "094227.230000", "094227.233000", "094227.236000", "094227.240000", "094227.243000", "094227.247000", "094227.250000", "094227.253000", "094227.256000", "094227.260000", "094247.196000", "094247.200000", "094247.203000", "094247.207000", "094247.210000", "094247.213000", "094247.217000", "094247.220000", "094247.223000", "094247.227000", "094247.230000", "094247.233000", "094247.237000", "094247.240000", "094247.243000", "094247.247000", "094247.250000", "094247.253000", "094247.257000", "094247.260000", "094327.195000", "094327.199000", "094327.202000", "094327.206000", "094327.209000", "094327.212000", "094327.216000", "094327.219000", "094327.222000", "094327.226000", "094327.229000", "094327.232000", "094327.236000", "094327.239000", "094327.242000", "094327.246000", "094327.249000", "094327.252000", "094327.256000", "094327.259000", "094327.262000", "094327.266000", "094327.269000", "094327.273000", "094327.276000", "094327.279000", "094327.283000", "094327.286000", "094327.289000", "094327.293000", "094327.296000", "094407.195000", "094407.199000", "094407.202000", "094407.206000", "094407.209000", "094407.212000", "094407.216000", "094407.219000", "094407.222000", "094407.226000", "094407.229000", "094407.232000", "094407.235000", "094407.239000", "094407.242000", "094407.246000", "094407.249000", "094407.252000", "094407.255000", "094407.259000", "094407.262000", "094407.266000", "094407.269000", "094407.272000", "094407.276000", "094407.279000", "094407.282000", "094447.196000", "094447.200000", "094447.203000", "094447.207000", "094447.210000", "094447.213000", "094447.217000", "094447.220000", "094447.224000", "094447.227000", "094447.230000", "094447.234000", "094447.237000", "094447.240000", "094447.244000", "094447.261000", "094447.264000", "094447.267000", "094447.271000", "094447.274000", "094447.277000", "094447.281000", "094447.284000", "094447.287000", "094447.291000", "094447.294000", "094447.297000", "094459.169000", "094459.172000", "094459.176000", "094459.179000", "094459.183000", "094459.186000", "094459.190000", "094459.193000"],
      "InstanceNumber": [1, 2, 3, 4, 5, 6, 7, 8, 9, 10, 11, 12, 13, 14, 15, 16, 17, 18, 19, 20, 21, 22, 23, 24, 25, 26, 27, 28, 29, 30, 31, 32, 33, 34, 35, 36, 37, 38, 39, 40, 41, 42, 43, 44, 45, 46, 47, 48, 49, 50, 51, 52, 53, 54, 55, 56, 57, 58, 59, 60, 61, 62, 63, 64, 65, 66, 67, 68, 69, 70, 71, 72, 73, 74, 75, 76, 77, 78, 79, 80, 81, 82, 83, 84, 85, 86, 87, 88, 89, 90, 91, 92, 93, 94, 95, 96, 97, 98, 99, 100, 101, 102, 103, 104, 105, 106, 107, 108, 109, 110, 111, 112, 113, 114, 115, 116, 117, 118, 119, 120, 121, 122, 123, 124, 125, 126, 127, 128, 129, 130, 131, 132, 133, 134, 135, 136, 137, 138, 139, 140, 141, 142, 143, 144, 145, 146, 147, 148, 149, 150, 151, 152, 153, 154, 155, 156, 157, 158, 159, 160, 161, 162, 163, 164, 165, 166, 167, 168, 169, 170, 171, 172, 173, 174, 175, 176, 177, 178, 179, 180, 181, 182, 183, 184, 185, 186, 187, 188, 189, 190],
      "LargestImagePixelValue": [44681, 43278, 42808, 42502, 43309, 42639, 42074, 42242, 42409, 43266, 41961, 42265, 43087, 42383, 43717, 42195, 42414, 42449, 42918, 42838, 41952, 42310, 42154, 42452, 41864, 42409, 43300, 42362, 41859, 42075, 41876, 42091, 42430, 42758, 41807, 40947, 41389, 42249, 42665, 42078, 42067, 42228, 42594, 42394, 41840, 42473, 42192, 42064, 43330, 42096, 42116, 42519, 42865, 42569, 41953, 41707, 42597, 42017, 41413, 42070, 41834, 41730, 42293, 42034, 41791, 42455, 41397, 41626, 42014, 41786, 41907, 42844, 41894, 43021, 42194, 43322, 43901, 42228, 42180, 42685, 43196, 43168, 43154, 42917, 42274, 42867, 42762, 42478, 42063, 42653, 42303, 42121, 42381, 42442, 41607, 41968, 41736, 41832, 41906, 41162, 41478, 41862, 41565, 41509, 42091, 41316, 41139, 42170, 42749, 41983, 41724, 42469, 41893, 42317, 41989, 42464, 42379, 42477, 42554, 41592, 41649, 41745, 42040, 41544, 41260, 41496, 41562, 41415, 41960, 41195, 41158, 41116, 41513, 41100, 40664, 40943, 41380, 40710, 41287, 40723, 40947, 41413, 41727, 41374, 41568, 42221, 41312, 41415, 41180, 41604, 40890, 40814, 40901, 40760, 39708, 40633, 40537, 41495, 40062, 40083, 40383, 40055, 40325, 40978, 40318, 40397, 39859, 39896, 40132, 39879, 40433, 39922, 40028, 39929, 40191, 40069, 39633, 39444, 39881, 39933, 39703, 39867, 39877, 39620, 39985, 39921, 40655, 39913, 39272, 39649],
      "WindowCenter": [10602.0, 10581.0, 10566.0, 10540.0, 10532.0, 10507.0, 10509.0, 10517.0, 10516.0, 10520.0, 10525.0, 10542.0, 10545.0, 10515.0, 10516.0, 10513.0, 10549.0, 10543.0, 10531.0, 10514.0, 10516.0, 10516.0, 10506.0, 10513.0, 10522.0, 10547.0, 10547.0, 10518.0, 10509.0, 10516.0, 10526.0, 10548.0, 10551.0, 10548.0, 10534.0, 10541.0, 10533.0, 10533.0, 10524.0, 10524.0, 10549.0, 10545.0, 10539.0, 10515.0, 10515.0, 10530.0, 10516.0, 10508.0, 10516.0, 10506.0, 10531.0, 10537.0, 10522.0, 10511.0, 10512.0, 10526.0, 10529.0, 10499.0, 10499.0, 10506.0, 10506.0, 10526.0, 10542.0, 10533.0, 10526.0, 10527.0, 10508.0, 10533.0, 10552.0, 10554.0, 10553.0, 10550.0, 10535.0, 10558.0, 10562.0, 10562.0, 10556.0, 10545.0, 10544.0, 10532.0, 10521.0, 10523.0, 10535.0, 10551.0, 10538.0, 10522.0, 10497.0, 10494.0, 10499.0, 10505.0, 10498.0, 10511.0, 10521.0, 10506.0, 10499.0, 10505.0, 10501.0, 10512.0, 10513.0, 10517.0, 10534.0, 10533.0, 10516.0, 10517.0, 10525.0, 10526.0, 10541.0, 10556.0, 10553.0, 10537.0, 10546.0, 10542.0, 10519.0, 10513.0, 10523.0, 10558.0, 10556.0, 10544.0, 10516.0, 10504.0, 10512.0, 10498.0, 10482.0, 10487.0, 10509.0, 10509.0, 10491.0, 10484.0, 10490.0, 10484.0, 10509.0, 10514.0, 10517.0, 10514.0, 10508.0, 10515.0, 10522.0, 10508.0, 10513.0, 10516.0, 10541.0, 10535.0, 10523.0, 10512.0, 10529.0, 10544.0, 10526.0, 10510.0, 10506.0, 10505.0, 10490.0, 10496.0, 10495.0, 10486.0, 10484.0, 10497.0, 10506.0, 10519.0, 10512.0, 10514.0, 10520.0, 10515.0, 10531.0, 10544.0, 10543.0, 10543.0, 10535.0, 10548.0, 10555.0, 10544.0, 10525.0, 10505.0, 10513.0, 10522.0, 10513.0, 10496.0, 10487.0, 10498.0, 10504.0, 10496.0, 10495.0, 10502.0, 10511.0, 10525.0, 10528.0, 10529.0, 10531.0, 10511.0, 10518.0, 10530.0],
      "WindowWidth": [22525.0, 22474.0, 22427.0, 22357.0, 22329.0, 22273.0, 22283.0, 22298.0, 22293.0, 22301.0, 22320.0, 22358.0, 22359.0, 22292.0, 22289.0, 22288.0, 22379.0, 22363.0, 22329.0, 22290.0, 22299.0, 22302.0, 22275.0, 22289.0, 22313.0, 22369.0, 22365.0, 22306.0, 22286.0, 22303.0, 22328.0, 22377.0, 22383.0, 22374.0, 22344.0, 22366.0, 22348.0, 22338.0, 22318.0, 22320.0, 22379.0, 22368.0, 22347.0, 22292.0, 22298.0, 22331.0, 22298.0, 22279.0, 22294.0, 22278.0, 22336.0, 22346.0, 22314.0, 22284.0, 22291.0, 22325.0, 22327.0, 22258.0, 22266.0, 22277.0, 22278.0, 22332.0, 22364.0, 22342.0, 22321.0, 22319.0, 22281.0, 22340.0, 22383.0, 22391.0, 22385.0, 22375.0, 22344.0, 22395.0, 22406.0, 22406.0, 22383.0, 22366.0, 22364.0, 22335.0, 22307.0, 22313.0, 22340.0, 22379.0, 22348.0, 22303.0, 22248.0, 22242.0, 22260.0, 22272.0, 22256.0, 22286.0, 22307.0, 22273.0, 22259.0, 22272.0, 22266.0, 22286.0, 22290.0, 22302.0, 22341.0, 22335.0, 22297.0, 22300.0, 22322.0, 22324.0, 22360.0, 22394.0, 22382.0, 22345.0, 22370.0, 22357.0, 22304.0, 22285.0, 22317.0, 22397.0, 22392.0, 22361.0, 22292.0, 22271.0, 22297.0, 22255.0, 22218.0, 22232.0, 22285.0, 22284.0, 22241.0, 22226.0, 22237.0, 22230.0, 22289.0, 22298.0, 22300.0, 22299.0, 22287.0, 22306.0, 22318.0, 22286.0, 22295.0, 22305.0, 22363.0, 22349.0, 22316.0, 22291.0, 22335.0, 22366.0, 22329.0, 22297.0, 22281.0, 22276.0, 22245.0, 22254.0, 22250.0, 22231.0, 22232.0, 22259.0, 22278.0, 22306.0, 22300.0, 22303.0, 22315.0, 22306.0, 22343.0, 22367.0, 22373.0, 22373.0, 22353.0, 22383.0, 22405.0, 22371.0, 22327.0, 22278.0, 22301.0, 22320.0, 22296.0, 22255.0, 22237.0, 22266.0, 22276.0, 22257.0, 22257.0, 22272.0, 22293.0, 22326.0, 22338.0, 22339.0, 22337.0, 22296.0, 22311.0, 22343.0]
    },
    "slices": {}
  }
}