{
  "AcquisitionMatrixPE": 104,
  "AcquisitionNumber": 1,
  "AcquisitionTime": "09:27:21.492500",
  "BandwidthPerPixelPhaseEncode": 17.17,
  "BaseResolution": 104,
  "BodyPartExamined": "BRAIN",
  "CoilString": "HC1-7;NC1_2",
  "ConsistencyInfo": "N4_VE11C_LATEST_20160120",
  "ConversionSoftware": "dcm2niix",
  "ConversionSoftwareVersion": "v1.0.20190902",
  "DerivedVendorReportedEchoSpacing": 0.000560011,
  "DeviceSerialNumber": "167006",
  "DwellTime": 2.1e-06,
  "EchoTime": 0.037,
  "EchoTrainLength": 104,
  "EffectiveEchoSpacing": 0.000560011,
  "FlipAngle": 52,
  "ImageComments": "Unaliased_MB4_PE3_LB",
  "ImageOrientationPatientDICOM": [0.99549, 0.0872083, 0.0373374, -0.0664695, 0.922032, -0.381364],
  "ImageType": [
    "ORIGINAL",
    "PRIMARY",
    "M",
    "MB",
    "ND",
    "MOSAIC"
],
  "ImagingFrequency": 123.259,
  "InPlanePhaseEncodingDirectionDICOM": "COL",
  "InstitutionAddress": "Chemin_Queen-Mary_4565_Montreal_District_CA_H3W_1W5",
  "InstitutionName": "IUGM",
  "InstitutionalDepartmentName": "Department",
  "MRAcquisitionType": "2D",
  "MagneticFieldStrength": 3,
  "Manufacturer": "Siemens",
  "ManufacturersModelName": "Prisma_fit",
  "Modality": "MR",
  "MultibandAccelerationFactor": 4,
  "PartialFourier": 1,
  "PatientPosition": "HFS",
  "PercentPhaseFOV": 100,
  "PhaseEncodingDirection": "j",
  "PhaseEncodingSteps": 104,
  "PhaseResolution": 1,
  "PixelBandwidth": 2290,
  "ProcedureStepDescription": "memory_things",
  "ProtocolName": "func_task-things_run-1",
  "PulseSequenceDetails": "%CustomerSeq%_cmrr_mbep2d_bold",
  "ReceiveCoilActiveElements": "HC1-7;NC1,2",
  "ReceiveCoilName": "HeadNeck_64",
  "ReconMatrixPE": 104,
  "RepetitionTime": 1.49,
  "SAR": 0.0573719,
  "ScanOptions": "FS",
  "ScanningSequence": "EP",
  "SequenceName": "epfid2d1_104",
  "SequenceVariant": "SK_SS",
  "SeriesDescription": "func_task-things_run-1",
  "SeriesNumber": 10,
  "ShimSetting": [645, -7152, -8806, 649, 113, 123, -35, -17],
  "SliceThickness": 2,
  "SliceTiming": [0, 0.785, 0.0975, 0.8825, 0.1975, 0.98, 0.295, 1.0775, 0.3925, 1.175, 0.49, 1.275, 0.5875, 1.3725, 0.685, 0, 0.785, 0.0975, 0.8825, 0.1975, 0.98, 0.295, 1.0775, 0.3925, 1.175, 0.49, 1.275, 0.5875, 1.3725, 0.685, 0, 0.785, 0.0975, 0.8825, 0.1975, 0.98, 0.295, 1.0775, 0.3925, 1.175, 0.49, 1.275, 0.5875, 1.3725, 0.685, 0, 0.785, 0.0975, 0.8825, 0.1975, 0.98, 0.295, 1.0775, 0.3925, 1.175, 0.49, 1.275, 0.5875, 1.3725, 0.685],
  "SoftwareVersions": "syngo_MR_E11",
  "SpacingBetweenSlices": 2,
  "StationName": "MRC35049",
  "TaskName": "things",
  "TotalReadoutTime": 0.0576811,
  "TxRefAmp": 285.299,
  "WipMemBlock": "3c209f5e-8d26-4712-8e33-e12bfe59181e||Sequence: R016 ve11c/master r/e634e98; Dec 19 2017 11:00:25 by eja",
  "dcmmeta_affine": [
    [-1.9909802675247192, -0.1329389214515686, 0.13536882400512695, 109.24909973144531],
    [-0.17441660165786743, 1.8440641164779663, -0.7543252110481262, -48.4652099609375],
    [0.07467480003833771, 0.7627285718917847, 1.8473409414291382, -63.28386688232422],
    [0.0, 0.0, 0.0, 1.0]
],
  "dcmmeta_reorient_transform": [
    [0.0, -1.0, 0.0, 103.0],
    [1.0, 0.0, 0.0, 0.0],
    [0.0, 0.0, 1.0, 0.0],
    [0.0, 0.0, 0.0, 1.0]
],
  "dcmmeta_shape": [104, 104, 60, 190],
  "dcmmeta_slice_dim": 2,
  "dcmmeta_version": 0.6,
  "global": {
    "const": {
      "AcquisitionMatrix": [104, 0, 0, 104],
      "AngioFlag": "N",
      "BitsAllocated": 16,
      "BitsStored": 16,
      "BodyPartExamined": "BRAIN",
      "Columns": 832,
      "EchoNumbers": 1,
      "EchoTime": 37.0,
      "EchoTrainLength": 104,
      "FlipAngle": 52.0,
      "HighBit": 15,
      "ImageOrientationPatient": [0.99549014608377, 0.08720829967629, 0.03733740105697, -0.0664694620718, 0.92203203885934, -0.3813643008054],
      "ImagePositionPatient": [-771.88344724184, -876.20035561306, 265.72876315902],
      "ImageType": [
        "ORIGINAL",
        "PRIMARY",
        "M",
        "MB",
        "ND",
        "MOSAIC"
],
      "ImagedNucleus": "1H",
      "ImagingFrequency": 123.25894,
      "InPlanePhaseEncodingDirection": "COL",
      "MRAcquisitionType": "2D",
      "MagneticFieldStrength": 3.0,
      "Manufacturer": "SIEMENS",
      "ManufacturerModelName": "Prisma_fit",
      "Modality": "MR",
      "NumberOfAverages": 1.0,
      "NumberOfPhaseEncodingSteps": 104,
      "PercentPhaseFieldOfView": 100.0,
      "PercentSampling": 100.0,
      "PerformedProcedureStepStartTime": "090626.405000",
      "PhotometricInterpretation": "MONOCHROME2",
      "PixelBandwidth": 2290.0,
      "PixelRepresentation": 0,
      "PixelSpacing": [2.0, 2.0],
      "ProtocolName": "func_task-things_run-1",
      "RepetitionTime": 1490.0,
      "Rows": 832,
      "SAR": 0.05737189980384,
      "SamplesPerPixel": 1,
      "ScanOptions": "FS",
      "ScanningSequence": "EP",
      "SequenceName": "epfid2d1_104",
      "SequenceVariant": [
        "SK",
        "SS"
],
      "SeriesDescription": "func_task-things_run-1",
      "SeriesNumber": 10,
      "SeriesTime": "092838.232000",
      "SliceLocation": -32.779713580828,
      "SliceThickness": 2.0,
      "SmallestImagePixelValue": 0,
      "SoftwareVersions": "syngo MR E11",
      "SpacingBetweenSlices": 1.999999988814,
      "SpecificCharacterSet": "ISO_IR 100",
      "StudyID": "1",
      "StudyTime": "090626.281000",
      "TransmitCoilName": "Body",
      "VariableFlipAngleFlag": "N",
      "dBdt": 0.0},
    "slices": {}
  },
  "time": {
    "samples": {
      "AcquisitionNumber": [1, 2, 3, 4, 5, 6, 7, 8, 9, 10, 11, 12, 13, 14, 15, 16, 17, 18, 19, 20, 21, 22, 23, 24, 25, 26, 27, 28, 29, 30, 31, 32, 33, 34, 35, 36, 37, 38, 39, 40, 41, 42, 43, 44, 45, 46, 47, 48, 49, 50, 51, 52, 53, 54, 55, 56, 57, 58, 59, 60, 61, 62, 63, 64, 65, 66, 67, 68, 69, 70, 71, 72, 73, 74, 75, 76, 77, 78, 79, 80, 81, 82, 83, 84, 85, 86, 87, 88, 89, 90, 91, 92, 93, 94, 95, 96, 97, 98, 99, 100, 101, 102, 103, 104, 105, 106, 107, 108, 109, 110, 111, 112, 113, 114, 115, 116, 117, 118, 119, 120, 121, 122, 123, 124, 125, 126, 127, 128, 129, 130, 131, 132, 133, 134, 135, 136, 137, 138, 139, 140, 141, 142, 143, 144, 145, 146, 147, 148, 149, 150, 151, 152, 153, 154, 155, 156, 157, 158, 159, 160, 161, 162, 163, 164, 165, 166, 167, 168, 169, 170, 171, 172, 173, 174, 175, 176, 177, 178, 179, 180, 181, 182, 183, 184, 185, 186, 187, 188, 189, 190],
      "AcquisitionTime": ["092721.492500", "092722.982500", "092724.472500", "092725.962500", "092727.452500", "092728.942500", "092730.432500", "092731.922500", "092733.412500", "092734.902500", "092736.392500", "092737.882500", "092739.372500", "092740.862500", "092742.352500", "092743.842500", "092745.332500", "092746.822500", "092748.312500", "092749.802500", "092751.292500", "092752.782500", "092754.272500", "092755.762500", "092757.252500", "092758.742500", "092800.232500", "092801.722500", "092803.212500", "092804.702500", "092806.192500", "092807.682500", "092809.172500", "092810.662500", "092812.152500", "092813.642500", "092815.132500", "092816.622500", "092818.112500", "092819.602500", "092821.092500", "092822.582500", "092824.072500", "092825.562500", "092827.052500", "092828.542500", "092830.032500", "092831.522500", "092833.012500", "092834.502500", "092835.992500", "092837.482500", "092838.972500", "092840.462500", "092841.952500", "092843.442500", "092844.932500", "092846.422500", "092847.912500", "092849.402500", "092850.892500", "092852.382500", "092853.872500", "092855.362500", "092856.852500", "092858.342500", "092859.832500", "092901.322500", "092902.812500", "092904.302500", "092905.792500", "092907.282500", "092908.772500", "092910.262500", "092911.752500", "092913.242500", "092914.732500", "092916.222500", "092917.712500", "092919.202500", "092920.692500", "092922.182500", "092923.672500", "092925.162500", "092926.652500", "092928.142500", "092929.632500", "092931.122500", "092932.612500", "092934.102500", "092935.592500", "092937.082500", "092938.572500", "092940.062500", "092941.552500", "092943.042500", "092944.532500", "092946.022500", "092947.512500", "092949.002500", "092950.492500", "092951.982500", "092953.472500", "092954.962500", "092956.452500", "092957.942500", "092959.432500", "093000.922500", "093002.412500", "093003.902500", "093005.392500", "093006.882500", "093008.372500", "093009.862500", "093011.352500", "093012.842500", "093014.332500", "093015.822500", "093017.312500", "093018.802500", "093020.292500", "093021.782500", "093023.272500", "093024.762500", "093026.252500", "093027.742500", "093029.232500", "093030.722500", "093032.212500", "093033.702500", "093035.192500", "093036.682500", "093038.172500", "093039.662500", "093041.152500", "093042.642500", "093044.132500", "093045.622500", "093047.112500", "093048.602500", "093050.092500", "093051.582500", "093053.072500", "093054.562500", "093056.052500", "093057.542500", "093059.032500", "093100.522500", "093102.012500", "093103.502500", "093104.992500", "093106.482500", "093107.972500", "093109.462500", "093110.952500", "093112.442500", "093113.932500", "093115.422500", "093116.912500", "093118.402500", "093119.892500", "093121.382500", "093122.872500", "093124.362500", "093125.852500", "093127.342500", "093128.832500", "093130.322500", "093131.812500", "093133.302500", "093134.792500", "093136.282500", "093137.772500", "093139.262500", "093140.752500", "093142.242500", "093143.732500", "093145.222500", "093146.712500", "093148.202500", "093149.692500", "093151.182500", "093152.672500", "093154.162500", "093155.652500", "093157.142500", "093158.632500", "093200.122500", "093201.612500", "093203.102500"],
      "ContentTime": ["092838.236000", "092838.240000", "092838.243000", "092838.246000", "092838.250000", "092838.253000", "092838.256000", "092838.260000", "092838.263000", "092838.266000", "092838.270000", "092838.273000", "092838.276000", "092838.280000", "092838.288000", "092838.293000", "092838.297000", "092838.301000", "092838.305000", "092838.309000", "092838.313000", "092858.196000", "092858.200000", "092858.203000", "092858.206000", "092858.210000", "092858.213000", "092858.216000", "092858.220000", "092858.223000", "092858.226000", "092858.230000", "092858.233000", "092858.236000", "092858.246000", "092858.249000", "092858.252000", "092858.256000", "092858.259000", "092858.262000", "092858.266000", "092918.195000", "092918.199000", "092918.202000", "092918.205000", "092918.209000", "092918.212000", "092918.216000", "092918.219000", "092918.222000", "092918.225000", "092918.229000", "092918.232000", "092918.236000", "092918.239000", "092918.242000", "092918.246000", "092918.249000", "092918.252000", "092918.256000", "092918.259000", "092938.196000", "092938.200000", "092938.203000", "092938.222000", "092938.226000", "092938.229000", "092938.232000", "092938.236000", "092938.239000", "092938.242000", "092938.246000", "092938.249000", "092938.252000", "092938.256000", "092938.259000", "092938.262000", "092938.266000", "092938.269000", "092938.272000", "092938.276000", "092958.196000", "092958.200000", "092958.203000", "092958.207000", "092958.210000", "092958.213000", "092958.217000", "092958.220000", "092958.223000", "092958.227000", "092958.230000", "092958.233000", "092958.237000", "092958.240000", "092958.243000", "092958.247000", "092958.250000", "092958.253000", "092958.257000", "092958.260000", "093038.196000", "093038.200000", "093038.203000", "093038.207000", "093038.210000", "093038.213000", "093038.217000", "093038.220000", "093038.224000", "093038.227000", "093038.230000", "093038.234000", "093038.237000", "093038.240000", "093038.244000", "093038.247000", "093038.250000", "093038.254000", "093038.257000", "093038.260000", "093038.264000", "093038.267000", "093038.270000", "093038.274000", "093038.277000", "093038.281000", "093038.284000", "093038.287000", "093038.291000", "093038.294000", "093118.196000", "093118.200000", "093118.203000", "093118.206000", "093118.210000", "093118.213000", "093118.217000", "093118.220000", "093118.223000", "093118.227000", "093118.230000", "093118.233000", "093118.237000", "093118.240000", "093118.244000", "093118.247000", "093118.250000", "093118.254000", "093118.257000", "093118.260000", "093118.264000", "093118.267000", "093118.271000", "093118.274000", "093118.277000", "093118.281000", "093118.284000", "093158.196000", "093158.200000", "093158.203000", "093158.207000", "093158.210000", "093158.213000", "093158.217000", "093158.220000", "093158.224000", "093158.227000", "093158.230000", "093158.244000", "093158.247000", "093158.251000", "093158.254000", "093158.257000", "093158.261000", "093158.264000", "093158.267000", "093158.271000", "093158.274000", "093158.277000", "093158.281000", "093158.284000", "093158.288000", "093158.291000", "093158.294000", "093205.443000", "093205.446000", "093205.450000", "093205.453000", "093205.457000"],
      "InstanceCreationTime": ["092838.236000", "092838.240000", "092838.243000", "092838.246000", "092838.250000", "092838.253000", "092838.256000", "092838.260000", "092838.263000", "092838.266000", "092838.270000", "092838.273000", "092838.276000", "092838.280000", "092838.288000", "092838.293000", "092838.297000", "092838.301000", "092838.305000", "092838.309000", "092838.313000", "092858.196000", "092858.200000", "092858.203000", "092858.206000", "092858.210000", "092858.213000", "092858.216000", "092858.220000", "092858.223000", "092858.226000", "092858.230000", "092858.233000", "092858.236000", "092858.246000", "092858.249000", "092858.252000", "092858.256000", "092858.259000", "092858.262000", "092858.266000", "092918.195000", "092918.199000", "092918.202000", "092918.205000", "092918.209000", "092918.212000", "092918.216000", "092918.219000", "092918.222000", "092918.225000", "092918.229000", "092918.232000", "092918.236000", "092918.239000", "092918.242000", "092918.246000", "092918.249000", "092918.252000", "092918.256000", "092918.259000", "092938.196000", "092938.200000", "092938.203000", "092938.222000", "092938.226000", "092938.229000", "092938.232000", "092938.236000", "092938.239000", "092938.242000", "092938.246000", "092938.249000", "092938.252000", "092938.256000", "092938.259000", "092938.262000", "092938.266000", "092938.269000", "092938.272000", "092938.276000", "092958.196000", "092958.200000", "092958.203000", "092958.207000", "092958.210000", "092958.213000", "092958.217000", "092958.220000", "092958.223000", "092958.227000", "092958.230000", "092958.233000", "092958.237000", "092958.240000", "092958.243000", "092958.247000", "092958.250000", "092958.253000", "092958.257000", "092958.260000", "093038.196000", "093038.200000", "093038.203000", "093038.207000", "093038.210000", "093038.213000", "093038.217000", "093038.220000", "093038.224000", "093038.227000", "093038.230000", "093038.234000", "093038.237000", "093038.240000", "093038.244000", "093038.247000", "093038.250000", "093038.254000", "093038.257000", "093038.260000", "093038.264000", "093038.267000", "093038.270000", "093038.274000", "093038.277000", "093038.281000", "093038.284000", "093038.287000", "093038.291000", "093038.294000", "093118.196000", "093118.200000", "093118.203000", "093118.206000", "093118.210000", "093118.213000", "093118.217000", "093118.220000", "093118.223000", "093118.227000", "093118.230000", "093118.233000", "093118.237000", "093118.240000", "093118.244000", "093118.247000", "093118.250000", "093118.254000", "093118.257000", "093118.260000", "093118.264000", "093118.267000", "093118.271000", "093118.274000", "093118.277000", "093118.281000", "093118.284000", "093158.196000", "093158.200000", "093158.203000", "093158.207000", "093158.210000", "093158.213000", "093158.217000", "093158.220000", "093158.224000", "093158.227000", "093158.230000", "093158.244000", "093158.247000", "093158.251000", "093158.254000", "093158.257000", "093158.261000", "093158.264000", "093158.267000", "093158.271000", "093158.274000", "093158.277000", "093158.281000", "093158.284000", "093158.288000", "093158.291000", "093158.294000", "093205.443000", "093205.446000", "093205.450000", "093205.453000", "093205.457000"],
      "InstanceNumber": [1, 2, 3, 4, 5, 6, 7, 8, 9, 10, 11, 12, 13, 14, 15, 16, 17, 18, 19, 20, 21, 22, 23, 24, 25, 26, 27, 28, 29, 30, 31, 32, 33, 34, 35, 36, 37, 38, 39, 40, 41, 42, 43, 44, 45, 46, 47, 48, 49, 50, 51, 52, 53, 54, 55, 56, 57, 58, 59, 60, 61, 62, 63, 64, 65, 66, 67, 68, 69, 70, 71, 72, 73, 74, 75, 76, 77, 78, 79, 80, 81, 82, 83, 84, 85, 86, 87, 88, 89, 90, 91, 92, 93, 94, 95, 96, 97, 98, 99, 100, 101, 102, 103, 104, 105, 106, 107, 108, 109, 110, 111, 112, 113, 114, 115, 116, 117, 118, 119, 120, 121, 122, 123, 124, 125, 126, 127, 128, 129, 130, 131, 132, 133, 134, 135, 136, 137, 138, 139, 140, 141, 142, 143, 144, 145, 146, 147, 148, 149, 150, 151, 152, 153, 154, 155, 156, 157, 158, 159, 160, 161, 162, 163, 164, 165, 166, 167, 168, 169, 170, 171, 172, 173, 174, 175, 176, 177, 178, 179, 180, 181, 182, 183, 184, 185, 186, 187, 188, 189, 190],
      "LargestImagePixelValue": [44166, 43336, 42796, 42311, 42550, 42339, 40592, 40362, 40536, 41924, 41433, 41322, 41197, 41534, 41382, 40569, 41042, 42181, 42835, 42576, 41376, 41358, 41490, 42155, 43136, 42158, 42702, 42867, 42472, 41337, 42451, 42232, 42263, 42982, 43250, 42778, 42241, 43067, 42580, 43344, 43362, 42610, 43383, 42502, 42217, 42877, 43087, 42120, 43389, 42975, 42735, 42357, 42593, 43126, 42834, 42974, 42447, 43006, 42992, 43290, 43622, 43174, 43242, 44293, 43862, 44247, 44544, 44269, 44624, 44341, 44468, 43805, 44131, 44128, 44577, 44757, 44240, 43313, 43711, 44152, 44938, 44897, 44576, 43773, 44351, 44471, 44276, 44638, 44122, 44242, 44992, 44950, 45012, 44518, 44622, 45057, 45547, 44486, 45428, 44664, 44882, 44993, 45132, 44954, 44813, 45048, 44960, 44663, 44356, 44741, 44386, 45170, 44809, 43983, 44249, 44396, 44697, 44156, 43879, 44092, 44176, 43674, 43424, 44061, 44079, 43778, 43814, 44291, 44154, 44362, 44546, 43854, 44363, 44689, 44872, 44718, 43990, 44316, 44554, 44830, 44687, 44035, 43899, 44024, 44226, 44004, 43814, 43551, 43574, 43967, 44313, 44320, 43488, 43888, 43973, 43894, 44290, 43775, 43456, 44270, 44269, 43899, 44112, 44274, 44060, 44221, 44137, 43727, 43654, 43757, 43617, 44106, 43028, 43613, 43509, 44250, 43586, 43218, 43604, 43784, 44154, 43959, 43513, 43575, 43443, 43986, 43557, 43609, 44362, 44123],
      "WindowCenter": [10618.0, 10571.0, 10569.0, 11177.0, 10565.0, 10547.0, 10513.0, 10521.0, 10527.0, 10539.0, 10537.0, 10559.0, 10560.0, 10550.0, 10534.0, 10527.0, 10554.0, 10574.0, 10578.0, 10570.0, 10560.0, 10545.0, 10539.0, 10545.0, 10555.0, 10563.0, 10572.0, 10562.0, 10543.0, 10534.0, 10551.0, 10552.0, 10542.0, 10567.0, 10575.0, 10557.0, 10538.0, 10538.0, 10541.0, 10560.0, 10555.0, 10535.0, 10528.0, 10539.0, 10542.0, 10542.0, 10537.0, 10535.0, 10564.0, 10552.0, 10550.0, 10546.0, 10552.0, 10574.0, 10559.0, 10543.0, 10540.0, 10540.0, 10550.0, 10565.0, 10555.0, 10537.0, 10530.0, 10540.0, 10560.0, 10569.0, 10559.0, 10537.0, 10531.0, 10538.0, 10546.0, 10534.0, 10535.0, 10538.0, 10563.0, 10549.0, 10516.0, 10502.0, 10499.0, 10520.0, 10546.0, 10546.0, 10540.0, 10526.0, 10540.0, 10549.0, 10535.0, 10531.0, 10532.0, 10533.0, 10555.0, 10557.0, 10564.0, 10558.0, 10558.0, 10580.0, 10572.0, 10551.0, 10544.0, 10546.0, 10555.0, 10554.0, 10548.0, 10550.0, 10558.0, 10555.0, 10543.0, 10527.0, 10532.0, 10546.0, 10574.0, 10574.0, 10563.0, 10538.0, 10526.0, 10523.0, 10520.0, 10525.0, 10527.0, 10561.0, 10566.0, 10552.0, 10530.0, 10537.0, 10540.0, 10528.0, 10529.0, 10542.0, 10527.0, 10517.0, 10513.0, 10510.0, 10514.0, 10535.0, 10532.0, 10521.0, 10510.0, 10514.0, 10540.0, 10558.0, 10546.0, 10530.0, 10519.0, 10535.0, 10535.0, 10519.0, 10510.0, 10511.0, 10512.0, 10528.0, 10521.0, 10510.0, 10501.0, 10505.0, 10524.0, 10534.0, 10525.0, 10518.0, 10503.0, 10524.0, 10531.0, 10517.0, 10523.0, 10525.0, 10543.0, 10531.0, 10519.0, 10510.0, 10496.0, 10519.0, 10530.0, 10534.0, 10510.0, 10511.0, 10529.0, 10535.0, 10532.0, 10533.0, 10539.0, 10557.0, 10543.0, 10531.0, 10515.0, 10512.0, 10520.0, 10536.0, 10525.0, 10520.0, 10531.0, 10526.0],
      "WindowCenterWidthExplanation": [
        "Algo1",
        "Algo1",
        "Algo1",
        "WINDOW1",
        "Algo1",
        "Algo1",
        "Algo1",
        "Algo1",
        "Algo1",
        "Algo1",
        "Algo1",
        "Algo1",
        "Algo1",
        "Algo1",
        "Algo1",
        "Algo1",
        "Algo1",
        "Algo1",
        "Algo1",
        "Algo1",
        "Algo1",
        "Algo1",
        "Algo1",
        "Algo1",
        "Algo1",
        "Algo1",
        "Algo1",
        "Algo1",
        "Algo1",
        "Algo1",
        "Algo1",
        "Algo1",
        "Algo1",
        "Algo1",
        "Algo1",
        "Algo1",
        "Algo1",
        "Algo1",
        "Algo1",
        "Algo1",
        "Algo1",
        "Algo1",
        "Algo1",
        "Algo1",
        "Algo1",
        "Algo1",
        "Algo1",
        "Algo1",
        "Algo1",
        "Algo1",
        "Algo1",
        "Algo1",
        "Algo1",
        "Algo1",
        "Algo1",
        "Algo1",
        "Algo1",
        "Algo1",
        "Algo1",
        "Algo1",
        "Algo1",
        "Algo1",
        "Algo1",
        "Algo1",
        "Algo1",
        "Algo1",
        "Algo1",
        "Algo1",
        "Algo1",
        "Algo1",
        "Algo1",
        "Algo1",
        "Algo1",
        "Algo1",
        "Algo1",
        "Algo1",
        "Algo1",
        "Algo1",
        "Algo1",
        "Algo1",
        "Algo1",
        "Algo1",
        "Algo1",
        "Algo1",
        "Algo1",
        "Algo1",
        "Algo1",
        "Algo1",
        "Algo1",
        "Algo1",
        "Algo1",
        "Algo1",
        "Algo1",
        "Algo1",
        "Algo1",
        "Algo1",
        "Algo1",
        "Algo1",
        "Algo1",
        "Algo1",
        "Algo1",
        "Algo1",
        "Algo1",
        "Algo1",
        "Algo1",
        "Algo1",
        "Algo1",
        "Algo1",
        "Algo1",
        "Algo1",
        "Algo1",
        "Algo1",
        "Algo1",
        "Algo1",
        "Algo1",
        "Algo1",
        "Algo1",
        "Algo1",
        "Algo1",
        "Algo1",
        "Algo1",
        "Algo1",
        "Algo1",
        "Algo1",
        "Algo1",
        "Algo1",
        "Algo1",
        "Algo1",
        "Algo1",
        "Algo1",
        "Algo1",
        "Algo1",
        "Algo1",
        "Algo1",
        "Algo1",
        "Algo1",
        "Algo1",
        "Algo1",
        "Algo1",
        "Algo1",
        "Algo1",
        "Algo1",
        "Algo1",
        "Algo1",
        "Algo1",
        "Algo1",
        "Algo1",
        "Algo1",
        "Algo1",
        "Algo1",
        "Algo1",
        "Algo1",
        "Algo1",
        "Algo1",
        "Algo1",
        "Algo1",
        "Algo1",
        "Algo1",
        "Algo1",
        "Algo1",
        "Algo1",
        "Algo1",
        "Algo1",
        "Algo1",
        "Algo1",
        "Algo1",
        "Algo1",
        "Algo1",
        "Algo1",
        "Algo1",
        "Algo1",
        "Algo1",
        "Algo1",
        "Algo1",
        "Algo1",
        "Algo1",
        "Algo1",
        "Algo1",
        "Algo1",
        "Algo1",
        "Algo1",
        "Algo1",
        "Algo1",
        "Algo1",
        "Algo1",
        "Algo1",
        "Algo1",
        "Algo1",
        "Algo1",
        "Algo1"
],
      "WindowWidth": [22574.0, 22451.0, 22440.0, 11660.0, 22421.0, 22375.0, 22306.0, 22326.0, 22337.0, 22362.0, 22358.0, 22411.0, 22413.0, 22385.0, 22350.0, 22338.0, 22405.0, 22447.0, 22450.0, 22433.0, 22416.0, 22379.0, 22361.0, 22372.0, 22392.0, 22417.0, 22435.0, 22410.0, 22366.0, 22353.0, 22385.0, 22388.0, 22363.0, 22423.0, 22440.0, 22392.0, 22355.0, 22348.0, 22361.0, 22407.0, 22390.0, 22345.0, 22327.0, 22356.0, 22364.0, 22360.0, 22348.0, 22351.0, 22414.0, 22387.0, 22380.0, 22378.0, 22391.0, 22440.0, 22403.0, 22364.0, 22359.0, 22359.0, 22382.0, 22413.0, 22384.0, 22341.0, 22331.0, 22353.0, 22404.0, 22423.0, 22394.0, 22345.0, 22326.0, 22346.0, 22362.0, 22332.0, 22336.0, 22341.0, 22402.0, 22367.0, 22287.0, 22259.0, 22255.0, 22305.0, 22363.0, 22363.0, 22348.0, 22319.0, 22353.0, 22374.0, 22340.0, 22327.0, 22332.0, 22335.0, 22387.0, 22392.0, 22402.0, 22392.0, 22392.0, 22444.0, 22423.0, 22375.0, 22350.0, 22362.0, 22381.0, 22378.0, 22365.0, 22367.0, 22392.0, 22382.0, 22348.0, 22314.0, 22329.0, 22359.0, 22426.0, 22425.0, 22402.0, 22342.0, 22317.0, 22308.0, 22298.0, 22313.0, 22320.0, 22398.0, 22412.0, 22382.0, 22326.0, 22345.0, 22353.0, 22320.0, 22326.0, 22349.0, 22313.0, 22290.0, 22278.0, 22275.0, 22281.0, 22332.0, 22324.0, 22297.0, 22275.0, 22285.0, 22351.0, 22390.0, 22362.0, 22327.0, 22302.0, 22340.0, 22340.0, 22301.0, 22278.0, 22281.0, 22285.0, 22323.0, 22303.0, 22276.0, 22256.0, 22268.0, 22316.0, 22335.0, 22313.0, 22293.0, 22262.0, 22313.0, 22325.0, 22293.0, 22306.0, 22315.0, 22358.0, 22333.0, 22302.0, 22280.0, 22249.0, 22305.0, 22332.0, 22336.0, 22285.0, 22284.0, 22327.0, 22337.0, 22333.0, 22337.0, 22349.0, 22394.0, 22361.0, 22331.0, 22296.0, 22287.0, 22306.0, 22340.0, 22316.0, 22303.0, 22328.0, 22320.0]
    },
    "slices": {}
  }
}