{
  "AcquisitionMatrixPE": 104,
  "AcquisitionNumber": 1,
  "AcquisitionTime": "09:53:7.097500",
  "BandwidthPerPixelPhaseEncode": 17.17,
  "BaseResolution": 104,
  "BodyPartExamined": "BRAIN",
  "CoilString": "HC1-7;NC1_2",
  "ConsistencyInfo": "N4_VE11C_LATEST_20160120",
  "ConversionSoftware": "dcm2niix",
  "ConversionSoftwareVersion": "v1.0.20190902",
  "DerivedVendorReportedEchoSpacing": 0.000560011,
  "DeviceSerialNumber": "167006",
  "DwellTime": 2.1e-06,
  "EchoTime": 0.037,
  "EchoTrainLength": 104,
  "EffectiveEchoSpacing": 0.000560011,
  "FlipAngle": 52,
  "ImageComments": "Unaliased_MB4_PE3_LB",
  "ImageOrientationPatientDICOM": [0.99549, 0.0872083, 0.0373374, -0.0664695, 0.922032, -0.381364],
  "ImageType": [
    "ORIGINAL",
    "PRIMARY",
    "P",
    "MB",
    "ND",
    "MOSAIC"
],
  "ImagingFrequency": 123.259,
  "InPlanePhaseEncodingDirectionDICOM": "COL",
  "InstitutionAddress": "Chemin_Queen-Mary_4565_Montreal_District_CA_H3W_1W5",
  "InstitutionName": "IUGM",
  "InstitutionalDepartmentName": "Department",
  "MRAcquisitionType": "2D",
  "MagneticFieldStrength": 3,
  "Manufacturer": "Siemens",
  "ManufacturersModelName": "Prisma_fit",
  "Modality": "MR",
  "MultibandAccelerationFactor": 4,
  "PartialFourier": 1,
  "PatientPosition": "HFS",
  "PercentPhaseFOV": 100,
  "PhaseEncodingDirection": "j",
  "PhaseEncodingSteps": 104,
  "PhaseResolution": 1,
  "PixelBandwidth": 2290,
  "ProcedureStepDescription": "memory_things",
  "ProtocolName": "func_task-things_run-5",
  "PulseSequenceDetails": "%CustomerSeq%_cmrr_mbep2d_bold",
  "ReceiveCoilActiveElements": "HC1-7;NC1,2",
  "ReceiveCoilName": "HeadNeck_64",
  "ReconMatrixPE": 104,
  "RepetitionTime": 1.49,
  "SAR": 0.0573719,
  "ScanOptions": "FS",
  "ScanningSequence": "EP",
  "SequenceName": "epfid2d1_104",
  "SequenceVariant": "SK_SS",
  "SeriesDescription": "func_task-things_run-5",
  "SeriesNumber": 23,
  "ShimSetting": [645, -7152, -8806, 649, 113, 123, -35, -17],
  "SliceThickness": 2,
  "SliceTiming": [0, 0.785, 0.0975, 0.8825, 0.195, 0.98, 0.295, 1.0775, 0.3925, 1.175, 0.49, 1.2725, 0.5875, 1.3725, 0.685, 0, 0.785, 0.0975, 0.8825, 0.195, 0.98, 0.295, 1.0775, 0.3925, 1.175, 0.49, 1.2725, 0.5875, 1.3725, 0.685, 0, 0.785, 0.0975, 0.8825, 0.195, 0.98, 0.295, 1.0775, 0.3925, 1.175, 0.49, 1.2725, 0.5875, 1.3725, 0.685, 0, 0.785, 0.0975, 0.8825, 0.195, 0.98, 0.295, 1.0775, 0.3925, 1.175, 0.49, 1.2725, 0.5875, 1.3725, 0.685],
  "SoftwareVersions": "syngo_MR_E11",
  "SpacingBetweenSlices": 2,
  "StationName": "MRC35049",
  "TaskName": "things",
  "TotalReadoutTime": 0.0576811,
  "TxRefAmp": 285.299,
  "WipMemBlock": "195bee0c-5aaf-4513-ac20-f10664baadd7||Sequence: R016 ve11c/master r/e634e98; Dec 19 2017 11:00:25 by eja",
  "dcmmeta_affine": [
    [-1.9909802675247192, -0.1329389214515686, 0.13536882400512695, 109.24909973144531],
    [-0.17441660165786743, 1.8440641164779663, -0.7543252110481262, -48.4652099609375],
    [0.07467480003833771, 0.7627285718917847, 1.8473409414291382, -63.28386688232422],
    [0.0, 0.0, 0.0, 1.0]
],
  "dcmmeta_reorient_transform": [
    [0.0, -1.0, 0.0, 103.0],
    [1.0, 0.0, 0.0, 0.0],
    [0.0, 0.0, 1.0, 0.0],
    [0.0, 0.0, 0.0, 1.0]
],
  "dcmmeta_shape": [104, 104, 60, 190],
  "dcmmeta_slice_dim": 2,
  "dcmmeta_version": 0.6,
  "global": {
    "const": {
      "AcquisitionMatrix": [104, 0, 0, 104],
      "AngioFlag": "N",
      "BitsAllocated": 16,
      "BitsStored": 16,
      "BodyPartExamined": "BRAIN",
      "Columns": 832,
      "EchoNumbers": 1,
      "EchoTime": 37.0,
      "EchoTrainLength": 104,
      "FlipAngle": 52.0,
      "HighBit": 15,
      "ImageOrientationPatient": [0.99549014608377, 0.08720829967629, 0.03733740105697, -0.0664694620718, 0.92203203885934, -0.3813643008054],
      "ImagePositionPatient": [-771.88344724184, -876.20035561306, 265.72876315902],
      "ImageType": [
        "ORIGINAL",
        "PRIMARY",
        "P",
        "MB",
        "ND",
        "MOSAIC"
],
      "ImagedNucleus": "1H",
      "ImagingFrequency": 123.258951,
      "InPlanePhaseEncodingDirection": "COL",
      "LargestImagePixelValue": 4095,
      "MRAcquisitionType": "2D",
      "MagneticFieldStrength": 3.0,
      "Manufacturer": "SIEMENS",
      "ManufacturerModelName": "Prisma_fit",
      "Modality": "MR",
      "NumberOfAverages": 1.0,
      "NumberOfPhaseEncodingSteps": 104,
      "PercentPhaseFieldOfView": 100.0,
      "PercentSampling": 100.0,
      "PerformedProcedureStepStartTime": "090626.405000",
      "PhotometricInterpretation": "MONOCHROME2",
      "PixelBandwidth": 2290.0,
      "PixelRepresentation": 0,
      "PixelSpacing": [2.0, 2.0],
      "ProtocolName": "func_task-things_run-5",
      "RepetitionTime": 1490.0,
      "RescaleIntercept": -4096.0,
      "RescaleSlope": 2.0,
      "RescaleType": "US",
      "Rows": 832,
      "SAR": 0.05737189980384,
      "SamplesPerPixel": 1,
      "ScanOptions": "FS",
      "ScanningSequence": "EP",
      "SequenceName": "epfid2d1_104",
      "SequenceVariant": [
        "SK",
        "SS"
],
      "SeriesDescription": "func_task-things_run-5",
      "SeriesNumber": 23,
      "SeriesTime": "095427.449000",
      "SliceLocation": -32.779713580828,
      "SliceThickness": 2.0,
      "SmallestImagePixelValue": 0,
      "SoftwareVersions": "syngo MR E11",
      "SpacingBetweenSlices": 1.999999988814,
      "SpecificCharacterSet": "ISO_IR 100",
      "StudyID": "1",
      "StudyTime": "090626.281000",
      "TransmitCoilName": "Body",
      "VariableFlipAngleFlag": "N",
      "WindowCenterWidthExplanation": "Algo1",
      "dBdt": 0.0},
    "slices": {}
  },
  "time": {
    "samples": {
      "AcquisitionNumber": [1, 2, 3, 4, 5, 6, 7, 8, 9, 10, 11, 12, 13, 14, 15, 16, 17, 18, 19, 20, 21, 22, 23, 24, 25, 26, 27, 28, 29, 30, 31, 32, 33, 34, 35, 36, 37, 38, 39, 40, 41, 42, 43, 44, 45, 46, 47, 48, 49, 50, 51, 52, 53, 54, 55, 56, 57, 58, 59, 60, 61, 62, 63, 64, 65, 66, 67, 68, 69, 70, 71, 72, 73, 74, 75, 76, 77, 78, 79, 80, 81, 82, 83, 84, 85, 86, 87, 88, 89, 90, 91, 92, 93, 94, 95, 96, 97, 98, 99, 100, 101, 102, 103, 104, 105, 106, 107, 108, 109, 110, 111, 112, 113, 114, 115, 116, 117, 118, 119, 120, 121, 122, 123, 124, 125, 126, 127, 128, 129, 130, 131, 132, 133, 134, 135, 136, 137, 138, 139, 140, 141, 142, 143, 144, 145, 146, 147, 148, 149, 150, 151, 152, 153, 154, 155, 156, 157, 158, 159, 160, 161, 162, 163, 164, 165, 166, 167, 168, 169, 170, 171, 172, 173, 174, 175, 176, 177, 178, 179, 180, 181, 182, 183, 184, 185, 186, 187, 188, 189, 190],
      "AcquisitionTime": ["095307.097500", "095308.587500", "095310.077500", "095311.567500", "095313.057500", "095314.547500", "095316.037500", "095317.527500", "095319.017500", "095320.507500", "095321.997500", "095323.487500", "095324.977500", "095326.467500", "095327.957500", "095329.447500", "095330.937500", "095332.427500", "095333.917500", "095335.407500", "095336.897500", "095338.387500", "095339.877500", "095341.367500", "095342.857500", "095344.347500", "095345.837500", "095347.327500", "095348.817500", "095350.307500", "095351.797500", "095353.287500", "095354.777500", "095356.267500", "095357.757500", "095359.247500", "095400.737500", "095402.227500", "095403.717500", "095405.207500", "095406.697500", "095408.187500", "095409.677500", "095411.167500", "095412.657500", "095414.147500", "095415.637500", "095417.127500", "095418.617500", "095420.107500", "095421.597500", "095423.087500", "095424.577500", "095426.067500", "095427.557500", "095429.047500", "095430.537500", "095432.027500", "095433.517500", "095435.007500", "095436.497500", "095437.987500", "095439.477500", "095440.967500", "095442.457500", "095443.947500", "095445.437500", "095446.927500", "095448.417500", "095449.907500", "095451.397500", "095452.887500", "095454.377500", "095455.867500", "095457.357500", "095458.847500", "095500.337500", "095501.827500", "095503.317500", "095504.807500", "095506.297500", "095507.787500", "095509.277500", "095510.767500", "095512.257500", "095513.747500", "095515.237500", "095516.727500", "095518.217500", "095519.707500", "095521.197500", "095522.687500", "095524.177500", "095525.667500", "095527.157500", "095528.647500", "095530.137500", "095531.627500", "095533.117500", "095534.607500", "095536.097500", "095537.587500", "095539.077500", "095540.567500", "095542.057500", "095543.547500", "095545.037500", "095546.527500", "095548.017500", "095549.507500", "095550.997500", "095552.487500", "095553.977500", "095555.467500", "095556.957500", "095558.447500", "095559.937500", "095601.427500", "095602.917500", "095604.407500", "095605.897500", "095607.387500", "095608.877500", "095610.367500", "095611.857500", "095613.347500", "095614.837500", "095616.327500", "095617.817500", "095619.307500", "095620.797500", "095622.287500", "095623.777500", "095625.267500", "095626.757500", "095628.247500", "095629.737500", "095631.227500", "095632.717500", "095634.207500", "095635.697500", "095637.187500", "095638.677500", "095640.167500", "095641.657500", "095643.147500", "095644.637500", "095646.127500", "095647.617500", "095649.107500", "095650.597500", "095652.087500", "095653.577500", "095655.067500", "095656.557500", "095658.047500", "095659.537500", "095701.027500", "095702.517500", "095704.007500", "095705.497500", "095706.987500", "095708.477500", "095709.967500", "095711.457500", "095712.947500", "095714.437500", "095715.927500", "095717.417500", "095718.907500", "095720.397500", "095721.887500", "095723.377500", "095724.867500", "095726.357500", "095727.847500", "095729.337500", "095730.827500", "095732.317500", "095733.807500", "095735.297500", "095736.787500", "095738.277500", "095739.767500", "095741.257500", "095742.747500", "095744.237500", "095745.727500", "095747.217500", "095748.707500"],
      "ContentTime": ["095427.451000", "095427.455000", "095427.484000", "095427.487000", "095427.489000", "095427.492000", "095427.494000", "095427.497000", "095427.499000", "095427.502000", "095427.504000", "095427.507000", "095427.509000", "095427.512000", "095427.514000", "095427.517000", "095427.519000", "095427.522000", "095427.524000", "095427.527000", "095427.529000", "095427.532000", "095427.534000", "095427.537000", "095427.539000", "095447.385000", "095447.395000", "095447.397000", "095447.400000", "095447.402000", "095447.405000", "095447.408000", "095447.410000", "095447.414000", "095447.417000", "095447.420000", "095447.423000", "095447.425000", "095447.428000", "095447.430000", "095447.434000", "095447.437000", "095447.439000", "095447.442000", "095447.444000", "095507.413000", "095507.415000", "095507.418000", "095507.421000", "095507.423000", "095507.425000", "095507.428000", "095507.430000", "095507.433000", "095507.436000", "095507.438000", "095507.441000", "095507.443000", "095507.446000", "095507.448000", "095507.451000", "095507.453000", "095507.455000", "095507.458000", "095507.460000", "095527.389000", "095527.392000", "095527.394000", "095527.397000", "095527.399000", "095527.402000", "095527.405000", "095527.407000", "095527.410000", "095527.412000", "095527.415000", "095527.417000", "095527.420000", "095527.422000", "095527.425000", "095527.427000", "095527.430000", "095527.432000", "095527.435000", "095527.437000", "095527.440000", "095547.382000", "095547.385000", "095547.388000", "095547.390000", "095547.393000", "095547.395000", "095547.398000", "095547.400000", "095547.403000", "095547.405000", "095547.408000", "095547.410000", "095547.413000", "095547.415000", "095547.418000", "095547.420000", "095547.423000", "095547.426000", "095547.428000", "095547.431000", "095627.912000", "095627.915000", "095627.917000", "095627.920000", "095627.922000", "095627.925000", "095627.927000", "095627.930000", "095627.932000", "095627.935000", "095627.937000", "095627.940000", "095627.942000", "095627.945000", "095627.947000", "095627.950000", "095627.952000", "095627.955000", "095627.957000", "095627.960000", "095627.962000", "095627.965000", "095627.967000", "095627.970000", "095627.972000", "095627.975000", "095627.977000", "095627.980000", "095707.417000", "095707.421000", "095707.424000", "095707.427000", "095707.430000", "095707.432000", "095707.435000", "095707.437000", "095707.440000", "095707.442000", "095707.445000", "095707.447000", "095707.450000", "095707.452000", "095707.455000", "095707.458000", "095707.460000", "095707.463000", "095707.465000", "095707.468000", "095707.470000", "095707.473000", "095707.475000", "095707.478000", "095707.480000", "095707.483000", "095747.424000", "095747.427000", "095747.429000", "095747.432000", "095747.434000", "095747.437000", "095747.439000", "095747.442000", "095747.444000", "095747.447000", "095747.449000", "095747.452000", "095747.455000", "095747.457000", "095747.460000", "095747.462000", "095747.465000", "095747.467000", "095747.470000", "095747.472000", "095747.475000", "095747.477000", "095747.480000", "095747.482000", "095747.485000", "095747.487000", "095747.490000", "095750.761000", "095750.764000", "095750.766000"],
      "InstanceCreationTime": ["095427.451000", "095427.455000", "095427.484000", "095427.487000", "095427.489000", "095427.492000", "095427.494000", "095427.497000", "095427.499000", "095427.502000", "095427.504000", "095427.507000", "095427.509000", "095427.512000", "095427.514000", "095427.517000", "095427.519000", "095427.522000", "095427.524000", "095427.527000", "095427.529000", "095427.532000", "095427.534000", "095427.537000", "095427.539000", "095447.385000", "095447.395000", "095447.397000", "095447.400000", "095447.402000", "095447.405000", "095447.408000", "095447.410000", "095447.414000", "095447.417000", "095447.420000", "095447.423000", "095447.425000", "095447.428000", "095447.430000", "095447.434000", "095447.437000", "095447.439000", "095447.442000", "095447.444000", "095507.413000", "095507.415000", "095507.418000", "095507.421000", "095507.423000", "095507.425000", "095507.428000", "095507.430000", "095507.433000", "095507.436000", "095507.438000", "095507.441000", "095507.443000", "095507.446000", "095507.448000", "095507.451000", "095507.453000", "095507.455000", "095507.458000", "095507.460000", "095527.389000", "095527.392000", "095527.394000", "095527.397000", "095527.399000", "095527.402000", "095527.405000", "095527.407000", "095527.410000", "095527.412000", "095527.415000", "095527.417000", "095527.420000", "095527.422000", "095527.425000", "095527.427000", "095527.430000", "095527.432000", "095527.435000", "095527.437000", "095527.440000", "095547.382000", "095547.385000", "095547.388000", "095547.390000", "095547.393000", "095547.395000", "095547.398000", "095547.400000", "095547.403000", "095547.405000", "095547.408000", "095547.410000", "095547.413000", "095547.415000", "095547.418000", "095547.420000", "095547.423000", "095547.426000", "095547.428000", "095547.431000", "095627.912000", "095627.915000", "095627.917000", "095627.920000", "095627.922000", "095627.925000", "095627.927000", "095627.930000", "095627.932000", "095627.935000", "095627.937000", "095627.940000", "095627.942000", "095627.945000", "095627.947000", "095627.950000", "095627.952000", "095627.955000", "095627.957000", "095627.960000", "095627.962000", "095627.965000", "095627.967000", "095627.970000", "095627.972000", "095627.975000", "095627.977000", "095627.980000", "095707.417000", "095707.421000", "095707.424000", "095707.427000", "095707.430000", "095707.432000", "095707.435000", "095707.437000", "095707.440000", "095707.442000", "095707.445000", "095707.447000", "095707.450000", "095707.452000", "095707.455000", "095707.458000", "095707.460000", "095707.463000", "095707.465000", "095707.468000", "095707.470000", "095707.473000", "095707.475000", "095707.478000", "095707.480000", "095707.483000", "095747.424000", "095747.427000", "095747.429000", "095747.432000", "095747.434000", "095747.437000", "095747.439000", "095747.442000", "095747.444000", "095747.447000", "095747.449000", "095747.452000", "095747.455000", "095747.457000", "095747.460000", "095747.462000", "095747.465000", "095747.467000", "095747.470000", "095747.472000", "095747.475000", "095747.477000", "095747.480000", "095747.482000", "095747.485000", "095747.487000", "095747.490000", "095750.761000", "095750.764000", "095750.766000"],
      "InstanceNumber": [1, 2, 3, 4, 5, 6, 7, 8, 9, 10, 11, 12, 13, 14, 15, 16, 17, 18, 19, 20, 21, 22, 23, 24, 25, 26, 27, 28, 29, 30, 31, 32, 33, 34, 35, 36, 37, 38, 39, 40, 41, 42, 43, 44, 45, 46, 47, 48, 49, 50, 51, 52, 53, 54, 55, 56, 57, 58, 59, 60, 61, 62, 63, 64, 65, 66, 67, 68, 69, 70, 71, 72, 73, 74, 75, 76, 77, 78, 79, 80, 81, 82, 83, 84, 85, 86, 87, 88, 89, 90, 91, 92, 93, 94, 95, 96, 97, 98, 99, 100, 101, 102, 103, 104, 105, 106, 107, 108, 109, 110, 111, 112, 113, 114, 115, 116, 117, 118, 119, 120, 121, 122, 123, 124, 125, 126, 127, 128, 129, 130, 131, 132, 133, 134, 135, 136, 137, 138, 139, 140, 141, 142, 143, 144, 145, 146, 147, 148, 149, 150, 151, 152, 153, 154, 155, 156, 157, 158, 159, 160, 161, 162, 163, 164, 165, 166, 167, 168, 169, 170, 171, 172, 173, 174, 175, 176, 177, 178, 179, 180, 181, 182, 183, 184, 185, 186, 187, 188, 189, 190],
      "WindowCenter": [4810.0, 4836.0, 4812.0, 4806.0, 4810.0, 4832.0, 4808.0, 4832.0, 4812.0, 4804.0, 4804.0, 4810.0, 4836.0, 4810.0, 4804.0, 4806.0, 4810.0, 4810.0, 4810.0, 4806.0, 4806.0, 4832.0, 4836.0, 4834.0, 4808.0, 4834.0, 4812.0, 4832.0, 4808.0, 4808.0, 4832.0, 4832.0, 4810.0, 4832.0, 4804.0, 4810.0, 4810.0, 4806.0, 4806.0, 4806.0, 4836.0, 4806.0, 4832.0, 4832.0, 4806.0, 4802.0, 4804.0, 4810.0, 4834.0, 4834.0, 4810.0, 4832.0, 4830.0, 4810.0, 4804.0, 4806.0, 4806.0, 4832.0, 4812.0, 4806.0, 4832.0, 4840.0, 4808.0, 4806.0, 4806.0, 4808.0, 4808.0, 4810.0, 4812.0, 4834.0, 4838.0, 4838.0, 4806.0, 4804.0, 4808.0, 4828.0, 4836.0, 4808.0, 4808.0, 4806.0, 4810.0, 4808.0, 4808.0, 4808.0, 4798.0, 4804.0, 4832.0, 4838.0, 4838.0, 4808.0, 4804.0, 4806.0, 4810.0, 4832.0, 4808.0, 4806.0, 4804.0, 4810.0, 4834.0, 4830.0, 4808.0, 4830.0, 4810.0, 4808.0, 4804.0, 4806.0, 4806.0, 4808.0, 4804.0, 4804.0, 4834.0, 4810.0, 4806.0, 4806.0, 4810.0, 4808.0, 4806.0, 4812.0, 4834.0, 4834.0, 4806.0, 4806.0, 4832.0, 4834.0, 4836.0, 4806.0, 4804.0, 4808.0, 4812.0, 4832.0, 4808.0, 4808.0, 4832.0, 4834.0, 4806.0, 4832.0, 4832.0, 4806.0, 4808.0, 4808.0, 4806.0, 4806.0, 4804.0, 4832.0, 4836.0, 4832.0, 4810.0, 4834.0, 4832.0, 4804.0, 4806.0, 4806.0, 4808.0, 4832.0, 4832.0, 4810.0, 4810.0, 4808.0, 4806.0, 4804.0, 4802.0, 4810.0, 4834.0, 4834.0, 4808.0, 4810.0, 4832.0, 4808.0, 4806.0, 4806.0, 4808.0, 4806.0, 4806.0, 4802.0, 4808.0, 4834.0, 4834.0, 4806.0, 4806.0, 4806.0, 4808.0, 4834.0, 4804.0, 4806.0, 4808.0, 4808.0, 4808.0, 4808.0, 4810.0, 4810.0],
      "WindowWidth": [18594.0, 18628.0, 18594.0, 18590.0, 18592.0, 18624.0, 18596.0, 18622.0, 18596.0, 18590.0, 18592.0, 18598.0, 18624.0, 18600.0, 18588.0, 18592.0, 18598.0, 18592.0, 18596.0, 18588.0, 18594.0, 18626.0, 18626.0, 18624.0, 18588.0, 18626.0, 18592.0, 18626.0, 18592.0, 18596.0, 18622.0, 18630.0, 18596.0, 18626.0, 18590.0, 18596.0, 18594.0, 18594.0, 18594.0, 18594.0, 18624.0, 18590.0, 18624.0, 18620.0, 18586.0, 18588.0, 18592.0, 18596.0, 18626.0, 18626.0, 18590.0, 18624.0, 18622.0, 18592.0, 18590.0, 18588.0, 18592.0, 18628.0, 18594.0, 18598.0, 18624.0, 18628.0, 18592.0, 18588.0, 18590.0, 18590.0, 18596.0, 18596.0, 18592.0, 18626.0, 18628.0, 18630.0, 18592.0, 18588.0, 18592.0, 18622.0, 18628.0, 18590.0, 18592.0, 18592.0, 18592.0, 18590.0, 18596.0, 18596.0, 18586.0, 18588.0, 18628.0, 18636.0, 18628.0, 18590.0, 18590.0, 18592.0, 18592.0, 18622.0, 18590.0, 18592.0, 18592.0, 18594.0, 18626.0, 18624.0, 18592.0, 18622.0, 18590.0, 18590.0, 18592.0, 18592.0, 18590.0, 18596.0, 18588.0, 18590.0, 18622.0, 18594.0, 18588.0, 18592.0, 18596.0, 18594.0, 18588.0, 18598.0, 18628.0, 18628.0, 18590.0, 18590.0, 18626.0, 18624.0, 18624.0, 18592.0, 18590.0, 18594.0, 18596.0, 18624.0, 18590.0, 18592.0, 18628.0, 18624.0, 18586.0, 18626.0, 18620.0, 18590.0, 18592.0, 18592.0, 18596.0, 18594.0, 18592.0, 18622.0, 18630.0, 18628.0, 18596.0, 18628.0, 18624.0, 18588.0, 18596.0, 18594.0, 18594.0, 18624.0, 18626.0, 18594.0, 18592.0, 18590.0, 18590.0, 18592.0, 18590.0, 18596.0, 18626.0, 18622.0, 18590.0, 18590.0, 18626.0, 18590.0, 18592.0, 18586.0, 18594.0, 18592.0, 18594.0, 18590.0, 18592.0, 18624.0, 18628.0, 18590.0, 18592.0, 18594.0, 18596.0, 18630.0, 18590.0, 18592.0, 18598.0, 18592.0, 18592.0, 18590.0, 18592.0, 18592.0]
    },
    "slices": {}
  }
}