{
  "AcquisitionMatrixPE": 104,
  "AcquisitionNumber": 1,
  "AcquisitionTime": "09:27:21.492500",
  "BandwidthPerPixelPhaseEncode": 17.17,
  "BaseResolution": 104,
  "BodyPartExamined": "BRAIN",
  "CoilString": "HC1-7;NC1_2",
  "ConsistencyInfo": "N4_VE11C_LATEST_20160120",
  "ConversionSoftware": "dcm2niix",
  "ConversionSoftwareVersion": "v1.0.20190902",
  "DerivedVendorReportedEchoSpacing": 0.000560011,
  "DeviceSerialNumber": "167006",
  "DwellTime": 2.1e-06,
  "EchoTime": 0.037,
  "EchoTrainLength": 104,
  "EffectiveEchoSpacing": 0.000560011,
  "FlipAngle": 52,
  "ImageComments": "Unaliased_MB4_PE3_LB",
  "ImageOrientationPatientDICOM": [0.99549, 0.0872083, 0.0373374, -0.0664695, 0.922032, -0.381364],
  "ImageType": [
    "ORIGINAL",
    "PRIMARY",
    "P",
    "MB",
    "ND",
    "MOSAIC"
],
  "ImagingFrequency": 123.259,
  "InPlanePhaseEncodingDirectionDICOM": "COL",
  "InstitutionAddress": "Chemin_Queen-Mary_4565_Montreal_District_CA_H3W_1W5",
  "InstitutionName": "IUGM",
  "InstitutionalDepartmentName": "Department",
  "MRAcquisitionType": "2D",
  "MagneticFieldStrength": 3,
  "Manufacturer": "Siemens",
  "ManufacturersModelName": "Prisma_fit",
  "Modality": "MR",
  "MultibandAccelerationFactor": 4,
  "PartialFourier": 1,
  "PatientPosition": "HFS",
  "PercentPhaseFOV": 100,
  "PhaseEncodingDirection": "j",
  "PhaseEncodingSteps": 104,
  "PhaseResolution": 1,
  "PixelBandwidth": 2290,
  "ProcedureStepDescription": "memory_things",
  "ProtocolName": "func_task-things_run-1",
  "PulseSequenceDetails": "%CustomerSeq%_cmrr_mbep2d_bold",
  "ReceiveCoilActiveElements": "HC1-7;NC1,2",
  "ReceiveCoilName": "HeadNeck_64",
  "ReconMatrixPE": 104,
  "RepetitionTime": 1.49,
  "SAR": 0.0573719,
  "ScanOptions": "FS",
  "ScanningSequence": "EP",
  "SequenceName": "epfid2d1_104",
  "SequenceVariant": "SK_SS",
  "SeriesDescription": "func_task-things_run-1",
  "SeriesNumber": 11,
  "ShimSetting": [645, -7152, -8806, 649, 113, 123, -35, -17],
  "SliceThickness": 2,
  "SliceTiming": [0, 0.785, 0.0975, 0.8825, 0.1975, 0.98, 0.295, 1.0775, 0.3925, 1.175, 0.49, 1.275, 0.5875, 1.3725, 0.685, 0, 0.785, 0.0975, 0.8825, 0.1975, 0.98, 0.295, 1.0775, 0.3925, 1.175, 0.49, 1.275, 0.5875, 1.3725, 0.685, 0, 0.785, 0.0975, 0.8825, 0.1975, 0.98, 0.295, 1.0775, 0.3925, 1.175, 0.49, 1.275, 0.5875, 1.3725, 0.685, 0, 0.785, 0.0975, 0.8825, 0.1975, 0.98, 0.295, 1.0775, 0.3925, 1.175, 0.49, 1.275, 0.5875, 1.3725, 0.685],
  "SoftwareVersions": "syngo_MR_E11",
  "SpacingBetweenSlices": 2,
  "StationName": "MRC35049",
  "TaskName": "things",
  "TotalReadoutTime": 0.0576811,
  "TxRefAmp": 285.299,
  "WipMemBlock": "3c209f5e-8d26-4712-8e33-e12bfe59181e||Sequence: R016 ve11c/master r/e634e98; Dec 19 2017 11:00:25 by eja",
  "dcmmeta_affine": [
    [-1.9909802675247192, -0.1329389214515686, 0.13536882400512695, 109.24909973144531],
    [-0.17441660165786743, 1.8440641164779663, -0.7543252110481262, -48.4652099609375],
    [0.07467480003833771, 0.7627285718917847, 1.8473409414291382, -63.28386688232422],
    [0.0, 0.0, 0.0, 1.0]
],
  "dcmmeta_reorient_transform": [
    [0.0, -1.0, 0.0, 103.0],
    [1.0, 0.0, 0.0, 0.0],
    [0.0, 0.0, 1.0, 0.0],
    [0.0, 0.0, 0.0, 1.0]
],
  "dcmmeta_shape": [104, 104, 60, 190],
  "dcmmeta_slice_dim": 2,
  "dcmmeta_version": 0.6,
  "global": {
    "const": {
      "AcquisitionMatrix": [104, 0, 0, 104],
      "AngioFlag": "N",
      "BitsAllocated": 16,
      "BitsStored": 16,
      "BodyPartExamined": "BRAIN",
      "Columns": 832,
      "EchoNumbers": 1,
      "EchoTime": 37.0,
      "EchoTrainLength": 104,
      "FlipAngle": 52.0,
      "HighBit": 15,
      "ImageOrientationPatient": [0.99549014608377, 0.08720829967629, 0.03733740105697, -0.0664694620718, 0.92203203885934, -0.3813643008054],
      "ImagePositionPatient": [-771.88344724184, -876.20035561306, 265.72876315902],
      "ImageType": [
        "ORIGINAL",
        "PRIMARY",
        "P",
        "MB",
        "ND",
        "MOSAIC"
],
      "ImagedNucleus": "1H",
      "ImagingFrequency": 123.25894,
      "InPlanePhaseEncodingDirection": "COL",
      "LargestImagePixelValue": 4095,
      "MRAcquisitionType": "2D",
      "MagneticFieldStrength": 3.0,
      "Manufacturer": "SIEMENS",
      "ManufacturerModelName": "Prisma_fit",
      "Modality": "MR",
      "NumberOfAverages": 1.0,
      "NumberOfPhaseEncodingSteps": 104,
      "PercentPhaseFieldOfView": 100.0,
      "PercentSampling": 100.0,
      "PerformedProcedureStepStartTime": "090626.405000",
      "PhotometricInterpretation": "MONOCHROME2",
      "PixelBandwidth": 2290.0,
      "PixelRepresentation": 0,
      "PixelSpacing": [2.0, 2.0],
      "ProtocolName": "func_task-things_run-1",
      "RepetitionTime": 1490.0,
      "RescaleIntercept": -4096.0,
      "RescaleSlope": 2.0,
      "RescaleType": "US",
      "Rows": 832,
      "SAR": 0.05737189980384,
      "SamplesPerPixel": 1,
      "ScanOptions": "FS",
      "ScanningSequence": "EP",
      "SequenceName": "epfid2d1_104",
      "SequenceVariant": [
        "SK",
        "SS"
],
      "SeriesDescription": "func_task-things_run-1",
      "SeriesNumber": 11,
      "SeriesTime": "092838.361000",
      "SliceLocation": -32.779713580828,
      "SliceThickness": 2.0,
      "SmallestImagePixelValue": 0,
      "SoftwareVersions": "syngo MR E11",
      "SpacingBetweenSlices": 1.999999988814,
      "SpecificCharacterSet": "ISO_IR 100",
      "StudyID": "1",
      "StudyTime": "090626.281000",
      "TransmitCoilName": "Body",
      "VariableFlipAngleFlag": "N",
      "dBdt": 0.0},
    "slices": {}
  },
  "time": {
    "samples": {
      "AcquisitionNumber": [1, 2, 3, 4, 5, 6, 7, 8, 9, 10, 11, 12, 13, 14, 15, 16, 17, 18, 19, 20, 21, 22, 23, 24, 25, 26, 27, 28, 29, 30, 31, 32, 33, 34, 35, 36, 37, 38, 39, 40, 41, 42, 43, 44, 45, 46, 47, 48, 49, 50, 51, 52, 53, 54, 55, 56, 57, 58, 59, 60, 61, 62, 63, 64, 65, 66, 67, 68, 69, 70, 71, 72, 73, 74, 75, 76, 77, 78, 79, 80, 81, 82, 83, 84, 85, 86, 87, 88, 89, 90, 91, 92, 93, 94, 95, 96, 97, 98, 99, 100, 101, 102, 103, 104, 105, 106, 107, 108, 109, 110, 111, 112, 113, 114, 115, 116, 117, 118, 119, 120, 121, 122, 123, 124, 125, 126, 127, 128, 129, 130, 131, 132, 133, 134, 135, 136, 137, 138, 139, 140, 141, 142, 143, 144, 145, 146, 147, 148, 149, 150, 151, 152, 153, 154, 155, 156, 157, 158, 159, 160, 161, 162, 163, 164, 165, 166, 167, 168, 169, 170, 171, 172, 173, 174, 175, 176, 177, 178, 179, 180, 181, 182, 183, 184, 185, 186, 187, 188, 189, 190],
      "AcquisitionTime": ["092721.492500", "092722.982500", "092724.472500", "092725.962500", "092727.452500", "092728.942500", "092730.432500", "092731.922500", "092733.412500", "092734.902500", "092736.392500", "092737.882500", "092739.372500", "092740.862500", "092742.352500", "092743.842500", "092745.332500", "092746.822500", "092748.312500", "092749.802500", "092751.292500", "092752.782500", "092754.272500", "092755.762500", "092757.252500", "092758.742500", "092800.232500", "092801.722500", "092803.212500", "092804.702500", "092806.192500", "092807.682500", "092809.172500", "092810.662500", "092812.152500", "092813.642500", "092815.132500", "092816.622500", "092818.112500", "092819.602500", "092821.092500", "092822.582500", "092824.072500", "092825.562500", "092827.052500", "092828.542500", "092830.032500", "092831.522500", "092833.012500", "092834.502500", "092835.992500", "092837.482500", "092838.972500", "092840.462500", "092841.952500", "092843.442500", "092844.932500", "092846.422500", "092847.912500", "092849.402500", "092850.892500", "092852.382500", "092853.872500", "092855.362500", "092856.852500", "092858.342500", "092859.832500", "092901.322500", "092902.812500", "092904.302500", "092905.792500", "092907.282500", "092908.772500", "092910.262500", "092911.752500", "092913.242500", "092914.732500", "092916.222500", "092917.712500", "092919.202500", "092920.692500", "092922.182500", "092923.672500", "092925.162500", "092926.652500", "092928.142500", "092929.632500", "092931.122500", "092932.612500", "092934.102500", "092935.592500", "092937.082500", "092938.572500", "092940.062500", "092941.552500", "092943.042500", "092944.532500", "092946.022500", "092947.512500", "092949.002500", "092950.492500", "092951.982500", "092953.472500", "092954.962500", "092956.452500", "092957.942500", "092959.432500", "093000.922500", "093002.412500", "093003.902500", "093005.392500", "093006.882500", "093008.372500", "093009.862500", "093011.352500", "093012.842500", "093014.332500", "093015.822500", "093017.312500", "093018.802500", "093020.292500", "093021.782500", "093023.272500", "093024.762500", "093026.252500", "093027.742500", "093029.232500", "093030.722500", "093032.212500", "093033.702500", "093035.192500", "093036.682500", "093038.172500", "093039.662500", "093041.152500", "093042.642500", "093044.132500", "093045.622500", "093047.112500", "093048.602500", "093050.092500", "093051.582500", "093053.072500", "093054.562500", "093056.052500", "093057.542500", "093059.032500", "093100.522500", "093102.012500", "093103.502500", "093104.992500", "093106.482500", "093107.972500", "093109.462500", "093110.952500", "093112.442500", "093113.932500", "093115.422500", "093116.912500", "093118.402500", "093119.892500", "093121.382500", "093122.872500", "093124.362500", "093125.852500", "093127.342500", "093128.832500", "093130.322500", "093131.812500", "093133.302500", "093134.792500", "093136.282500", "093137.772500", "093139.262500", "093140.752500", "093142.242500", "093143.732500", "093145.222500", "093146.712500", "093148.202500", "093149.692500", "093151.182500", "093152.672500", "093154.162500", "093155.652500", "093157.142500", "093158.632500", "093200.122500", "093201.612500", "093203.102500"],
      "ContentTime": ["092838.363000", "092838.366000", "092838.369000", "092838.371000", "092838.374000", "092838.376000", "092838.379000", "092838.381000", "092838.384000", "092838.386000", "092838.389000", "092838.392000", "092838.394000", "092838.397000", "092838.399000", "092838.402000", "092838.404000", "092838.407000", "092838.409000", "092838.412000", "092838.415000", "092858.315000", "092858.317000", "092858.320000", "092858.322000", "092858.325000", "092858.327000", "092858.330000", "092858.332000", "092858.335000", "092858.337000", "092858.340000", "092858.342000", "092858.345000", "092858.347000", "092858.350000", "092858.352000", "092858.355000", "092858.357000", "092858.360000", "092858.362000", "092918.302000", "092918.305000", "092918.308000", "092918.310000", "092918.313000", "092918.315000", "092918.318000", "092918.320000", "092918.323000", "092918.325000", "092918.328000", "092918.330000", "092918.333000", "092918.335000", "092918.338000", "092918.340000", "092918.343000", "092918.345000", "092918.348000", "092918.350000", "092938.342000", "092938.345000", "092938.347000", "092938.350000", "092938.352000", "092938.358000", "092938.361000", "092938.363000", "092938.366000", "092938.368000", "092938.371000", "092938.373000", "092938.376000", "092938.378000", "092938.381000", "092938.383000", "092938.386000", "092938.388000", "092938.391000", "092938.393000", "092958.301000", "092958.304000", "092958.307000", "092958.309000", "092958.312000", "092958.314000", "092958.317000", "092958.319000", "092958.322000", "092958.324000", "092958.327000", "092958.329000", "092958.332000", "092958.334000", "092958.337000", "092958.339000", "092958.342000", "092958.345000", "092958.349000", "092958.352000", "093038.367000", "093038.369000", "093038.372000", "093038.374000", "093038.377000", "093038.380000", "093038.382000", "093038.385000", "093038.387000", "093038.390000", "093038.393000", "093038.395000", "093038.398000", "093038.400000", "093038.403000", "093038.406000", "093038.408000", "093038.411000", "093038.413000", "093038.416000", "093038.418000", "093038.421000", "093038.423000", "093038.426000", "093038.428000", "093038.431000", "093038.434000", "093038.436000", "093038.439000", "093038.441000", "093118.362000", "093118.365000", "093118.368000", "093118.370000", "093118.373000", "093118.375000", "093118.378000", "093118.381000", "093118.383000", "093118.386000", "093118.388000", "093118.391000", "093118.393000", "093118.396000", "093118.398000", "093118.401000", "093118.403000", "093118.406000", "093118.408000", "093118.411000", "093118.413000", "093118.416000", "093118.418000", "093118.421000", "093118.424000", "093118.426000", "093118.429000", "093158.348000", "093158.351000", "093158.353000", "093158.356000", "093158.358000", "093158.361000", "093158.364000", "093158.366000", "093158.369000", "093158.371000", "093158.374000", "093158.376000", "093158.379000", "093158.381000", "093158.384000", "093158.386000", "093158.389000", "093158.391000", "093158.394000", "093158.396000", "093158.399000", "093158.401000", "093158.404000", "093158.406000", "093158.409000", "093158.411000", "093158.414000", "093205.504000", "093205.507000", "093205.510000", "093205.512000", "093205.515000"],
      "InstanceCreationTime": ["092838.363000", "092838.366000", "092838.369000", "092838.371000", "092838.374000", "092838.376000", "092838.379000", "092838.381000", "092838.384000", "092838.386000", "092838.389000", "092838.392000", "092838.394000", "092838.397000", "092838.399000", "092838.402000", "092838.404000", "092838.407000", "092838.409000", "092838.412000", "092838.415000", "092858.315000", "092858.317000", "092858.320000", "092858.322000", "092858.325000", "092858.327000", "092858.330000", "092858.332000", "092858.335000", "092858.337000", "092858.340000", "092858.342000", "092858.345000", "092858.347000", "092858.350000", "092858.352000", "092858.355000", "092858.357000", "092858.360000", "092858.362000", "092918.302000", "092918.305000", "092918.308000", "092918.310000", "092918.313000", "092918.315000", "092918.318000", "092918.320000", "092918.323000", "092918.325000", "092918.328000", "092918.330000", "092918.333000", "092918.335000", "092918.338000", "092918.340000", "092918.343000", "092918.345000", "092918.348000", "092918.350000", "092938.342000", "092938.345000", "092938.347000", "092938.350000", "092938.352000", "092938.358000", "092938.361000", "092938.363000", "092938.366000", "092938.368000", "092938.371000", "092938.373000", "092938.376000", "092938.378000", "092938.381000", "092938.383000", "092938.386000", "092938.388000", "092938.391000", "092938.393000", "092958.301000", "092958.304000", "092958.307000", "092958.309000", "092958.312000", "092958.314000", "092958.317000", "092958.319000", "092958.322000", "092958.324000", "092958.327000", "092958.329000", "092958.332000", "092958.334000", "092958.337000", "092958.339000", "092958.342000", "092958.345000", "092958.349000", "092958.352000", "093038.367000", "093038.369000", "093038.372000", "093038.374000", "093038.377000", "093038.380000", "093038.382000", "093038.385000", "093038.387000", "093038.390000", "093038.393000", "093038.395000", "093038.398000", "093038.400000", "093038.403000", "093038.406000", "093038.408000", "093038.411000", "093038.413000", "093038.416000", "093038.418000", "093038.421000", "093038.423000", "093038.426000", "093038.428000", "093038.431000", "093038.434000", "093038.436000", "093038.439000", "093038.441000", "093118.362000", "093118.365000", "093118.368000", "093118.370000", "093118.373000", "093118.375000", "093118.378000", "093118.381000", "093118.383000", "093118.386000", "093118.388000", "093118.391000", "093118.393000", "093118.396000", "093118.398000", "093118.401000", "093118.403000", "093118.406000", "093118.408000", "093118.411000", "093118.413000", "093118.416000", "093118.418000", "093118.421000", "093118.424000", "093118.426000", "093118.429000", "093158.348000", "093158.351000", "093158.353000", "093158.356000", "093158.358000", "093158.361000", "093158.364000", "093158.366000", "093158.369000", "093158.371000", "093158.374000", "093158.376000", "093158.379000", "093158.381000", "093158.384000", "093158.386000", "093158.389000", "093158.391000", "093158.394000", "093158.396000", "093158.399000", "093158.401000", "093158.404000", "093158.406000", "093158.409000", "093158.411000", "093158.414000", "093205.504000", "093205.507000", "093205.510000", "093205.512000", "093205.515000"],
      "InstanceNumber": [1, 2, 3, 4, 5, 6, 7, 8, 9, 10, 11, 12, 13, 14, 15, 16, 17, 18, 19, 20, 21, 22, 23, 24, 25, 26, 27, 28, 29, 30, 31, 32, 33, 34, 35, 36, 37, 38, 39, 40, 41, 42, 43, 44, 45, 46, 47, 48, 49, 50, 51, 52, 53, 54, 55, 56, 57, 58, 59, 60, 61, 62, 63, 64, 65, 66, 67, 68, 69, 70, 71, 72, 73, 74, 75, 76, 77, 78, 79, 80, 81, 82, 83, 84, 85, 86, 87, 88, 89, 90, 91, 92, 93, 94, 95, 96, 97, 98, 99, 100, 101, 102, 103, 104, 105, 106, 107, 108, 109, 110, 111, 112, 113, 114, 115, 116, 117, 118, 119, 120, 121, 122, 123, 124, 125, 126, 127, 128, 129, 130, 131, 132, 133, 134, 135, 136, 137, 138, 139, 140, 141, 142, 143, 144, 145, 146, 147, 148, 149, 150, 151, 152, 153, 154, 155, 156, 157, 158, 159, 160, 161, 162, 163, 164, 165, 166, 167, 168, 169, 170, 171, 172, 173, 174, 175, 176, 177, 178, 179, 180, 181, 182, 183, 184, 185, 186, 187, 188, 189, 190],
      "WindowCenter": [4810.0, 4810.0, 4808.0, 2410.0, 4812.0, 4812.0, 4808.0, 4810.0, 4810.0, 4810.0, 4810.0, 4808.0, 4812.0, 4836.0, 4808.0, 4810.0, 4812.0, 4810.0, 4808.0, 4808.0, 4812.0, 4836.0, 4834.0, 4810.0, 4812.0, 4812.0, 4812.0, 4810.0, 4806.0, 4812.0, 4836.0, 4810.0, 4808.0, 4812.0, 4832.0, 4842.0, 4812.0, 4812.0, 4810.0, 4836.0, 4834.0, 4812.0, 4812.0, 4810.0, 4838.0, 4834.0, 4834.0, 4812.0, 4812.0, 4834.0, 4832.0, 4810.0, 4810.0, 4838.0, 4838.0, 4838.0, 4836.0, 4830.0, 4812.0, 4836.0, 4834.0, 4834.0, 4808.0, 4812.0, 4838.0, 4840.0, 4840.0, 4834.0, 4834.0, 4834.0, 4840.0, 4836.0, 4810.0, 4836.0, 4834.0, 4840.0, 4840.0, 4836.0, 4808.0, 4836.0, 4834.0, 4834.0, 4836.0, 4832.0, 4836.0, 4836.0, 4838.0, 4840.0, 4834.0, 4834.0, 4810.0, 4840.0, 4834.0, 4810.0, 4812.0, 4838.0, 4844.0, 4840.0, 4834.0, 4836.0, 4838.0, 4834.0, 4834.0, 4836.0, 4838.0, 4840.0, 4836.0, 4840.0, 4836.0, 4834.0, 4838.0, 4838.0, 4836.0, 4834.0, 4836.0, 4836.0, 4838.0, 4808.0, 4838.0, 4838.0, 4836.0, 4814.0, 4836.0, 4838.0, 4834.0, 4834.0, 4836.0, 4834.0, 4838.0, 4834.0, 4838.0, 4834.0, 4812.0, 4838.0, 4838.0, 4842.0, 4834.0, 4838.0, 4840.0, 4840.0, 4836.0, 4812.0, 4812.0, 4838.0, 4840.0, 4842.0, 4842.0, 4834.0, 4838.0, 4836.0, 4840.0, 4834.0, 4836.0, 4834.0, 4834.0, 4840.0, 4840.0, 4834.0, 4834.0, 4838.0, 4838.0, 4836.0, 4836.0, 4836.0, 4838.0, 4838.0, 4840.0, 4834.0, 4838.0, 4840.0, 4836.0, 4812.0, 4832.0, 4834.0, 4836.0, 4838.0, 4836.0, 4834.0, 4834.0, 4838.0, 4844.0, 4840.0, 4836.0, 4834.0, 4834.0, 4834.0, 4808.0, 4834.0, 4836.0, 4838.0],
      "WindowCenterWidthExplanation": [
        "Algo1",
        "Algo1",
        "Algo1",
        "WINDOW1",
        "Algo1",
        "Algo1",
        "Algo1",
        "Algo1",
        "Algo1",
        "Algo1",
        "Algo1",
        "Algo1",
        "Algo1",
        "Algo1",
        "Algo1",
        "Algo1",
        "Algo1",
        "Algo1",
        "Algo1",
        "Algo1",
        "Algo1",
        "Algo1",
        "Algo1",
        "Algo1",
        "Algo1",
        "Algo1",
        "Algo1",
        "Algo1",
        "Algo1",
        "Algo1",
        "Algo1",
        "Algo1",
        "Algo1",
        "Algo1",
        "Algo1",
        "Algo1",
        "Algo1",
        "Algo1",
        "Algo1",
        "Algo1",
        "Algo1",
        "Algo1",
        "Algo1",
        "Algo1",
        "Algo1",
        "Algo1",
        "Algo1",
        "Algo1",
        "Algo1",
        "Algo1",
        "Algo1",
        "Algo1",
        "Algo1",
        "Algo1",
        "Algo1",
        "Algo1",
        "Algo1",
        "Algo1",
        "Algo1",
        "Algo1",
        "Algo1",
        "Algo1",
        "Algo1",
        "Algo1",
        "Algo1",
        "Algo1",
        "Algo1",
        "Algo1",
        "Algo1",
        "Algo1",
        "Algo1",
        "Algo1",
        "Algo1",
        "Algo1",
        "Algo1",
        "Algo1",
        "Algo1",
        "Algo1",
        "Algo1",
        "Algo1",
        "Algo1",
        "Algo1",
        "Algo1",
        "Algo1",
        "Algo1",
        "Algo1",
        "Algo1",
        "Algo1",
        "Algo1",
        "Algo1",
        "Algo1",
        "Algo1",
        "Algo1",
        "Algo1",
        "Algo1",
        "Algo1",
        "Algo1",
        "Algo1",
        "Algo1",
        "Algo1",
        "Algo1",
        "Algo1",
        "Algo1",
        "Algo1",
        "Algo1",
        "Algo1",
        "Algo1",
        "Algo1",
        "Algo1",
        "Algo1",
        "Algo1",
        "Algo1",
        "Algo1",
        "Algo1",
        "Algo1",
        "Algo1",
        "Algo1",
        "Algo1",
        "Algo1",
        "Algo1",
        "Algo1",
        "Algo1",
        "Algo1",
        "Algo1",
        "Algo1",
        "Algo1",
        "Algo1",
        "Algo1",
        "Algo1",
        "Algo1",
        "Algo1",
        "Algo1",
        "Algo1",
        "Algo1",
        "Algo1",
        "Algo1",
        "Algo1",
        "Algo1",
        "Algo1",
        "Algo1",
        "Algo1",
        "Algo1",
        "Algo1",
        "Algo1",
        "Algo1",
        "Algo1",
        "Algo1",
        "Algo1",
        "Algo1",
        "Algo1",
        "Algo1",
        "Algo1",
        "Algo1",
        "Algo1",
        "Algo1",
        "Algo1",
        "Algo1",
        "Algo1",
        "Algo1",
        "Algo1",
        "Algo1",
        "Algo1",
        "Algo1",
        "Algo1",
        "Algo1",
        "Algo1",
        "Algo1",
        "Algo1",
        "Algo1",
        "Algo1",
        "Algo1",
        "Algo1",
        "Algo1",
        "Algo1",
        "Algo1",
        "Algo1",
        "Algo1",
        "Algo1",
        "Algo1",
        "Algo1",
        "Algo1",
        "Algo1",
        "Algo1",
        "Algo1",
        "Algo1",
        "Algo1",
        "Algo1",
        "Algo1",
        "Algo1",
        "Algo1"
],
      "WindowWidth": [18594.0, 18592.0, 18586.0, 7996.0, 18588.0, 18598.0, 18590.0, 18592.0, 18592.0, 18596.0, 18594.0, 18590.0, 18592.0, 18622.0, 18592.0, 18588.0, 18588.0, 18596.0, 18600.0, 18590.0, 18588.0, 18622.0, 18624.0, 18594.0, 18590.0, 18590.0, 18592.0, 18596.0, 18592.0, 18594.0, 18622.0, 18592.0, 18594.0, 18592.0, 18618.0, 18624.0, 18590.0, 18592.0, 18590.0, 18626.0, 18624.0, 18596.0, 18596.0, 18594.0, 18622.0, 18624.0, 18622.0, 18590.0, 18592.0, 18620.0, 18622.0, 18598.0, 18596.0, 18624.0, 18622.0, 18624.0, 18626.0, 18630.0, 18592.0, 18622.0, 18624.0, 18624.0, 18598.0, 18598.0, 18628.0, 18626.0, 18628.0, 18620.0, 18626.0, 18618.0, 18628.0, 18626.0, 18600.0, 18630.0, 18624.0, 18624.0, 18624.0, 18630.0, 18592.0, 18628.0, 18616.0, 18622.0, 18632.0, 18630.0, 18622.0, 18626.0, 18626.0, 18628.0, 18622.0, 18624.0, 18592.0, 18628.0, 18624.0, 18598.0, 18594.0, 18626.0, 18634.0, 18622.0, 18622.0, 18620.0, 18620.0, 18624.0, 18634.0, 18632.0, 18624.0, 18628.0, 18626.0, 18624.0, 18628.0, 18626.0, 18624.0, 18626.0, 18626.0, 18624.0, 18620.0, 18622.0, 18622.0, 18594.0, 18636.0, 18624.0, 18622.0, 18594.0, 18626.0, 18626.0, 18620.0, 18626.0, 18622.0, 18624.0, 18626.0, 18622.0, 18626.0, 18630.0, 18598.0, 18630.0, 18624.0, 18624.0, 18622.0, 18622.0, 18624.0, 18620.0, 18624.0, 18600.0, 18598.0, 18630.0, 18628.0, 18628.0, 18626.0, 18626.0, 18630.0, 18622.0, 18626.0, 18622.0, 18628.0, 18628.0, 18622.0, 18626.0, 18626.0, 18622.0, 18626.0, 18626.0, 18624.0, 18630.0, 18630.0, 18628.0, 18624.0, 18624.0, 18628.0, 18622.0, 18622.0, 18624.0, 18622.0, 18592.0, 18628.0, 18624.0, 18624.0, 18620.0, 18624.0, 18628.0, 18624.0, 18624.0, 18626.0, 18628.0, 18620.0, 18626.0, 18624.0, 18626.0, 18594.0, 18630.0, 18622.0, 18628.0]
    },
    "slices": {}
  }
}