{
  "AcquisitionMatrixPE": 104,
  "AcquisitionNumber": 1,
  "AcquisitionTime": "09:53:7.097500",
  "BandwidthPerPixelPhaseEncode": 17.17,
  "BaseResolution": 104,
  "BodyPartExamined": "BRAIN",
  "CoilString": "HC1-7;NC1_2",
  "ConsistencyInfo": "N4_VE11C_LATEST_20160120",
  "ConversionSoftware": "dcm2niix",
  "ConversionSoftwareVersion": "v1.0.20190902",
  "DerivedVendorReportedEchoSpacing": 0.000560011,
  "DeviceSerialNumber": "167006",
  "DwellTime": 2.1e-06,
  "EchoTime": 0.037,
  "EchoTrainLength": 104,
  "EffectiveEchoSpacing": 0.000560011,
  "FlipAngle": 52,
  "ImageComments": "Unaliased_MB4_PE3_LB",
  "ImageOrientationPatientDICOM": [0.99549, 0.0872083, 0.0373374, -0.0664695, 0.922032, -0.381364],
  "ImageType": [
    "ORIGINAL",
    "PRIMARY",
    "M",
    "MB",
    "ND",
    "MOSAIC"
],
  "ImagingFrequency": 123.259,
  "InPlanePhaseEncodingDirectionDICOM": "COL",
  "InstitutionAddress": "Chemin_Queen-Mary_4565_Montreal_District_CA_H3W_1W5",
  "InstitutionName": "IUGM",
  "InstitutionalDepartmentName": "Department",
  "MRAcquisitionType": "2D",
  "MagneticFieldStrength": 3,
  "Manufacturer": "Siemens",
  "ManufacturersModelName": "Prisma_fit",
  "Modality": "MR",
  "MultibandAccelerationFactor": 4,
  "PartialFourier": 1,
  "PatientPosition": "HFS",
  "PercentPhaseFOV": 100,
  "PhaseEncodingDirection": "j",
  "PhaseEncodingSteps": 104,
  "PhaseResolution": 1,
  "PixelBandwidth": 2290,
  "ProcedureStepDescription": "memory_things",
  "ProtocolName": "func_task-things_run-5",
  "PulseSequenceDetails": "%CustomerSeq%_cmrr_mbep2d_bold",
  "ReceiveCoilActiveElements": "HC1-7;NC1,2",
  "ReceiveCoilName": "HeadNeck_64",
  "ReconMatrixPE": 104,
  "RepetitionTime": 1.49,
  "SAR": 0.0573719,
  "ScanOptions": "FS",
  "ScanningSequence": "EP",
  "SequenceName": "epfid2d1_104",
  "SequenceVariant": "SK_SS",
  "SeriesDescription": "func_task-things_run-5",
  "SeriesNumber": 22,
  "ShimSetting": [645, -7152, -8806, 649, 113, 123, -35, -17],
  "SliceThickness": 2,
  "SliceTiming": [0, 0.785, 0.0975, 0.8825, 0.195, 0.98, 0.295, 1.0775, 0.3925, 1.175, 0.49, 1.2725, 0.5875, 1.3725, 0.685, 0, 0.785, 0.0975, 0.8825, 0.195, 0.98, 0.295, 1.0775, 0.3925, 1.175, 0.49, 1.2725, 0.5875, 1.3725, 0.685, 0, 0.785, 0.0975, 0.8825, 0.195, 0.98, 0.295, 1.0775, 0.3925, 1.175, 0.49, 1.2725, 0.5875, 1.3725, 0.685, 0, 0.785, 0.0975, 0.8825, 0.195, 0.98, 0.295, 1.0775, 0.3925, 1.175, 0.49, 1.2725, 0.5875, 1.3725, 0.685],
  "SoftwareVersions": "syngo_MR_E11",
  "SpacingBetweenSlices": 2,
  "StationName": "MRC35049",
  "TaskName": "things",
  "TotalReadoutTime": 0.0576811,
  "TxRefAmp": 285.299,
  "WipMemBlock": "195bee0c-5aaf-4513-ac20-f10664baadd7||Sequence: R016 ve11c/master r/e634e98; Dec 19 2017 11:00:25 by eja",
  "dcmmeta_affine": [
    [-1.9909802675247192, -0.1329389214515686, 0.13536882400512695, 109.24909973144531],
    [-0.17441660165786743, 1.8440641164779663, -0.7543252110481262, -48.4652099609375],
    [0.07467480003833771, 0.7627285718917847, 1.8473409414291382, -63.28386688232422],
    [0.0, 0.0, 0.0, 1.0]
],
  "dcmmeta_reorient_transform": [
    [0.0, -1.0, 0.0, 103.0],
    [1.0, 0.0, 0.0, 0.0],
    [0.0, 0.0, 1.0, 0.0],
    [0.0, 0.0, 0.0, 1.0]
],
  "dcmmeta_shape": [104, 104, 60, 190],
  "dcmmeta_slice_dim": 2,
  "dcmmeta_version": 0.6,
  "global": {
    "const": {
      "AcquisitionMatrix": [104, 0, 0, 104],
      "AngioFlag": "N",
      "BitsAllocated": 16,
      "BitsStored": 16,
      "BodyPartExamined": "BRAIN",
      "Columns": 832,
      "EchoNumbers": 1,
      "EchoTime": 37.0,
      "EchoTrainLength": 104,
      "FlipAngle": 52.0,
      "HighBit": 15,
      "ImageOrientationPatient": [0.99549014608377, 0.08720829967629, 0.03733740105697, -0.0664694620718, 0.92203203885934, -0.3813643008054],
      "ImagePositionPatient": [-771.88344724184, -876.20035561306, 265.72876315902],
      "ImageType": [
        "ORIGINAL",
        "PRIMARY",
        "M",
        "MB",
        "ND",
        "MOSAIC"
],
      "ImagedNucleus": "1H",
      "ImagingFrequency": 123.258951,
      "InPlanePhaseEncodingDirection": "COL",
      "MRAcquisitionType": "2D",
      "MagneticFieldStrength": 3.0,
      "Manufacturer": "SIEMENS",
      "ManufacturerModelName": "Prisma_fit",
      "Modality": "MR",
      "NumberOfAverages": 1.0,
      "NumberOfPhaseEncodingSteps": 104,
      "PercentPhaseFieldOfView": 100.0,
      "PercentSampling": 100.0,
      "PerformedProcedureStepStartTime": "090626.405000",
      "PhotometricInterpretation": "MONOCHROME2",
      "PixelBandwidth": 2290.0,
      "PixelRepresentation": 0,
      "PixelSpacing": [2.0, 2.0],
      "ProtocolName": "func_task-things_run-5",
      "RepetitionTime": 1490.0,
      "Rows": 832,
      "SAR": 0.05737189980384,
      "SamplesPerPixel": 1,
      "ScanOptions": "FS",
      "ScanningSequence": "EP",
      "SequenceName": "epfid2d1_104",
      "SequenceVariant": [
        "SK",
        "SS"
],
      "SeriesDescription": "func_task-things_run-5",
      "SeriesNumber": 22,
      "SeriesTime": "095427.320000",
      "SliceLocation": -32.779713580828,
      "SliceThickness": 2.0,
      "SmallestImagePixelValue": 0,
      "SoftwareVersions": "syngo MR E11",
      "SpacingBetweenSlices": 1.999999988814,
      "SpecificCharacterSet": "ISO_IR 100",
      "StudyID": "1",
      "StudyTime": "090626.281000",
      "TransmitCoilName": "Body",
      "VariableFlipAngleFlag": "N",
      "WindowCenterWidthExplanation": "Algo1",
      "dBdt": 0.0},
    "slices": {}
  },
  "time": {
    "samples": {
      "AcquisitionNumber": [1, 2, 3, 4, 5, 6, 7, 8, 9, 10, 11, 12, 13, 14, 15, 16, 17, 18, 19, 20, 21, 22, 23, 24, 25, 26, 27, 28, 29, 30, 31, 32, 33, 34, 35, 36, 37, 38, 39, 40, 41, 42, 43, 44, 45, 46, 47, 48, 49, 50, 51, 52, 53, 54, 55, 56, 57, 58, 59, 60, 61, 62, 63, 64, 65, 66, 67, 68, 69, 70, 71, 72, 73, 74, 75, 76, 77, 78, 79, 80, 81, 82, 83, 84, 85, 86, 87, 88, 89, 90, 91, 92, 93, 94, 95, 96, 97, 98, 99, 100, 101, 102, 103, 104, 105, 106, 107, 108, 109, 110, 111, 112, 113, 114, 115, 116, 117, 118, 119, 120, 121, 122, 123, 124, 125, 126, 127, 128, 129, 130, 131, 132, 133, 134, 135, 136, 137, 138, 139, 140, 141, 142, 143, 144, 145, 146, 147, 148, 149, 150, 151, 152, 153, 154, 155, 156, 157, 158, 159, 160, 161, 162, 163, 164, 165, 166, 167, 168, 169, 170, 171, 172, 173, 174, 175, 176, 177, 178, 179, 180, 181, 182, 183, 184, 185, 186, 187, 188, 189, 190],
      "AcquisitionTime": ["095307.097500", "095308.587500", "095310.077500", "095311.567500", "095313.057500", "095314.547500", "095316.037500", "095317.527500", "095319.017500", "095320.507500", "095321.997500", "095323.487500", "095324.977500", "095326.467500", "095327.957500", "095329.447500", "095330.937500", "095332.427500", "095333.917500", "095335.407500", "095336.897500", "095338.387500", "095339.877500", "095341.367500", "095342.857500", "095344.347500", "095345.837500", "095347.327500", "095348.817500", "095350.307500", "095351.797500", "095353.287500", "095354.777500", "095356.267500", "095357.757500", "095359.247500", "095400.737500", "095402.227500", "095403.717500", "095405.207500", "095406.697500", "095408.187500", "095409.677500", "095411.167500", "095412.657500", "095414.147500", "095415.637500", "095417.127500", "095418.617500", "095420.107500", "095421.597500", "095423.087500", "095424.577500", "095426.067500", "095427.557500", "095429.047500", "095430.537500", "095432.027500", "095433.517500", "095435.007500", "095436.497500", "095437.987500", "095439.477500", "095440.967500", "095442.457500", "095443.947500", "095445.437500", "095446.927500", "095448.417500", "095449.907500", "095451.397500", "095452.887500", "095454.377500", "095455.867500", "095457.357500", "095458.847500", "095500.337500", "095501.827500", "095503.317500", "095504.807500", "095506.297500", "095507.787500", "095509.277500", "095510.767500", "095512.257500", "095513.747500", "095515.237500", "095516.727500", "095518.217500", "095519.707500", "095521.197500", "095522.687500", "095524.177500", "095525.667500", "095527.157500", "095528.647500", "095530.137500", "095531.627500", "095533.117500", "095534.607500", "095536.097500", "095537.587500", "095539.077500", "095540.567500", "095542.057500", "095543.547500", "095545.037500", "095546.527500", "095548.017500", "095549.507500", "095550.997500", "095552.487500", "095553.977500", "095555.467500", "095556.957500", "095558.447500", "095559.937500", "095601.427500", "095602.917500", "095604.407500", "095605.897500", "095607.387500", "095608.877500", "095610.367500", "095611.857500", "095613.347500", "095614.837500", "095616.327500", "095617.817500", "095619.307500", "095620.797500", "095622.287500", "095623.777500", "095625.267500", "095626.757500", "095628.247500", "095629.737500", "095631.227500", "095632.717500", "095634.207500", "095635.697500", "095637.187500", "095638.677500", "095640.167500", "095641.657500", "095643.147500", "095644.637500", "095646.127500", "095647.617500", "095649.107500", "095650.597500", "095652.087500", "095653.577500", "095655.067500", "095656.557500", "095658.047500", "095659.537500", "095701.027500", "095702.517500", "095704.007500", "095705.497500", "095706.987500", "095708.477500", "095709.967500", "095711.457500", "095712.947500", "095714.437500", "095715.927500", "095717.417500", "095718.907500", "095720.397500", "095721.887500", "095723.377500", "095724.867500", "095726.357500", "095727.847500", "095729.337500", "095730.827500", "095732.317500", "095733.807500", "095735.297500", "095736.787500", "095738.277500", "095739.767500", "095741.257500", "095742.747500", "095744.237500", "095745.727500", "095747.217500", "095748.707500"],
      "ContentTime": ["095427.323000", "095427.327000", "095427.330000", "095427.333000", "095427.337000", "095427.340000", "095427.350000", "095427.354000", "095427.357000", "095427.360000", "095427.364000", "095427.367000", "095427.370000", "095427.374000", "095427.377000", "095427.381000", "095427.384000", "095427.387000", "095427.390000", "095427.394000", "095427.397000", "095427.400000", "095427.404000", "095427.407000", "095427.411000", "095447.276000", "095447.280000", "095447.283000", "095447.287000", "095447.290000", "095447.293000", "095447.297000", "095447.300000", "095447.303000", "095447.307000", "095447.310000", "095447.314000", "095447.317000", "095447.320000", "095447.324000", "095447.327000", "095447.330000", "095447.334000", "095447.337000", "095447.340000", "095507.276000", "095507.280000", "095507.283000", "095507.287000", "095507.290000", "095507.293000", "095507.304000", "095507.307000", "095507.310000", "095507.314000", "095507.317000", "095507.320000", "095507.324000", "095507.327000", "095507.330000", "095507.334000", "095507.337000", "095507.340000", "095507.344000", "095507.347000", "095527.276000", "095527.280000", "095527.283000", "095527.286000", "095527.290000", "095527.293000", "095527.296000", "095527.300000", "095527.303000", "095527.307000", "095527.310000", "095527.313000", "095527.317000", "095527.320000", "095527.323000", "095527.327000", "095527.330000", "095527.333000", "095527.337000", "095527.340000", "095527.343000", "095547.276000", "095547.280000", "095547.283000", "095547.287000", "095547.290000", "095547.293000", "095547.297000", "095547.300000", "095547.303000", "095547.306000", "095547.310000", "095547.313000", "095547.317000", "095547.320000", "095547.323000", "095547.327000", "095547.330000", "095547.333000", "095547.337000", "095547.340000", "095627.277000", "095627.281000", "095627.284000", "095627.288000", "095627.291000", "095627.294000", "095627.298000", "095627.301000", "095627.304000", "095627.308000", "095627.311000", "095627.315000", "095627.318000", "095627.321000", "095627.325000", "095627.328000", "095627.331000", "095627.335000", "095627.338000", "095627.341000", "095627.345000", "095627.348000", "095627.351000", "095627.355000", "095627.358000", "095627.361000", "095627.365000", "095627.368000", "095707.276000", "095707.281000", "095707.284000", "095707.288000", "095707.291000", "095707.295000", "095707.298000", "095707.301000", "095707.305000", "095707.308000", "095707.311000", "095707.315000", "095707.318000", "095707.322000", "095707.325000", "095707.328000", "095707.340000", "095707.344000", "095707.347000", "095707.351000", "095707.354000", "095707.357000", "095707.361000", "095707.364000", "095707.368000", "095707.371000", "095747.276000", "095747.280000", "095747.283000", "095747.287000", "095747.290000", "095747.293000", "095747.297000", "095747.300000", "095747.303000", "095747.307000", "095747.310000", "095747.313000", "095747.317000", "095747.320000", "095747.324000", "095747.327000", "095747.330000", "095747.334000", "095747.337000", "095747.340000", "095747.344000", "095747.347000", "095747.350000", "095747.354000", "095747.357000", "095747.360000", "095747.364000", "095750.698000", "095750.701000", "095750.705000"],
      "InstanceCreationTime": ["095427.323000", "095427.327000", "095427.330000", "095427.333000", "095427.337000", "095427.340000", "095427.350000", "095427.354000", "095427.357000", "095427.360000", "095427.364000", "095427.367000", "095427.370000", "095427.374000", "095427.377000", "095427.381000", "095427.384000", "095427.387000", "095427.390000", "095427.394000", "095427.397000", "095427.400000", "095427.404000", "095427.407000", "095427.411000", "095447.276000", "095447.280000", "095447.283000", "095447.287000", "095447.290000", "095447.293000", "095447.297000", "095447.300000", "095447.303000", "095447.307000", "095447.310000", "095447.314000", "095447.317000", "095447.320000", "095447.324000", "095447.327000", "095447.330000", "095447.334000", "095447.337000", "095447.340000", "095507.276000", "095507.280000", "095507.283000", "095507.287000", "095507.290000", "095507.293000", "095507.304000", "095507.307000", "095507.310000", "095507.314000", "095507.317000", "095507.320000", "095507.324000", "095507.327000", "095507.330000", "095507.334000", "095507.337000", "095507.340000", "095507.344000", "095507.347000", "095527.276000", "095527.280000", "095527.283000", "095527.286000", "095527.290000", "095527.293000", "095527.296000", "095527.300000", "095527.303000", "095527.307000", "095527.310000", "095527.313000", "095527.317000", "095527.320000", "095527.323000", "095527.327000", "095527.330000", "095527.333000", "095527.337000", "095527.340000", "095527.343000", "095547.276000", "095547.280000", "095547.283000", "095547.287000", "095547.290000", "095547.293000", "095547.297000", "095547.300000", "095547.303000", "095547.306000", "095547.310000", "095547.313000", "095547.317000", "095547.320000", "095547.323000", "095547.327000", "095547.330000", "095547.333000", "095547.337000", "095547.340000", "095627.277000", "095627.281000", "095627.284000", "095627.288000", "095627.291000", "095627.294000", "095627.298000", "095627.301000", "095627.304000", "095627.308000", "095627.311000", "095627.315000", "095627.318000", "095627.321000", "095627.325000", "095627.328000", "095627.331000", "095627.335000", "095627.338000", "095627.341000", "095627.345000", "095627.348000", "095627.351000", "095627.355000", "095627.358000", "095627.361000", "095627.365000", "095627.368000", "095707.276000", "095707.281000", "095707.284000", "095707.288000", "095707.291000", "095707.295000", "095707.298000", "095707.301000", "095707.305000", "095707.308000", "095707.311000", "095707.315000", "095707.318000", "095707.322000", "095707.325000", "095707.328000", "095707.340000", "095707.344000", "095707.347000", "095707.351000", "095707.354000", "095707.357000", "095707.361000", "095707.364000", "095707.368000", "095707.371000", "095747.276000", "095747.280000", "095747.283000", "095747.287000", "095747.290000", "095747.293000", "095747.297000", "095747.300000", "095747.303000", "095747.307000", "095747.310000", "095747.313000", "095747.317000", "095747.320000", "095747.324000", "095747.327000", "095747.330000", "095747.334000", "095747.337000", "095747.340000", "095747.344000", "095747.347000", "095747.350000", "095747.354000", "095747.357000", "095747.360000", "095747.364000", "095750.698000", "095750.701000", "095750.705000"],
      "InstanceNumber": [1, 2, 3, 4, 5, 6, 7, 8, 9, 10, 11, 12, 13, 14, 15, 16, 17, 18, 19, 20, 21, 22, 23, 24, 25, 26, 27, 28, 29, 30, 31, 32, 33, 34, 35, 36, 37, 38, 39, 40, 41, 42, 43, 44, 45, 46, 47, 48, 49, 50, 51, 52, 53, 54, 55, 56, 57, 58, 59, 60, 61, 62, 63, 64, 65, 66, 67, 68, 69, 70, 71, 72, 73, 74, 75, 76, 77, 78, 79, 80, 81, 82, 83, 84, 85, 86, 87, 88, 89, 90, 91, 92, 93, 94, 95, 96, 97, 98, 99, 100, 101, 102, 103, 104, 105, 106, 107, 108, 109, 110, 111, 112, 113, 114, 115, 116, 117, 118, 119, 120, 121, 122, 123, 124, 125, 126, 127, 128, 129, 130, 131, 132, 133, 134, 135, 136, 137, 138, 139, 140, 141, 142, 143, 144, 145, 146, 147, 148, 149, 150, 151, 152, 153, 154, 155, 156, 157, 158, 159, 160, 161, 162, 163, 164, 165, 166, 167, 168, 169, 170, 171, 172, 173, 174, 175, 176, 177, 178, 179, 180, 181, 182, 183, 184, 185, 186, 187, 188, 189, 190],
      "LargestImagePixelValue": [43940, 42972, 42267, 42042, 42691, 43252, 42899, 43324, 43550, 42745, 43640, 43508, 43574, 43330, 43146, 44062, 43766, 42596, 43144, 42780, 44078, 43648, 43888, 42513, 44041, 44163, 43785, 43391, 44487, 45072, 44386, 44668, 44643, 44072, 44263, 44398, 44603, 43744, 44747, 45083, 44814, 43870, 44716, 44673, 43002, 43815, 45113, 44787, 44997, 44477, 44077, 45474, 44758, 44601, 44361, 44223, 44971, 44215, 44637, 44783, 44974, 44464, 43831, 45360, 45184, 44880, 43930, 45245, 45388, 45205, 44847, 45873, 44052, 45007, 45735, 45975, 45242, 44943, 44678, 45202, 45291, 45381, 45401, 45586, 44507, 45887, 44930, 44315, 44487, 43887, 44529, 45678, 45023, 44948, 44731, 44100, 45234, 44983, 45105, 44274, 44684, 44849, 44551, 44770, 44057, 45557, 45246, 45226, 44284, 44943, 45380, 44104, 43860, 44391, 44362, 43807, 44617, 44096, 43955, 43262, 43622, 45257, 44702, 43710, 43205, 42547, 43139, 44764, 44051, 43402, 43060, 44389, 43499, 42875, 43647, 43787, 43444, 43149, 44012, 43622, 42739, 42665, 43617, 43661, 43157, 42729, 43101, 43079, 42011, 41468, 41831, 42068, 42559, 42995, 41618, 40628, 40961, 41568, 40004, 40637, 40179, 39845, 39080, 38727, 39643, 40272, 39746, 39562, 38763, 38408, 39321, 39885, 40310, 40805, 42299, 41873, 40527, 40086, 40968, 41416, 40866, 39988, 39719, 38425, 38048, 38794, 38853, 38241, 39040, 38482],
      "WindowCenter": [10534.0, 10505.0, 10499.0, 10483.0, 10474.0, 10476.0, 10461.0, 10466.0, 10483.0, 10491.0, 10488.0, 10503.0, 10502.0, 10478.0, 10461.0, 10468.0, 10496.0, 10493.0, 10495.0, 10474.0, 10478.0, 10491.0, 10502.0, 10475.0, 10472.0, 10462.0, 10469.0, 10466.0, 10469.0, 10480.0, 10493.0, 10493.0, 10482.0, 10476.0, 10485.0, 10481.0, 10485.0, 10480.0, 10493.0, 10501.0, 10513.0, 10496.0, 10494.0, 10493.0, 10480.0, 10503.0, 10520.0, 10539.0, 10531.0, 10500.0, 10475.0, 10471.0, 10487.0, 10503.0, 10508.0, 10485.0, 10490.0, 10482.0, 10478.0, 10467.0, 10472.0, 10492.0, 10491.0, 10488.0, 10475.0, 10474.0, 10461.0, 10484.0, 10515.0, 10521.0, 10489.0, 10478.0, 10452.0, 10460.0, 10498.0, 10514.0, 10485.0, 10461.0, 10441.0, 10444.0, 10469.0, 10485.0, 10494.0, 10489.0, 10468.0, 10476.0, 10499.0, 10489.0, 10488.0, 10490.0, 10481.0, 10493.0, 10483.0, 10470.0, 10474.0, 10481.0, 10509.0, 10521.0, 10510.0, 10481.0, 10467.0, 10487.0, 10513.0, 10520.0, 10499.0, 10490.0, 10482.0, 10466.0, 10468.0, 10498.0, 10527.0, 10518.0, 10496.0, 10472.0, 10479.0, 10484.0, 10480.0, 10500.0, 10503.0, 10499.0, 10478.0, 10470.0, 10471.0, 10467.0, 10460.0, 10466.0, 10476.0, 10481.0, 10475.0, 10452.0, 10434.0, 10450.0, 10483.0, 10491.0, 10480.0, 10466.0, 10459.0, 10461.0, 10478.0, 10483.0, 10479.0, 10466.0, 10481.0, 10493.0, 10481.0, 10464.0, 10461.0, 10478.0, 10497.0, 10500.0, 10481.0, 10472.0, 10470.0, 10461.0, 10442.0, 10431.0, 10446.0, 10478.0, 10472.0, 10471.0, 10473.0, 10477.0, 10455.0, 10438.0, 10440.0, 10452.0, 10476.0, 10472.0, 10451.0, 10433.0, 10433.0, 10462.0, 10489.0, 10493.0, 10515.0, 10503.0, 10473.0, 10450.0, 10452.0, 10484.0, 10489.0, 10470.0, 10453.0, 10426.0, 10435.0, 10451.0, 10436.0, 10424.0, 10436.0, 10448.0],
      "WindowWidth": [22354.0, 22274.0, 22253.0, 22208.0, 22178.0, 22179.0, 22145.0, 22157.0, 22197.0, 22228.0, 22209.0, 22244.0, 22240.0, 22184.0, 22144.0, 22157.0, 22229.0, 22230.0, 22226.0, 22181.0, 22183.0, 22221.0, 22243.0, 22183.0, 22165.0, 22149.0, 22164.0, 22158.0, 22163.0, 22184.0, 22218.0, 22214.0, 22187.0, 22177.0, 22199.0, 22195.0, 22197.0, 22188.0, 22215.0, 22237.0, 22269.0, 22233.0, 22224.0, 22219.0, 22197.0, 22248.0, 22280.0, 22326.0, 22304.0, 22233.0, 22177.0, 22162.0, 22202.0, 22244.0, 22256.0, 22202.0, 22207.0, 22196.0, 22183.0, 22155.0, 22165.0, 22217.0, 22217.0, 22199.0, 22172.0, 22170.0, 22143.0, 22192.0, 22268.0, 22285.0, 22205.0, 22172.0, 22121.0, 22134.0, 22222.0, 22262.0, 22193.0, 22138.0, 22089.0, 22101.0, 22163.0, 22194.0, 22213.0, 22202.0, 22158.0, 22174.0, 22232.0, 22211.0, 22203.0, 22211.0, 22187.0, 22210.0, 22193.0, 22164.0, 22170.0, 22193.0, 22253.0, 22283.0, 22252.0, 22187.0, 22150.0, 22197.0, 22266.0, 22277.0, 22230.0, 22200.0, 22186.0, 22148.0, 22160.0, 22226.0, 22298.0, 22281.0, 22227.0, 22169.0, 22189.0, 22203.0, 22190.0, 22238.0, 22247.0, 22237.0, 22188.0, 22159.0, 22162.0, 22158.0, 22142.0, 22160.0, 22189.0, 22187.0, 22174.0, 22120.0, 22079.0, 22114.0, 22197.0, 22219.0, 22187.0, 22153.0, 22140.0, 22144.0, 22181.0, 22197.0, 22190.0, 22157.0, 22189.0, 22220.0, 22196.0, 22152.0, 22146.0, 22188.0, 22241.0, 22244.0, 22197.0, 22178.0, 22171.0, 22145.0, 22109.0, 22089.0, 22121.0, 22193.0, 22186.0, 22184.0, 22190.0, 22203.0, 22151.0, 22112.0, 22113.0, 22138.0, 22200.0, 22191.0, 22142.0, 22102.0, 22099.0, 22163.0, 22229.0, 22231.0, 22279.0, 22254.0, 22187.0, 22136.0, 22136.0, 22213.0, 22228.0, 22187.0, 22146.0, 22090.0, 22114.0, 22150.0, 22116.0, 22085.0, 22112.0, 22142.0]
    },
    "slices": {}
  }
}