{
  "AcquisitionMatrixPE": 104,
  "AcquisitionNumber": 1,
  "AcquisitionTime": "09:46:41.275000",
  "BandwidthPerPixelPhaseEncode": 17.17,
  "BaseResolution": 104,
  "BodyPartExamined": "BRAIN",
  "CoilString": "HC1-7;NC1_2",
  "ConsistencyInfo": "N4_VE11C_LATEST_20160120",
  "ConversionSoftware": "dcm2niix",
  "ConversionSoftwareVersion": "v1.0.20190902",
  "DerivedVendorReportedEchoSpacing": 0.000560011,
  "DeviceSerialNumber": "167006",
  "DwellTime": 2.1e-06,
  "EchoTime": 0.037,
  "EchoTrainLength": 104,
  "EffectiveEchoSpacing": 0.000560011,
  "FlipAngle": 52,
  "ImageComments": "Unaliased_MB4_PE3_LB",
  "ImageOrientationPatientDICOM": [0.99549, 0.0872083, 0.0373374, -0.0664695, 0.922032, -0.381364],
  "ImageType": [
    "ORIGINAL",
    "PRIMARY",
    "P",
    "MB",
    "ND",
    "MOSAIC"
],
  "ImagingFrequency": 123.259,
  "InPlanePhaseEncodingDirectionDICOM": "COL",
  "InstitutionAddress": "Chemin_Queen-Mary_4565_Montreal_District_CA_H3W_1W5",
  "InstitutionName": "IUGM",
  "InstitutionalDepartmentName": "Department",
  "MRAcquisitionType": "2D",
  "MagneticFieldStrength": 3,
  "Manufacturer": "Siemens",
  "ManufacturersModelName": "Prisma_fit",
  "Modality": "MR",
  "MultibandAccelerationFactor": 4,
  "PartialFourier": 1,
  "PatientPosition": "HFS",
  "PercentPhaseFOV": 100,
  "PhaseEncodingDirection": "j",
  "PhaseEncodingSteps": 104,
  "PhaseResolution": 1,
  "PixelBandwidth": 2290,
  "ProcedureStepDescription": "memory_things",
  "ProtocolName": "func_task-things_run-4",
  "PulseSequenceDetails": "%CustomerSeq%_cmrr_mbep2d_bold",
  "ReceiveCoilActiveElements": "HC1-7;NC1,2",
  "ReceiveCoilName": "HeadNeck_64",
  "ReconMatrixPE": 104,
  "RepetitionTime": 1.49,
  "SAR": 0.0573719,
  "ScanOptions": "FS",
  "ScanningSequence": "EP",
  "SequenceName": "epfid2d1_104",
  "SequenceVariant": "SK_SS",
  "SeriesDescription": "func_task-things_run-4",
  "SeriesNumber": 20,
  "ShimSetting": [645, -7152, -8806, 649, 113, 123, -35, -17],
  "SliceThickness": 2,
  "SliceTiming": [0, 0.7825, 0.0975, 0.8825, 0.195, 0.98, 0.2925, 1.0775, 0.3925, 1.175, 0.49, 1.2725, 0.5875, 1.37, 0.685, 0, 0.7825, 0.0975, 0.8825, 0.195, 0.98, 0.2925, 1.0775, 0.3925, 1.175, 0.49, 1.2725, 0.5875, 1.37, 0.685, 0, 0.7825, 0.0975, 0.8825, 0.195, 0.98, 0.2925, 1.0775, 0.3925, 1.175, 0.49, 1.2725, 0.5875, 1.37, 0.685, 0, 0.7825, 0.0975, 0.8825, 0.195, 0.98, 0.2925, 1.0775, 0.3925, 1.175, 0.49, 1.2725, 0.5875, 1.37, 0.685],
  "SoftwareVersions": "syngo_MR_E11",
  "SpacingBetweenSlices": 2,
  "StationName": "MRC35049",
  "TaskName": "things",
  "TotalReadoutTime": 0.0576811,
  "TxRefAmp": 285.299,
  "WipMemBlock": "09dae10d-8c10-4e26-be1d-4fd471ae0b99||Sequence: R016 ve11c/master r/e634e98; Dec 19 2017 11:00:25 by eja",
  "dcmmeta_affine": [
    [-1.9909802675247192, -0.1329389214515686, 0.13536882400512695, 109.24909973144531],
    [-0.17441660165786743, 1.8440641164779663, -0.7543252110481262, -48.4652099609375],
    [0.07467480003833771, 0.7627285718917847, 1.8473409414291382, -63.28386688232422],
    [0.0, 0.0, 0.0, 1.0]
],
  "dcmmeta_reorient_transform": [
    [0.0, -1.0, 0.0, 103.0],
    [1.0, 0.0, 0.0, 0.0],
    [0.0, 0.0, 1.0, 0.0],
    [0.0, 0.0, 0.0, 1.0]
],
  "dcmmeta_shape": [104, 104, 60, 190],
  "dcmmeta_slice_dim": 2,
  "dcmmeta_version": 0.6,
  "global": {
    "const": {
      "AcquisitionMatrix": [104, 0, 0, 104],
      "AngioFlag": "N",
      "BitsAllocated": 16,
      "BitsStored": 16,
      "BodyPartExamined": "BRAIN",
      "Columns": 832,
      "EchoNumbers": 1,
      "EchoTime": 37.0,
      "EchoTrainLength": 104,
      "FlipAngle": 52.0,
      "HighBit": 15,
      "ImageOrientationPatient": [0.99549014608377, 0.08720829967629, 0.03733740105697, -0.0664694620718, 0.92203203885934, -0.3813643008054],
      "ImagePositionPatient": [-771.88344724184, -876.20035561306, 265.72876315902],
      "ImageType": [
        "ORIGINAL",
        "PRIMARY",
        "P",
        "MB",
        "ND",
        "MOSAIC"
],
      "ImagedNucleus": "1H",
      "ImagingFrequency": 123.258949,
      "InPlanePhaseEncodingDirection": "COL",
      "LargestImagePixelValue": 4095,
      "MRAcquisitionType": "2D",
      "MagneticFieldStrength": 3.0,
      "Manufacturer": "SIEMENS",
      "ManufacturerModelName": "Prisma_fit",
      "Modality": "MR",
      "NumberOfAverages": 1.0,
      "NumberOfPhaseEncodingSteps": 104,
      "PercentPhaseFieldOfView": 100.0,
      "PercentSampling": 100.0,
      "PerformedProcedureStepStartTime": "090626.405000",
      "PhotometricInterpretation": "MONOCHROME2",
      "PixelBandwidth": 2290.0,
      "PixelRepresentation": 0,
      "PixelSpacing": [2.0, 2.0],
      "ProtocolName": "func_task-things_run-4",
      "RepetitionTime": 1490.0,
      "RescaleIntercept": -4096.0,
      "RescaleSlope": 2.0,
      "RescaleType": "US",
      "Rows": 832,
      "SAR": 0.05737189980384,
      "SamplesPerPixel": 1,
      "ScanOptions": "FS",
      "ScanningSequence": "EP",
      "SequenceName": "epfid2d1_104",
      "SequenceVariant": [
        "SK",
        "SS"
],
      "SeriesDescription": "func_task-things_run-4",
      "SeriesNumber": 20,
      "SeriesTime": "094738.304000",
      "SliceLocation": -32.779713580828,
      "SliceThickness": 2.0,
      "SmallestImagePixelValue": 0,
      "SoftwareVersions": "syngo MR E11",
      "SpacingBetweenSlices": 1.999999988814,
      "SpecificCharacterSet": "ISO_IR 100",
      "StudyID": "1",
      "StudyTime": "090626.281000",
      "TransmitCoilName": "Body",
      "VariableFlipAngleFlag": "N",
      "WindowCenterWidthExplanation": "Algo1",
      "dBdt": 0.0},
    "slices": {}
  },
  "time": {
    "samples": {
      "AcquisitionNumber": [1, 2, 3, 4, 5, 6, 7, 8, 9, 10, 11, 12, 13, 14, 15, 16, 17, 18, 19, 20, 21, 22, 23, 24, 25, 26, 27, 28, 29, 30, 31, 32, 33, 34, 35, 36, 37, 38, 39, 40, 41, 42, 43, 44, 45, 46, 47, 48, 49, 50, 51, 52, 53, 54, 55, 56, 57, 58, 59, 60, 61, 62, 63, 64, 65, 66, 67, 68, 69, 70, 71, 72, 73, 74, 75, 76, 77, 78, 79, 80, 81, 82, 83, 84, 85, 86, 87, 88, 89, 90, 91, 92, 93, 94, 95, 96, 97, 98, 99, 100, 101, 102, 103, 104, 105, 106, 107, 108, 109, 110, 111, 112, 113, 114, 115, 116, 117, 118, 119, 120, 121, 122, 123, 124, 125, 126, 127, 128, 129, 130, 131, 132, 133, 134, 135, 136, 137, 138, 139, 140, 141, 142, 143, 144, 145, 146, 147, 148, 149, 150, 151, 152, 153, 154, 155, 156, 157, 158, 159, 160, 161, 162, 163, 164, 165, 166, 167, 168, 169, 170, 171, 172, 173, 174, 175, 176, 177, 178, 179, 180, 181, 182, 183, 184, 185, 186, 187, 188, 189, 190],
      "AcquisitionTime": ["094641.275000", "094642.765000", "094644.255000", "094645.745000", "094647.235000", "094648.725000", "094650.215000", "094651.705000", "094653.195000", "094654.685000", "094656.175000", "094657.665000", "094659.155000", "094700.645000", "094702.135000", "094703.625000", "094705.115000", "094706.605000", "094708.095000", "094709.585000", "094711.075000", "094712.565000", "094714.055000", "094715.545000", "094717.035000", "094718.525000", "094720.015000", "094721.505000", "094722.995000", "094724.485000", "094725.975000", "094727.465000", "094728.955000", "094730.445000", "094731.935000", "094733.425000", "094734.915000", "094736.405000", "094737.895000", "094739.385000", "094740.875000", "094742.365000", "094743.855000", "094745.345000", "094746.835000", "094748.325000", "094749.815000", "094751.305000", "094752.795000", "094754.285000", "094755.775000", "094757.265000", "094758.755000", "094800.245000", "094801.735000", "094803.225000", "094804.715000", "094806.205000", "094807.695000", "094809.185000", "094810.675000", "094812.165000", "094813.655000", "094815.145000", "094816.635000", "094818.125000", "094819.615000", "094821.105000", "094822.595000", "094824.085000", "094825.575000", "094827.065000", "094828.555000", "094830.045000", "094831.535000", "094833.025000", "094834.515000", "094836.005000", "094837.495000", "094838.985000", "094840.475000", "094841.965000", "094843.455000", "094844.945000", "094846.435000", "094847.925000", "094849.415000", "094850.905000", "094852.395000", "094853.885000", "094855.375000", "094856.865000", "094858.355000", "094859.845000", "094901.335000", "094902.825000", "094904.315000", "094905.805000", "094907.295000", "094908.785000", "094910.275000", "094911.765000", "094913.255000", "094914.745000", "094916.235000", "094917.725000", "094919.215000", "094920.705000", "094922.195000", "094923.685000", "094925.175000", "094926.665000", "094928.155000", "094929.645000", "094931.135000", "094932.625000", "094934.115000", "094935.605000", "094937.095000", "094938.585000", "094940.075000", "094941.565000", "094943.055000", "094944.545000", "094946.035000", "094947.525000", "094949.015000", "094950.505000", "094951.995000", "094953.485000", "094954.975000", "094956.465000", "094957.955000", "094959.445000", "095000.935000", "095002.425000", "095003.915000", "095005.405000", "095006.895000", "095008.385000", "095009.875000", "095011.365000", "095012.855000", "095014.345000", "095015.835000", "095017.325000", "095018.815000", "095020.305000", "095021.795000", "095023.285000", "095024.775000", "095026.265000", "095027.755000", "095029.245000", "095030.735000", "095032.225000", "095033.715000", "095035.205000", "095036.695000", "095038.185000", "095039.675000", "095041.165000", "095042.655000", "095044.145000", "095045.635000", "095047.125000", "095048.615000", "095050.105000", "095051.595000", "095053.085000", "095054.575000", "095056.065000", "095057.555000", "095059.045000", "095100.535000", "095102.025000", "095103.515000", "095105.005000", "095106.495000", "095107.985000", "095109.475000", "095110.965000", "095112.455000", "095113.945000", "095115.435000", "095116.925000", "095118.415000", "095119.905000", "095121.395000", "095122.885000"],
      "ContentTime": ["094738.306000", "094738.309000", "094738.312000", "094758.326000", "094758.329000", "094758.331000", "094758.334000", "094758.336000", "094758.339000", "094758.341000", "094758.344000", "094758.346000", "094758.349000", "094758.351000", "094758.354000", "094758.356000", "094758.359000", "094758.361000", "094758.364000", "094758.366000", "094758.369000", "094758.371000", "094758.374000", "094818.310000", "094818.313000", "094818.315000", "094818.318000", "094818.320000", "094818.323000", "094818.325000", "094818.328000", "094818.330000", "094818.333000", "094818.335000", "094818.338000", "094818.340000", "094818.343000", "094818.345000", "094818.348000", "094818.350000", "094818.353000", "094818.355000", "094818.358000", "094838.309000", "094838.312000", "094838.318000", "094838.320000", "094838.323000", "094838.325000", "094838.328000", "094838.330000", "094838.333000", "094838.335000", "094838.338000", "094838.340000", "094838.343000", "094838.345000", "094838.348000", "094838.350000", "094838.353000", "094838.355000", "094838.358000", "094838.360000", "094838.363000", "094858.314000", "094858.317000", "094858.319000", "094858.322000", "094858.324000", "094858.327000", "094858.330000", "094858.332000", "094858.334000", "094858.337000", "094858.339000", "094858.342000", "094858.345000", "094858.347000", "094858.350000", "094858.352000", "094858.355000", "094858.357000", "094858.360000", "094858.362000", "094918.319000", "094918.322000", "094918.324000", "094918.327000", "094918.329000", "094918.332000", "094918.334000", "094918.337000", "094918.339000", "094918.342000", "094918.344000", "094918.347000", "094918.349000", "094918.352000", "094918.354000", "094918.357000", "094918.359000", "094918.362000", "094918.364000", "094918.367000", "094958.355000", "094958.358000", "094958.361000", "094958.363000", "094958.366000", "094958.368000", "094958.371000", "094958.373000", "094958.376000", "094958.378000", "094958.381000", "094958.383000", "094958.386000", "094958.388000", "094958.391000", "094958.393000", "094958.396000", "094958.398000", "094958.401000", "094958.404000", "094958.406000", "094958.409000", "094958.411000", "094958.414000", "094958.416000", "094958.419000", "094958.421000", "095038.347000", "095038.359000", "095038.362000", "095038.365000", "095038.367000", "095038.370000", "095038.372000", "095038.375000", "095038.377000", "095038.380000", "095038.382000", "095038.385000", "095038.387000", "095038.390000", "095038.392000", "095038.395000", "095038.397000", "095038.400000", "095038.403000", "095038.405000", "095038.408000", "095038.410000", "095038.413000", "095038.415000", "095038.418000", "095038.420000", "095038.423000", "095118.337000", "095118.340000", "095118.342000", "095118.345000", "095118.347000", "095118.350000", "095118.352000", "095118.355000", "095118.357000", "095118.360000", "095118.363000", "095118.365000", "095118.368000", "095118.370000", "095118.373000", "095118.375000", "095118.378000", "095118.380000", "095118.383000", "095118.386000", "095118.388000", "095118.391000", "095118.393000", "095118.396000", "095118.398000", "095118.401000", "095118.403000", "095125.603000", "095125.606000", "095125.609000", "095125.611000", "095125.614000"],
      "InstanceCreationTime": ["094738.306000", "094738.309000", "094738.312000", "094758.326000", "094758.329000", "094758.331000", "094758.334000", "094758.336000", "094758.339000", "094758.341000", "094758.344000", "094758.346000", "094758.349000", "094758.351000", "094758.354000", "094758.356000", "094758.359000", "094758.361000", "094758.364000", "094758.366000", "094758.369000", "094758.371000", "094758.374000", "094818.310000", "094818.313000", "094818.315000", "094818.318000", "094818.320000", "094818.323000", "094818.325000", "094818.328000", "094818.330000", "094818.333000", "094818.335000", "094818.338000", "094818.340000", "094818.343000", "094818.345000", "094818.348000", "094818.350000", "094818.353000", "094818.355000", "094818.358000", "094838.309000", "094838.312000", "094838.318000", "094838.320000", "094838.323000", "094838.325000", "094838.328000", "094838.330000", "094838.333000", "094838.335000", "094838.338000", "094838.340000", "094838.343000", "094838.345000", "094838.348000", "094838.350000", "094838.353000", "094838.355000", "094838.358000", "094838.360000", "094838.363000", "094858.314000", "094858.317000", "094858.319000", "094858.322000", "094858.324000", "094858.327000", "094858.330000", "094858.332000", "094858.334000", "094858.337000", "094858.339000", "094858.342000", "094858.345000", "094858.347000", "094858.350000", "094858.352000", "094858.355000", "094858.357000", "094858.360000", "094858.362000", "094918.319000", "094918.322000", "094918.324000", "094918.327000", "094918.329000", "094918.332000", "094918.334000", "094918.337000", "094918.339000", "094918.342000", "094918.344000", "094918.347000", "094918.349000", "094918.352000", "094918.354000", "094918.357000", "094918.359000", "094918.362000", "094918.364000", "094918.367000", "094958.355000", "094958.358000", "094958.361000", "094958.363000", "094958.366000", "094958.368000", "094958.371000", "094958.373000", "094958.376000", "094958.378000", "094958.381000", "094958.383000", "094958.386000", "094958.388000", "094958.391000", "094958.393000", "094958.396000", "094958.398000", "094958.401000", "094958.404000", "094958.406000", "094958.409000", "094958.411000", "094958.414000", "094958.416000", "094958.419000", "094958.421000", "095038.347000", "095038.359000", "095038.362000", "095038.365000", "095038.367000", "095038.370000", "095038.372000", "095038.375000", "095038.377000", "095038.380000", "095038.382000", "095038.385000", "095038.387000", "095038.390000", "095038.392000", "095038.395000", "095038.397000", "095038.400000", "095038.403000", "095038.405000", "095038.408000", "095038.410000", "095038.413000", "095038.415000", "095038.418000", "095038.420000", "095038.423000", "095118.337000", "095118.340000", "095118.342000", "095118.345000", "095118.347000", "095118.350000", "095118.352000", "095118.355000", "095118.357000", "095118.360000", "095118.363000", "095118.365000", "095118.368000", "095118.370000", "095118.373000", "095118.375000", "095118.378000", "095118.380000", "095118.383000", "095118.386000", "095118.388000", "095118.391000", "095118.393000", "095118.396000", "095118.398000", "095118.401000", "095118.403000", "095125.603000", "095125.606000", "095125.609000", "095125.611000", "095125.614000"],
      "InstanceNumber": [1, 2, 3, 4, 5, 6, 7, 8, 9, 10, 11, 12, 13, 14, 15, 16, 17, 18, 19, 20, 21, 22, 23, 24, 25, 26, 27, 28, 29, 30, 31, 32, 33, 34, 35, 36, 37, 38, 39, 40, 41, 42, 43, 44, 45, 46, 47, 48, 49, 50, 51, 52, 53, 54, 55, 56, 57, 58, 59, 60, 61, 62, 63, 64, 65, 66, 67, 68, 69, 70, 71, 72, 73, 74, 75, 76, 77, 78, 79, 80, 81, 82, 83, 84, 85, 86, 87, 88, 89, 90, 91, 92, 93, 94, 95, 96, 97, 98, 99, 100, 101, 102, 103, 104, 105, 106, 107, 108, 109, 110, 111, 112, 113, 114, 115, 116, 117, 118, 119, 120, 121, 122, 123, 124, 125, 126, 127, 128, 129, 130, 131, 132, 133, 134, 135, 136, 137, 138, 139, 140, 141, 142, 143, 144, 145, 146, 147, 148, 149, 150, 151, 152, 153, 154, 155, 156, 157, 158, 159, 160, 161, 162, 163, 164, 165, 166, 167, 168, 169, 170, 171, 172, 173, 174, 175, 176, 177, 178, 179, 180, 181, 182, 183, 184, 185, 186, 187, 188, 189, 190],
      "WindowCenter": [4874.0, 4876.0, 4874.0, 4850.0, 4874.0, 4876.0, 4848.0, 4840.0, 4850.0, 4878.0, 4876.0, 4876.0, 4874.0, 4852.0, 4850.0, 4876.0, 4874.0, 4872.0, 4850.0, 4854.0, 4876.0, 4840.0, 4848.0, 4874.0, 4878.0, 4878.0, 4850.0, 4848.0, 4872.0, 4876.0, 4876.0, 4872.0, 4850.0, 4876.0, 4874.0, 4878.0, 4852.0, 4876.0, 4874.0, 4850.0, 4844.0, 4874.0, 4876.0, 4874.0, 4848.0, 4844.0, 4848.0, 4876.0, 4876.0, 4874.0, 4848.0, 4836.0, 4872.0, 4874.0, 4876.0, 4874.0, 4846.0, 4872.0, 4876.0, 4874.0, 4846.0, 4850.0, 4852.0, 4852.0, 4874.0, 4848.0, 4848.0, 4850.0, 4872.0, 4874.0, 4850.0, 4848.0, 4874.0, 4874.0, 4846.0, 4852.0, 4848.0, 4850.0, 4850.0, 4846.0, 4838.0, 4838.0, 4848.0, 4876.0, 4874.0, 4872.0, 4840.0, 4846.0, 4874.0, 4872.0, 4846.0, 4840.0, 4848.0, 4872.0, 4852.0, 4852.0, 4842.0, 4842.0, 4848.0, 4852.0, 4848.0, 4852.0, 4874.0, 4850.0, 4848.0, 4870.0, 4846.0, 4848.0, 4848.0, 4848.0, 4850.0, 4850.0, 4846.0, 4846.0, 4870.0, 4846.0, 4840.0, 4848.0, 4872.0, 4850.0, 4838.0, 4842.0, 4848.0, 4848.0, 4852.0, 4840.0, 4840.0, 4848.0, 4872.0, 4844.0, 4846.0, 4874.0, 4848.0, 4848.0, 4844.0, 4848.0, 4848.0, 4846.0, 4846.0, 4848.0, 4848.0, 4850.0, 4842.0, 4838.0, 4844.0, 4848.0, 4844.0, 4842.0, 4850.0, 4850.0, 4872.0, 4842.0, 4842.0, 4870.0, 4874.0, 4846.0, 4840.0, 4848.0, 4850.0, 4876.0, 4850.0, 4844.0, 4850.0, 4846.0, 4846.0, 4848.0, 4848.0, 4844.0, 4846.0, 4846.0, 4846.0, 4846.0, 4846.0, 4836.0, 4836.0, 4844.0, 4874.0, 4848.0, 4846.0, 4842.0, 4850.0, 4850.0, 4846.0, 4840.0, 4842.0, 4846.0, 4848.0, 4844.0, 4872.0, 4850.0],
      "WindowWidth": [18666.0, 18666.0, 18666.0, 18640.0, 18670.0, 18670.0, 18638.0, 18632.0, 18636.0, 18668.0, 18666.0, 18664.0, 18664.0, 18640.0, 18632.0, 18668.0, 18662.0, 18664.0, 18634.0, 18636.0, 18666.0, 18630.0, 18636.0, 18662.0, 18666.0, 18662.0, 18640.0, 18628.0, 18668.0, 18662.0, 18668.0, 18666.0, 18636.0, 18664.0, 18664.0, 18666.0, 18634.0, 18664.0, 18664.0, 18638.0, 18630.0, 18664.0, 18666.0, 18666.0, 18636.0, 18634.0, 18636.0, 18664.0, 18670.0, 18668.0, 18632.0, 18626.0, 18664.0, 18666.0, 18664.0, 18666.0, 18638.0, 18666.0, 18664.0, 18670.0, 18634.0, 18636.0, 18638.0, 18640.0, 18666.0, 18634.0, 18636.0, 18638.0, 18666.0, 18672.0, 18638.0, 18634.0, 18664.0, 18668.0, 18640.0, 18642.0, 18636.0, 18632.0, 18638.0, 18636.0, 18624.0, 18628.0, 18638.0, 18666.0, 18664.0, 18668.0, 18628.0, 18636.0, 18666.0, 18670.0, 18638.0, 18630.0, 18628.0, 18664.0, 18636.0, 18642.0, 18636.0, 18630.0, 18638.0, 18632.0, 18634.0, 18636.0, 18670.0, 18638.0, 18634.0, 18670.0, 18636.0, 18634.0, 18638.0, 18634.0, 18632.0, 18634.0, 18642.0, 18636.0, 18668.0, 18634.0, 18632.0, 18640.0, 18666.0, 18638.0, 18630.0, 18632.0, 18634.0, 18634.0, 18642.0, 18636.0, 18628.0, 18636.0, 18670.0, 18632.0, 18634.0, 18670.0, 18638.0, 18640.0, 18634.0, 18634.0, 18638.0, 18636.0, 18636.0, 18636.0, 18636.0, 18638.0, 18632.0, 18624.0, 18634.0, 18638.0, 18636.0, 18632.0, 18636.0, 18640.0, 18668.0, 18632.0, 18632.0, 18668.0, 18670.0, 18638.0, 18630.0, 18640.0, 18632.0, 18668.0, 18640.0, 18636.0, 18638.0, 18636.0, 18634.0, 18636.0, 18638.0, 18632.0, 18634.0, 18640.0, 18634.0, 18636.0, 18638.0, 18630.0, 18628.0, 18636.0, 18674.0, 18632.0, 18638.0, 18638.0, 18636.0, 18636.0, 18638.0, 18632.0, 18634.0, 18638.0, 18636.0, 18636.0, 18668.0, 18632.0]
    },
    "slices": {}
  }
}