{
  "AcquisitionMatrixPE": 104,
  "AcquisitionNumber": 1,
  "AcquisitionTime": "09:59:21.447500",
  "BandwidthPerPixelPhaseEncode": 17.17,
  "BaseResolution": 104,
  "BodyPartExamined": "BRAIN",
  "CoilString": "HC1-7;NC1_2",
  "ConsistencyInfo": "N4_VE11C_LATEST_20160120",
  "ConversionSoftware": "dcm2niix",
  "ConversionSoftwareVersion": "v1.0.20190902",
  "DerivedVendorReportedEchoSpacing": 0.000560011,
  "DeviceSerialNumber": "167006",
  "DwellTime": 2.1e-06,
  "EchoTime": 0.037,
  "EchoTrainLength": 104,
  "EffectiveEchoSpacing": 0.000560011,
  "FlipAngle": 52,
  "ImageComments": "Unaliased_MB4_PE3_LB",
  "ImageOrientationPatientDICOM": [0.99549, 0.0872083, 0.0373374, -0.0664695, 0.922032, -0.381364],
  "ImageType": [
    "ORIGINAL",
    "PRIMARY",
    "M",
    "MB",
    "ND",
    "MOSAIC"
],
  "ImagingFrequency": 123.259,
  "InPlanePhaseEncodingDirectionDICOM": "COL",
  "InstitutionAddress": "Chemin_Queen-Mary_4565_Montreal_District_CA_H3W_1W5",
  "InstitutionName": "IUGM",
  "InstitutionalDepartmentName": "Department",
  "MRAcquisitionType": "2D",
  "MagneticFieldStrength": 3,
  "Manufacturer": "Siemens",
  "ManufacturersModelName": "Prisma_fit",
  "Modality": "MR",
  "MultibandAccelerationFactor": 4,
  "PartialFourier": 1,
  "PatientPosition": "HFS",
  "PercentPhaseFOV": 100,
  "PhaseEncodingDirection": "j",
  "PhaseEncodingSteps": 104,
  "PhaseResolution": 1,
  "PixelBandwidth": 2290,
  "ProcedureStepDescription": "memory_things",
  "ProtocolName": "func_task-things_run-6",
  "PulseSequenceDetails": "%CustomerSeq%_cmrr_mbep2d_bold",
  "ReceiveCoilActiveElements": "HC1-7;NC1,2",
  "ReceiveCoilName": "HeadNeck_64",
  "ReconMatrixPE": 104,
  "RepetitionTime": 1.49,
  "SAR": 0.0573719,
  "ScanOptions": "FS",
  "ScanningSequence": "EP",
  "SequenceName": "epfid2d1_104",
  "SequenceVariant": "SK_SS",
  "SeriesDescription": "func_task-things_run-6",
  "SeriesNumber": 25,
  "ShimSetting": [645, -7152, -8806, 649, 113, 123, -35, -17],
  "SliceThickness": 2,
  "SliceTiming": [0, 0.785, 0.1, 0.8825, 0.1975, 0.98, 0.295, 1.08, 0.3925, 1.1775, 0.49, 1.275, 0.59, 1.3725, 0.6875, 0, 0.785, 0.1, 0.8825, 0.1975, 0.98, 0.295, 1.08, 0.3925, 1.1775, 0.49, 1.275, 0.59, 1.3725, 0.6875, 0, 0.785, 0.1, 0.8825, 0.1975, 0.98, 0.295, 1.08, 0.3925, 1.1775, 0.49, 1.275, 0.59, 1.3725, 0.6875, 0, 0.785, 0.1, 0.8825, 0.1975, 0.98, 0.295, 1.08, 0.3925, 1.1775, 0.49, 1.275, 0.59, 1.3725, 0.6875],
  "SoftwareVersions": "syngo_MR_E11",
  "SpacingBetweenSlices": 2,
  "StationName": "MRC35049",
  "TaskName": "things",
  "TotalReadoutTime": 0.0576811,
  "TxRefAmp": 285.299,
  "WipMemBlock": "3e3d21d2-9392-4b53-a19f-f14d9d94829d||Sequence: R016 ve11c/master r/e634e98; Dec 19 2017 11:00:25 by eja",
  "dcmmeta_affine": [
    [-1.9909802675247192, -0.1329389214515686, 0.13536882400512695, 109.24909973144531],
    [-0.17441660165786743, 1.8440641164779663, -0.7543252110481262, -48.4652099609375],
    [0.07467480003833771, 0.7627285718917847, 1.8473409414291382, -63.28386688232422],
    [0.0, 0.0, 0.0, 1.0]
],
  "dcmmeta_reorient_transform": [
    [0.0, -1.0, 0.0, 103.0],
    [1.0, 0.0, 0.0, 0.0],
    [0.0, 0.0, 1.0, 0.0],
    [0.0, 0.0, 0.0, 1.0]
],
  "dcmmeta_shape": [104, 104, 60, 190],
  "dcmmeta_slice_dim": 2,
  "dcmmeta_version": 0.6,
  "global": {
    "const": {
      "AcquisitionMatrix": [104, 0, 0, 104],
      "AngioFlag": "N",
      "BitsAllocated": 16,
      "BitsStored": 16,
      "BodyPartExamined": "BRAIN",
      "Columns": 832,
      "EchoNumbers": 1,
      "EchoTime": 37.0,
      "EchoTrainLength": 104,
      "FlipAngle": 52.0,
      "HighBit": 15,
      "ImageOrientationPatient": [0.99549014608377, 0.08720829967629, 0.03733740105697, -0.0664694620718, 0.92203203885934, -0.3813643008054],
      "ImagePositionPatient": [-771.88344724184, -876.20035561306, 265.72876315902],
      "ImageType": [
        "ORIGINAL",
        "PRIMARY",
        "M",
        "MB",
        "ND",
        "MOSAIC"
],
      "ImagedNucleus": "1H",
      "ImagingFrequency": 123.258954,
      "InPlanePhaseEncodingDirection": "COL",
      "MRAcquisitionType": "2D",
      "MagneticFieldStrength": 3.0,
      "Manufacturer": "SIEMENS",
      "ManufacturerModelName": "Prisma_fit",
      "Modality": "MR",
      "NumberOfAverages": 1.0,
      "NumberOfPhaseEncodingSteps": 104,
      "PercentPhaseFieldOfView": 100.0,
      "PercentSampling": 100.0,
      "PerformedProcedureStepStartTime": "090626.405000",
      "PhotometricInterpretation": "MONOCHROME2",
      "PixelBandwidth": 2290.0,
      "PixelRepresentation": 0,
      "PixelSpacing": [2.0, 2.0],
      "ProtocolName": "func_task-things_run-6",
      "RepetitionTime": 1490.0,
      "Rows": 832,
      "SAR": 0.05737189980384,
      "SamplesPerPixel": 1,
      "ScanOptions": "FS",
      "ScanningSequence": "EP",
      "SequenceName": "epfid2d1_104",
      "SequenceVariant": [
        "SK",
        "SS"
],
      "SeriesDescription": "func_task-things_run-6",
      "SeriesNumber": 25,
      "SeriesTime": "100047.230000",
      "SliceLocation": -32.779713580828,
      "SliceThickness": 2.0,
      "SmallestImagePixelValue": 0,
      "SoftwareVersions": "syngo MR E11",
      "SpacingBetweenSlices": 1.999999988814,
      "SpecificCharacterSet": "ISO_IR 100",
      "StudyID": "1",
      "StudyTime": "090626.281000",
      "TransmitCoilName": "Body",
      "VariableFlipAngleFlag": "N",
      "WindowCenterWidthExplanation": "Algo1",
      "dBdt": 0.0},
    "slices": {}
  },
  "time": {
    "samples": {
      "AcquisitionNumber": [1, 2, 3, 4, 5, 6, 7, 8, 9, 10, 11, 12, 13, 14, 15, 16, 17, 18, 19, 20, 21, 22, 23, 24, 25, 26, 27, 28, 29, 30, 31, 32, 33, 34, 35, 36, 37, 38, 39, 40, 41, 42, 43, 44, 45, 46, 47, 48, 49, 50, 51, 52, 53, 54, 55, 56, 57, 58, 59, 60, 61, 62, 63, 64, 65, 66, 67, 68, 69, 70, 71, 72, 73, 74, 75, 76, 77, 78, 79, 80, 81, 82, 83, 84, 85, 86, 87, 88, 89, 90, 91, 92, 93, 94, 95, 96, 97, 98, 99, 100, 101, 102, 103, 104, 105, 106, 107, 108, 109, 110, 111, 112, 113, 114, 115, 116, 117, 118, 119, 120, 121, 122, 123, 124, 125, 126, 127, 128, 129, 130, 131, 132, 133, 134, 135, 136, 137, 138, 139, 140, 141, 142, 143, 144, 145, 146, 147, 148, 149, 150, 151, 152, 153, 154, 155, 156, 157, 158, 159, 160, 161, 162, 163, 164, 165, 166, 167, 168, 169, 170, 171, 172, 173, 174, 175, 176, 177, 178, 179, 180, 181, 182, 183, 184, 185, 186, 187, 188, 189, 190],
      "AcquisitionTime": ["095921.447500", "095922.937500", "095924.427500", "095925.917500", "095927.407500", "095928.897500", "095930.387500", "095931.877500", "095933.367500", "095934.857500", "095936.347500", "095937.837500", "095939.327500", "095940.817500", "095942.307500", "095943.797500", "095945.287500", "095946.777500", "095948.267500", "095949.757500", "095951.247500", "095952.737500", "095954.227500", "095955.717500", "095957.207500", "095958.697500", "100000.187500", "100001.677500", "100003.167500", "100004.657500", "100006.147500", "100007.637500", "100009.127500", "100010.617500", "100012.107500", "100013.597500", "100015.087500", "100016.577500", "100018.067500", "100019.557500", "100021.047500", "100022.537500", "100024.027500", "100025.517500", "100027.007500", "100028.497500", "100029.987500", "100031.477500", "100032.967500", "100034.457500", "100035.947500", "100037.437500", "100038.927500", "100040.417500", "100041.907500", "100043.397500", "100044.887500", "100046.377500", "100047.867500", "100049.357500", "100050.847500", "100052.337500", "100053.827500", "100055.317500", "100056.807500", "100058.297500", "100059.787500", "100101.277500", "100102.767500", "100104.257500", "100105.747500", "100107.237500", "100108.727500", "100110.217500", "100111.707500", "100113.197500", "100114.687500", "100116.177500", "100117.667500", "100119.157500", "100120.647500", "100122.137500", "100123.627500", "100125.117500", "100126.607500", "100128.097500", "100129.587500", "100131.077500", "100132.567500", "100134.057500", "100135.547500", "100137.037500", "100138.527500", "100140.017500", "100141.507500", "100142.997500", "100144.487500", "100145.977500", "100147.467500", "100148.957500", "100150.447500", "100151.937500", "100153.427500", "100154.917500", "100156.407500", "100157.897500", "100159.387500", "100200.877500", "100202.367500", "100203.857500", "100205.347500", "100206.837500", "100208.327500", "100209.817500", "100211.307500", "100212.797500", "100214.287500", "100215.777500", "100217.267500", "100218.757500", "100220.247500", "100221.737500", "100223.227500", "100224.717500", "100226.207500", "100227.697500", "100229.187500", "100230.677500", "100232.167500", "100233.657500", "100235.147500", "100236.637500", "100238.127500", "100239.617500", "100241.107500", "100242.597500", "100244.087500", "100245.577500", "100247.067500", "100248.557500", "100250.047500", "100251.537500", "100253.027500", "100254.517500", "100256.007500", "100257.497500", "100258.987500", "100300.477500", "100301.967500", "100303.457500", "100304.947500", "100306.437500", "100307.927500", "100309.417500", "100310.907500", "100312.397500", "100313.887500", "100315.377500", "100316.867500", "100318.357500", "100319.847500", "100321.337500", "100322.827500", "100324.317500", "100325.807500", "100327.297500", "100328.787500", "100330.277500", "100331.767500", "100333.257500", "100334.747500", "100336.237500", "100337.727500", "100339.217500", "100340.707500", "100342.197500", "100343.687500", "100345.177500", "100346.667500", "100348.157500", "100349.647500", "100351.137500", "100352.627500", "100354.117500", "100355.607500", "100357.097500", "100358.587500", "100400.077500", "100401.567500", "100403.057500"],
      "ContentTime": ["100047.233000", "100047.237000", "100047.241000", "100047.254000", "100047.258000", "100047.261000", "100047.264000", "100047.268000", "100047.271000", "100047.274000", "100047.277000", "100047.281000", "100047.284000", "100047.287000", "100047.291000", "100047.294000", "100047.298000", "100047.301000", "100047.304000", "100047.308000", "100047.311000", "100047.314000", "100047.318000", "100047.321000", "100047.324000", "100047.328000", "100047.331000", "100047.334000", "100047.338000", "100047.341000", "100047.345000", "100107.196000", "100107.200000", "100107.203000", "100107.207000", "100107.210000", "100107.213000", "100107.216000", "100107.220000", "100107.223000", "100107.227000", "100107.232000", "100107.235000", "100107.239000", "100107.242000", "100107.246000", "100107.262000", "100107.265000", "100107.269000", "100107.272000", "100107.275000", "100127.196000", "100127.200000", "100127.203000", "100127.207000", "100127.210000", "100127.213000", "100127.217000", "100127.220000", "100127.223000", "100127.227000", "100127.230000", "100127.233000", "100127.237000", "100127.240000", "100127.243000", "100127.247000", "100127.250000", "100127.253000", "100127.257000", "100127.260000", "100127.263000", "100147.195000", "100147.199000", "100147.202000", "100147.206000", "100147.209000", "100147.212000", "100147.216000", "100147.219000", "100147.223000", "100147.226000", "100147.229000", "100147.232000", "100147.236000", "100147.239000", "100147.243000", "100147.246000", "100147.249000", "100147.253000", "100147.256000", "100147.259000", "100227.195000", "100227.199000", "100227.202000", "100227.206000", "100227.209000", "100227.212000", "100227.216000", "100227.219000", "100227.222000", "100227.226000", "100227.229000", "100227.232000", "100227.236000", "100227.239000", "100227.242000", "100227.246000", "100227.249000", "100227.252000", "100227.256000", "100227.259000", "100227.262000", "100227.266000", "100227.269000", "100227.273000", "100227.276000", "100227.279000", "100227.283000", "100227.286000", "100227.289000", "100227.293000", "100227.296000", "100227.299000", "100307.196000", "100307.200000", "100307.203000", "100307.207000", "100307.210000", "100307.213000", "100307.217000", "100307.220000", "100307.223000", "100307.227000", "100307.230000", "100307.233000", "100307.237000", "100307.259000", "100307.262000", "100307.265000", "100307.269000", "100307.272000", "100307.275000", "100307.279000", "100307.282000", "100307.285000", "100307.289000", "100307.292000", "100307.295000", "100307.299000", "100307.302000", "100347.196000", "100347.200000", "100347.204000", "100347.207000", "100347.211000", "100347.214000", "100347.217000", "100347.221000", "100347.224000", "100347.227000", "100347.231000", "100347.234000", "100347.237000", "100347.241000", "100347.244000", "100347.247000", "100347.251000", "100347.254000", "100347.257000", "100347.261000", "100347.264000", "100347.268000", "100347.271000", "100347.275000", "100347.279000", "100347.283000", "100405.239000", "100405.243000", "100405.246000", "100405.249000", "100405.253000", "100405.256000", "100405.259000", "100405.263000", "100405.266000", "100405.269000", "100405.273000", "100405.276000", "100405.279000"],
      "InstanceCreationTime": ["100047.233000", "100047.237000", "100047.241000", "100047.254000", "100047.258000", "100047.261000", "100047.264000", "100047.268000", "100047.271000", "100047.274000", "100047.277000", "100047.281000", "100047.284000", "100047.287000", "100047.291000", "100047.294000", "100047.298000", "100047.301000", "100047.304000", "100047.308000", "100047.311000", "100047.314000", "100047.318000", "100047.321000", "100047.324000", "100047.328000", "100047.331000", "100047.334000", "100047.338000", "100047.341000", "100047.345000", "100107.196000", "100107.200000", "100107.203000", "100107.207000", "100107.210000", "100107.213000", "100107.216000", "100107.220000", "100107.223000", "100107.227000", "100107.232000", "100107.235000", "100107.239000", "100107.242000", "100107.246000", "100107.262000", "100107.265000", "100107.269000", "100107.272000", "100107.275000", "100127.196000", "100127.200000", "100127.203000", "100127.207000", "100127.210000", "100127.213000", "100127.217000", "100127.220000", "100127.223000", "100127.227000", "100127.230000", "100127.233000", "100127.237000", "100127.240000", "100127.243000", "100127.247000", "100127.250000", "100127.253000", "100127.257000", "100127.260000", "100127.263000", "100147.195000", "100147.199000", "100147.202000", "100147.206000", "100147.209000", "100147.212000", "100147.216000", "100147.219000", "100147.223000", "100147.226000", "100147.229000", "100147.232000", "100147.236000", "100147.239000", "100147.243000", "100147.246000", "100147.249000", "100147.253000", "100147.256000", "100147.259000", "100227.195000", "100227.199000", "100227.202000", "100227.206000", "100227.209000", "100227.212000", "100227.216000", "100227.219000", "100227.222000", "100227.226000", "100227.229000", "100227.232000", "100227.236000", "100227.239000", "100227.242000", "100227.246000", "100227.249000", "100227.252000", "100227.256000", "100227.259000", "100227.262000", "100227.266000", "100227.269000", "100227.273000", "100227.276000", "100227.279000", "100227.283000", "100227.286000", "100227.289000", "100227.293000", "100227.296000", "100227.299000", "100307.196000", "100307.200000", "100307.203000", "100307.207000", "100307.210000", "100307.213000", "100307.217000", "100307.220000", "100307.223000", "100307.227000", "100307.230000", "100307.233000", "100307.237000", "100307.259000", "100307.262000", "100307.265000", "100307.269000", "100307.272000", "100307.275000", "100307.279000", "100307.282000", "100307.285000", "100307.289000", "100307.292000", "100307.295000", "100307.299000", "100307.302000", "100347.196000", "100347.200000", "100347.204000", "100347.207000", "100347.211000", "100347.214000", "100347.217000", "100347.221000", "100347.224000", "100347.227000", "100347.231000", "100347.234000", "100347.237000", "100347.241000", "100347.244000", "100347.247000", "100347.251000", "100347.254000", "100347.257000", "100347.261000", "100347.264000", "100347.268000", "100347.271000", "100347.275000", "100347.279000", "100347.283000", "100405.239000", "100405.243000", "100405.246000", "100405.249000", "100405.253000", "100405.256000", "100405.259000", "100405.263000", "100405.266000", "100405.269000", "100405.273000", "100405.276000", "100405.279000"],
      "InstanceNumber": [1, 2, 3, 4, 5, 6, 7, 8, 9, 10, 11, 12, 13, 14, 15, 16, 17, 18, 19, 20, 21, 22, 23, 24, 25, 26, 27, 28, 29, 30, 31, 32, 33, 34, 35, 36, 37, 38, 39, 40, 41, 42, 43, 44, 45, 46, 47, 48, 49, 50, 51, 52, 53, 54, 55, 56, 57, 58, 59, 60, 61, 62, 63, 64, 65, 66, 67, 68, 69, 70, 71, 72, 73, 74, 75, 76, 77, 78, 79, 80, 81, 82, 83, 84, 85, 86, 87, 88, 89, 90, 91, 92, 93, 94, 95, 96, 97, 98, 99, 100, 101, 102, 103, 104, 105, 106, 107, 108, 109, 110, 111, 112, 113, 114, 115, 116, 117, 118, 119, 120, 121, 122, 123, 124, 125, 126, 127, 128, 129, 130, 131, 132, 133, 134, 135, 136, 137, 138, 139, 140, 141, 142, 143, 144, 145, 146, 147, 148, 149, 150, 151, 152, 153, 154, 155, 156, 157, 158, 159, 160, 161, 162, 163, 164, 165, 166, 167, 168, 169, 170, 171, 172, 173, 174, 175, 176, 177, 178, 179, 180, 181, 182, 183, 184, 185, 186, 187, 188, 189, 190],
      "LargestImagePixelValue": [46107, 45349, 44118, 44369, 44497, 43271, 43361, 43875, 43395, 42076, 42292, 42857, 42084, 41647, 41693, 41262, 41139, 41339, 41286, 41626, 40219, 39636, 39943, 40263, 40752, 39649, 39470, 39618, 39872, 39580, 39615, 39453, 38960, 39470, 39685, 39492, 39568, 39892, 39536, 39361, 39726, 39487, 39476, 40621, 40317, 39880, 39740, 39547, 40068, 39720, 39010, 39673, 40318, 39379, 38899, 39004, 39021, 39078, 39039, 39274, 39064, 39427, 39361, 39745, 39443, 39497, 39666, 38959, 38455, 39929, 39500, 38964, 39478, 39579, 39801, 39968, 40013, 39490, 39084, 39302, 39165, 38483, 39690, 39459, 39616, 40014, 39305, 40022, 40332, 40625, 40323, 40644, 40110, 39176, 39882, 40668, 40410, 39905, 39966, 39824, 40519, 39312, 39679, 40045, 39443, 39488, 39440, 40139, 39856, 39804, 39770, 39141, 39953, 39421, 39608, 38906, 39055, 39142, 38857, 39821, 39202, 40168, 39791, 38571, 38533, 39307, 39200, 38920, 39723, 39348, 38681, 39311, 39172, 39144, 38516, 39418, 40155, 38702, 38690, 39243, 38703, 38942, 39360, 38609, 38904, 39079, 39438, 38813, 39701, 39232, 38640, 38989, 38862, 38717, 39702, 38930, 38402, 39287, 38072, 38114, 38766, 38477, 39171, 39456, 39699, 38966, 38804, 38777, 39367, 38920, 39490, 40228, 38248, 38552, 39052, 38674, 38220, 37783, 38000, 39941, 39606, 38818, 37460, 38660, 37999, 37828, 37713, 38545, 38163, 37686],
      "WindowCenter": [10584.0, 10530.0, 10495.0, 10496.0, 10507.0, 10496.0, 10491.0, 10487.0, 10489.0, 10475.0, 10471.0, 10493.0, 10499.0, 10486.0, 10475.0, 10467.0, 10478.0, 10477.0, 10461.0, 10465.0, 10456.0, 10445.0, 10453.0, 10466.0, 10474.0, 10460.0, 10454.0, 10468.0, 10487.0, 10473.0, 10450.0, 10434.0, 10436.0, 10449.0, 10463.0, 10471.0, 10469.0, 10444.0, 10440.0, 10442.0, 10457.0, 10462.0, 10453.0, 10462.0, 10449.0, 10433.0, 10414.0, 10430.0, 10457.0, 10460.0, 10438.0, 10443.0, 10447.0, 10425.0, 10417.0, 10433.0, 10431.0, 10435.0, 10437.0, 10445.0, 10446.0, 10459.0, 10456.0, 10446.0, 10432.0, 10434.0, 10440.0, 10429.0, 10424.0, 10458.0, 10455.0, 10447.0, 10445.0, 10458.0, 10471.0, 10484.0, 10485.0, 10466.0, 10438.0, 10426.0, 10417.0, 10422.0, 10459.0, 10472.0, 10488.0, 10486.0, 10474.0, 10462.0, 10455.0, 10472.0, 10478.0, 10475.0, 10452.0, 10429.0, 10433.0, 10454.0, 10443.0, 10434.0, 10429.0, 10435.0, 10454.0, 10436.0, 10435.0, 10442.0, 10439.0, 10453.0, 10463.0, 10478.0, 10477.0, 10479.0, 10464.0, 10441.0, 10456.0, 10453.0, 10450.0, 10445.0, 10439.0, 10437.0, 10439.0, 10461.0, 10464.0, 10493.0, 10481.0, 10443.0, 10426.0, 10432.0, 10441.0, 10462.0, 10483.0, 10458.0, 10435.0, 10424.0, 10415.0, 10433.0, 10457.0, 10484.0, 10471.0, 10436.0, 10423.0, 10424.0, 10400.0, 10407.0, 10424.0, 10419.0, 10417.0, 10417.0, 10431.0, 10437.0, 10459.0, 10446.0, 10415.0, 10410.0, 10408.0, 10418.0, 10448.0, 10455.0, 10457.0, 10460.0, 10427.0, 10413.0, 10419.0, 10423.0, 10446.0, 10464.0, 10479.0, 10466.0, 10467.0, 10470.0, 10449.0, 10439.0, 10447.0, 10456.0, 10432.0, 10450.0, 10459.0, 10449.0, 10439.0, 10428.0, 10434.0, 10457.0, 10450.0, 10440.0, 10431.0, 10466.0, 10448.0, 10425.0, 10417.0, 10418.0, 10411.0, 10427.0],
      "WindowWidth": [22467.0, 22323.0, 22230.0, 22226.0, 22251.0, 22227.0, 22210.0, 22198.0, 22205.0, 22179.0, 22168.0, 22218.0, 22236.0, 22206.0, 22178.0, 22165.0, 22191.0, 22187.0, 22149.0, 22159.0, 22143.0, 22120.0, 22136.0, 22170.0, 22188.0, 22158.0, 22145.0, 22178.0, 22226.0, 22191.0, 22131.0, 22097.0, 22104.0, 22131.0, 22161.0, 22184.0, 22176.0, 22117.0, 22111.0, 22118.0, 22151.0, 22165.0, 22141.0, 22157.0, 22129.0, 22090.0, 22047.0, 22086.0, 22147.0, 22155.0, 22107.0, 22120.0, 22124.0, 22078.0, 22060.0, 22100.0, 22098.0, 22105.0, 22112.0, 22126.0, 22132.0, 22156.0, 22153.0, 22128.0, 22093.0, 22103.0, 22115.0, 22095.0, 22084.0, 22157.0, 22152.0, 22134.0, 22129.0, 22156.0, 22187.0, 22213.0, 22215.0, 22175.0, 22111.0, 22083.0, 22063.0, 22080.0, 22158.0, 22190.0, 22223.0, 22216.0, 22193.0, 22158.0, 22140.0, 22182.0, 22199.0, 22188.0, 22136.0, 22084.0, 22095.0, 22139.0, 22120.0, 22097.0, 22081.0, 22103.0, 22138.0, 22101.0, 22101.0, 22115.0, 22114.0, 22146.0, 22169.0, 22199.0, 22195.0, 22203.0, 22166.0, 22115.0, 22145.0, 22143.0, 22131.0, 22128.0, 22114.0, 22105.0, 22114.0, 22159.0, 22169.0, 22231.0, 22205.0, 22118.0, 22081.0, 22091.0, 22121.0, 22166.0, 22219.0, 22156.0, 22108.0, 22071.0, 22054.0, 22099.0, 22157.0, 22218.0, 22179.0, 22104.0, 22076.0, 22073.0, 22019.0, 22039.0, 22076.0, 22066.0, 22060.0, 22060.0, 22091.0, 22109.0, 22157.0, 22127.0, 22055.0, 22046.0, 22040.0, 22065.0, 22133.0, 22147.0, 22153.0, 22154.0, 22084.0, 22052.0, 22068.0, 22083.0, 22132.0, 22174.0, 22204.0, 22175.0, 22180.0, 22187.0, 22136.0, 22116.0, 22133.0, 22150.0, 22097.0, 22142.0, 22159.0, 22134.0, 22121.0, 22090.0, 22107.0, 22153.0, 22134.0, 22114.0, 22102.0, 22176.0, 22137.0, 22084.0, 22072.0, 22068.0, 22059.0, 22096.0]
    },
    "slices": {}
  }
}