{
  "AcquisitionMatrixPE": 104,
  "AcquisitionNumber": 1,
  "AcquisitionTime": "17:43:5.182500",
  "BandwidthPerPixelPhaseEncode": 17.17,
  "BaseResolution": 104,
  "BodyPartExamined": "BRAIN",
  "CoilString": "HC1-7;NC1_2",
  "ConsistencyInfo": "N4_VE11C_LATEST_20160120",
  "ConversionSoftware": "dcm2niix",
  "ConversionSoftwareVersion": "v1.0.20190902",
  "DerivedVendorReportedEchoSpacing": 0.000560011,
  "DeviceSerialNumber": "167006",
  "DwellTime": 2.1e-06,
  "EchoTime": 0.037,
  "EchoTrainLength": 104,
  "EffectiveEchoSpacing": 0.000560011,
  "FlipAngle": 52,
  "ImageComments": "Unaliased_MB4_PE3_LB",
  "ImageOrientationPatientDICOM": [0.997356, 0.0699097, 0.0198589, -0.0576819, 0.927691, -0.368867],
  "ImageType": [
    "ORIGINAL",
    "PRIMARY",
    "P",
    "MB",
    "ND",
    "MOSAIC"
],
  "ImagingFrequency": 123.259,
  "InPlanePhaseEncodingDirectionDICOM": "COL",
  "InstitutionAddress": "Chemin_Queen-Mary_4565_Montreal_District_CA_H3W_1W5",
  "InstitutionName": "IUGM",
  "InstitutionalDepartmentName": "Department",
  "MRAcquisitionType": "2D",
  "MagneticFieldStrength": 3,
  "Manufacturer": "Siemens",
  "ManufacturersModelName": "Prisma_fit",
  "Modality": "MR",
  "MultibandAccelerationFactor": 4,
  "PartialFourier": 1,
  "PatientPosition": "HFS",
  "PercentPhaseFOV": 100,
  "PhaseEncodingDirection": "j",
  "PhaseEncodingSteps": 104,
  "PhaseResolution": 1,
  "PixelBandwidth": 2290,
  "ProcedureStepDescription": "memory_things",
  "ProtocolName": "func_task-things_run-2",
  "PulseSequenceDetails": "%CustomerSeq%_cmrr_mbep2d_bold",
  "ReceiveCoilActiveElements": "HC1-7;NC1,2",
  "ReceiveCoilName": "HeadNeck_64",
  "ReconMatrixPE": 104,
  "RepetitionTime": 1.49,
  "SAR": 0.0382315,
  "ScanOptions": "FS",
  "ScanningSequence": "EP",
  "SequenceName": "epfid2d1_104",
  "SequenceVariant": "SK_SS",
  "SeriesDescription": "func_task-things_run-2",
  "SeriesNumber": 14,
  "ShimSetting": [637, -7187, -8815, 638, 91, 71, -34, -15],
  "SliceThickness": 2,
  "SliceTiming": [0, 0.7825, 0.0975, 0.88, 0.195, 0.98, 0.2925, 1.0775, 0.39, 1.175, 0.49, 1.2725, 0.5875, 1.37, 0.685, 0, 0.7825, 0.0975, 0.88, 0.195, 0.98, 0.2925, 1.0775, 0.39, 1.175, 0.49, 1.2725, 0.5875, 1.37, 0.685, 0, 0.7825, 0.0975, 0.88, 0.195, 0.98, 0.2925, 1.0775, 0.39, 1.175, 0.49, 1.2725, 0.5875, 1.37, 0.685, 0, 0.7825, 0.0975, 0.88, 0.195, 0.98, 0.2925, 1.0775, 0.39, 1.175, 0.49, 1.2725, 0.5875, 1.37, 0.685],
  "SoftwareVersions": "syngo_MR_E11",
  "SpacingBetweenSlices": 2,
  "StationName": "MRC35049",
  "TaskName": "things",
  "TotalReadoutTime": 0.0576811,
  "TxRefAmp": 248.346,
  "WipMemBlock": "23765b4a-de67-4eab-805e-7d8095477a89||Sequence: R016 ve11c/master r/e634e98; Dec 19 2017 11:00:25 by eja",
  "dcmmeta_affine": [
    [-1.9947112798690796, -0.1153637245297432, 0.0884205773472786, 110.30844116210938],
    [-0.1398194581270218, 1.855381727218628, -0.7334911823272705, -51.308712005615234],
    [0.03971782699227333, 0.737733006477356, 1.858540415763855, -63.14225387573242],
    [0.0, 0.0, 0.0, 1.0]
],
  "dcmmeta_reorient_transform": [
    [0.0, -1.0, 0.0, 103.0],
    [1.0, 0.0, 0.0, 0.0],
    [0.0, 0.0, 1.0, 0.0],
    [0.0, 0.0, 0.0, 1.0]
],
  "dcmmeta_shape": [104, 104, 60, 190],
  "dcmmeta_slice_dim": 2,
  "dcmmeta_version": 0.6,
  "global": {
    "const": {
      "AcquisitionMatrix": [104, 0, 0, 104],
      "AngioFlag": "N",
      "BitsAllocated": 16,
      "BitsStored": 16,
      "BodyPartExamined": "BRAIN",
      "Columns": 832,
      "EchoNumbers": 1,
      "EchoTime": 37.0,
      "EchoTrainLength": 104,
      "FlipAngle": 52.0,
      "HighBit": 15,
      "ImageOrientationPatient": [0.99735563017715, 0.06990973108971, 0.01985891368897, -0.0576818614061, 0.92769084351494, -0.3688665093544],
      "ImagePositionPatient": [-782.50848423165, -866.04882119851, 266.92177633494],
      "ImageType": [
        "ORIGINAL",
        "PRIMARY",
        "P",
        "MB",
        "ND",
        "MOSAIC"
],
      "ImagedNucleus": "1H",
      "ImagingFrequency": 123.258915,
      "InPlanePhaseEncodingDirection": "COL",
      "LargestImagePixelValue": 4095,
      "MRAcquisitionType": "2D",
      "MagneticFieldStrength": 3.0,
      "Manufacturer": "SIEMENS",
      "ManufacturerModelName": "Prisma_fit",
      "Modality": "MR",
      "NumberOfAverages": 1.0,
      "NumberOfPhaseEncodingSteps": 104,
      "PercentPhaseFieldOfView": 100.0,
      "PercentSampling": 100.0,
      "PerformedProcedureStepStartTime": "164651.445000",
      "PhotometricInterpretation": "MONOCHROME2",
      "PixelBandwidth": 2290.0,
      "PixelRepresentation": 0,
      "PixelSpacing": [2.0, 2.0],
      "ProtocolName": "func_task-things_run-2",
      "RepetitionTime": 1490.0,
      "RescaleIntercept": -4096.0,
      "RescaleSlope": 2.0,
      "RescaleType": "US",
      "Rows": 832,
      "SAR": 0.03823147389647,
      "SamplesPerPixel": 1,
      "ScanOptions": "FS",
      "ScanningSequence": "EP",
      "SequenceName": "epfid2d1_104",
      "SequenceVariant": [
        "SK",
        "SS"
],
      "SeriesDescription": "func_task-things_run-2",
      "SeriesNumber": 14,
      "SeriesTime": "174432.184000",
      "SliceLocation": -34.982203929389,
      "SliceThickness": 2.0,
      "SmallestImagePixelValue": 0,
      "SoftwareVersions": "syngo MR E11",
      "SpacingBetweenSlices": 1.9999999591307,
      "SpecificCharacterSet": "ISO_IR 100",
      "StudyID": "1",
      "StudyTime": "164651.331000",
      "TransmitCoilName": "Body",
      "VariableFlipAngleFlag": "N",
      "WindowCenterWidthExplanation": "Algo1",
      "dBdt": 0.0},
    "slices": {}
  },
  "time": {
    "samples": {
      "AcquisitionNumber": [1, 2, 3, 4, 5, 6, 7, 8, 9, 10, 11, 12, 13, 14, 15, 16, 17, 18, 19, 20, 21, 22, 23, 24, 25, 26, 27, 28, 29, 30, 31, 32, 33, 34, 35, 36, 37, 38, 39, 40, 41, 42, 43, 44, 45, 46, 47, 48, 49, 50, 51, 52, 53, 54, 55, 56, 57, 58, 59, 60, 61, 62, 63, 64, 65, 66, 67, 68, 69, 70, 71, 72, 73, 74, 75, 76, 77, 78, 79, 80, 81, 82, 83, 84, 85, 86, 87, 88, 89, 90, 91, 92, 93, 94, 95, 96, 97, 98, 99, 100, 101, 102, 103, 104, 105, 106, 107, 108, 109, 110, 111, 112, 113, 114, 115, 116, 117, 118, 119, 120, 121, 122, 123, 124, 125, 126, 127, 128, 129, 130, 131, 132, 133, 134, 135, 136, 137, 138, 139, 140, 141, 142, 143, 144, 145, 146, 147, 148, 149, 150, 151, 152, 153, 154, 155, 156, 157, 158, 159, 160, 161, 162, 163, 164, 165, 166, 167, 168, 169, 170, 171, 172, 173, 174, 175, 176, 177, 178, 179, 180, 181, 182, 183, 184, 185, 186, 187, 188, 189, 190],
      "AcquisitionTime": ["174305.182500", "174306.672500", "174308.162500", "174309.652500", "174311.142500", "174312.632500", "174314.122500", "174315.612500", "174317.102500", "174318.592500", "174320.082500", "174321.572500", "174323.062500", "174324.552500", "174326.042500", "174327.532500", "174329.022500", "174330.512500", "174332.002500", "174333.492500", "174334.982500", "174336.472500", "174337.962500", "174339.452500", "174340.942500", "174342.432500", "174343.922500", "174345.412500", "174346.902500", "174348.392500", "174349.882500", "174351.372500", "174352.862500", "174354.352500", "174355.842500", "174357.332500", "174358.822500", "174400.312500", "174401.802500", "174403.292500", "174404.782500", "174406.272500", "174407.762500", "174409.252500", "174410.742500", "174412.232500", "174413.722500", "174415.212500", "174416.702500", "174418.192500", "174419.682500", "174421.172500", "174422.662500", "174424.152500", "174425.642500", "174427.132500", "174428.622500", "174430.112500", "174431.602500", "174433.092500", "174434.582500", "174436.072500", "174437.562500", "174439.052500", "174440.542500", "174442.032500", "174443.522500", "174445.012500", "174446.502500", "174447.992500", "174449.482500", "174450.972500", "174452.462500", "174453.952500", "174455.442500", "174456.932500", "174458.422500", "174459.912500", "174501.402500", "174502.892500", "174504.382500", "174505.872500", "174507.362500", "174508.852500", "174510.342500", "174511.832500", "174513.322500", "174514.812500", "174516.302500", "174517.792500", "174519.282500", "174520.772500", "174522.262500", "174523.752500", "174525.242500", "174526.732500", "174528.222500", "174529.712500", "174531.202500", "174532.692500", "174534.182500", "174535.672500", "174537.162500", "174538.652500", "174540.142500", "174541.632500", "174543.122500", "174544.612500", "174546.102500", "174547.592500", "174549.082500", "174550.572500", "174552.062500", "174553.552500", "174555.042500", "174556.532500", "174558.022500", "174559.512500", "174601.002500", "174602.492500", "174603.982500", "174605.472500", "174606.962500", "174608.452500", "174609.942500", "174611.432500", "174612.922500", "174614.412500", "174615.902500", "174617.392500", "174618.882500", "174620.372500", "174621.862500", "174623.352500", "174624.842500", "174626.332500", "174627.822500", "174629.312500", "174630.802500", "174632.292500", "174633.782500", "174635.272500", "174636.762500", "174638.252500", "174639.742500", "174641.232500", "174642.722500", "174644.212500", "174645.702500", "174647.192500", "174648.682500", "174650.172500", "174651.662500", "174653.152500", "174654.642500", "174656.132500", "174657.622500", "174659.112500", "174700.602500", "174702.092500", "174703.582500", "174705.072500", "174706.562500", "174708.052500", "174709.542500", "174711.032500", "174712.522500", "174714.012500", "174715.502500", "174716.992500", "174718.482500", "174719.972500", "174721.462500", "174722.952500", "174724.442500", "174725.932500", "174727.422500", "174728.912500", "174730.402500", "174731.892500", "174733.382500", "174734.872500", "174736.362500", "174737.852500", "174739.342500", "174740.832500", "174742.322500", "174743.812500", "174745.302500", "174746.792500"],
      "ContentTime": ["174432.186000", "174432.189000", "174432.192000", "174432.195000", "174432.197000", "174432.199000", "174432.202000", "174432.204000", "174432.207000", "174432.209000", "174432.212000", "174432.214000", "174432.217000", "174432.219000", "174432.222000", "174432.224000", "174432.227000", "174432.229000", "174432.232000", "174432.234000", "174432.237000", "174432.239000", "174432.242000", "174432.244000", "174432.254000", "174432.256000", "174432.259000", "174432.261000", "174432.264000", "174432.266000", "174432.269000", "174432.271000", "174432.274000", "174451.499000", "174451.502000", "174451.504000", "174451.507000", "174451.509000", "174451.512000", "174451.514000", "174451.517000", "174451.520000", "174451.522000", "174451.525000", "174451.527000", "174451.530000", "174451.532000", "174451.535000", "174451.537000", "174451.540000", "174451.542000", "174451.545000", "174451.547000", "174511.482000", "174511.485000", "174511.487000", "174511.490000", "174511.492000", "174511.495000", "174511.497000", "174511.500000", "174511.502000", "174511.505000", "174511.507000", "174511.510000", "174511.512000", "174511.515000", "174511.517000", "174511.520000", "174511.523000", "174511.525000", "174511.527000", "174511.530000", "174511.532000", "174531.487000", "174531.489000", "174531.492000", "174531.495000", "174531.497000", "174531.500000", "174531.502000", "174531.505000", "174531.507000", "174531.509000", "174531.512000", "174531.515000", "174531.517000", "174531.519000", "174531.522000", "174531.525000", "174531.527000", "174531.530000", "174531.532000", "174531.535000", "174611.518000", "174611.521000", "174611.523000", "174611.526000", "174611.528000", "174611.531000", "174611.533000", "174611.536000", "174611.539000", "174611.541000", "174611.544000", "174611.546000", "174611.549000", "174611.551000", "174611.554000", "174611.556000", "174611.559000", "174611.561000", "174611.564000", "174611.566000", "174611.569000", "174611.572000", "174611.574000", "174611.577000", "174611.579000", "174611.582000", "174611.584000", "174611.587000", "174611.589000", "174611.592000", "174651.502000", "174651.505000", "174651.508000", "174651.510000", "174651.513000", "174651.515000", "174651.518000", "174651.520000", "174651.523000", "174651.525000", "174651.528000", "174651.530000", "174651.533000", "174651.535000", "174651.538000", "174651.540000", "174651.543000", "174651.545000", "174651.548000", "174651.550000", "174651.553000", "174651.555000", "174651.558000", "174651.560000", "174651.563000", "174651.565000", "174651.568000", "174731.511000", "174731.514000", "174731.516000", "174731.519000", "174731.521000", "174731.524000", "174731.527000", "174731.529000", "174731.532000", "174731.534000", "174731.537000", "174731.539000", "174731.542000", "174731.544000", "174731.547000", "174731.549000", "174731.552000", "174731.554000", "174731.557000", "174731.559000", "174731.562000", "174731.564000", "174731.567000", "174731.569000", "174731.572000", "174731.574000", "174731.577000", "174748.634000", "174748.637000", "174748.639000", "174748.642000", "174748.645000", "174748.648000", "174748.650000", "174748.653000", "174748.655000", "174748.658000", "174748.660000", "174748.663000"],
      "InstanceCreationTime": ["174432.186000", "174432.189000", "174432.192000", "174432.195000", "174432.197000", "174432.199000", "174432.202000", "174432.204000", "174432.207000", "174432.209000", "174432.212000", "174432.214000", "174432.217000", "174432.219000", "174432.222000", "174432.224000", "174432.227000", "174432.229000", "174432.232000", "174432.234000", "174432.237000", "174432.239000", "174432.242000", "174432.244000", "174432.254000", "174432.256000", "174432.259000", "174432.261000", "174432.264000", "174432.266000", "174432.269000", "174432.271000", "174432.274000", "174451.499000", "174451.502000", "174451.504000", "174451.507000", "174451.509000", "174451.512000", "174451.514000", "174451.517000", "174451.520000", "174451.522000", "174451.525000", "174451.527000", "174451.530000", "174451.532000", "174451.535000", "174451.537000", "174451.540000", "174451.542000", "174451.545000", "174451.547000", "174511.482000", "174511.485000", "174511.487000", "174511.490000", "174511.492000", "174511.495000", "174511.497000", "174511.500000", "174511.502000", "174511.505000", "174511.507000", "174511.510000", "174511.512000", "174511.515000", "174511.517000", "174511.520000", "174511.523000", "174511.525000", "174511.527000", "174511.530000", "174511.532000", "174531.487000", "174531.489000", "174531.492000", "174531.495000", "174531.497000", "174531.500000", "174531.502000", "174531.505000", "174531.507000", "174531.509000", "174531.512000", "174531.515000", "174531.517000", "174531.519000", "174531.522000", "174531.525000", "174531.527000", "174531.530000", "174531.532000", "174531.535000", "174611.518000", "174611.521000", "174611.523000", "174611.526000", "174611.528000", "174611.531000", "174611.533000", "174611.536000", "174611.539000", "174611.541000", "174611.544000", "174611.546000", "174611.549000", "174611.551000", "174611.554000", "174611.556000", "174611.559000", "174611.561000", "174611.564000", "174611.566000", "174611.569000", "174611.572000", "174611.574000", "174611.577000", "174611.579000", "174611.582000", "174611.584000", "174611.587000", "174611.589000", "174611.592000", "174651.502000", "174651.505000", "174651.508000", "174651.510000", "174651.513000", "174651.515000", "174651.518000", "174651.520000", "174651.523000", "174651.525000", "174651.528000", "174651.530000", "174651.533000", "174651.535000", "174651.538000", "174651.540000", "174651.543000", "174651.545000", "174651.548000", "174651.550000", "174651.553000", "174651.555000", "174651.558000", "174651.560000", "174651.563000", "174651.565000", "174651.568000", "174731.511000", "174731.514000", "174731.516000", "174731.519000", "174731.521000", "174731.524000", "174731.527000", "174731.529000", "174731.532000", "174731.534000", "174731.537000", "174731.539000", "174731.542000", "174731.544000", "174731.547000", "174731.549000", "174731.552000", "174731.554000", "174731.557000", "174731.559000", "174731.562000", "174731.564000", "174731.567000", "174731.569000", "174731.572000", "174731.574000", "174731.577000", "174748.634000", "174748.637000", "174748.639000", "174748.642000", "174748.645000", "174748.648000", "174748.650000", "174748.653000", "174748.655000", "174748.658000", "174748.660000", "174748.663000"],
      "InstanceNumber": [1, 2, 3, 4, 5, 6, 7, 8, 9, 10, 11, 12, 13, 14, 15, 16, 17, 18, 19, 20, 21, 22, 23, 24, 25, 26, 27, 28, 29, 30, 31, 32, 33, 34, 35, 36, 37, 38, 39, 40, 41, 42, 43, 44, 45, 46, 47, 48, 49, 50, 51, 52, 53, 54, 55, 56, 57, 58, 59, 60, 61, 62, 63, 64, 65, 66, 67, 68, 69, 70, 71, 72, 73, 74, 75, 76, 77, 78, 79, 80, 81, 82, 83, 84, 85, 86, 87, 88, 89, 90, 91, 92, 93, 94, 95, 96, 97, 98, 99, 100, 101, 102, 103, 104, 105, 106, 107, 108, 109, 110, 111, 112, 113, 114, 115, 116, 117, 118, 119, 120, 121, 122, 123, 124, 125, 126, 127, 128, 129, 130, 131, 132, 133, 134, 135, 136, 137, 138, 139, 140, 141, 142, 143, 144, 145, 146, 147, 148, 149, 150, 151, 152, 153, 154, 155, 156, 157, 158, 159, 160, 161, 162, 163, 164, 165, 166, 167, 168, 169, 170, 171, 172, 173, 174, 175, 176, 177, 178, 179, 180, 181, 182, 183, 184, 185, 186, 187, 188, 189, 190],
      "WindowCenter": [4870.0, 4876.0, 4848.0, 4850.0, 4852.0, 4874.0, 4870.0, 4870.0, 4870.0, 4852.0, 4872.0, 4868.0, 4872.0, 4872.0, 4852.0, 4848.0, 4852.0, 4852.0, 4874.0, 4872.0, 4846.0, 4870.0, 4872.0, 4848.0, 4850.0, 4852.0, 4848.0, 4852.0, 4872.0, 4870.0, 4844.0, 4868.0, 4862.0, 4868.0, 4854.0, 4824.0, 4826.0, 4852.0, 4878.0, 4866.0, 4866.0, 4868.0, 4874.0, 4870.0, 4874.0, 4856.0, 4852.0, 4850.0, 4872.0, 4872.0, 4866.0, 4868.0, 4864.0, 4870.0, 4874.0, 4850.0, 4828.0, 4850.0, 4856.0, 4876.0, 4866.0, 4872.0, 4872.0, 4878.0, 4876.0, 4874.0, 4878.0, 4852.0, 4854.0, 4878.0, 4876.0, 4878.0, 4874.0, 4876.0, 4872.0, 4876.0, 4876.0, 4874.0, 4878.0, 4876.0, 4874.0, 4874.0, 4874.0, 4874.0, 4874.0, 4876.0, 4874.0, 4878.0, 4876.0, 4872.0, 4872.0, 4878.0, 4878.0, 4868.0, 4866.0, 4868.0, 4850.0, 4848.0, 4828.0, 4850.0, 4854.0, 4872.0, 4864.0, 4866.0, 4870.0, 4876.0, 4876.0, 4852.0, 4854.0, 4854.0, 4852.0, 4876.0, 4876.0, 4876.0, 4876.0, 4874.0, 4874.0, 4874.0, 4854.0, 4874.0, 4876.0, 4878.0, 4854.0, 4876.0, 4874.0, 4874.0, 4876.0, 4874.0, 4874.0, 4870.0, 4872.0, 4850.0, 4850.0, 4870.0, 4874.0, 4870.0, 4850.0, 4876.0, 4872.0, 4870.0, 4872.0, 4872.0, 4868.0, 4874.0, 4852.0, 4854.0, 4874.0, 4850.0, 4876.0, 4872.0, 4874.0, 4874.0, 4874.0, 4848.0, 4848.0, 4872.0, 4874.0, 4874.0, 4874.0, 4874.0, 4872.0, 4852.0, 4874.0, 4872.0, 4850.0, 4876.0, 4874.0, 4852.0, 4876.0, 4874.0, 4874.0, 4872.0, 4874.0, 4874.0, 4878.0, 4874.0, 4872.0, 4872.0, 4874.0, 4848.0, 4848.0, 4870.0, 4864.0, 4870.0, 4870.0, 4870.0, 4872.0, 4850.0, 4870.0, 4848.0],
      "WindowWidth": [18674.0, 18664.0, 18622.0, 18622.0, 18632.0, 18668.0, 18676.0, 18678.0, 18670.0, 18642.0, 18676.0, 18676.0, 18682.0, 18664.0, 18626.0, 18618.0, 18628.0, 18636.0, 18670.0, 18668.0, 18642.0, 18678.0, 18678.0, 18642.0, 18638.0, 18640.0, 18640.0, 18638.0, 18672.0, 18682.0, 18644.0, 18678.0, 18680.0, 18674.0, 18630.0, 18586.0, 18586.0, 18624.0, 18672.0, 18674.0, 18672.0, 18670.0, 18678.0, 18674.0, 18668.0, 18628.0, 18624.0, 18628.0, 18668.0, 18680.0, 18678.0, 18678.0, 18680.0, 18674.0, 18660.0, 18614.0, 18582.0, 18618.0, 18630.0, 18682.0, 18678.0, 18674.0, 18668.0, 18674.0, 18678.0, 18670.0, 18668.0, 18636.0, 18634.0, 18674.0, 18672.0, 18678.0, 18672.0, 18680.0, 18674.0, 18674.0, 18674.0, 18676.0, 18676.0, 18670.0, 18668.0, 18674.0, 18670.0, 18668.0, 18668.0, 18676.0, 18672.0, 18670.0, 18672.0, 18674.0, 18678.0, 18672.0, 18674.0, 18682.0, 18680.0, 18680.0, 18630.0, 18614.0, 18584.0, 18618.0, 18626.0, 18680.0, 18682.0, 18676.0, 18680.0, 18682.0, 18670.0, 18626.0, 18628.0, 18626.0, 18632.0, 18674.0, 18674.0, 18674.0, 18674.0, 18676.0, 18672.0, 18666.0, 18636.0, 18670.0, 18672.0, 18672.0, 18638.0, 18668.0, 18670.0, 18674.0, 18672.0, 18680.0, 18678.0, 18674.0, 18668.0, 18632.0, 18636.0, 18672.0, 18674.0, 18670.0, 18636.0, 18674.0, 18670.0, 18668.0, 18674.0, 18672.0, 18676.0, 18674.0, 18640.0, 18630.0, 18672.0, 18634.0, 18670.0, 18672.0, 18674.0, 18670.0, 18676.0, 18640.0, 18642.0, 18668.0, 18668.0, 18672.0, 18670.0, 18670.0, 18672.0, 18640.0, 18676.0, 18676.0, 18644.0, 18678.0, 18670.0, 18640.0, 18674.0, 18668.0, 18672.0, 18674.0, 18666.0, 18678.0, 18678.0, 18672.0, 18672.0, 18672.0, 18670.0, 18642.0, 18640.0, 18674.0, 18672.0, 18676.0, 18676.0, 18676.0, 18672.0, 18644.0, 18670.0, 18640.0]
    },
    "slices": {}
  }
}