{
  "AcquisitionMatrixPE": 104,
  "AcquisitionNumber": 1,
  "AcquisitionTime": "17:49:39.610000",
  "BandwidthPerPixelPhaseEncode": 17.17,
  "BaseResolution": 104,
  "BodyPartExamined": "BRAIN",
  "CoilString": "HC1-7;NC1_2",
  "ConsistencyInfo": "N4_VE11C_LATEST_20160120",
  "ConversionSoftware": "dcm2niix",
  "ConversionSoftwareVersion": "v1.0.20190902",
  "DerivedVendorReportedEchoSpacing": 0.000560011,
  "DeviceSerialNumber": "167006",
  "DwellTime": 2.1e-06,
  "EchoTime": 0.037,
  "EchoTrainLength": 104,
  "EffectiveEchoSpacing": 0.000560011,
  "FlipAngle": 52,
  "ImageComments": "Unaliased_MB4_PE3_LB",
  "ImageOrientationPatientDICOM": [0.997356, 0.0699097, 0.0198589, -0.0576819, 0.927691, -0.368867],
  "ImageType": [
    "ORIGINAL",
    "PRIMARY",
    "M",
    "MB",
    "ND",
    "MOSAIC"
],
  "ImagingFrequency": 123.259,
  "InPlanePhaseEncodingDirectionDICOM": "COL",
  "InstitutionAddress": "Chemin_Queen-Mary_4565_Montreal_District_CA_H3W_1W5",
  "InstitutionName": "IUGM",
  "InstitutionalDepartmentName": "Department",
  "MRAcquisitionType": "2D",
  "MagneticFieldStrength": 3,
  "Manufacturer": "Siemens",
  "ManufacturersModelName": "Prisma_fit",
  "Modality": "MR",
  "MultibandAccelerationFactor": 4,
  "PartialFourier": 1,
  "PatientPosition": "HFS",
  "PercentPhaseFOV": 100,
  "PhaseEncodingDirection": "j",
  "PhaseEncodingSteps": 104,
  "PhaseResolution": 1,
  "PixelBandwidth": 2290,
  "ProcedureStepDescription": "memory_things",
  "ProtocolName": "func_task-things_run-3",
  "PulseSequenceDetails": "%CustomerSeq%_cmrr_mbep2d_bold",
  "ReceiveCoilActiveElements": "HC1-7;NC1,2",
  "ReceiveCoilName": "HeadNeck_64",
  "ReconMatrixPE": 104,
  "RepetitionTime": 1.49,
  "SAR": 0.0382315,
  "ScanOptions": "FS",
  "ScanningSequence": "EP",
  "SequenceName": "epfid2d1_104",
  "SequenceVariant": "SK_SS",
  "SeriesDescription": "func_task-things_run-3",
  "SeriesNumber": 16,
  "ShimSetting": [637, -7187, -8815, 638, 91, 71, -34, -15],
  "SliceThickness": 2,
  "SliceTiming": [0, 0.785, 0.0975, 0.8825, 0.1975, 0.98, 0.295, 1.0775, 0.3925, 1.1775, 0.49, 1.275, 0.5875, 1.3725, 0.6875, 0, 0.785, 0.0975, 0.8825, 0.1975, 0.98, 0.295, 1.0775, 0.3925, 1.1775, 0.49, 1.275, 0.5875, 1.3725, 0.6875, 0, 0.785, 0.0975, 0.8825, 0.1975, 0.98, 0.295, 1.0775, 0.3925, 1.1775, 0.49, 1.275, 0.5875, 1.3725, 0.6875, 0, 0.785, 0.0975, 0.8825, 0.1975, 0.98, 0.295, 1.0775, 0.3925, 1.1775, 0.49, 1.275, 0.5875, 1.3725, 0.6875],
  "SoftwareVersions": "syngo_MR_E11",
  "SpacingBetweenSlices": 2,
  "StationName": "MRC35049",
  "TaskName": "things",
  "TotalReadoutTime": 0.0576811,
  "TxRefAmp": 248.346,
  "WipMemBlock": "bc5b836c-a9d4-449b-bf75-90ef4d453d6a||Sequence: R016 ve11c/master r/e634e98; Dec 19 2017 11:00:25 by eja",
  "dcmmeta_affine": [
    [-1.9947112798690796, -0.1153637245297432, 0.0884205773472786, 110.30844116210938],
    [-0.1398194581270218, 1.855381727218628, -0.7334911823272705, -51.308712005615234],
    [0.03971782699227333, 0.737733006477356, 1.858540415763855, -63.14225387573242],
    [0.0, 0.0, 0.0, 1.0]
],
  "dcmmeta_reorient_transform": [
    [0.0, -1.0, 0.0, 103.0],
    [1.0, 0.0, 0.0, 0.0],
    [0.0, 0.0, 1.0, 0.0],
    [0.0, 0.0, 0.0, 1.0]
],
  "dcmmeta_shape": [104, 104, 60, 190],
  "dcmmeta_slice_dim": 2,
  "dcmmeta_version": 0.6,
  "global": {
    "const": {
      "AcquisitionMatrix": [104, 0, 0, 104],
      "AngioFlag": "N",
      "BitsAllocated": 16,
      "BitsStored": 16,
      "BodyPartExamined": "BRAIN",
      "Columns": 832,
      "EchoNumbers": 1,
      "EchoTime": 37.0,
      "EchoTrainLength": 104,
      "FlipAngle": 52.0,
      "HighBit": 15,
      "ImageOrientationPatient": [0.99735563017715, 0.06990973108971, 0.01985891368897, -0.0576818614061, 0.92769084351494, -0.3688665093544],
      "ImagePositionPatient": [-782.50848423165, -866.04882119851, 266.92177633494],
      "ImageType": [
        "ORIGINAL",
        "PRIMARY",
        "M",
        "MB",
        "ND",
        "MOSAIC"
],
      "ImagedNucleus": "1H",
      "ImagingFrequency": 123.258917,
      "InPlanePhaseEncodingDirection": "COL",
      "MRAcquisitionType": "2D",
      "MagneticFieldStrength": 3.0,
      "Manufacturer": "SIEMENS",
      "ManufacturerModelName": "Prisma_fit",
      "Modality": "MR",
      "NumberOfAverages": 1.0,
      "NumberOfPhaseEncodingSteps": 104,
      "PercentPhaseFieldOfView": 100.0,
      "PercentSampling": 100.0,
      "PerformedProcedureStepStartTime": "164651.445000",
      "PhotometricInterpretation": "MONOCHROME2",
      "PixelBandwidth": 2290.0,
      "PixelRepresentation": 0,
      "PixelSpacing": [2.0, 2.0],
      "ProtocolName": "func_task-things_run-3",
      "RepetitionTime": 1490.0,
      "Rows": 832,
      "SAR": 0.03823147389647,
      "SamplesPerPixel": 1,
      "ScanOptions": "FS",
      "ScanningSequence": "EP",
      "SequenceName": "epfid2d1_104",
      "SequenceVariant": [
        "SK",
        "SS"
],
      "SeriesDescription": "func_task-things_run-3",
      "SeriesNumber": 16,
      "SeriesTime": "175039.872000",
      "SliceLocation": -34.982203929389,
      "SliceThickness": 2.0,
      "SmallestImagePixelValue": 0,
      "SoftwareVersions": "syngo MR E11",
      "SpacingBetweenSlices": 1.9999999591307,
      "SpecificCharacterSet": "ISO_IR 100",
      "StudyID": "1",
      "StudyTime": "164651.331000",
      "TransmitCoilName": "Body",
      "VariableFlipAngleFlag": "N",
      "WindowCenterWidthExplanation": "Algo1",
      "dBdt": 0.0},
    "slices": {}
  },
  "time": {
    "samples": {
      "AcquisitionNumber": [1, 2, 3, 4, 5, 6, 7, 8, 9, 10, 11, 12, 13, 14, 15, 16, 17, 18, 19, 20, 21, 22, 23, 24, 25, 26, 27, 28, 29, 30, 31, 32, 33, 34, 35, 36, 37, 38, 39, 40, 41, 42, 43, 44, 45, 46, 47, 48, 49, 50, 51, 52, 53, 54, 55, 56, 57, 58, 59, 60, 61, 62, 63, 64, 65, 66, 67, 68, 69, 70, 71, 72, 73, 74, 75, 76, 77, 78, 79, 80, 81, 82, 83, 84, 85, 86, 87, 88, 89, 90, 91, 92, 93, 94, 95, 96, 97, 98, 99, 100, 101, 102, 103, 104, 105, 106, 107, 108, 109, 110, 111, 112, 113, 114, 115, 116, 117, 118, 119, 120, 121, 122, 123, 124, 125, 126, 127, 128, 129, 130, 131, 132, 133, 134, 135, 136, 137, 138, 139, 140, 141, 142, 143, 144, 145, 146, 147, 148, 149, 150, 151, 152, 153, 154, 155, 156, 157, 158, 159, 160, 161, 162, 163, 164, 165, 166, 167, 168, 169, 170, 171, 172, 173, 174, 175, 176, 177, 178, 179, 180, 181, 182, 183, 184, 185, 186, 187, 188, 189, 190],
      "AcquisitionTime": ["174939.610000", "174941.100000", "174942.590000", "174944.080000", "174945.570000", "174947.060000", "174948.550000", "174950.040000", "174951.530000", "174953.020000", "174954.510000", "174956.000000", "174957.490000", "174958.980000", "175000.470000", "175001.960000", "175003.450000", "175004.940000", "175006.430000", "175007.920000", "175009.410000", "175010.900000", "175012.390000", "175013.880000", "175015.370000", "175016.860000", "175018.350000", "175019.840000", "175021.330000", "175022.820000", "175024.310000", "175025.800000", "175027.290000", "175028.780000", "175030.270000", "175031.760000", "175033.250000", "175034.740000", "175036.230000", "175037.720000", "175039.210000", "175040.700000", "175042.190000", "175043.680000", "175045.170000", "175046.660000", "175048.150000", "175049.640000", "175051.130000", "175052.620000", "175054.110000", "175055.600000", "175057.090000", "175058.580000", "175100.070000", "175101.560000", "175103.050000", "175104.540000", "175106.030000", "175107.520000", "175109.010000", "175110.500000", "175111.990000", "175113.480000", "175114.970000", "175116.460000", "175117.950000", "175119.440000", "175120.930000", "175122.420000", "175123.910000", "175125.400000", "175126.890000", "175128.380000", "175129.870000", "175131.360000", "175132.850000", "175134.340000", "175135.830000", "175137.320000", "175138.810000", "175140.300000", "175141.790000", "175143.280000", "175144.770000", "175146.260000", "175147.750000", "175149.240000", "175150.730000", "175152.220000", "175153.710000", "175155.200000", "175156.690000", "175158.180000", "175159.670000", "175201.160000", "175202.650000", "175204.140000", "175205.630000", "175207.120000", "175208.610000", "175210.100000", "175211.590000", "175213.080000", "175214.570000", "175216.060000", "175217.550000", "175219.040000", "175220.530000", "175222.020000", "175223.510000", "175225.000000", "175226.490000", "175227.980000", "175229.470000", "175230.960000", "175232.450000", "175233.940000", "175235.430000", "175236.920000", "175238.410000", "175239.900000", "175241.390000", "175242.880000", "175244.370000", "175245.860000", "175247.350000", "175248.840000", "175250.330000", "175251.820000", "175253.310000", "175254.800000", "175256.290000", "175257.780000", "175259.270000", "175300.760000", "175302.250000", "175303.740000", "175305.230000", "175306.720000", "175308.210000", "175309.700000", "175311.190000", "175312.680000", "175314.170000", "175315.660000", "175317.150000", "175318.640000", "175320.130000", "175321.620000", "175323.110000", "175324.600000", "175326.090000", "175327.580000", "175329.070000", "175330.560000", "175332.050000", "175333.540000", "175335.030000", "175336.520000", "175338.010000", "175339.500000", "175340.990000", "175342.480000", "175343.970000", "175345.460000", "175346.950000", "175348.440000", "175349.930000", "175351.420000", "175352.910000", "175354.400000", "175355.890000", "175357.380000", "175358.870000", "175400.360000", "175401.850000", "175403.340000", "175404.830000", "175406.320000", "175407.810000", "175409.300000", "175410.790000", "175412.280000", "175413.770000", "175415.260000", "175416.750000", "175418.240000", "175419.730000", "175421.220000"],
      "ContentTime": ["175039.875000", "175039.878000", "175039.882000", "175039.885000", "175039.888000", "175059.843000", "175059.847000", "175059.850000", "175059.853000", "175059.856000", "175059.860000", "175059.863000", "175059.866000", "175059.869000", "175059.873000", "175059.876000", "175059.885000", "175059.888000", "175059.892000", "175059.895000", "175059.898000", "175059.901000", "175059.905000", "175059.908000", "175059.911000", "175119.843000", "175119.847000", "175119.851000", "175119.855000", "175119.858000", "175119.861000", "175119.864000", "175119.868000", "175119.871000", "175119.874000", "175119.877000", "175119.881000", "175119.893000", "175119.896000", "175119.899000", "175119.903000", "175119.906000", "175119.909000", "175119.912000", "175119.916000", "175139.843000", "175139.847000", "175139.850000", "175139.853000", "175139.856000", "175139.860000", "175139.863000", "175139.866000", "175139.869000", "175139.873000", "175139.876000", "175139.879000", "175139.882000", "175139.885000", "175139.889000", "175139.892000", "175139.895000", "175139.899000", "175139.902000", "175139.905000", "175139.908000", "175159.842000", "175159.846000", "175159.849000", "175159.852000", "175159.855000", "175159.859000", "175159.862000", "175159.865000", "175159.868000", "175159.872000", "175159.875000", "175159.878000", "175159.881000", "175159.885000", "175159.888000", "175159.891000", "175159.894000", "175159.898000", "175159.901000", "175159.914000", "175219.842000", "175219.846000", "175219.849000", "175219.852000", "175219.855000", "175219.859000", "175219.862000", "175219.865000", "175219.868000", "175219.872000", "175219.875000", "175219.878000", "175219.882000", "175219.885000", "175219.888000", "175219.891000", "175219.895000", "175219.898000", "175219.901000", "175219.904000", "175259.842000", "175259.846000", "175259.849000", "175259.852000", "175259.856000", "175259.859000", "175259.862000", "175259.866000", "175259.869000", "175259.872000", "175259.876000", "175259.880000", "175259.883000", "175259.887000", "175259.890000", "175259.893000", "175259.897000", "175259.900000", "175259.903000", "175259.907000", "175259.927000", "175259.930000", "175259.934000", "175259.938000", "175259.941000", "175259.944000", "175259.948000", "175259.952000", "175339.843000", "175339.847000", "175339.850000", "175339.853000", "175339.857000", "175339.860000", "175339.863000", "175339.867000", "175339.870000", "175339.873000", "175339.876000", "175339.880000", "175339.883000", "175339.887000", "175339.890000", "175339.894000", "175339.897000", "175339.900000", "175339.903000", "175339.907000", "175339.911000", "175339.915000", "175339.918000", "175339.921000", "175339.924000", "175339.928000", "175419.842000", "175419.846000", "175419.849000", "175419.852000", "175419.856000", "175419.859000", "175419.862000", "175419.865000", "175419.869000", "175419.872000", "175419.875000", "175419.879000", "175419.882000", "175419.885000", "175419.888000", "175419.892000", "175419.895000", "175419.898000", "175419.902000", "175419.905000", "175419.908000", "175419.912000", "175419.915000", "175419.918000", "175419.941000", "175419.944000", "175419.947000", "175423.307000", "175423.310000", "175423.314000"],
      "InstanceCreationTime": ["175039.875000", "175039.878000", "175039.882000", "175039.885000", "175039.888000", "175059.843000", "175059.847000", "175059.850000", "175059.853000", "175059.856000", "175059.860000", "175059.863000", "175059.866000", "175059.869000", "175059.873000", "175059.876000", "175059.885000", "175059.888000", "175059.892000", "175059.895000", "175059.898000", "175059.901000", "175059.905000", "175059.908000", "175059.911000", "175119.843000", "175119.847000", "175119.851000", "175119.855000", "175119.858000", "175119.861000", "175119.864000", "175119.868000", "175119.871000", "175119.874000", "175119.877000", "175119.881000", "175119.893000", "175119.896000", "175119.899000", "175119.903000", "175119.906000", "175119.909000", "175119.912000", "175119.916000", "175139.843000", "175139.847000", "175139.850000", "175139.853000", "175139.856000", "175139.860000", "175139.863000", "175139.866000", "175139.869000", "175139.873000", "175139.876000", "175139.879000", "175139.882000", "175139.885000", "175139.889000", "175139.892000", "175139.895000", "175139.899000", "175139.902000", "175139.905000", "175139.908000", "175159.842000", "175159.846000", "175159.849000", "175159.852000", "175159.855000", "175159.859000", "175159.862000", "175159.865000", "175159.868000", "175159.872000", "175159.875000", "175159.878000", "175159.881000", "175159.885000", "175159.888000", "175159.891000", "175159.894000", "175159.898000", "175159.901000", "175159.914000", "175219.842000", "175219.846000", "175219.849000", "175219.852000", "175219.855000", "175219.859000", "175219.862000", "175219.865000", "175219.868000", "175219.872000", "175219.875000", "175219.878000", "175219.882000", "175219.885000", "175219.888000", "175219.891000", "175219.895000", "175219.898000", "175219.901000", "175219.904000", "175259.842000", "175259.846000", "175259.849000", "175259.852000", "175259.856000", "175259.859000", "175259.862000", "175259.866000", "175259.869000", "175259.872000", "175259.876000", "175259.880000", "175259.883000", "175259.887000", "175259.890000", "175259.893000", "175259.897000", "175259.900000", "175259.903000", "175259.907000", "175259.927000", "175259.930000", "175259.934000", "175259.938000", "175259.941000", "175259.944000", "175259.948000", "175259.952000", "175339.843000", "175339.847000", "175339.850000", "175339.853000", "175339.857000", "175339.860000", "175339.863000", "175339.867000", "175339.870000", "175339.873000", "175339.876000", "175339.880000", "175339.883000", "175339.887000", "175339.890000", "175339.894000", "175339.897000", "175339.900000", "175339.903000", "175339.907000", "175339.911000", "175339.915000", "175339.918000", "175339.921000", "175339.924000", "175339.928000", "175419.842000", "175419.846000", "175419.849000", "175419.852000", "175419.856000", "175419.859000", "175419.862000", "175419.865000", "175419.869000", "175419.872000", "175419.875000", "175419.879000", "175419.882000", "175419.885000", "175419.888000", "175419.892000", "175419.895000", "175419.898000", "175419.902000", "175419.905000", "175419.908000", "175419.912000", "175419.915000", "175419.918000", "175419.941000", "175419.944000", "175419.947000", "175423.307000", "175423.310000", "175423.314000"],
      "InstanceNumber": [1, 2, 3, 4, 5, 6, 7, 8, 9, 10, 11, 12, 13, 14, 15, 16, 17, 18, 19, 20, 21, 22, 23, 24, 25, 26, 27, 28, 29, 30, 31, 32, 33, 34, 35, 36, 37, 38, 39, 40, 41, 42, 43, 44, 45, 46, 47, 48, 49, 50, 51, 52, 53, 54, 55, 56, 57, 58, 59, 60, 61, 62, 63, 64, 65, 66, 67, 68, 69, 70, 71, 72, 73, 74, 75, 76, 77, 78, 79, 80, 81, 82, 83, 84, 85, 86, 87, 88, 89, 90, 91, 92, 93, 94, 95, 96, 97, 98, 99, 100, 101, 102, 103, 104, 105, 106, 107, 108, 109, 110, 111, 112, 113, 114, 115, 116, 117, 118, 119, 120, 121, 122, 123, 124, 125, 126, 127, 128, 129, 130, 131, 132, 133, 134, 135, 136, 137, 138, 139, 140, 141, 142, 143, 144, 145, 146, 147, 148, 149, 150, 151, 152, 153, 154, 155, 156, 157, 158, 159, 160, 161, 162, 163, 164, 165, 166, 167, 168, 169, 170, 171, 172, 173, 174, 175, 176, 177, 178, 179, 180, 181, 182, 183, 184, 185, 186, 187, 188, 189, 190],
      "LargestImagePixelValue": [48194, 46147, 45761, 45168, 46480, 45019, 45958, 44967, 44564, 43543, 43290, 43982, 45217, 43879, 45454, 44237, 46030, 44882, 46151, 47257, 46915, 47490, 46991, 49876, 47527, 47042, 48383, 47001, 47535, 46797, 47966, 48575, 47308, 48090, 48014, 48457, 46753, 48017, 47507, 47151, 47527, 47219, 51518, 48730, 47893, 47726, 47592, 46522, 47205, 47701, 47003, 47129, 46571, 47480, 47617, 47267, 47201, 46988, 47420, 47004, 47774, 46771, 48413, 46894, 47466, 46987, 47295, 46741, 47454, 47779, 46205, 47255, 47925, 46987, 47215, 46906, 47257, 47259, 47055, 46838, 46831, 46592, 46890, 46287, 45951, 51698, 47534, 46445, 46139, 46124, 45413, 45613, 45838, 46132, 45928, 46548, 45883, 45659, 47484, 46092, 46879, 45709, 47480, 45208, 45112, 45126, 45573, 46190, 45210, 44940, 44317, 44890, 45129, 45089, 52204, 44417, 41034, 41520, 52381, 44283, 44139, 43904, 43388, 43523, 46439, 42052, 40426, 40435, 41234, 41108, 43874, 40170, 44721, 43526, 42527, 42527, 44500, 43070, 42433, 42729, 56157, 42866, 43144, 43513, 43475, 51222, 45202, 51617, 46262, 46305, 45031, 43934, 44734, 44568, 44204, 43798, 44008, 43995, 44505, 44993, 45184, 47497, 44779, 44501, 46998, 44969, 44785, 44942, 45042, 47400, 45202, 45539, 45333, 44916, 43823, 50006, 44968, 44346, 49706, 44999, 44832, 45993, 44458, 44090, 44076, 46633, 44522, 45448, 45291, 44927],
      "WindowCenter": [10633.0, 10589.0, 10584.0, 10557.0, 10569.0, 10578.0, 10588.0, 10548.0, 10514.0, 10496.0, 10496.0, 10497.0, 10515.0, 10519.0, 10538.0, 10526.0, 10530.0, 10529.0, 10548.0, 10557.0, 10574.0, 10575.0, 10576.0, 10591.0, 10568.0, 10561.0, 10568.0, 10556.0, 10570.0, 10560.0, 10561.0, 10568.0, 10551.0, 10559.0, 10575.0, 10591.0, 10571.0, 10589.0, 10591.0, 10586.0, 10583.0, 10575.0, 10596.0, 10574.0, 10574.0, 10594.0, 10614.0, 10624.0, 10622.0, 10594.0, 10580.0, 10567.0, 10581.0, 10593.0, 10605.0, 10603.0, 10591.0, 10595.0, 10581.0, 10577.0, 10588.0, 10585.0, 10606.0, 10578.0, 10566.0, 10566.0, 10578.0, 10592.0, 10615.0, 10603.0, 10563.0, 10548.0, 10546.0, 10565.0, 10591.0, 10608.0, 10603.0, 10600.0, 10589.0, 10563.0, 10559.0, 10567.0, 10592.0, 10605.0, 10595.0, 10618.0, 10568.0, 10544.0, 10546.0, 10579.0, 10599.0, 10609.0, 10595.0, 10562.0, 10551.0, 10557.0, 10550.0, 10561.0, 10571.0, 10557.0, 10559.0, 10545.0, 10556.0, 10534.0, 10526.0, 10534.0, 10547.0, 10549.0, 10526.0, 10524.0, 10521.0, 10534.0, 10476.0, 10469.0, 10608.0, 10553.0, 10517.0, 10507.0, 10580.0, 10507.0, 10516.0, 10534.0, 10549.0, 10535.0, 10554.0, 10498.0, 10465.0, 10472.0, 10508.0, 10529.0, 10583.0, 10543.0, 10560.0, 10524.0, 10502.0, 10516.0, 10546.0, 10543.0, 10550.0, 10550.0, 10625.0, 10511.0, 10510.0, 10510.0, 10510.0, 10583.0, 10546.0, 10601.0, 10570.0, 10566.0, 10562.0, 10576.0, 10592.0, 10599.0, 10578.0, 10537.0, 10539.0, 10524.0, 10533.0, 10559.0, 10561.0, 10584.0, 10546.0, 10531.0, 10557.0, 10524.0, 10526.0, 10524.0, 10524.0, 10547.0, 10527.0, 10530.0, 10543.0, 10545.0, 10535.0, 10571.0, 10512.0, 10517.0, 10564.0, 10548.0, 10557.0, 10564.0, 10542.0, 10509.0, 10504.0, 10535.0, 10540.0, 10564.0, 10564.0, 10525.0],
      "WindowWidth": [22648.0, 22534.0, 22510.0, 22440.0, 22457.0, 22489.0, 22509.0, 22416.0, 22335.0, 22296.0, 22299.0, 22300.0, 22338.0, 22353.0, 22391.0, 22373.0, 22374.0, 22377.0, 22420.0, 22436.0, 22483.0, 22475.0, 22479.0, 22517.0, 22459.0, 22445.0, 22451.0, 22428.0, 22461.0, 22445.0, 22434.0, 22456.0, 22423.0, 22432.0, 22474.0, 22518.0, 22463.0, 22505.0, 22517.0, 22502.0, 22497.0, 22477.0, 22519.0, 22470.0, 22466.0, 22516.0, 22565.0, 22593.0, 22586.0, 22515.0, 22496.0, 22458.0, 22503.0, 22521.0, 22547.0, 22549.0, 22508.0, 22529.0, 22482.0, 22476.0, 22498.0, 22498.0, 22556.0, 22482.0, 22455.0, 22450.0, 22479.0, 22514.0, 22566.0, 22540.0, 22461.0, 22404.0, 22409.0, 22456.0, 22516.0, 22554.0, 22546.0, 22531.0, 22514.0, 22454.0, 22436.0, 22456.0, 22512.0, 22541.0, 22517.0, 22565.0, 22460.0, 22401.0, 22404.0, 22492.0, 22527.0, 22552.0, 22515.0, 22438.0, 22415.0, 22426.0, 22412.0, 22442.0, 22467.0, 22428.0, 22429.0, 22398.0, 22423.0, 22377.0, 22356.0, 22378.0, 22402.0, 22423.0, 22357.0, 22368.0, 22351.0, 22385.0, 22255.0, 22243.0, 22550.0, 22437.0, 22366.0, 22344.0, 22475.0, 22314.0, 22338.0, 22384.0, 22426.0, 22390.0, 22431.0, 22306.0, 22240.0, 22259.0, 22337.0, 22390.0, 22514.0, 22435.0, 22454.0, 22362.0, 22316.0, 22349.0, 22421.0, 22411.0, 22433.0, 22431.0, 22568.0, 22333.0, 22337.0, 22336.0, 22334.0, 22487.0, 22413.0, 22525.0, 22465.0, 22449.0, 22443.0, 22486.0, 22514.0, 22535.0, 22488.0, 22392.0, 22397.0, 22362.0, 22379.0, 22441.0, 22445.0, 22502.0, 22410.0, 22377.0, 22436.0, 22354.0, 22369.0, 22361.0, 22360.0, 22416.0, 22371.0, 22367.0, 22398.0, 22415.0, 22393.0, 22455.0, 22327.0, 22339.0, 22440.0, 22417.0, 22431.0, 22452.0, 22409.0, 22328.0, 22313.0, 22381.0, 22392.0, 22444.0, 22459.0, 22365.0]
    },
    "slices": {}
  }
}