{
  "AcquisitionMatrixPE": 104,
  "AcquisitionNumber": 1,
  "AcquisitionTime": "17:55:49.290000",
  "BandwidthPerPixelPhaseEncode": 17.17,
  "BaseResolution": 104,
  "BodyPartExamined": "BRAIN",
  "CoilString": "HC1-7;NC1_2",
  "ConsistencyInfo": "N4_VE11C_LATEST_20160120",
  "ConversionSoftware": "dcm2niix",
  "ConversionSoftwareVersion": "v1.0.20190902",
  "DerivedVendorReportedEchoSpacing": 0.000560011,
  "DeviceSerialNumber": "167006",
  "DwellTime": 2.1e-06,
  "EchoTime": 0.037,
  "EchoTrainLength": 104,
  "EffectiveEchoSpacing": 0.000560011,
  "FlipAngle": 52,
  "ImageComments": "Unaliased_MB4_PE3_LB",
  "ImageOrientationPatientDICOM": [0.997356, 0.0699097, 0.0198589, -0.0576819, 0.927691, -0.368867],
  "ImageType": [
    "ORIGINAL",
    "PRIMARY",
    "P",
    "MB",
    "ND",
    "MOSAIC"
],
  "ImagingFrequency": 123.259,
  "InPlanePhaseEncodingDirectionDICOM": "COL",
  "InstitutionAddress": "Chemin_Queen-Mary_4565_Montreal_District_CA_H3W_1W5",
  "InstitutionName": "IUGM",
  "InstitutionalDepartmentName": "Department",
  "MRAcquisitionType": "2D",
  "MagneticFieldStrength": 3,
  "Manufacturer": "Siemens",
  "ManufacturersModelName": "Prisma_fit",
  "Modality": "MR",
  "MultibandAccelerationFactor": 4,
  "PartialFourier": 1,
  "PatientPosition": "HFS",
  "PercentPhaseFOV": 100,
  "PhaseEncodingDirection": "j",
  "PhaseEncodingSteps": 104,
  "PhaseResolution": 1,
  "PixelBandwidth": 2290,
  "ProcedureStepDescription": "memory_things",
  "ProtocolName": "func_task-things_run-4",
  "PulseSequenceDetails": "%CustomerSeq%_cmrr_mbep2d_bold",
  "ReceiveCoilActiveElements": "HC1-7;NC1,2",
  "ReceiveCoilName": "HeadNeck_64",
  "ReconMatrixPE": 104,
  "RepetitionTime": 1.49,
  "SAR": 0.0382315,
  "ScanOptions": "FS",
  "ScanningSequence": "EP",
  "SequenceName": "epfid2d1_104",
  "SequenceVariant": "SK_SS",
  "SeriesDescription": "func_task-things_run-4",
  "SeriesNumber": 20,
  "ShimSetting": [637, -7187, -8815, 638, 91, 71, -34, -15],
  "SliceThickness": 2,
  "SliceTiming": [0, 0.7825, 0.0975, 0.88, 0.195, 0.98, 0.2925, 1.0775, 0.39, 1.175, 0.49, 1.2725, 0.5875, 1.37, 0.685, 0, 0.7825, 0.0975, 0.88, 0.195, 0.98, 0.2925, 1.0775, 0.39, 1.175, 0.49, 1.2725, 0.5875, 1.37, 0.685, 0, 0.7825, 0.0975, 0.88, 0.195, 0.98, 0.2925, 1.0775, 0.39, 1.175, 0.49, 1.2725, 0.5875, 1.37, 0.685, 0, 0.7825, 0.0975, 0.88, 0.195, 0.98, 0.2925, 1.0775, 0.39, 1.175, 0.49, 1.2725, 0.5875, 1.37, 0.685],
  "SoftwareVersions": "syngo_MR_E11",
  "SpacingBetweenSlices": 2,
  "StationName": "MRC35049",
  "TaskName": "things",
  "TotalReadoutTime": 0.0576811,
  "TxRefAmp": 248.346,
  "WipMemBlock": "b1612af4-cf86-4d7a-bc04-bc536344e5f0||Sequence: R016 ve11c/master r/e634e98; Dec 19 2017 11:00:25 by eja",
  "dcmmeta_affine": [
    [-1.9947112798690796, -0.1153637245297432, 0.0884205773472786, 110.30844116210938],
    [-0.1398194581270218, 1.855381727218628, -0.7334911823272705, -51.308712005615234],
    [0.03971782699227333, 0.737733006477356, 1.858540415763855, -63.14225387573242],
    [0.0, 0.0, 0.0, 1.0]
],
  "dcmmeta_reorient_transform": [
    [0.0, -1.0, 0.0, 103.0],
    [1.0, 0.0, 0.0, 0.0],
    [0.0, 0.0, 1.0, 0.0],
    [0.0, 0.0, 0.0, 1.0]
],
  "dcmmeta_shape": [104, 104, 60, 190],
  "dcmmeta_slice_dim": 2,
  "dcmmeta_version": 0.6,
  "global": {
    "const": {
      "AcquisitionMatrix": [104, 0, 0, 104],
      "AngioFlag": "N",
      "BitsAllocated": 16,
      "BitsStored": 16,
      "BodyPartExamined": "BRAIN",
      "Columns": 832,
      "EchoNumbers": 1,
      "EchoTime": 37.0,
      "EchoTrainLength": 104,
      "FlipAngle": 52.0,
      "HighBit": 15,
      "ImageOrientationPatient": [0.99735563017715, 0.06990973108971, 0.01985891368897, -0.0576818614061, 0.92769084351494, -0.3688665093544],
      "ImagePositionPatient": [-782.50848423165, -866.04882119851, 266.92177633494],
      "ImageType": [
        "ORIGINAL",
        "PRIMARY",
        "P",
        "MB",
        "ND",
        "MOSAIC"
],
      "ImagedNucleus": "1H",
      "ImagingFrequency": 123.258919,
      "InPlanePhaseEncodingDirection": "COL",
      "LargestImagePixelValue": 4095,
      "MRAcquisitionType": "2D",
      "MagneticFieldStrength": 3.0,
      "Manufacturer": "SIEMENS",
      "ManufacturerModelName": "Prisma_fit",
      "Modality": "MR",
      "NumberOfAverages": 1.0,
      "NumberOfPhaseEncodingSteps": 104,
      "PercentPhaseFieldOfView": 100.0,
      "PercentSampling": 100.0,
      "PerformedProcedureStepStartTime": "164651.445000",
      "PhotometricInterpretation": "MONOCHROME2",
      "PixelBandwidth": 2290.0,
      "PixelRepresentation": 0,
      "PixelSpacing": [2.0, 2.0],
      "ProtocolName": "func_task-things_run-4",
      "RepetitionTime": 1490.0,
      "RescaleIntercept": -4096.0,
      "RescaleSlope": 2.0,
      "RescaleType": "US",
      "Rows": 832,
      "SAR": 0.03823147389647,
      "SamplesPerPixel": 1,
      "ScanOptions": "FS",
      "ScanningSequence": "EP",
      "SequenceName": "epfid2d1_104",
      "SequenceVariant": [
        "SK",
        "SS"
],
      "SeriesDescription": "func_task-things_run-4",
      "SeriesNumber": 20,
      "SeriesTime": "175716.661000",
      "SliceLocation": -34.982203929389,
      "SliceThickness": 2.0,
      "SmallestImagePixelValue": 0,
      "SoftwareVersions": "syngo MR E11",
      "SpacingBetweenSlices": 1.9999999591307,
      "SpecificCharacterSet": "ISO_IR 100",
      "StudyID": "1",
      "StudyTime": "164651.331000",
      "TransmitCoilName": "Body",
      "VariableFlipAngleFlag": "N",
      "WindowCenterWidthExplanation": "Algo1",
      "dBdt": 0.0},
    "slices": {}
  },
  "time": {
    "samples": {
      "AcquisitionNumber": [1, 2, 3, 4, 5, 6, 7, 8, 9, 10, 11, 12, 13, 14, 15, 16, 17, 18, 19, 20, 21, 22, 23, 24, 25, 26, 27, 28, 29, 30, 31, 32, 33, 34, 35, 36, 37, 38, 39, 40, 41, 42, 43, 44, 45, 46, 47, 48, 49, 50, 51, 52, 53, 54, 55, 56, 57, 58, 59, 60, 61, 62, 63, 64, 65, 66, 67, 68, 69, 70, 71, 72, 73, 74, 75, 76, 77, 78, 79, 80, 81, 82, 83, 84, 85, 86, 87, 88, 89, 90, 91, 92, 93, 94, 95, 96, 97, 98, 99, 100, 101, 102, 103, 104, 105, 106, 107, 108, 109, 110, 111, 112, 113, 114, 115, 116, 117, 118, 119, 120, 121, 122, 123, 124, 125, 126, 127, 128, 129, 130, 131, 132, 133, 134, 135, 136, 137, 138, 139, 140, 141, 142, 143, 144, 145, 146, 147, 148, 149, 150, 151, 152, 153, 154, 155, 156, 157, 158, 159, 160, 161, 162, 163, 164, 165, 166, 167, 168, 169, 170, 171, 172, 173, 174, 175, 176, 177, 178, 179, 180, 181, 182, 183, 184, 185, 186, 187, 188, 189, 190],
      "AcquisitionTime": ["175549.290000", "175550.780000", "175552.270000", "175553.760000", "175555.250000", "175556.740000", "175558.230000", "175559.720000", "175601.210000", "175602.700000", "175604.190000", "175605.680000", "175607.170000", "175608.660000", "175610.150000", "175611.640000", "175613.130000", "175614.620000", "175616.110000", "175617.600000", "175619.090000", "175620.580000", "175622.070000", "175623.560000", "175625.050000", "175626.540000", "175628.030000", "175629.520000", "175631.010000", "175632.500000", "175633.990000", "175635.480000", "175636.970000", "175638.460000", "175639.950000", "175641.440000", "175642.930000", "175644.420000", "175645.910000", "175647.400000", "175648.890000", "175650.380000", "175651.870000", "175653.360000", "175654.850000", "175656.340000", "175657.830000", "175659.320000", "175700.810000", "175702.300000", "175703.790000", "175705.280000", "175706.770000", "175708.260000", "175709.750000", "175711.240000", "175712.730000", "175714.220000", "175715.710000", "175717.200000", "175718.690000", "175720.180000", "175721.670000", "175723.160000", "175724.650000", "175726.140000", "175727.630000", "175729.120000", "175730.610000", "175732.100000", "175733.590000", "175735.080000", "175736.570000", "175738.060000", "175739.550000", "175741.040000", "175742.530000", "175744.020000", "175745.510000", "175747.000000", "175748.490000", "175749.980000", "175751.470000", "175752.960000", "175754.450000", "175755.940000", "175757.430000", "175758.920000", "175800.410000", "175801.900000", "175803.390000", "175804.880000", "175806.370000", "175807.860000", "175809.350000", "175810.840000", "175812.330000", "175813.820000", "175815.310000", "175816.800000", "175818.290000", "175819.780000", "175821.270000", "175822.760000", "175824.250000", "175825.740000", "175827.230000", "175828.720000", "175830.210000", "175831.700000", "175833.190000", "175834.680000", "175836.170000", "175837.660000", "175839.150000", "175840.640000", "175842.130000", "175843.620000", "175845.110000", "175846.600000", "175848.090000", "175849.580000", "175851.070000", "175852.560000", "175854.050000", "175855.540000", "175857.030000", "175858.520000", "175900.010000", "175901.500000", "175902.990000", "175904.480000", "175905.970000", "175907.460000", "175908.950000", "175910.440000", "175911.930000", "175913.420000", "175914.910000", "175916.400000", "175917.890000", "175919.380000", "175920.870000", "175922.360000", "175923.850000", "175925.340000", "175926.830000", "175928.320000", "175929.810000", "175931.300000", "175932.790000", "175934.280000", "175935.770000", "175937.260000", "175938.750000", "175940.240000", "175941.730000", "175943.220000", "175944.710000", "175946.200000", "175947.690000", "175949.180000", "175950.670000", "175952.160000", "175953.650000", "175955.140000", "175956.630000", "175958.120000", "175959.610000", "180001.100000", "180002.590000", "180004.080000", "180005.570000", "180007.060000", "180008.550000", "180010.040000", "180011.530000", "180013.020000", "180014.510000", "180016.000000", "180017.490000", "180018.980000", "180020.470000", "180021.960000", "180023.450000", "180024.940000", "180026.430000", "180027.920000", "180029.410000", "180030.900000"],
      "ContentTime": ["175716.663000", "175716.666000", "175716.669000", "175716.671000", "175716.673000", "175716.676000", "175716.679000", "175716.681000", "175716.683000", "175716.686000", "175716.688000", "175716.691000", "175716.693000", "175716.696000", "175716.698000", "175716.701000", "175716.703000", "175716.706000", "175716.709000", "175716.711000", "175716.714000", "175716.716000", "175716.719000", "175716.721000", "175716.724000", "175716.726000", "175716.728000", "175716.731000", "175716.740000", "175716.743000", "175716.745000", "175716.748000", "175716.750000", "175716.753000", "175716.755000", "175736.563000", "175736.566000", "175736.568000", "175736.571000", "175736.573000", "175736.576000", "175736.578000", "175736.581000", "175736.583000", "175736.586000", "175736.588000", "175736.591000", "175736.593000", "175736.596000", "175736.598000", "175736.600000", "175736.603000", "175736.605000", "175736.608000", "175736.610000", "175756.556000", "175756.559000", "175756.562000", "175756.564000", "175756.567000", "175756.569000", "175756.572000", "175756.574000", "175756.577000", "175756.579000", "175756.582000", "175756.584000", "175756.587000", "175756.589000", "175756.591000", "175756.594000", "175756.596000", "175756.599000", "175756.601000", "175756.604000", "175816.996000", "175816.999000", "175817.001000", "175817.004000", "175817.006000", "175817.009000", "175817.011000", "175817.014000", "175817.016000", "175817.019000", "175817.021000", "175817.024000", "175817.026000", "175817.029000", "175817.031000", "175817.033000", "175817.036000", "175817.038000", "175817.041000", "175817.043000", "175817.046000", "175856.621000", "175856.624000", "175856.627000", "175856.629000", "175856.632000", "175856.634000", "175856.637000", "175856.639000", "175856.642000", "175856.644000", "175856.647000", "175856.649000", "175856.652000", "175856.654000", "175856.656000", "175856.659000", "175856.661000", "175856.664000", "175856.666000", "175856.669000", "175856.671000", "175856.674000", "175856.676000", "175856.679000", "175856.681000", "175856.684000", "175856.686000", "175856.689000", "175856.692000", "175936.606000", "175936.609000", "175936.612000", "175936.614000", "175936.617000", "175936.619000", "175936.622000", "175936.624000", "175936.627000", "175936.629000", "175936.632000", "175936.634000", "175936.637000", "175936.639000", "175936.642000", "175936.644000", "175936.647000", "175936.649000", "175936.652000", "175936.654000", "175936.657000", "175936.659000", "175936.662000", "175936.664000", "175936.667000", "175936.669000", "175936.672000", "180016.597000", "180016.599000", "180016.602000", "180016.604000", "180016.607000", "180016.609000", "180016.612000", "180016.614000", "180016.617000", "180016.619000", "180016.622000", "180016.624000", "180016.627000", "180016.629000", "180016.632000", "180016.634000", "180016.637000", "180016.639000", "180016.642000", "180016.644000", "180016.647000", "180016.649000", "180016.652000", "180016.654000", "180016.657000", "180016.659000", "180016.662000", "180032.756000", "180032.759000", "180032.761000", "180032.764000", "180032.767000", "180032.769000", "180032.772000", "180032.774000", "180032.777000", "180032.780000", "180032.782000"],
      "InstanceCreationTime": ["175716.663000", "175716.666000", "175716.669000", "175716.671000", "175716.673000", "175716.676000", "175716.679000", "175716.681000", "175716.683000", "175716.686000", "175716.688000", "175716.691000", "175716.693000", "175716.696000", "175716.698000", "175716.701000", "175716.703000", "175716.706000", "175716.709000", "175716.711000", "175716.714000", "175716.716000", "175716.719000", "175716.721000", "175716.724000", "175716.726000", "175716.728000", "175716.731000", "175716.740000", "175716.743000", "175716.745000", "175716.748000", "175716.750000", "175716.753000", "175716.755000", "175736.563000", "175736.566000", "175736.568000", "175736.571000", "175736.573000", "175736.576000", "175736.578000", "175736.581000", "175736.583000", "175736.586000", "175736.588000", "175736.591000", "175736.593000", "175736.596000", "175736.598000", "175736.600000", "175736.603000", "175736.605000", "175736.608000", "175736.610000", "175756.556000", "175756.559000", "175756.562000", "175756.564000", "175756.567000", "175756.569000", "175756.572000", "175756.574000", "175756.577000", "175756.579000", "175756.582000", "175756.584000", "175756.587000", "175756.589000", "175756.591000", "175756.594000", "175756.596000", "175756.599000", "175756.601000", "175756.604000", "175816.996000", "175816.999000", "175817.001000", "175817.004000", "175817.006000", "175817.009000", "175817.011000", "175817.014000", "175817.016000", "175817.019000", "175817.021000", "175817.024000", "175817.026000", "175817.029000", "175817.031000", "175817.033000", "175817.036000", "175817.038000", "175817.041000", "175817.043000", "175817.046000", "175856.621000", "175856.624000", "175856.627000", "175856.629000", "175856.632000", "175856.634000", "175856.637000", "175856.639000", "175856.642000", "175856.644000", "175856.647000", "175856.649000", "175856.652000", "175856.654000", "175856.656000", "175856.659000", "175856.661000", "175856.664000", "175856.666000", "175856.669000", "175856.671000", "175856.674000", "175856.676000", "175856.679000", "175856.681000", "175856.684000", "175856.686000", "175856.689000", "175856.692000", "175936.606000", "175936.609000", "175936.612000", "175936.614000", "175936.617000", "175936.619000", "175936.622000", "175936.624000", "175936.627000", "175936.629000", "175936.632000", "175936.634000", "175936.637000", "175936.639000", "175936.642000", "175936.644000", "175936.647000", "175936.649000", "175936.652000", "175936.654000", "175936.657000", "175936.659000", "175936.662000", "175936.664000", "175936.667000", "175936.669000", "175936.672000", "180016.597000", "180016.599000", "180016.602000", "180016.604000", "180016.607000", "180016.609000", "180016.612000", "180016.614000", "180016.617000", "180016.619000", "180016.622000", "180016.624000", "180016.627000", "180016.629000", "180016.632000", "180016.634000", "180016.637000", "180016.639000", "180016.642000", "180016.644000", "180016.647000", "180016.649000", "180016.652000", "180016.654000", "180016.657000", "180016.659000", "180016.662000", "180032.756000", "180032.759000", "180032.761000", "180032.764000", "180032.767000", "180032.769000", "180032.772000", "180032.774000", "180032.777000", "180032.780000", "180032.782000"],
      "InstanceNumber": [1, 2, 3, 4, 5, 6, 7, 8, 9, 10, 11, 12, 13, 14, 15, 16, 17, 18, 19, 20, 21, 22, 23, 24, 25, 26, 27, 28, 29, 30, 31, 32, 33, 34, 35, 36, 37, 38, 39, 40, 41, 42, 43, 44, 45, 46, 47, 48, 49, 50, 51, 52, 53, 54, 55, 56, 57, 58, 59, 60, 61, 62, 63, 64, 65, 66, 67, 68, 69, 70, 71, 72, 73, 74, 75, 76, 77, 78, 79, 80, 81, 82, 83, 84, 85, 86, 87, 88, 89, 90, 91, 92, 93, 94, 95, 96, 97, 98, 99, 100, 101, 102, 103, 104, 105, 106, 107, 108, 109, 110, 111, 112, 113, 114, 115, 116, 117, 118, 119, 120, 121, 122, 123, 124, 125, 126, 127, 128, 129, 130, 131, 132, 133, 134, 135, 136, 137, 138, 139, 140, 141, 142, 143, 144, 145, 146, 147, 148, 149, 150, 151, 152, 153, 154, 155, 156, 157, 158, 159, 160, 161, 162, 163, 164, 165, 166, 167, 168, 169, 170, 171, 172, 173, 174, 175, 176, 177, 178, 179, 180, 181, 182, 183, 184, 185, 186, 187, 188, 189, 190],
      "WindowCenter": [4854.0, 4874.0, 4870.0, 4872.0, 4854.0, 4848.0, 4850.0, 4852.0, 4876.0, 4876.0, 4874.0, 4876.0, 4876.0, 4876.0, 4852.0, 4876.0, 4872.0, 4876.0, 4850.0, 4826.0, 4826.0, 4826.0, 4850.0, 4852.0, 4872.0, 4872.0, 4880.0, 4876.0, 4854.0, 4856.0, 4854.0, 4848.0, 4852.0, 4876.0, 4872.0, 4868.0, 4868.0, 4846.0, 4826.0, 4832.0, 4828.0, 4854.0, 4874.0, 4874.0, 4874.0, 4876.0, 4874.0, 4874.0, 4878.0, 4854.0, 4850.0, 4850.0, 4854.0, 4878.0, 4876.0, 4874.0, 4852.0, 4852.0, 4848.0, 4852.0, 4876.0, 4854.0, 4852.0, 4852.0, 4856.0, 4874.0, 4852.0, 4878.0, 4874.0, 4876.0, 4854.0, 4850.0, 4872.0, 4866.0, 4866.0, 4852.0, 4830.0, 4822.0, 4828.0, 4854.0, 4854.0, 4876.0, 4872.0, 4874.0, 4872.0, 4856.0, 4854.0, 4854.0, 4852.0, 4854.0, 4854.0, 4854.0, 4876.0, 4872.0, 4876.0, 4876.0, 4876.0, 4872.0, 4878.0, 4854.0, 4852.0, 4854.0, 4878.0, 4874.0, 4876.0, 4876.0, 4872.0, 4876.0, 4852.0, 4852.0, 4854.0, 4854.0, 4854.0, 4876.0, 4876.0, 4852.0, 4852.0, 4852.0, 4878.0, 4856.0, 4876.0, 4874.0, 4876.0, 4850.0, 4854.0, 4854.0, 4876.0, 4878.0, 4876.0, 4874.0, 4876.0, 4852.0, 4876.0, 4878.0, 4852.0, 4850.0, 4872.0, 4852.0, 4874.0, 4874.0, 4852.0, 4852.0, 4856.0, 4852.0, 4874.0, 4852.0, 4850.0, 4880.0, 4872.0, 4874.0, 4852.0, 4876.0, 4870.0, 4866.0, 4872.0, 4854.0, 4854.0, 4854.0, 4856.0, 4854.0, 4876.0, 4872.0, 4874.0, 4872.0, 4874.0, 4872.0, 4852.0, 4852.0, 4854.0, 4854.0, 4854.0, 4876.0, 4876.0, 4874.0, 4874.0, 4876.0, 4876.0, 4854.0, 4854.0, 4852.0, 4850.0, 4854.0, 4874.0, 4876.0, 4874.0, 4876.0, 4874.0, 4854.0, 4876.0, 4854.0],
      "WindowWidth": [18634.0, 18676.0, 18678.0, 18662.0, 18618.0, 18614.0, 18608.0, 18612.0, 18656.0, 18670.0, 18666.0, 18668.0, 18670.0, 18656.0, 18632.0, 18670.0, 18670.0, 18670.0, 18614.0, 18586.0, 18582.0, 18580.0, 18612.0, 18632.0, 18682.0, 18672.0, 18668.0, 18662.0, 18626.0, 18630.0, 18618.0, 18612.0, 18626.0, 18674.0, 18682.0, 18684.0, 18676.0, 18618.0, 18582.0, 18580.0, 18584.0, 18612.0, 18656.0, 18676.0, 18676.0, 18666.0, 18662.0, 18656.0, 18658.0, 18618.0, 18608.0, 18612.0, 18618.0, 18666.0, 18670.0, 18666.0, 18626.0, 18628.0, 18622.0, 18616.0, 18658.0, 18630.0, 18622.0, 18622.0, 18628.0, 18660.0, 18626.0, 18660.0, 18668.0, 18662.0, 18628.0, 18622.0, 18672.0, 18678.0, 18664.0, 18622.0, 18586.0, 18580.0, 18574.0, 18612.0, 18634.0, 18678.0, 18688.0, 18674.0, 18660.0, 18628.0, 18616.0, 18622.0, 18614.0, 18616.0, 18620.0, 18628.0, 18668.0, 18668.0, 18668.0, 18668.0, 18664.0, 18662.0, 18658.0, 18622.0, 18622.0, 18624.0, 18666.0, 18660.0, 18662.0, 18662.0, 18664.0, 18660.0, 18630.0, 18634.0, 18628.0, 18628.0, 18628.0, 18656.0, 18666.0, 18626.0, 18628.0, 18632.0, 18662.0, 18628.0, 18660.0, 18666.0, 18662.0, 18628.0, 18628.0, 18634.0, 18662.0, 18664.0, 18668.0, 18660.0, 18664.0, 18628.0, 18662.0, 18656.0, 18628.0, 18630.0, 18670.0, 18630.0, 18668.0, 18670.0, 18632.0, 18626.0, 18630.0, 18626.0, 18664.0, 18634.0, 18630.0, 18666.0, 18666.0, 18668.0, 18626.0, 18670.0, 18684.0, 18686.0, 18676.0, 18624.0, 18612.0, 18612.0, 18614.0, 18628.0, 18666.0, 18672.0, 18678.0, 18678.0, 18682.0, 18666.0, 18626.0, 18624.0, 18620.0, 18618.0, 18626.0, 18658.0, 18664.0, 18672.0, 18676.0, 18670.0, 18664.0, 18626.0, 18628.0, 18624.0, 18620.0, 18636.0, 18668.0, 18666.0, 18662.0, 18668.0, 18664.0, 18628.0, 18660.0, 18622.0]
    },
    "slices": {}
  }
}