{
  "AcquisitionMatrixPE": 104,
  "AcquisitionNumber": 1,
  "AcquisitionTime": "13:46:51.420000",
  "BandwidthPerPixelPhaseEncode": 17.17,
  "BaseResolution": 104,
  "BodyPartExamined": "BRAIN",
  "CoilCombinationMethod": "Sum of Squares",
  "ConsistencyInfo": "N4_VE11C_LATEST_20160120",
  "ConversionSoftware": "dcm2niix",
  "ConversionSoftwareVersion": "v1.0.20211006",
  "DerivedVendorReportedEchoSpacing": 0.000560011,
  "DeviceSerialNumber": "167006",
  "DwellTime": 2.1e-06,
  "EchoTime": 0.037,
  "EchoTrainLength": 104,
  "EffectiveEchoSpacing": 0.000560011,
  "FlipAngle": 52,
  "HeudiconvVersion": "0.10.0",
  "ImageComments": "Unaliased MB4/PE3/LB",
  "ImageOrientationPatientDICOM": [0.999001, 0.0183419, 0.0407563, -0.00906687, 0.976119, -0.217048],
  "ImageOrientationText": "Tra>Cor(-12.5)>Sag(2.5)",
  "ImageType": [
    "ORIGINAL",
    "PRIMARY",
    "M",
    "MB",
    "ND",
    "MOSAIC"
],
  "ImagingFrequency": 123.259,
  "InPlanePhaseEncodingDirectionDICOM": "COL",
  "InstitutionAddress": "Chemin Queen-Mary 4565,Montreal,District,CA,H3W 1W5",
  "InstitutionName": "IUGM",
  "InstitutionalDepartmentName": "Department",
  "MRAcquisitionType": "2D",
  "MagneticFieldStrength": 3,
  "Manufacturer": "Siemens",
  "ManufacturersModelName": "Prisma_fit",
  "MatrixCoilMode": "SENSE",
  "Modality": "MR",
  "MultibandAccelerationFactor": 4,
  "PartialFourier": 1,
  "PatientPosition": "HFS",
  "PercentPhaseFOV": 100,
  "PercentSampling": 100,
  "PhaseEncodingDirection": "j",
  "PhaseEncodingSteps": 104,
  "PhaseResolution": 1,
  "PixelBandwidth": 2290,
  "ProcedureStepDescription": "memory^things",
  "ProtocolName": "func_task-things_run-4",
  "PulseSequenceDetails": "%CustomerSeq%\\cmrr_mbep2d_bold",
  "ReceiveCoilActiveElements": "HC1-7;NC1,2",
  "ReceiveCoilName": "HeadNeck_64",
  "ReconMatrixPE": 104,
  "RepetitionTime": 1.49,
  "SAR": 0.04809,
  "ScanOptions": "FS",
  "ScanningSequence": "EP",
  "SequenceName": "epfid2d1_104",
  "SequenceVariant": "SK\\SS",
  "SeriesDescription": "func_task-things_run-4",
  "SeriesNumber": 19,
  "ShimSetting": [636, -7228, -8776, 745, 26, -58, 114, -7],
  "SliceThickness": 2,
  "SliceTiming": [0, 0.785, 0.0975, 0.8825, 0.1975, 0.98, 0.295, 1.0775, 0.3925, 1.1775, 0.49, 1.275, 0.5875, 1.3725, 0.6875, 0, 0.785, 0.0975, 0.8825, 0.1975, 0.98, 0.295, 1.0775, 0.3925, 1.1775, 0.49, 1.275, 0.5875, 1.3725, 0.6875, 0, 0.785, 0.0975, 0.8825, 0.1975, 0.98, 0.295, 1.0775, 0.3925, 1.1775, 0.49, 1.275, 0.5875, 1.3725, 0.6875, 0, 0.785, 0.0975, 0.8825, 0.1975, 0.98, 0.295, 1.0775, 0.3925, 1.1775, 0.49, 1.275, 0.5875, 1.3725, 0.6875],
  "SoftwareVersions": "syngo MR E11",
  "SpacingBetweenSlices": 2,
  "StationName": "MRC35049",
  "TaskName": "things",
  "TotalReadoutTime": 0.0576811,
  "TxRefAmp": 232.883,
  "WipMemBlock": "99449391-75ed-4ec8-ac4e-77a360605472||Sequence: R016 ve11c/master r/e634e98; Dec 19 2017 11:00:25 by eja",
  "dcmmeta_affine": [
    [-1.9980014562606812, -0.018133744597434998, 0.08752810955047607, 107.15816497802734],
    [-0.03668384253978729, 1.9522374868392944, -0.4329237937927246, -74.94148254394531],
    [0.08151256293058395, 0.4340966045856476, 1.9506193399429321, -59.546566009521484],
    [0.0, 0.0, 0.0, 1.0]
],
  "dcmmeta_reorient_transform": [
    [0.0, -1.0, 0.0, 103.0],
    [1.0, 0.0, 0.0, 0.0],
    [0.0, 0.0, 1.0, 0.0],
    [0.0, 0.0, 0.0, 1.0]
],
  "dcmmeta_shape": [104, 104, 60, 190],
  "dcmmeta_slice_dim": 2,
  "dcmmeta_version": 0.6,
  "global": {
    "const": {
      "AcquisitionMatrix": [104, 0, 0, 104],
      "AngioFlag": "N",
      "BitsAllocated": 16,
      "BitsStored": 16,
      "BodyPartExamined": "BRAIN",
      "Columns": 832,
      "EchoNumbers": 1,
      "EchoTime": 37.0,
      "EchoTrainLength": 104,
      "FlipAngle": 52.0,
      "HighBit": 15,
      "ImageOrientationPatient": [0.99900075053742, 0.01834192152591, 0.04075627976644, -0.0090668721059, 0.97611875497409, -0.2170483080285],
      "ImagePositionPatient": [-825.96225568434, -850.10635357249, 113.5059802399],
      "ImageType": [
        "ORIGINAL",
        "PRIMARY",
        "M",
        "MB",
        "ND",
        "MOSAIC"
],
      "ImagedNucleus": "1H",
      "ImagingFrequency": 123.258885,
      "InPlanePhaseEncodingDirection": "COL",
      "MRAcquisitionType": "2D",
      "MagneticFieldStrength": 3.0,
      "Manufacturer": "SIEMENS",
      "ManufacturerModelName": "Prisma_fit",
      "Modality": "MR",
      "NumberOfAverages": 1.0,
      "NumberOfPhaseEncodingSteps": 104,
      "PercentPhaseFieldOfView": 100.0,
      "PercentSampling": 100.0,
      "PerformedProcedureStepStartTime": "113858.040000",
      "PhotometricInterpretation": "MONOCHROME2",
      "PixelBandwidth": 2290.0,
      "PixelRepresentation": 0,
      "PixelSpacing": [2.0, 2.0],
      "ProtocolName": "func_task-things_run-4",
      "RepetitionTime": 1490.0,
      "Rows": 832,
      "SAR": 0.04808997936647,
      "SamplesPerPixel": 1,
      "ScanOptions": "FS",
      "ScanningSequence": "EP",
      "SequenceName": "epfid2d1_104",
      "SequenceVariant": [
        "SK",
        "SS"
],
      "SeriesDescription": "func_task-things_run-4",
      "SeriesNumber": 19,
      "SeriesTime": "134756.351000",
      "SliceLocation": -37.164692922208,
      "SliceThickness": 2.0,
      "SmallestImagePixelValue": 0,
      "SoftwareVersions": "syngo MR E11",
      "SpacingBetweenSlices": 2.0000000420877,
      "SpecificCharacterSet": "ISO_IR 100",
      "StudyID": "1",
      "StudyTime": "113857.952000",
      "TransmitCoilName": "Body",
      "VariableFlipAngleFlag": "N",
      "WindowCenterWidthExplanation": "Algo1",
      "dBdt": 0.0},
    "slices": {}
  },
  "time": {
    "samples": {
      "AcquisitionNumber": [1, 2, 3, 4, 5, 6, 7, 8, 9, 10, 11, 12, 13, 14, 15, 16, 17, 18, 19, 20, 21, 22, 23, 24, 25, 26, 27, 28, 29, 30, 31, 32, 33, 34, 35, 36, 37, 38, 39, 40, 41, 42, 43, 44, 45, 46, 47, 48, 49, 50, 51, 52, 53, 54, 55, 56, 57, 58, 59, 60, 61, 62, 63, 64, 65, 66, 67, 68, 69, 70, 71, 72, 73, 74, 75, 76, 77, 78, 79, 80, 81, 82, 83, 84, 85, 86, 87, 88, 89, 90, 91, 92, 93, 94, 95, 96, 97, 98, 99, 100, 101, 102, 103, 104, 105, 106, 107, 108, 109, 110, 111, 112, 113, 114, 115, 116, 117, 118, 119, 120, 121, 122, 123, 124, 125, 126, 127, 128, 129, 130, 131, 132, 133, 134, 135, 136, 137, 138, 139, 140, 141, 142, 143, 144, 145, 146, 147, 148, 149, 150, 151, 152, 153, 154, 155, 156, 157, 158, 159, 160, 161, 162, 163, 164, 165, 166, 167, 168, 169, 170, 171, 172, 173, 174, 175, 176, 177, 178, 179, 180, 181, 182, 183, 184, 185, 186, 187, 188, 189, 190],
      "AcquisitionTime": ["134651.420000", "134652.910000", "134654.400000", "134655.890000", "134657.380000", "134658.870000", "134700.360000", "134701.850000", "134703.340000", "134704.830000", "134706.320000", "134707.810000", "134709.300000", "134710.790000", "134712.280000", "134713.770000", "134715.260000", "134716.750000", "134718.240000", "134719.730000", "134721.220000", "134722.710000", "134724.200000", "134725.690000", "134727.180000", "134728.670000", "134730.160000", "134731.650000", "134733.140000", "134734.630000", "134736.120000", "134737.610000", "134739.100000", "134740.590000", "134742.080000", "134743.570000", "134745.060000", "134746.550000", "134748.040000", "134749.530000", "134751.020000", "134752.510000", "134754.000000", "134755.490000", "134756.980000", "134758.470000", "134759.960000", "134801.450000", "134802.940000", "134804.430000", "134805.920000", "134807.410000", "134808.900000", "134810.390000", "134811.880000", "134813.370000", "134814.860000", "134816.350000", "134817.840000", "134819.330000", "134820.820000", "134822.310000", "134823.800000", "134825.290000", "134826.780000", "134828.270000", "134829.760000", "134831.250000", "134832.740000", "134834.230000", "134835.720000", "134837.210000", "134838.700000", "134840.190000", "134841.680000", "134843.170000", "134844.660000", "134846.150000", "134847.640000", "134849.130000", "134850.620000", "134852.110000", "134853.600000", "134855.090000", "134856.580000", "134858.070000", "134859.560000", "134901.050000", "134902.540000", "134904.030000", "134905.520000", "134907.010000", "134908.500000", "134909.990000", "134911.480000", "134912.970000", "134914.460000", "134915.950000", "134917.440000", "134918.930000", "134920.420000", "134921.910000", "134923.400000", "134924.890000", "134926.380000", "134927.870000", "134929.360000", "134930.850000", "134932.340000", "134933.830000", "134935.320000", "134936.810000", "134938.300000", "134939.790000", "134941.280000", "134942.770000", "134944.260000", "134945.750000", "134947.240000", "134948.730000", "134950.220000", "134951.710000", "134953.200000", "134954.690000", "134956.180000", "134957.670000", "134959.160000", "135000.650000", "135002.140000", "135003.630000", "135005.120000", "135006.610000", "135008.100000", "135009.590000", "135011.080000", "135012.570000", "135014.060000", "135015.550000", "135017.040000", "135018.530000", "135020.020000", "135021.510000", "135023.000000", "135024.490000", "135025.980000", "135027.470000", "135028.960000", "135030.450000", "135031.940000", "135033.430000", "135034.920000", "135036.410000", "135037.900000", "135039.390000", "135040.880000", "135042.370000", "135043.860000", "135045.350000", "135046.840000", "135048.330000", "135049.820000", "135051.310000", "135052.800000", "135054.290000", "135055.780000", "135057.270000", "135058.760000", "135100.250000", "135101.740000", "135103.230000", "135104.720000", "135106.210000", "135107.700000", "135109.190000", "135110.680000", "135112.170000", "135113.660000", "135115.150000", "135116.640000", "135118.130000", "135119.620000", "135121.110000", "135122.600000", "135124.090000", "135125.580000", "135127.070000", "135128.560000", "135130.050000", "135131.540000", "135133.030000"],
      "ContentTime": ["134756.354000", "134756.358000", "134756.361000", "134756.365000", "134756.368000", "134756.371000", "134756.375000", "134756.378000", "134756.381000", "134816.307000", "134816.311000", "134816.314000", "134816.317000", "134816.321000", "134816.324000", "134816.328000", "134816.331000", "134816.334000", "134816.337000", "134816.341000", "134816.344000", "134816.347000", "134816.351000", "134816.354000", "134816.357000", "134816.361000", "134816.364000", "134816.380000", "134816.383000", "134836.306000", "134836.310000", "134836.338000", "134836.341000", "134836.345000", "134836.348000", "134836.351000", "134836.355000", "134836.358000", "134836.361000", "134836.364000", "134836.368000", "134836.371000", "134836.374000", "134836.378000", "134836.381000", "134836.384000", "134836.387000", "134836.391000", "134836.394000", "134836.397000", "134856.306000", "134856.310000", "134856.313000", "134856.317000", "134856.320000", "134856.323000", "134856.327000", "134856.330000", "134856.333000", "134856.337000", "134856.340000", "134856.343000", "134856.346000", "134856.350000", "134856.353000", "134856.356000", "134856.360000", "134856.363000", "134856.366000", "134856.369000", "134916.306000", "134916.310000", "134916.313000", "134916.316000", "134916.320000", "134916.323000", "134916.326000", "134916.330000", "134916.333000", "134916.336000", "134916.340000", "134916.343000", "134916.346000", "134916.349000", "134916.353000", "134916.356000", "134916.360000", "134916.364000", "134916.367000", "134916.370000", "134936.306000", "134936.310000", "134936.313000", "134936.316000", "134936.320000", "134936.323000", "134936.326000", "134936.329000", "134936.333000", "134936.336000", "134936.339000", "134936.343000", "134936.346000", "134936.349000", "134936.353000", "134936.356000", "134936.359000", "134936.363000", "134936.366000", "134936.369000", "135016.307000", "135016.311000", "135016.314000", "135016.317000", "135016.321000", "135016.324000", "135016.327000", "135016.330000", "135016.334000", "135016.337000", "135016.340000", "135016.344000", "135016.347000", "135016.350000", "135016.354000", "135016.357000", "135016.360000", "135016.364000", "135016.367000", "135016.370000", "135016.373000", "135016.393000", "135016.396000", "135016.400000", "135016.403000", "135016.406000", "135016.410000", "135056.306000", "135056.310000", "135056.314000", "135056.317000", "135056.321000", "135056.326000", "135056.331000", "135056.335000", "135056.339000", "135056.342000", "135056.346000", "135056.349000", "135056.352000", "135056.356000", "135056.359000", "135056.363000", "135056.366000", "135056.369000", "135056.373000", "135056.376000", "135056.379000", "135056.382000", "135056.386000", "135056.389000", "135056.392000", "135056.396000", "135135.139000", "135135.143000", "135135.146000", "135135.150000", "135135.153000", "135135.156000", "135135.160000", "135135.164000", "135135.168000", "135135.171000", "135135.175000", "135135.178000", "135135.182000", "135135.185000", "135135.189000", "135135.192000", "135135.195000", "135135.199000", "135135.202000", "135135.206000", "135135.209000", "135135.213000", "135135.216000", "135135.219000", "135135.223000", "135135.226000", "135135.229000"],
      "InstanceCreationTime": ["134756.354000", "134756.358000", "134756.361000", "134756.365000", "134756.368000", "134756.371000", "134756.375000", "134756.378000", "134756.381000", "134816.307000", "134816.311000", "134816.314000", "134816.317000", "134816.321000", "134816.324000", "134816.328000", "134816.331000", "134816.334000", "134816.337000", "134816.341000", "134816.344000", "134816.347000", "134816.351000", "134816.354000", "134816.357000", "134816.361000", "134816.364000", "134816.380000", "134816.383000", "134836.306000", "134836.310000", "134836.338000", "134836.341000", "134836.345000", "134836.348000", "134836.351000", "134836.355000", "134836.358000", "134836.361000", "134836.364000", "134836.368000", "134836.371000", "134836.374000", "134836.378000", "134836.381000", "134836.384000", "134836.387000", "134836.391000", "134836.394000", "134836.397000", "134856.306000", "134856.310000", "134856.313000", "134856.317000", "134856.320000", "134856.323000", "134856.327000", "134856.330000", "134856.333000", "134856.337000", "134856.340000", "134856.343000", "134856.346000", "134856.350000", "134856.353000", "134856.356000", "134856.360000", "134856.363000", "134856.366000", "134856.369000", "134916.306000", "134916.310000", "134916.313000", "134916.316000", "134916.320000", "134916.323000", "134916.326000", "134916.330000", "134916.333000", "134916.336000", "134916.340000", "134916.343000", "134916.346000", "134916.349000", "134916.353000", "134916.356000", "134916.360000", "134916.364000", "134916.367000", "134916.370000", "134936.306000", "134936.310000", "134936.313000", "134936.316000", "134936.320000", "134936.323000", "134936.326000", "134936.329000", "134936.333000", "134936.336000", "134936.339000", "134936.343000", "134936.346000", "134936.349000", "134936.353000", "134936.356000", "134936.359000", "134936.363000", "134936.366000", "134936.369000", "135016.307000", "135016.311000", "135016.314000", "135016.317000", "135016.321000", "135016.324000", "135016.327000", "135016.330000", "135016.334000", "135016.337000", "135016.340000", "135016.344000", "135016.347000", "135016.350000", "135016.354000", "135016.357000", "135016.360000", "135016.364000", "135016.367000", "135016.370000", "135016.373000", "135016.393000", "135016.396000", "135016.400000", "135016.403000", "135016.406000", "135016.410000", "135056.306000", "135056.310000", "135056.314000", "135056.317000", "135056.321000", "135056.326000", "135056.331000", "135056.335000", "135056.339000", "135056.342000", "135056.346000", "135056.349000", "135056.352000", "135056.356000", "135056.359000", "135056.363000", "135056.366000", "135056.369000", "135056.373000", "135056.376000", "135056.379000", "135056.382000", "135056.386000", "135056.389000", "135056.392000", "135056.396000", "135135.139000", "135135.143000", "135135.146000", "135135.150000", "135135.153000", "135135.156000", "135135.160000", "135135.164000", "135135.168000", "135135.171000", "135135.175000", "135135.178000", "135135.182000", "135135.185000", "135135.189000", "135135.192000", "135135.195000", "135135.199000", "135135.202000", "135135.206000", "135135.209000", "135135.213000", "135135.216000", "135135.219000", "135135.223000", "135135.226000", "135135.229000"],
      "InstanceNumber": [1, 2, 3, 4, 5, 6, 7, 8, 9, 10, 11, 12, 13, 14, 15, 16, 17, 18, 19, 20, 21, 22, 23, 24, 25, 26, 27, 28, 29, 30, 31, 32, 33, 34, 35, 36, 37, 38, 39, 40, 41, 42, 43, 44, 45, 46, 47, 48, 49, 50, 51, 52, 53, 54, 55, 56, 57, 58, 59, 60, 61, 62, 63, 64, 65, 66, 67, 68, 69, 70, 71, 72, 73, 74, 75, 76, 77, 78, 79, 80, 81, 82, 83, 84, 85, 86, 87, 88, 89, 90, 91, 92, 93, 94, 95, 96, 97, 98, 99, 100, 101, 102, 103, 104, 105, 106, 107, 108, 109, 110, 111, 112, 113, 114, 115, 116, 117, 118, 119, 120, 121, 122, 123, 124, 125, 126, 127, 128, 129, 130, 131, 132, 133, 134, 135, 136, 137, 138, 139, 140, 141, 142, 143, 144, 145, 146, 147, 148, 149, 150, 151, 152, 153, 154, 155, 156, 157, 158, 159, 160, 161, 162, 163, 164, 165, 166, 167, 168, 169, 170, 171, 172, 173, 174, 175, 176, 177, 178, 179, 180, 181, 182, 183, 184, 185, 186, 187, 188, 189, 190],
      "LargestImagePixelValue": [40255, 38834, 38549, 38498, 38481, 38499, 38733, 38581, 38653, 38780, 38497, 38371, 37889, 37756, 38127, 37869, 37816, 38257, 38030, 38269, 37615, 37516, 38170, 37991, 37848, 37865, 37705, 37732, 37547, 37746, 38104, 37973, 37833, 37794, 38118, 38100, 38509, 38430, 38330, 38130, 38049, 37994, 37758, 37875, 38027, 38000, 37805, 37630, 37794, 37686, 38195, 38064, 37713, 37720, 37624, 37962, 38195, 37916, 37765, 37462, 37407, 37480, 37767, 38132, 38015, 38377, 37433, 37842, 37943, 38263, 37557, 37744, 37026, 37556, 37529, 37695, 37791, 37817, 38120, 37826, 37722, 38056, 37889, 37923, 37956, 37850, 37786, 37546, 37756, 38152, 38017, 37680, 37771, 37502, 37568, 37862, 37585, 37502, 38032, 37750, 38020, 37878, 37563, 37419, 37995, 38145, 38626, 38142, 37570, 37446, 37973, 37709, 37825, 37658, 37314, 37734, 37632, 37540, 37692, 37236, 37444, 37378, 37668, 38081, 37630, 37520, 37050, 37295, 37369, 37551, 37950, 37948, 37785, 37736, 37813, 37844, 37798, 37829, 37938, 37835, 37953, 37531, 37326, 37699, 37362, 37866, 37994, 37307, 37905, 37521, 37032, 37277, 37274, 37696, 37444, 37181, 37627, 37795, 37685, 38001, 37799, 37607, 37554, 37285, 37268, 37822, 37471, 37410, 37433, 37337, 37397, 37346, 37714, 37510, 37427, 37069, 37483, 37077, 37537, 37647, 37100, 36865, 37498, 37321, 37595, 37346, 37403, 36874, 36783, 36660],
      "WindowCenter": [10140.0, 10083.0, 10047.0, 10027.0, 10024.0, 10040.0, 10041.0, 10048.0, 10043.0, 10049.0, 10073.0, 10093.0, 10101.0, 10100.0, 10105.0, 10091.0, 10084.0, 10096.0, 10099.0, 10104.0, 10099.0, 10086.0, 10094.0, 10095.0, 10096.0, 10101.0, 10106.0, 10094.0, 10075.0, 10064.0, 10067.0, 10077.0, 10087.0, 10081.0, 10063.0, 10047.0, 10048.0, 10066.0, 10077.0, 10080.0, 10079.0, 10079.0, 10065.0, 10064.0, 10069.0, 10069.0, 10071.0, 10065.0, 10064.0, 10068.0, 10079.0, 10088.0, 10081.0, 10067.0, 10063.0, 10069.0, 10087.0, 10114.0, 10112.0, 10088.0, 10059.0, 10032.0, 10030.0, 10044.0, 10045.0, 10058.0, 10047.0, 10062.0, 10078.0, 10087.0, 10091.0, 10093.0, 10072.0, 10059.0, 10057.0, 10048.0, 10049.0, 10065.0, 10088.0, 10083.0, 10061.0, 10053.0, 10055.0, 10069.0, 10078.0, 10075.0, 10073.0, 10066.0, 10063.0, 10077.0, 10104.0, 10102.0, 10084.0, 10060.0, 10041.0, 10037.0, 10030.0, 10037.0, 10045.0, 10055.0, 10077.0, 10083.0, 10069.0, 10045.0, 10038.0, 10036.0, 10064.0, 10071.0, 10067.0, 10058.0, 10064.0, 10079.0, 10084.0, 10076.0, 10059.0, 10065.0, 10090.0, 10103.0, 10097.0, 10081.0, 10068.0, 10050.0, 10048.0, 10055.0, 10073.0, 10083.0, 10070.0, 10053.0, 10035.0, 10024.0, 10043.0, 10054.0, 10057.0, 10054.0, 10056.0, 10063.0, 10057.0, 10048.0, 10054.0, 10074.0, 10100.0, 10082.0, 10055.0, 10033.0, 10012.0, 10011.0, 10033.0, 10062.0, 10090.0, 10096.0, 10071.0, 10037.0, 10025.0, 10029.0, 10025.0, 10024.0, 10014.0, 10009.0, 10017.0, 10028.0, 10043.0, 10053.0, 10064.0, 10065.0, 10057.0, 10055.0, 10056.0, 10065.0, 10066.0, 10060.0, 10059.0, 10057.0, 10073.0, 10084.0, 10086.0, 10078.0, 10061.0, 10051.0, 10065.0, 10083.0, 10079.0, 10063.0, 10059.0, 10042.0, 10048.0, 10079.0, 10086.0, 10078.0, 10045.0, 10023.0],
      "WindowWidth": [21602.0, 21451.0, 21357.0, 21304.0, 21293.0, 21325.0, 21328.0, 21340.0, 21331.0, 21346.0, 21399.0, 21448.0, 21472.0, 21469.0, 21475.0, 21445.0, 21430.0, 21453.0, 21462.0, 21472.0, 21462.0, 21436.0, 21449.0, 21451.0, 21455.0, 21470.0, 21479.0, 21451.0, 21405.0, 21380.0, 21384.0, 21408.0, 21432.0, 21420.0, 21378.0, 21341.0, 21341.0, 21383.0, 21413.0, 21419.0, 21415.0, 21416.0, 21384.0, 21379.0, 21390.0, 21390.0, 21397.0, 21382.0, 21380.0, 21389.0, 21418.0, 21434.0, 21421.0, 21388.0, 21378.0, 21389.0, 21434.0, 21494.0, 21493.0, 21436.0, 21369.0, 21308.0, 21305.0, 21334.0, 21338.0, 21361.0, 21344.0, 21376.0, 21414.0, 21432.0, 21444.0, 21449.0, 21401.0, 21369.0, 21364.0, 21345.0, 21349.0, 21386.0, 21435.0, 21426.0, 21377.0, 21355.0, 21361.0, 21393.0, 21412.0, 21408.0, 21400.0, 21383.0, 21375.0, 21409.0, 21472.0, 21470.0, 21427.0, 21371.0, 21327.0, 21317.0, 21303.0, 21318.0, 21338.0, 21360.0, 21409.0, 21424.0, 21394.0, 21339.0, 21320.0, 21317.0, 21375.0, 21398.0, 21392.0, 21370.0, 21382.0, 21415.0, 21429.0, 21411.0, 21371.0, 21384.0, 21442.0, 21475.0, 21461.0, 21422.0, 21387.0, 21348.0, 21343.0, 21362.0, 21404.0, 21425.0, 21396.0, 21357.0, 21316.0, 21292.0, 21331.0, 21359.0, 21365.0, 21358.0, 21363.0, 21377.0, 21364.0, 21343.0, 21355.0, 21404.0, 21464.0, 21426.0, 21361.0, 21306.0, 21258.0, 21258.0, 21310.0, 21379.0, 21443.0, 21460.0, 21399.0, 21321.0, 21291.0, 21298.0, 21295.0, 21293.0, 21268.0, 21251.0, 21271.0, 21300.0, 21335.0, 21357.0, 21381.0, 21385.0, 21365.0, 21358.0, 21363.0, 21381.0, 21387.0, 21376.0, 21372.0, 21366.0, 21402.0, 21430.0, 21435.0, 21414.0, 21375.0, 21353.0, 21383.0, 21426.0, 21420.0, 21385.0, 21370.0, 21333.0, 21345.0, 21414.0, 21434.0, 21415.0, 21337.0, 21285.0]
    },
    "slices": {}
  }
}