{
  "AcquisitionMatrixPE": 104,
  "AcquisitionNumber": 1,
  "AcquisitionTime": "13:28:33.580000",
  "BandwidthPerPixelPhaseEncode": 17.17,
  "BaseResolution": 104,
  "BodyPartExamined": "BRAIN",
  "CoilCombinationMethod": "Sum of Squares",
  "ConsistencyInfo": "N4_VE11C_LATEST_20160120",
  "ConversionSoftware": "dcm2niix",
  "ConversionSoftwareVersion": "v1.0.20211006",
  "DerivedVendorReportedEchoSpacing": 0.000560011,
  "DeviceSerialNumber": "167006",
  "DwellTime": 2.1e-06,
  "EchoTime": 0.037,
  "EchoTime1": 0.037,
  "EchoTime2": 0.001,
  "EchoTrainLength": 104,
  "EffectiveEchoSpacing": 0.000560011,
  "FlipAngle": 52,
  "HeudiconvVersion": "0.10.0",
  "ImageComments": "Unaliased MB4/PE3/LB",
  "ImageOrientationPatientDICOM": [0.999001, 0.0183419, 0.0407563, -0.00906687, 0.976119, -0.217048],
  "ImageOrientationText": "Tra>Cor(-12.5)>Sag(2.5)",
  "ImageType": [
    "ORIGINAL",
    "PRIMARY",
    "P",
    "MB",
    "ND",
    "MOSAIC",
    "PHASE"
],
  "ImagingFrequency": 123.259,
  "InPlanePhaseEncodingDirectionDICOM": "COL",
  "InstitutionAddress": "Chemin Queen-Mary 4565,Montreal,District,CA,H3W 1W5",
  "InstitutionName": "IUGM",
  "InstitutionalDepartmentName": "Department",
  "MRAcquisitionType": "2D",
  "MagneticFieldStrength": 3,
  "Manufacturer": "Siemens",
  "ManufacturersModelName": "Prisma_fit",
  "MatrixCoilMode": "SENSE",
  "Modality": "MR",
  "MultibandAccelerationFactor": 4,
  "PartialFourier": 1,
  "PatientPosition": "HFS",
  "PercentPhaseFOV": 100,
  "PercentSampling": 100,
  "PhaseEncodingDirection": "j",
  "PhaseEncodingSteps": 104,
  "PhaseResolution": 1,
  "PixelBandwidth": 2290,
  "ProcedureStepDescription": "memory^things",
  "ProtocolName": "func_task-things_run-1",
  "PulseSequenceDetails": "%CustomerSeq%\\cmrr_mbep2d_bold",
  "ReceiveCoilActiveElements": "HC1-7;NC1,2",
  "ReceiveCoilName": "HeadNeck_64",
  "ReconMatrixPE": 104,
  "RepetitionTime": 1.49,
  "SAR": 0.04809,
  "ScanOptions": "FS",
  "ScanningSequence": "EP",
  "SequenceName": "epfid2d1_104",
  "SequenceVariant": "SK\\SS",
  "SeriesDescription": "func_task-things_run-1",
  "SeriesNumber": 11,
  "ShimSetting": [636, -7228, -8776, 745, 26, -58, 114, -7],
  "SliceThickness": 2,
  "SliceTiming": [0, 0.785, 0.0975, 0.8825, 0.1975, 0.98, 0.295, 1.0775, 0.3925, 1.1775, 0.49, 1.275, 0.5875, 1.3725, 0.6875, 0, 0.785, 0.0975, 0.8825, 0.1975, 0.98, 0.295, 1.0775, 0.3925, 1.1775, 0.49, 1.275, 0.5875, 1.3725, 0.6875, 0, 0.785, 0.0975, 0.8825, 0.1975, 0.98, 0.295, 1.0775, 0.3925, 1.1775, 0.49, 1.275, 0.5875, 1.3725, 0.6875, 0, 0.785, 0.0975, 0.8825, 0.1975, 0.98, 0.295, 1.0775, 0.3925, 1.1775, 0.49, 1.275, 0.5875, 1.3725, 0.6875],
  "SoftwareVersions": "syngo MR E11",
  "SpacingBetweenSlices": 2,
  "StationName": "MRC35049",
  "TaskName": "things",
  "TotalReadoutTime": 0.0576811,
  "TxRefAmp": 232.883,
  "WipMemBlock": "e2030d8d-29c1-4f0d-aff0-a2677e5753e5||Sequence: R016 ve11c/master r/e634e98; Dec 19 2017 11:00:25 by eja",
  "dcmmeta_affine": [
    [-1.9980014562606812, -0.018133744597434998, 0.08752810955047607, 107.15816497802734],
    [-0.03668384253978729, 1.9522374868392944, -0.4329237937927246, -74.94148254394531],
    [0.08151256293058395, 0.4340966045856476, 1.9506193399429321, -59.546566009521484],
    [0.0, 0.0, 0.0, 1.0]
],
  "dcmmeta_reorient_transform": [
    [0.0, -1.0, 0.0, 103.0],
    [1.0, 0.0, 0.0, 0.0],
    [0.0, 0.0, 1.0, 0.0],
    [0.0, 0.0, 0.0, 1.0]
],
  "dcmmeta_shape": [104, 104, 60, 190],
  "dcmmeta_slice_dim": 2,
  "dcmmeta_version": 0.6,
  "global": {
    "const": {
      "AcquisitionMatrix": [104, 0, 0, 104],
      "AngioFlag": "N",
      "BitsAllocated": 16,
      "BitsStored": 16,
      "BodyPartExamined": "BRAIN",
      "Columns": 832,
      "EchoNumbers": 1,
      "EchoTime": 37.0,
      "EchoTrainLength": 104,
      "FlipAngle": 52.0,
      "HighBit": 15,
      "ImageOrientationPatient": [0.99900075053742, 0.01834192152591, 0.04075627976644, -0.0090668721059, 0.97611875497409, -0.2170483080285],
      "ImagePositionPatient": [-825.96225568434, -850.10635357249, 113.5059802399],
      "ImageType": [
        "ORIGINAL",
        "PRIMARY",
        "P",
        "MB",
        "ND",
        "MOSAIC"
],
      "ImagedNucleus": "1H",
      "ImagingFrequency": 123.258872,
      "InPlanePhaseEncodingDirection": "COL",
      "LargestImagePixelValue": 4095,
      "MRAcquisitionType": "2D",
      "MagneticFieldStrength": 3.0,
      "Manufacturer": "SIEMENS",
      "ManufacturerModelName": "Prisma_fit",
      "Modality": "MR",
      "NumberOfAverages": 1.0,
      "NumberOfPhaseEncodingSteps": 104,
      "PercentPhaseFieldOfView": 100.0,
      "PercentSampling": 100.0,
      "PerformedProcedureStepStartTime": "113858.040000",
      "PhotometricInterpretation": "MONOCHROME2",
      "PixelBandwidth": 2290.0,
      "PixelRepresentation": 0,
      "PixelSpacing": [2.0, 2.0],
      "ProtocolName": "func_task-things_run-1",
      "RepetitionTime": 1490.0,
      "RescaleIntercept": -4096.0,
      "RescaleSlope": 2.0,
      "RescaleType": "US",
      "Rows": 832,
      "SAR": 0.04808997936647,
      "SamplesPerPixel": 1,
      "ScanOptions": "FS",
      "ScanningSequence": "EP",
      "SequenceName": "epfid2d1_104",
      "SequenceVariant": [
        "SK",
        "SS"
],
      "SeriesDescription": "func_task-things_run-1",
      "SeriesNumber": 11,
      "SeriesTime": "132936.453000",
      "SliceLocation": -37.164692922208,
      "SliceThickness": 2.0,
      "SmallestImagePixelValue": 0,
      "SoftwareVersions": "syngo MR E11",
      "SpacingBetweenSlices": 2.0000000420877,
      "SpecificCharacterSet": "ISO_IR 100",
      "StudyID": "1",
      "StudyTime": "113857.952000",
      "TransmitCoilName": "Body",
      "VariableFlipAngleFlag": "N",
      "WindowCenterWidthExplanation": "Algo1",
      "dBdt": 0.0},
    "slices": {}
  },
  "time": {
    "samples": {
      "AcquisitionNumber": [1, 2, 3, 4, 5, 6, 7, 8, 9, 10, 11, 12, 13, 14, 15, 16, 17, 18, 19, 20, 21, 22, 23, 24, 25, 26, 27, 28, 29, 30, 31, 32, 33, 34, 35, 36, 37, 38, 39, 40, 41, 42, 43, 44, 45, 46, 47, 48, 49, 50, 51, 52, 53, 54, 55, 56, 57, 58, 59, 60, 61, 62, 63, 64, 65, 66, 67, 68, 69, 70, 71, 72, 73, 74, 75, 76, 77, 78, 79, 80, 81, 82, 83, 84, 85, 86, 87, 88, 89, 90, 91, 92, 93, 94, 95, 96, 97, 98, 99, 100, 101, 102, 103, 104, 105, 106, 107, 108, 109, 110, 111, 112, 113, 114, 115, 116, 117, 118, 119, 120, 121, 122, 123, 124, 125, 126, 127, 128, 129, 130, 131, 132, 133, 134, 135, 136, 137, 138, 139, 140, 141, 142, 143, 144, 145, 146, 147, 148, 149, 150, 151, 152, 153, 154, 155, 156, 157, 158, 159, 160, 161, 162, 163, 164, 165, 166, 167, 168, 169, 170, 171, 172, 173, 174, 175, 176, 177, 178, 179, 180, 181, 182, 183, 184, 185, 186, 187, 188, 189, 190],
      "AcquisitionTime": ["132833.580000", "132835.070000", "132836.560000", "132838.050000", "132839.540000", "132841.030000", "132842.520000", "132844.010000", "132845.500000", "132846.990000", "132848.480000", "132849.970000", "132851.460000", "132852.950000", "132854.440000", "132855.930000", "132857.420000", "132858.910000", "132900.400000", "132901.890000", "132903.380000", "132904.870000", "132906.360000", "132907.850000", "132909.340000", "132910.830000", "132912.320000", "132913.810000", "132915.300000", "132916.790000", "132918.280000", "132919.770000", "132921.260000", "132922.750000", "132924.240000", "132925.730000", "132927.220000", "132928.710000", "132930.200000", "132931.690000", "132933.180000", "132934.670000", "132936.160000", "132937.650000", "132939.140000", "132940.630000", "132942.120000", "132943.610000", "132945.100000", "132946.590000", "132948.080000", "132949.570000", "132951.060000", "132952.550000", "132954.040000", "132955.530000", "132957.020000", "132958.510000", "133000.000000", "133001.490000", "133002.980000", "133004.470000", "133005.960000", "133007.450000", "133008.940000", "133010.430000", "133011.920000", "133013.410000", "133014.900000", "133016.390000", "133017.880000", "133019.370000", "133020.860000", "133022.350000", "133023.840000", "133025.330000", "133026.820000", "133028.310000", "133029.800000", "133031.290000", "133032.780000", "133034.270000", "133035.760000", "133037.250000", "133038.740000", "133040.230000", "133041.720000", "133043.210000", "133044.700000", "133046.190000", "133047.680000", "133049.170000", "133050.660000", "133052.150000", "133053.640000", "133055.130000", "133056.620000", "133058.110000", "133059.600000", "133101.090000", "133102.580000", "133104.070000", "133105.560000", "133107.050000", "133108.540000", "133110.030000", "133111.520000", "133113.010000", "133114.500000", "133115.990000", "133117.480000", "133118.970000", "133120.460000", "133121.950000", "133123.440000", "133124.930000", "133126.420000", "133127.910000", "133129.400000", "133130.890000", "133132.380000", "133133.870000", "133135.360000", "133136.850000", "133138.340000", "133139.830000", "133141.320000", "133142.810000", "133144.300000", "133145.790000", "133147.280000", "133148.770000", "133150.260000", "133151.750000", "133153.240000", "133154.730000", "133156.220000", "133157.710000", "133159.200000", "133200.690000", "133202.180000", "133203.670000", "133205.160000", "133206.650000", "133208.140000", "133209.630000", "133211.120000", "133212.610000", "133214.100000", "133215.590000", "133217.080000", "133218.570000", "133220.060000", "133221.550000", "133223.040000", "133224.530000", "133226.020000", "133227.510000", "133229.000000", "133230.490000", "133231.980000", "133233.470000", "133234.960000", "133236.450000", "133237.940000", "133239.430000", "133240.920000", "133242.410000", "133243.900000", "133245.390000", "133246.880000", "133248.370000", "133249.860000", "133251.350000", "133252.840000", "133254.330000", "133255.820000", "133257.310000", "133258.800000", "133300.290000", "133301.780000", "133303.270000", "133304.760000", "133306.250000", "133307.740000", "133309.230000", "133310.720000", "133312.210000", "133313.700000", "133315.190000"],
      "ContentTime": ["132936.455000", "132936.465000", "132936.467000", "132936.470000", "132936.472000", "132936.475000", "132936.477000", "132936.480000", "132936.482000", "132956.413000", "132956.416000", "132956.419000", "132956.423000", "132956.426000", "132956.428000", "132956.431000", "132956.433000", "132956.436000", "132956.438000", "132956.441000", "132956.443000", "132956.446000", "132956.453000", "132956.455000", "132956.458000", "132956.460000", "132956.463000", "132956.465000", "132956.468000", "133016.412000", "133016.415000", "133016.417000", "133016.420000", "133016.422000", "133016.425000", "133016.428000", "133016.430000", "133016.432000", "133016.435000", "133016.438000", "133016.440000", "133016.442000", "133016.445000", "133016.447000", "133016.450000", "133016.452000", "133016.455000", "133016.457000", "133016.460000", "133036.445000", "133036.448000", "133036.451000", "133036.453000", "133036.456000", "133036.458000", "133036.461000", "133036.463000", "133036.466000", "133036.469000", "133036.472000", "133036.475000", "133036.477000", "133036.480000", "133036.483000", "133036.486000", "133036.488000", "133036.491000", "133036.494000", "133036.496000", "133056.964000", "133056.966000", "133056.969000", "133056.971000", "133056.974000", "133056.977000", "133056.979000", "133056.981000", "133056.984000", "133056.987000", "133056.990000", "133056.993000", "133056.995000", "133056.998000", "133057.002000", "133057.004000", "133057.006000", "133057.009000", "133057.012000", "133057.014000", "133057.016000", "133136.477000", "133136.480000", "133136.482000", "133136.484000", "133136.487000", "133136.490000", "133136.492000", "133136.494000", "133136.497000", "133136.500000", "133136.502000", "133136.504000", "133136.507000", "133136.509000", "133136.512000", "133136.514000", "133136.517000", "133136.519000", "133136.522000", "133136.524000", "133136.527000", "133136.529000", "133136.532000", "133136.534000", "133136.537000", "133136.540000", "133136.542000", "133136.545000", "133136.547000", "133136.550000", "133136.552000", "133136.555000", "133216.456000", "133216.458000", "133216.461000", "133216.463000", "133216.466000", "133216.468000", "133216.471000", "133216.473000", "133216.476000", "133216.478000", "133216.481000", "133216.483000", "133216.486000", "133216.489000", "133216.491000", "133216.493000", "133216.496000", "133216.498000", "133216.501000", "133216.503000", "133216.506000", "133216.520000", "133216.523000", "133216.525000", "133216.528000", "133216.530000", "133216.533000", "133256.457000", "133256.460000", "133256.463000", "133256.465000", "133256.468000", "133256.470000", "133256.473000", "133256.475000", "133256.478000", "133256.480000", "133256.483000", "133256.485000", "133256.488000", "133256.490000", "133256.493000", "133256.495000", "133256.498000", "133256.500000", "133256.503000", "133256.505000", "133256.508000", "133256.510000", "133256.513000", "133256.515000", "133256.518000", "133256.521000", "133317.315000", "133317.318000", "133317.320000", "133317.330000", "133317.333000", "133317.335000", "133317.337000", "133317.340000", "133317.343000", "133317.345000", "133317.348000", "133317.350000", "133317.353000", "133317.355000", "133317.358000"],
      "InstanceCreationTime": ["132936.455000", "132936.465000", "132936.467000", "132936.470000", "132936.472000", "132936.475000", "132936.477000", "132936.480000", "132936.482000", "132956.413000", "132956.416000", "132956.419000", "132956.423000", "132956.426000", "132956.428000", "132956.431000", "132956.433000", "132956.436000", "132956.438000", "132956.441000", "132956.443000", "132956.446000", "132956.453000", "132956.455000", "132956.458000", "132956.460000", "132956.463000", "132956.465000", "132956.468000", "133016.412000", "133016.415000", "133016.417000", "133016.420000", "133016.422000", "133016.425000", "133016.428000", "133016.430000", "133016.432000", "133016.435000", "133016.438000", "133016.440000", "133016.442000", "133016.445000", "133016.447000", "133016.450000", "133016.452000", "133016.455000", "133016.457000", "133016.460000", "133036.445000", "133036.448000", "133036.451000", "133036.453000", "133036.456000", "133036.458000", "133036.461000", "133036.463000", "133036.466000", "133036.469000", "133036.472000", "133036.475000", "133036.477000", "133036.480000", "133036.483000", "133036.486000", "133036.488000", "133036.491000", "133036.494000", "133036.496000", "133056.964000", "133056.966000", "133056.969000", "133056.971000", "133056.974000", "133056.977000", "133056.979000", "133056.981000", "133056.984000", "133056.987000", "133056.990000", "133056.993000", "133056.995000", "133056.998000", "133057.002000", "133057.004000", "133057.006000", "133057.009000", "133057.012000", "133057.014000", "133057.016000", "133136.477000", "133136.480000", "133136.482000", "133136.484000", "133136.487000", "133136.490000", "133136.492000", "133136.494000", "133136.497000", "133136.500000", "133136.502000", "133136.504000", "133136.507000", "133136.509000", "133136.512000", "133136.514000", "133136.517000", "133136.519000", "133136.522000", "133136.524000", "133136.527000", "133136.529000", "133136.532000", "133136.534000", "133136.537000", "133136.540000", "133136.542000", "133136.545000", "133136.547000", "133136.550000", "133136.552000", "133136.555000", "133216.456000", "133216.458000", "133216.461000", "133216.463000", "133216.466000", "133216.468000", "133216.471000", "133216.473000", "133216.476000", "133216.478000", "133216.481000", "133216.483000", "133216.486000", "133216.489000", "133216.491000", "133216.493000", "133216.496000", "133216.498000", "133216.501000", "133216.503000", "133216.506000", "133216.520000", "133216.523000", "133216.525000", "133216.528000", "133216.530000", "133216.533000", "133256.457000", "133256.460000", "133256.463000", "133256.465000", "133256.468000", "133256.470000", "133256.473000", "133256.475000", "133256.478000", "133256.480000", "133256.483000", "133256.485000", "133256.488000", "133256.490000", "133256.493000", "133256.495000", "133256.498000", "133256.500000", "133256.503000", "133256.505000", "133256.508000", "133256.510000", "133256.513000", "133256.515000", "133256.518000", "133256.521000", "133317.315000", "133317.318000", "133317.320000", "133317.330000", "133317.333000", "133317.335000", "133317.337000", "133317.340000", "133317.343000", "133317.345000", "133317.348000", "133317.350000", "133317.353000", "133317.355000", "133317.358000"],
      "InstanceNumber": [1, 2, 3, 4, 5, 6, 7, 8, 9, 10, 11, 12, 13, 14, 15, 16, 17, 18, 19, 20, 21, 22, 23, 24, 25, 26, 27, 28, 29, 30, 31, 32, 33, 34, 35, 36, 37, 38, 39, 40, 41, 42, 43, 44, 45, 46, 47, 48, 49, 50, 51, 52, 53, 54, 55, 56, 57, 58, 59, 60, 61, 62, 63, 64, 65, 66, 67, 68, 69, 70, 71, 72, 73, 74, 75, 76, 77, 78, 79, 80, 81, 82, 83, 84, 85, 86, 87, 88, 89, 90, 91, 92, 93, 94, 95, 96, 97, 98, 99, 100, 101, 102, 103, 104, 105, 106, 107, 108, 109, 110, 111, 112, 113, 114, 115, 116, 117, 118, 119, 120, 121, 122, 123, 124, 125, 126, 127, 128, 129, 130, 131, 132, 133, 134, 135, 136, 137, 138, 139, 140, 141, 142, 143, 144, 145, 146, 147, 148, 149, 150, 151, 152, 153, 154, 155, 156, 157, 158, 159, 160, 161, 162, 163, 164, 165, 166, 167, 168, 169, 170, 171, 172, 173, 174, 175, 176, 177, 178, 179, 180, 181, 182, 183, 184, 185, 186, 187, 188, 189, 190],
      "WindowCenter": [4762.0, 4766.0, 4764.0, 4786.0, 4762.0, 4762.0, 4788.0, 4762.0, 4788.0, 4784.0, 4764.0, 4762.0, 4788.0, 4760.0, 4788.0, 4762.0, 4764.0, 4762.0, 4764.0, 4788.0, 4764.0, 4790.0, 4764.0, 4764.0, 4764.0, 4788.0, 4764.0, 4788.0, 4762.0, 4786.0, 4762.0, 4764.0, 4788.0, 4762.0, 4764.0, 4762.0, 4768.0, 4764.0, 4762.0, 4764.0, 4764.0, 4762.0, 4762.0, 4790.0, 4766.0, 4764.0, 4764.0, 4764.0, 4764.0, 4786.0, 4762.0, 4764.0, 4784.0, 4764.0, 4766.0, 4790.0, 4764.0, 4762.0, 4764.0, 4790.0, 4762.0, 4790.0, 4786.0, 4766.0, 4790.0, 4788.0, 4762.0, 4766.0, 4764.0, 4766.0, 4788.0, 4768.0, 4768.0, 4764.0, 4788.0, 4766.0, 4788.0, 4790.0, 4786.0, 4766.0, 4786.0, 4766.0, 4766.0, 4788.0, 4788.0, 4788.0, 4764.0, 4764.0, 4786.0, 4790.0, 4760.0, 4790.0, 4768.0, 4790.0, 4766.0, 4766.0, 4766.0, 4788.0, 4766.0, 4764.0, 4764.0, 4790.0, 4790.0, 4766.0, 4766.0, 4786.0, 4788.0, 4768.0, 4764.0, 4766.0, 4766.0, 4790.0, 4790.0, 4788.0, 4790.0, 4788.0, 4792.0, 4788.0, 4790.0, 4764.0, 4790.0, 4790.0, 4790.0, 4786.0, 4790.0, 4766.0, 4762.0, 4764.0, 4790.0, 4766.0, 4790.0, 4790.0, 4788.0, 4790.0, 4766.0, 4764.0, 4768.0, 4764.0, 4790.0, 4788.0, 4790.0, 4766.0, 4788.0, 4764.0, 4766.0, 4764.0, 4788.0, 4788.0, 4788.0, 4792.0, 4788.0, 4790.0, 4790.0, 4788.0, 4766.0, 4766.0, 4788.0, 4764.0, 4790.0, 4792.0, 4790.0, 4792.0, 4768.0, 4762.0, 4766.0, 4788.0, 4766.0, 4764.0, 4792.0, 4788.0, 4792.0, 4790.0, 4790.0, 4790.0, 4788.0, 4788.0, 4766.0, 4788.0, 4790.0, 4792.0, 4766.0, 4790.0, 4788.0, 4768.0, 4766.0, 4768.0, 4764.0, 4764.0, 4764.0, 4788.0],
      "WindowWidth": [18528.0, 18532.0, 18530.0, 18562.0, 18528.0, 18528.0, 18558.0, 18530.0, 18560.0, 18560.0, 18522.0, 18528.0, 18562.0, 18526.0, 18562.0, 18528.0, 18530.0, 18534.0, 18528.0, 18560.0, 18528.0, 18562.0, 18528.0, 18526.0, 18530.0, 18564.0, 18530.0, 18560.0, 18530.0, 18558.0, 18530.0, 18528.0, 18560.0, 18522.0, 18530.0, 18526.0, 18530.0, 18530.0, 18528.0, 18526.0, 18528.0, 18528.0, 18526.0, 18560.0, 18528.0, 18526.0, 18530.0, 18530.0, 18526.0, 18560.0, 18528.0, 18526.0, 18562.0, 18528.0, 18528.0, 18560.0, 18526.0, 18524.0, 18528.0, 18564.0, 18530.0, 18558.0, 18556.0, 18534.0, 18564.0, 18558.0, 18530.0, 18526.0, 18530.0, 18528.0, 18558.0, 18534.0, 18532.0, 18528.0, 18560.0, 18528.0, 18558.0, 18560.0, 18556.0, 18530.0, 18558.0, 18528.0, 18528.0, 18558.0, 18560.0, 18558.0, 18524.0, 18528.0, 18552.0, 18562.0, 18526.0, 18564.0, 18532.0, 18562.0, 18530.0, 18536.0, 18530.0, 18558.0, 18526.0, 18530.0, 18530.0, 18560.0, 18560.0, 18530.0, 18528.0, 18558.0, 18558.0, 18530.0, 18528.0, 18530.0, 18532.0, 18562.0, 18558.0, 18554.0, 18562.0, 18562.0, 18560.0, 18562.0, 18560.0, 18530.0, 18562.0, 18560.0, 18560.0, 18558.0, 18558.0, 18530.0, 18528.0, 18532.0, 18560.0, 18528.0, 18558.0, 18560.0, 18560.0, 18554.0, 18528.0, 18528.0, 18530.0, 18528.0, 18560.0, 18558.0, 18558.0, 18528.0, 18560.0, 18528.0, 18528.0, 18532.0, 18558.0, 18556.0, 18556.0, 18562.0, 18560.0, 18562.0, 18558.0, 18556.0, 18528.0, 18534.0, 18558.0, 18524.0, 18560.0, 18562.0, 18560.0, 18562.0, 18530.0, 18528.0, 18526.0, 18558.0, 18526.0, 18532.0, 18562.0, 18562.0, 18560.0, 18562.0, 18558.0, 18558.0, 18558.0, 18558.0, 18528.0, 18560.0, 18564.0, 18560.0, 18528.0, 18560.0, 18556.0, 18530.0, 18528.0, 18532.0, 18530.0, 18530.0, 18528.0, 18558.0]
    },
    "slices": {}
  }
}