{
  "AcquisitionMatrixPE": 104,
  "AcquisitionNumber": 1,
  "AcquisitionTime": "13:58:59.052500",
  "BandwidthPerPixelPhaseEncode": 17.17,
  "BaseResolution": 104,
  "BodyPartExamined": "BRAIN",
  "CoilCombinationMethod": "Sum of Squares",
  "ConsistencyInfo": "N4_VE11C_LATEST_20160120",
  "ConversionSoftware": "dcm2niix",
  "ConversionSoftwareVersion": "v1.0.20211006",
  "DerivedVendorReportedEchoSpacing": 0.000560011,
  "DeviceSerialNumber": "167006",
  "DwellTime": 2.1e-06,
  "EchoTime": 0.037,
  "EchoTime1": 0.037,
  "EchoTime2": 0.001,
  "EchoTrainLength": 104,
  "EffectiveEchoSpacing": 0.000560011,
  "FlipAngle": 52,
  "HeudiconvVersion": "0.10.0",
  "ImageComments": "Unaliased MB4/PE3/LB",
  "ImageOrientationPatientDICOM": [0.999001, 0.0183419, 0.0407563, -0.00906687, 0.976119, -0.217048],
  "ImageOrientationText": "Tra>Cor(-12.5)>Sag(2.5)",
  "ImageType": [
    "ORIGINAL",
    "PRIMARY",
    "P",
    "MB",
    "ND",
    "MOSAIC",
    "PHASE"
],
  "ImagingFrequency": 123.259,
  "InPlanePhaseEncodingDirectionDICOM": "COL",
  "InstitutionAddress": "Chemin Queen-Mary 4565,Montreal,District,CA,H3W 1W5",
  "InstitutionName": "IUGM",
  "InstitutionalDepartmentName": "Department",
  "MRAcquisitionType": "2D",
  "MagneticFieldStrength": 3,
  "Manufacturer": "Siemens",
  "ManufacturersModelName": "Prisma_fit",
  "MatrixCoilMode": "SENSE",
  "Modality": "MR",
  "MultibandAccelerationFactor": 4,
  "PartialFourier": 1,
  "PatientPosition": "HFS",
  "PercentPhaseFOV": 100,
  "PercentSampling": 100,
  "PhaseEncodingDirection": "j",
  "PhaseEncodingSteps": 104,
  "PhaseResolution": 1,
  "PixelBandwidth": 2290,
  "ProcedureStepDescription": "memory^things",
  "ProtocolName": "func_task-things_run-6",
  "PulseSequenceDetails": "%CustomerSeq%\\cmrr_mbep2d_bold",
  "ReceiveCoilActiveElements": "HC1-7;NC1,2",
  "ReceiveCoilName": "HeadNeck_64",
  "ReconMatrixPE": 104,
  "RepetitionTime": 1.49,
  "SAR": 0.04809,
  "ScanOptions": "FS",
  "ScanningSequence": "EP",
  "SequenceName": "epfid2d1_104",
  "SequenceVariant": "SK\\SS",
  "SeriesDescription": "func_task-things_run-6",
  "SeriesNumber": 26,
  "ShimSetting": [636, -7228, -8776, 745, 26, -58, 114, -7],
  "SliceThickness": 2,
  "SliceTiming": [0, 0.785, 0.1, 0.8825, 0.1975, 0.98, 0.295, 1.08, 0.3925, 1.1775, 0.49, 1.275, 0.59, 1.3725, 0.6875, 0, 0.785, 0.1, 0.8825, 0.1975, 0.98, 0.295, 1.08, 0.3925, 1.1775, 0.49, 1.275, 0.59, 1.3725, 0.6875, 0, 0.785, 0.1, 0.8825, 0.1975, 0.98, 0.295, 1.08, 0.3925, 1.1775, 0.49, 1.275, 0.59, 1.3725, 0.6875, 0, 0.785, 0.1, 0.8825, 0.1975, 0.98, 0.295, 1.08, 0.3925, 1.1775, 0.49, 1.275, 0.59, 1.3725, 0.6875],
  "SoftwareVersions": "syngo MR E11",
  "SpacingBetweenSlices": 2,
  "StationName": "MRC35049",
  "TaskName": "things",
  "TotalReadoutTime": 0.0576811,
  "TxRefAmp": 232.883,
  "WipMemBlock": "3a45fd4c-d1e7-4268-b976-dac0624030ac||Sequence: R016 ve11c/master r/e634e98; Dec 19 2017 11:00:25 by eja",
  "dcmmeta_affine": [
    [-1.9980014562606812, -0.018133744597434998, 0.08752810955047607, 107.15816497802734],
    [-0.03668384253978729, 1.9522374868392944, -0.4329237937927246, -74.94148254394531],
    [0.08151256293058395, 0.4340966045856476, 1.9506193399429321, -59.546566009521484],
    [0.0, 0.0, 0.0, 1.0]
],
  "dcmmeta_reorient_transform": [
    [0.0, -1.0, 0.0, 103.0],
    [1.0, 0.0, 0.0, 0.0],
    [0.0, 0.0, 1.0, 0.0],
    [0.0, 0.0, 0.0, 1.0]
],
  "dcmmeta_shape": [104, 104, 60, 190],
  "dcmmeta_slice_dim": 2,
  "dcmmeta_version": 0.6,
  "global": {
    "const": {
      "AcquisitionMatrix": [104, 0, 0, 104],
      "AngioFlag": "N",
      "BitsAllocated": 16,
      "BitsStored": 16,
      "BodyPartExamined": "BRAIN",
      "Columns": 832,
      "EchoNumbers": 1,
      "EchoTime": 37.0,
      "EchoTrainLength": 104,
      "FlipAngle": 52.0,
      "HighBit": 15,
      "ImageOrientationPatient": [0.99900075053742, 0.01834192152591, 0.04075627976644, -0.0090668721059, 0.97611875497409, -0.2170483080285],
      "ImagePositionPatient": [-825.96225568434, -850.10635357249, 113.5059802399],
      "ImageType": [
        "ORIGINAL",
        "PRIMARY",
        "P",
        "MB",
        "ND",
        "MOSAIC"
],
      "ImagedNucleus": "1H",
      "ImagingFrequency": 123.258888,
      "InPlanePhaseEncodingDirection": "COL",
      "LargestImagePixelValue": 4095,
      "MRAcquisitionType": "2D",
      "MagneticFieldStrength": 3.0,
      "Manufacturer": "SIEMENS",
      "ManufacturerModelName": "Prisma_fit",
      "Modality": "MR",
      "NumberOfAverages": 1.0,
      "NumberOfPhaseEncodingSteps": 104,
      "PercentPhaseFieldOfView": 100.0,
      "PercentSampling": 100.0,
      "PerformedProcedureStepStartTime": "113858.040000",
      "PhotometricInterpretation": "MONOCHROME2",
      "PixelBandwidth": 2290.0,
      "PixelRepresentation": 0,
      "PixelSpacing": [2.0, 2.0],
      "ProtocolName": "func_task-things_run-6",
      "RepetitionTime": 1490.0,
      "RescaleIntercept": -4096.0,
      "RescaleSlope": 2.0,
      "RescaleType": "US",
      "Rows": 832,
      "SAR": 0.04808997936647,
      "SamplesPerPixel": 1,
      "ScanOptions": "FS",
      "ScanningSequence": "EP",
      "SequenceName": "epfid2d1_104",
      "SequenceVariant": [
        "SK",
        "SS"
],
      "SeriesDescription": "func_task-things_run-6",
      "SeriesNumber": 26,
      "SeriesTime": "140031.662000",
      "SliceLocation": -37.164692922208,
      "SliceThickness": 2.0,
      "SmallestImagePixelValue": 0,
      "SoftwareVersions": "syngo MR E11",
      "SpacingBetweenSlices": 2.0000000420877,
      "SpecificCharacterSet": "ISO_IR 100",
      "StudyID": "1",
      "StudyTime": "113857.952000",
      "TransmitCoilName": "Body",
      "VariableFlipAngleFlag": "N",
      "WindowCenterWidthExplanation": "Algo1",
      "dBdt": 0.0},
    "slices": {}
  },
  "time": {
    "samples": {
      "AcquisitionNumber": [1, 2, 3, 4, 5, 6, 7, 8, 9, 10, 11, 12, 13, 14, 15, 16, 17, 18, 19, 20, 21, 22, 23, 24, 25, 26, 27, 28, 29, 30, 31, 32, 33, 34, 35, 36, 37, 38, 39, 40, 41, 42, 43, 44, 45, 46, 47, 48, 49, 50, 51, 52, 53, 54, 55, 56, 57, 58, 59, 60, 61, 62, 63, 64, 65, 66, 67, 68, 69, 70, 71, 72, 73, 74, 75, 76, 77, 78, 79, 80, 81, 82, 83, 84, 85, 86, 87, 88, 89, 90, 91, 92, 93, 94, 95, 96, 97, 98, 99, 100, 101, 102, 103, 104, 105, 106, 107, 108, 109, 110, 111, 112, 113, 114, 115, 116, 117, 118, 119, 120, 121, 122, 123, 124, 125, 126, 127, 128, 129, 130, 131, 132, 133, 134, 135, 136, 137, 138, 139, 140, 141, 142, 143, 144, 145, 146, 147, 148, 149, 150, 151, 152, 153, 154, 155, 156, 157, 158, 159, 160, 161, 162, 163, 164, 165, 166, 167, 168, 169, 170, 171, 172, 173, 174, 175, 176, 177, 178, 179, 180, 181, 182, 183, 184, 185, 186, 187, 188, 189, 190],
      "AcquisitionTime": ["135859.052500", "135900.542500", "135902.032500", "135903.522500", "135905.012500", "135906.502500", "135907.992500", "135909.482500", "135910.972500", "135912.462500", "135913.952500", "135915.442500", "135916.932500", "135918.422500", "135919.912500", "135921.402500", "135922.892500", "135924.382500", "135925.872500", "135927.362500", "135928.852500", "135930.342500", "135931.832500", "135933.322500", "135934.812500", "135936.302500", "135937.792500", "135939.282500", "135940.772500", "135942.262500", "135943.752500", "135945.242500", "135946.732500", "135948.222500", "135949.712500", "135951.202500", "135952.692500", "135954.182500", "135955.672500", "135957.162500", "135958.652500", "140000.142500", "140001.632500", "140003.122500", "140004.612500", "140006.102500", "140007.592500", "140009.082500", "140010.572500", "140012.062500", "140013.552500", "140015.042500", "140016.532500", "140018.022500", "140019.512500", "140021.002500", "140022.492500", "140023.982500", "140025.472500", "140026.962500", "140028.452500", "140029.942500", "140031.432500", "140032.922500", "140034.412500", "140035.902500", "140037.392500", "140038.882500", "140040.372500", "140041.862500", "140043.352500", "140044.842500", "140046.332500", "140047.822500", "140049.312500", "140050.802500", "140052.292500", "140053.782500", "140055.272500", "140056.762500", "140058.252500", "140059.742500", "140101.232500", "140102.722500", "140104.212500", "140105.702500", "140107.192500", "140108.682500", "140110.172500", "140111.662500", "140113.152500", "140114.642500", "140116.132500", "140117.622500", "140119.112500", "140120.602500", "140122.092500", "140123.582500", "140125.072500", "140126.562500", "140128.052500", "140129.542500", "140131.032500", "140132.522500", "140134.012500", "140135.502500", "140136.992500", "140138.482500", "140139.972500", "140141.462500", "140142.952500", "140144.442500", "140145.932500", "140147.422500", "140148.912500", "140150.402500", "140151.892500", "140153.382500", "140154.872500", "140156.362500", "140157.852500", "140159.342500", "140200.832500", "140202.322500", "140203.812500", "140205.302500", "140206.792500", "140208.282500", "140209.772500", "140211.262500", "140212.752500", "140214.242500", "140215.732500", "140217.222500", "140218.712500", "140220.202500", "140221.692500", "140223.182500", "140224.672500", "140226.162500", "140227.652500", "140229.142500", "140230.632500", "140232.122500", "140233.612500", "140235.102500", "140236.592500", "140238.082500", "140239.572500", "140241.062500", "140242.552500", "140244.042500", "140245.532500", "140247.022500", "140248.512500", "140250.002500", "140251.492500", "140252.982500", "140254.472500", "140255.962500", "140257.452500", "140258.942500", "140300.432500", "140301.922500", "140303.412500", "140304.902500", "140306.392500", "140307.882500", "140309.372500", "140310.862500", "140312.352500", "140313.842500", "140315.332500", "140316.822500", "140318.312500", "140319.802500", "140321.292500", "140322.782500", "140324.272500", "140325.762500", "140327.252500", "140328.742500", "140330.232500", "140331.722500", "140333.212500", "140334.702500", "140336.192500", "140337.682500", "140339.172500", "140340.662500"],
      "ContentTime": ["140031.664000", "140031.666000", "140031.669000", "140031.671000", "140031.674000", "140031.677000", "140031.679000", "140031.681000", "140031.684000", "140031.687000", "140031.689000", "140031.691000", "140031.694000", "140031.697000", "140031.699000", "140031.701000", "140031.704000", "140031.706000", "140031.709000", "140031.711000", "140031.714000", "140031.716000", "140031.719000", "140031.721000", "140031.724000", "140031.726000", "140031.729000", "140031.731000", "140031.734000", "140031.736000", "140031.739000", "140031.741000", "140031.744000", "140031.747000", "140031.749000", "140031.751000", "140031.754000", "140031.757000", "140031.759000", "140051.917000", "140051.920000", "140051.923000", "140051.931000", "140051.933000", "140051.936000", "140051.938000", "140051.941000", "140051.943000", "140051.946000", "140051.948000", "140051.951000", "140051.953000", "140051.956000", "140051.958000", "140051.961000", "140051.963000", "140051.966000", "140051.968000", "140051.971000", "140111.551000", "140111.554000", "140111.557000", "140111.559000", "140111.562000", "140111.564000", "140111.567000", "140111.569000", "140111.572000", "140111.574000", "140111.577000", "140111.579000", "140111.582000", "140111.584000", "140111.587000", "140111.589000", "140111.592000", "140111.594000", "140111.597000", "140111.599000", "140131.539000", "140131.542000", "140131.544000", "140131.547000", "140131.549000", "140131.552000", "140131.554000", "140131.557000", "140131.560000", "140131.562000", "140131.564000", "140131.567000", "140131.570000", "140131.572000", "140131.574000", "140131.577000", "140131.579000", "140131.582000", "140131.584000", "140131.587000", "140131.589000", "140211.569000", "140211.572000", "140211.575000", "140211.577000", "140211.580000", "140211.582000", "140211.585000", "140211.587000", "140211.590000", "140211.592000", "140211.600000", "140211.603000", "140211.605000", "140211.608000", "140211.610000", "140211.613000", "140211.615000", "140211.618000", "140211.621000", "140211.623000", "140211.625000", "140211.628000", "140211.631000", "140211.633000", "140211.635000", "140211.638000", "140211.640000", "140211.643000", "140251.572000", "140251.575000", "140251.577000", "140251.580000", "140251.583000", "140251.585000", "140251.588000", "140251.590000", "140251.593000", "140251.595000", "140251.598000", "140251.600000", "140251.603000", "140251.605000", "140251.608000", "140251.610000", "140251.613000", "140251.615000", "140251.618000", "140251.621000", "140251.624000", "140251.626000", "140251.629000", "140251.632000", "140251.634000", "140251.637000", "140251.639000", "140331.560000", "140331.562000", "140331.565000", "140331.567000", "140331.570000", "140331.572000", "140331.575000", "140331.577000", "140331.580000", "140331.583000", "140331.585000", "140331.588000", "140331.590000", "140331.593000", "140331.595000", "140331.597000", "140331.600000", "140331.603000", "140331.605000", "140331.607000", "140331.610000", "140331.613000", "140331.615000", "140331.618000", "140331.620000", "140331.623000", "140331.625000", "140343.317000", "140343.320000", "140343.325000", "140343.328000", "140343.330000", "140343.333000", "140343.335000", "140343.338000"],
      "InstanceCreationTime": ["140031.664000", "140031.666000", "140031.669000", "140031.671000", "140031.674000", "140031.677000", "140031.679000", "140031.681000", "140031.684000", "140031.687000", "140031.689000", "140031.691000", "140031.694000", "140031.697000", "140031.699000", "140031.701000", "140031.704000", "140031.706000", "140031.709000", "140031.711000", "140031.714000", "140031.716000", "140031.719000", "140031.721000", "140031.724000", "140031.726000", "140031.729000", "140031.731000", "140031.734000", "140031.736000", "140031.739000", "140031.741000", "140031.744000", "140031.747000", "140031.749000", "140031.751000", "140031.754000", "140031.757000", "140031.759000", "140051.917000", "140051.920000", "140051.923000", "140051.931000", "140051.933000", "140051.936000", "140051.938000", "140051.941000", "140051.943000", "140051.946000", "140051.948000", "140051.951000", "140051.953000", "140051.956000", "140051.958000", "140051.961000", "140051.963000", "140051.966000", "140051.968000", "140051.971000", "140111.551000", "140111.554000", "140111.557000", "140111.559000", "140111.562000", "140111.564000", "140111.567000", "140111.569000", "140111.572000", "140111.574000", "140111.577000", "140111.579000", "140111.582000", "140111.584000", "140111.587000", "140111.589000", "140111.592000", "140111.594000", "140111.597000", "140111.599000", "140131.539000", "140131.542000", "140131.544000", "140131.547000", "140131.549000", "140131.552000", "140131.554000", "140131.557000", "140131.560000", "140131.562000", "140131.564000", "140131.567000", "140131.570000", "140131.572000", "140131.574000", "140131.577000", "140131.579000", "140131.582000", "140131.584000", "140131.587000", "140131.589000", "140211.569000", "140211.572000", "140211.575000", "140211.577000", "140211.580000", "140211.582000", "140211.585000", "140211.587000", "140211.590000", "140211.592000", "140211.600000", "140211.603000", "140211.605000", "140211.608000", "140211.610000", "140211.613000", "140211.615000", "140211.618000", "140211.621000", "140211.623000", "140211.625000", "140211.628000", "140211.631000", "140211.633000", "140211.635000", "140211.638000", "140211.640000", "140211.643000", "140251.572000", "140251.575000", "140251.577000", "140251.580000", "140251.583000", "140251.585000", "140251.588000", "140251.590000", "140251.593000", "140251.595000", "140251.598000", "140251.600000", "140251.603000", "140251.605000", "140251.608000", "140251.610000", "140251.613000", "140251.615000", "140251.618000", "140251.621000", "140251.624000", "140251.626000", "140251.629000", "140251.632000", "140251.634000", "140251.637000", "140251.639000", "140331.560000", "140331.562000", "140331.565000", "140331.567000", "140331.570000", "140331.572000", "140331.575000", "140331.577000", "140331.580000", "140331.583000", "140331.585000", "140331.588000", "140331.590000", "140331.593000", "140331.595000", "140331.597000", "140331.600000", "140331.603000", "140331.605000", "140331.607000", "140331.610000", "140331.613000", "140331.615000", "140331.618000", "140331.620000", "140331.623000", "140331.625000", "140343.317000", "140343.320000", "140343.325000", "140343.328000", "140343.330000", "140343.333000", "140343.335000", "140343.338000"],
      "InstanceNumber": [1, 2, 3, 4, 5, 6, 7, 8, 9, 10, 11, 12, 13, 14, 15, 16, 17, 18, 19, 20, 21, 22, 23, 24, 25, 26, 27, 28, 29, 30, 31, 32, 33, 34, 35, 36, 37, 38, 39, 40, 41, 42, 43, 44, 45, 46, 47, 48, 49, 50, 51, 52, 53, 54, 55, 56, 57, 58, 59, 60, 61, 62, 63, 64, 65, 66, 67, 68, 69, 70, 71, 72, 73, 74, 75, 76, 77, 78, 79, 80, 81, 82, 83, 84, 85, 86, 87, 88, 89, 90, 91, 92, 93, 94, 95, 96, 97, 98, 99, 100, 101, 102, 103, 104, 105, 106, 107, 108, 109, 110, 111, 112, 113, 114, 115, 116, 117, 118, 119, 120, 121, 122, 123, 124, 125, 126, 127, 128, 129, 130, 131, 132, 133, 134, 135, 136, 137, 138, 139, 140, 141, 142, 143, 144, 145, 146, 147, 148, 149, 150, 151, 152, 153, 154, 155, 156, 157, 158, 159, 160, 161, 162, 163, 164, 165, 166, 167, 168, 169, 170, 171, 172, 173, 174, 175, 176, 177, 178, 179, 180, 181, 182, 183, 184, 185, 186, 187, 188, 189, 190],
      "WindowCenter": [4760.0, 4790.0, 4762.0, 4780.0, 4760.0, 4762.0, 4762.0, 4784.0, 4764.0, 4786.0, 4766.0, 4760.0, 4788.0, 4786.0, 4764.0, 4762.0, 4762.0, 4760.0, 4760.0, 4762.0, 4786.0, 4786.0, 4764.0, 4766.0, 4786.0, 4764.0, 4784.0, 4786.0, 4788.0, 4788.0, 4764.0, 4762.0, 4764.0, 4764.0, 4786.0, 4766.0, 4760.0, 4766.0, 4762.0, 4762.0, 4784.0, 4762.0, 4762.0, 4786.0, 4788.0, 4766.0, 4786.0, 4784.0, 4762.0, 4760.0, 4760.0, 4764.0, 4786.0, 4788.0, 4762.0, 4788.0, 4762.0, 4786.0, 4760.0, 4790.0, 4764.0, 4762.0, 4762.0, 4764.0, 4788.0, 4788.0, 4764.0, 4766.0, 4762.0, 4788.0, 4762.0, 4764.0, 4786.0, 4764.0, 4764.0, 4766.0, 4764.0, 4786.0, 4764.0, 4788.0, 4788.0, 4760.0, 4762.0, 4762.0, 4762.0, 4786.0, 4786.0, 4788.0, 4764.0, 4762.0, 4788.0, 4788.0, 4788.0, 4762.0, 4788.0, 4764.0, 4788.0, 4764.0, 4788.0, 4768.0, 4788.0, 4788.0, 4764.0, 4788.0, 4766.0, 4762.0, 4768.0, 4762.0, 4788.0, 4764.0, 4790.0, 4790.0, 4788.0, 4766.0, 4766.0, 4764.0, 4766.0, 4790.0, 4766.0, 4790.0, 4762.0, 4786.0, 4766.0, 4764.0, 4764.0, 4792.0, 4764.0, 4788.0, 4786.0, 4766.0, 4762.0, 4786.0, 4762.0, 4788.0, 4762.0, 4762.0, 4764.0, 4764.0, 4762.0, 4788.0, 4788.0, 4786.0, 4786.0, 4766.0, 4762.0, 4788.0, 4786.0, 4762.0, 4788.0, 4762.0, 4766.0, 4790.0, 4790.0, 4764.0, 4762.0, 4764.0, 4788.0, 4784.0, 4788.0, 4788.0, 4788.0, 4764.0, 4764.0, 4788.0, 4786.0, 4762.0, 4788.0, 4762.0, 4764.0, 4764.0, 4786.0, 4762.0, 4764.0, 4762.0, 4764.0, 4762.0, 4764.0, 4790.0, 4786.0, 4788.0, 4764.0, 4784.0, 4790.0, 4766.0, 4784.0, 4764.0, 4790.0, 4764.0, 4766.0, 4768.0],
      "WindowWidth": [18530.0, 18560.0, 18528.0, 18566.0, 18536.0, 18538.0, 18532.0, 18562.0, 18532.0, 18560.0, 18528.0, 18536.0, 18562.0, 18568.0, 18532.0, 18534.0, 18534.0, 18534.0, 18534.0, 18528.0, 18562.0, 18560.0, 18534.0, 18532.0, 18564.0, 18534.0, 18566.0, 18564.0, 18566.0, 18562.0, 18534.0, 18530.0, 18536.0, 18534.0, 18562.0, 18528.0, 18530.0, 18532.0, 18536.0, 18532.0, 18562.0, 18536.0, 18532.0, 18562.0, 18562.0, 18530.0, 18562.0, 18566.0, 18536.0, 18530.0, 18540.0, 18536.0, 18564.0, 18560.0, 18532.0, 18564.0, 18532.0, 18564.0, 18530.0, 18566.0, 18530.0, 18530.0, 18532.0, 18532.0, 18562.0, 18564.0, 18534.0, 18532.0, 18534.0, 18568.0, 18532.0, 18530.0, 18564.0, 18536.0, 18534.0, 18534.0, 18534.0, 18564.0, 18534.0, 18566.0, 18564.0, 18530.0, 18532.0, 18534.0, 18538.0, 18562.0, 18562.0, 18560.0, 18532.0, 18528.0, 18562.0, 18568.0, 18564.0, 18532.0, 18562.0, 18534.0, 18560.0, 18530.0, 18560.0, 18536.0, 18560.0, 18562.0, 18528.0, 18564.0, 18526.0, 18528.0, 18532.0, 18530.0, 18562.0, 18532.0, 18562.0, 18566.0, 18564.0, 18534.0, 18532.0, 18534.0, 18536.0, 18570.0, 18532.0, 18568.0, 18534.0, 18562.0, 18534.0, 18530.0, 18532.0, 18566.0, 18530.0, 18562.0, 18560.0, 18532.0, 18528.0, 18566.0, 18532.0, 18562.0, 18528.0, 18528.0, 18530.0, 18532.0, 18532.0, 18562.0, 18562.0, 18560.0, 18564.0, 18536.0, 18530.0, 18562.0, 18558.0, 18530.0, 18562.0, 18530.0, 18530.0, 18564.0, 18562.0, 18534.0, 18532.0, 18532.0, 18560.0, 18564.0, 18562.0, 18566.0, 18562.0, 18532.0, 18534.0, 18564.0, 18562.0, 18530.0, 18564.0, 18534.0, 18530.0, 18532.0, 18558.0, 18534.0, 18528.0, 18532.0, 18536.0, 18534.0, 18534.0, 18562.0, 18564.0, 18564.0, 18534.0, 18564.0, 18564.0, 18534.0, 18562.0, 18534.0, 18566.0, 18532.0, 18536.0, 18532.0]
    },
    "slices": {}
  }
}