{
  "AcquisitionMatrixPE": 104,
  "AcquisitionNumber": 1,
  "AcquisitionTime": "13:46:51.420000",
  "BandwidthPerPixelPhaseEncode": 17.17,
  "BaseResolution": 104,
  "BodyPartExamined": "BRAIN",
  "CoilCombinationMethod": "Sum of Squares",
  "ConsistencyInfo": "N4_VE11C_LATEST_20160120",
  "ConversionSoftware": "dcm2niix",
  "ConversionSoftwareVersion": "v1.0.20211006",
  "DerivedVendorReportedEchoSpacing": 0.000560011,
  "DeviceSerialNumber": "167006",
  "DwellTime": 2.1e-06,
  "EchoTime": 0.037,
  "EchoTime1": 0.037,
  "EchoTime2": 0.001,
  "EchoTrainLength": 104,
  "EffectiveEchoSpacing": 0.000560011,
  "FlipAngle": 52,
  "HeudiconvVersion": "0.10.0",
  "ImageComments": "Unaliased MB4/PE3/LB",
  "ImageOrientationPatientDICOM": [0.999001, 0.0183419, 0.0407563, -0.00906687, 0.976119, -0.217048],
  "ImageOrientationText": "Tra>Cor(-12.5)>Sag(2.5)",
  "ImageType": [
    "ORIGINAL",
    "PRIMARY",
    "P",
    "MB",
    "ND",
    "MOSAIC",
    "PHASE"
],
  "ImagingFrequency": 123.259,
  "InPlanePhaseEncodingDirectionDICOM": "COL",
  "InstitutionAddress": "Chemin Queen-Mary 4565,Montreal,District,CA,H3W 1W5",
  "InstitutionName": "IUGM",
  "InstitutionalDepartmentName": "Department",
  "MRAcquisitionType": "2D",
  "MagneticFieldStrength": 3,
  "Manufacturer": "Siemens",
  "ManufacturersModelName": "Prisma_fit",
  "MatrixCoilMode": "SENSE",
  "Modality": "MR",
  "MultibandAccelerationFactor": 4,
  "PartialFourier": 1,
  "PatientPosition": "HFS",
  "PercentPhaseFOV": 100,
  "PercentSampling": 100,
  "PhaseEncodingDirection": "j",
  "PhaseEncodingSteps": 104,
  "PhaseResolution": 1,
  "PixelBandwidth": 2290,
  "ProcedureStepDescription": "memory^things",
  "ProtocolName": "func_task-things_run-4",
  "PulseSequenceDetails": "%CustomerSeq%\\cmrr_mbep2d_bold",
  "ReceiveCoilActiveElements": "HC1-7;NC1,2",
  "ReceiveCoilName": "HeadNeck_64",
  "ReconMatrixPE": 104,
  "RepetitionTime": 1.49,
  "SAR": 0.04809,
  "ScanOptions": "FS",
  "ScanningSequence": "EP",
  "SequenceName": "epfid2d1_104",
  "SequenceVariant": "SK\\SS",
  "SeriesDescription": "func_task-things_run-4",
  "SeriesNumber": 20,
  "ShimSetting": [636, -7228, -8776, 745, 26, -58, 114, -7],
  "SliceThickness": 2,
  "SliceTiming": [0, 0.785, 0.0975, 0.8825, 0.1975, 0.98, 0.295, 1.0775, 0.3925, 1.1775, 0.49, 1.275, 0.5875, 1.3725, 0.6875, 0, 0.785, 0.0975, 0.8825, 0.1975, 0.98, 0.295, 1.0775, 0.3925, 1.1775, 0.49, 1.275, 0.5875, 1.3725, 0.6875, 0, 0.785, 0.0975, 0.8825, 0.1975, 0.98, 0.295, 1.0775, 0.3925, 1.1775, 0.49, 1.275, 0.5875, 1.3725, 0.6875, 0, 0.785, 0.0975, 0.8825, 0.1975, 0.98, 0.295, 1.0775, 0.3925, 1.1775, 0.49, 1.275, 0.5875, 1.3725, 0.6875],
  "SoftwareVersions": "syngo MR E11",
  "SpacingBetweenSlices": 2,
  "StationName": "MRC35049",
  "TaskName": "things",
  "TotalReadoutTime": 0.0576811,
  "TxRefAmp": 232.883,
  "WipMemBlock": "99449391-75ed-4ec8-ac4e-77a360605472||Sequence: R016 ve11c/master r/e634e98; Dec 19 2017 11:00:25 by eja",
  "dcmmeta_affine": [
    [-1.9980014562606812, -0.018133744597434998, 0.08752810955047607, 107.15816497802734],
    [-0.03668384253978729, 1.9522374868392944, -0.4329237937927246, -74.94148254394531],
    [0.08151256293058395, 0.4340966045856476, 1.9506193399429321, -59.546566009521484],
    [0.0, 0.0, 0.0, 1.0]
],
  "dcmmeta_reorient_transform": [
    [0.0, -1.0, 0.0, 103.0],
    [1.0, 0.0, 0.0, 0.0],
    [0.0, 0.0, 1.0, 0.0],
    [0.0, 0.0, 0.0, 1.0]
],
  "dcmmeta_shape": [104, 104, 60, 190],
  "dcmmeta_slice_dim": 2,
  "dcmmeta_version": 0.6,
  "global": {
    "const": {
      "AcquisitionMatrix": [104, 0, 0, 104],
      "AngioFlag": "N",
      "BitsAllocated": 16,
      "BitsStored": 16,
      "BodyPartExamined": "BRAIN",
      "Columns": 832,
      "EchoNumbers": 1,
      "EchoTime": 37.0,
      "EchoTrainLength": 104,
      "FlipAngle": 52.0,
      "HighBit": 15,
      "ImageOrientationPatient": [0.99900075053742, 0.01834192152591, 0.04075627976644, -0.0090668721059, 0.97611875497409, -0.2170483080285],
      "ImagePositionPatient": [-825.96225568434, -850.10635357249, 113.5059802399],
      "ImageType": [
        "ORIGINAL",
        "PRIMARY",
        "P",
        "MB",
        "ND",
        "MOSAIC"
],
      "ImagedNucleus": "1H",
      "ImagingFrequency": 123.258885,
      "InPlanePhaseEncodingDirection": "COL",
      "LargestImagePixelValue": 4095,
      "MRAcquisitionType": "2D",
      "MagneticFieldStrength": 3.0,
      "Manufacturer": "SIEMENS",
      "ManufacturerModelName": "Prisma_fit",
      "Modality": "MR",
      "NumberOfAverages": 1.0,
      "NumberOfPhaseEncodingSteps": 104,
      "PercentPhaseFieldOfView": 100.0,
      "PercentSampling": 100.0,
      "PerformedProcedureStepStartTime": "113858.040000",
      "PhotometricInterpretation": "MONOCHROME2",
      "PixelBandwidth": 2290.0,
      "PixelRepresentation": 0,
      "PixelSpacing": [2.0, 2.0],
      "ProtocolName": "func_task-things_run-4",
      "RepetitionTime": 1490.0,
      "RescaleIntercept": -4096.0,
      "RescaleSlope": 2.0,
      "RescaleType": "US",
      "Rows": 832,
      "SAR": 0.04808997936647,
      "SamplesPerPixel": 1,
      "ScanOptions": "FS",
      "ScanningSequence": "EP",
      "SequenceName": "epfid2d1_104",
      "SequenceVariant": [
        "SK",
        "SS"
],
      "SeriesDescription": "func_task-things_run-4",
      "SeriesNumber": 20,
      "SeriesTime": "134756.426000",
      "SliceLocation": -37.164692922208,
      "SliceThickness": 2.0,
      "SmallestImagePixelValue": 0,
      "SoftwareVersions": "syngo MR E11",
      "SpacingBetweenSlices": 2.0000000420877,
      "SpecificCharacterSet": "ISO_IR 100",
      "StudyID": "1",
      "StudyTime": "113857.952000",
      "TransmitCoilName": "Body",
      "VariableFlipAngleFlag": "N",
      "WindowCenterWidthExplanation": "Algo1",
      "dBdt": 0.0},
    "slices": {}
  },
  "time": {
    "samples": {
      "AcquisitionNumber": [1, 2, 3, 4, 5, 6, 7, 8, 9, 10, 11, 12, 13, 14, 15, 16, 17, 18, 19, 20, 21, 22, 23, 24, 25, 26, 27, 28, 29, 30, 31, 32, 33, 34, 35, 36, 37, 38, 39, 40, 41, 42, 43, 44, 45, 46, 47, 48, 49, 50, 51, 52, 53, 54, 55, 56, 57, 58, 59, 60, 61, 62, 63, 64, 65, 66, 67, 68, 69, 70, 71, 72, 73, 74, 75, 76, 77, 78, 79, 80, 81, 82, 83, 84, 85, 86, 87, 88, 89, 90, 91, 92, 93, 94, 95, 96, 97, 98, 99, 100, 101, 102, 103, 104, 105, 106, 107, 108, 109, 110, 111, 112, 113, 114, 115, 116, 117, 118, 119, 120, 121, 122, 123, 124, 125, 126, 127, 128, 129, 130, 131, 132, 133, 134, 135, 136, 137, 138, 139, 140, 141, 142, 143, 144, 145, 146, 147, 148, 149, 150, 151, 152, 153, 154, 155, 156, 157, 158, 159, 160, 161, 162, 163, 164, 165, 166, 167, 168, 169, 170, 171, 172, 173, 174, 175, 176, 177, 178, 179, 180, 181, 182, 183, 184, 185, 186, 187, 188, 189, 190],
      "AcquisitionTime": ["134651.420000", "134652.910000", "134654.400000", "134655.890000", "134657.380000", "134658.870000", "134700.360000", "134701.850000", "134703.340000", "134704.830000", "134706.320000", "134707.810000", "134709.300000", "134710.790000", "134712.280000", "134713.770000", "134715.260000", "134716.750000", "134718.240000", "134719.730000", "134721.220000", "134722.710000", "134724.200000", "134725.690000", "134727.180000", "134728.670000", "134730.160000", "134731.650000", "134733.140000", "134734.630000", "134736.120000", "134737.610000", "134739.100000", "134740.590000", "134742.080000", "134743.570000", "134745.060000", "134746.550000", "134748.040000", "134749.530000", "134751.020000", "134752.510000", "134754.000000", "134755.490000", "134756.980000", "134758.470000", "134759.960000", "134801.450000", "134802.940000", "134804.430000", "134805.920000", "134807.410000", "134808.900000", "134810.390000", "134811.880000", "134813.370000", "134814.860000", "134816.350000", "134817.840000", "134819.330000", "134820.820000", "134822.310000", "134823.800000", "134825.290000", "134826.780000", "134828.270000", "134829.760000", "134831.250000", "134832.740000", "134834.230000", "134835.720000", "134837.210000", "134838.700000", "134840.190000", "134841.680000", "134843.170000", "134844.660000", "134846.150000", "134847.640000", "134849.130000", "134850.620000", "134852.110000", "134853.600000", "134855.090000", "134856.580000", "134858.070000", "134859.560000", "134901.050000", "134902.540000", "134904.030000", "134905.520000", "134907.010000", "134908.500000", "134909.990000", "134911.480000", "134912.970000", "134914.460000", "134915.950000", "134917.440000", "134918.930000", "134920.420000", "134921.910000", "134923.400000", "134924.890000", "134926.380000", "134927.870000", "134929.360000", "134930.850000", "134932.340000", "134933.830000", "134935.320000", "134936.810000", "134938.300000", "134939.790000", "134941.280000", "134942.770000", "134944.260000", "134945.750000", "134947.240000", "134948.730000", "134950.220000", "134951.710000", "134953.200000", "134954.690000", "134956.180000", "134957.670000", "134959.160000", "135000.650000", "135002.140000", "135003.630000", "135005.120000", "135006.610000", "135008.100000", "135009.590000", "135011.080000", "135012.570000", "135014.060000", "135015.550000", "135017.040000", "135018.530000", "135020.020000", "135021.510000", "135023.000000", "135024.490000", "135025.980000", "135027.470000", "135028.960000", "135030.450000", "135031.940000", "135033.430000", "135034.920000", "135036.410000", "135037.900000", "135039.390000", "135040.880000", "135042.370000", "135043.860000", "135045.350000", "135046.840000", "135048.330000", "135049.820000", "135051.310000", "135052.800000", "135054.290000", "135055.780000", "135057.270000", "135058.760000", "135100.250000", "135101.740000", "135103.230000", "135104.720000", "135106.210000", "135107.700000", "135109.190000", "135110.680000", "135112.170000", "135113.660000", "135115.150000", "135116.640000", "135118.130000", "135119.620000", "135121.110000", "135122.600000", "135124.090000", "135125.580000", "135127.070000", "135128.560000", "135130.050000", "135131.540000", "135133.030000"],
      "ContentTime": ["134756.428000", "134756.430000", "134756.433000", "134756.435000", "134756.438000", "134756.440000", "134756.443000", "134756.445000", "134756.448000", "134816.454000", "134816.457000", "134816.459000", "134816.462000", "134816.464000", "134816.467000", "134816.469000", "134816.472000", "134816.474000", "134816.477000", "134816.479000", "134816.482000", "134816.484000", "134816.487000", "134816.489000", "134816.492000", "134816.494000", "134816.497000", "134816.499000", "134816.502000", "134836.453000", "134836.456000", "134836.458000", "134836.461000", "134836.463000", "134836.466000", "134836.468000", "134836.471000", "134836.473000", "134836.476000", "134836.478000", "134836.481000", "134836.483000", "134836.486000", "134836.488000", "134836.491000", "134836.493000", "134836.496000", "134836.498000", "134836.501000", "134856.475000", "134856.477000", "134856.480000", "134856.482000", "134856.485000", "134856.487000", "134856.490000", "134856.492000", "134856.495000", "134856.497000", "134856.500000", "134856.502000", "134856.505000", "134856.507000", "134856.510000", "134856.512000", "134856.515000", "134856.517000", "134856.520000", "134856.522000", "134856.525000", "134916.416000", "134916.418000", "134916.421000", "134916.423000", "134916.426000", "134916.429000", "134916.431000", "134916.434000", "134916.436000", "134916.439000", "134916.441000", "134916.443000", "134916.446000", "134916.449000", "134916.451000", "134916.454000", "134916.456000", "134916.459000", "134916.461000", "134916.464000", "134936.420000", "134936.423000", "134936.425000", "134936.428000", "134936.430000", "134936.433000", "134936.435000", "134936.438000", "134936.440000", "134936.443000", "134936.445000", "134936.448000", "134936.451000", "134936.453000", "134936.455000", "134936.458000", "134936.461000", "134936.463000", "134936.465000", "134936.468000", "135016.445000", "135016.448000", "135016.451000", "135016.453000", "135016.456000", "135016.462000", "135016.465000", "135016.467000", "135016.470000", "135016.473000", "135016.475000", "135016.477000", "135016.480000", "135016.483000", "135016.485000", "135016.488000", "135016.498000", "135016.501000", "135016.503000", "135016.506000", "135016.508000", "135016.511000", "135016.513000", "135016.516000", "135016.518000", "135016.521000", "135016.523000", "135056.441000", "135056.444000", "135056.447000", "135056.449000", "135056.456000", "135056.458000", "135056.461000", "135056.463000", "135056.466000", "135056.468000", "135056.471000", "135056.473000", "135056.476000", "135056.478000", "135056.481000", "135056.484000", "135056.486000", "135056.489000", "135056.491000", "135056.494000", "135056.496000", "135056.499000", "135056.501000", "135056.504000", "135056.506000", "135056.509000", "135135.281000", "135135.283000", "135135.286000", "135135.295000", "135135.298000", "135135.301000", "135135.303000", "135135.306000", "135135.309000", "135135.312000", "135135.314000", "135135.317000", "135135.320000", "135135.322000", "135135.325000", "135135.328000", "135135.331000", "135135.333000", "135135.336000", "135135.339000", "135135.342000", "135135.345000", "135135.347000", "135135.350000", "135135.352000", "135135.355000", "135135.357000"],
      "InstanceCreationTime": ["134756.428000", "134756.430000", "134756.433000", "134756.435000", "134756.438000", "134756.440000", "134756.443000", "134756.445000", "134756.448000", "134816.454000", "134816.457000", "134816.459000", "134816.462000", "134816.464000", "134816.467000", "134816.469000", "134816.472000", "134816.474000", "134816.477000", "134816.479000", "134816.482000", "134816.484000", "134816.487000", "134816.489000", "134816.492000", "134816.494000", "134816.497000", "134816.499000", "134816.502000", "134836.453000", "134836.456000", "134836.458000", "134836.461000", "134836.463000", "134836.466000", "134836.468000", "134836.471000", "134836.473000", "134836.476000", "134836.478000", "134836.481000", "134836.483000", "134836.486000", "134836.488000", "134836.491000", "134836.493000", "134836.496000", "134836.498000", "134836.501000", "134856.475000", "134856.477000", "134856.480000", "134856.482000", "134856.485000", "134856.487000", "134856.490000", "134856.492000", "134856.495000", "134856.497000", "134856.500000", "134856.502000", "134856.505000", "134856.507000", "134856.510000", "134856.512000", "134856.515000", "134856.517000", "134856.520000", "134856.522000", "134856.525000", "134916.416000", "134916.418000", "134916.421000", "134916.423000", "134916.426000", "134916.429000", "134916.431000", "134916.434000", "134916.436000", "134916.439000", "134916.441000", "134916.443000", "134916.446000", "134916.449000", "134916.451000", "134916.454000", "134916.456000", "134916.459000", "134916.461000", "134916.464000", "134936.420000", "134936.423000", "134936.425000", "134936.428000", "134936.430000", "134936.433000", "134936.435000", "134936.438000", "134936.440000", "134936.443000", "134936.445000", "134936.448000", "134936.451000", "134936.453000", "134936.455000", "134936.458000", "134936.461000", "134936.463000", "134936.465000", "134936.468000", "135016.445000", "135016.448000", "135016.451000", "135016.453000", "135016.456000", "135016.462000", "135016.465000", "135016.467000", "135016.470000", "135016.473000", "135016.475000", "135016.477000", "135016.480000", "135016.483000", "135016.485000", "135016.488000", "135016.498000", "135016.501000", "135016.503000", "135016.506000", "135016.508000", "135016.511000", "135016.513000", "135016.516000", "135016.518000", "135016.521000", "135016.523000", "135056.441000", "135056.444000", "135056.447000", "135056.449000", "135056.456000", "135056.458000", "135056.461000", "135056.463000", "135056.466000", "135056.468000", "135056.471000", "135056.473000", "135056.476000", "135056.478000", "135056.481000", "135056.484000", "135056.486000", "135056.489000", "135056.491000", "135056.494000", "135056.496000", "135056.499000", "135056.501000", "135056.504000", "135056.506000", "135056.509000", "135135.281000", "135135.283000", "135135.286000", "135135.295000", "135135.298000", "135135.301000", "135135.303000", "135135.306000", "135135.309000", "135135.312000", "135135.314000", "135135.317000", "135135.320000", "135135.322000", "135135.325000", "135135.328000", "135135.331000", "135135.333000", "135135.336000", "135135.339000", "135135.342000", "135135.345000", "135135.347000", "135135.350000", "135135.352000", "135135.355000", "135135.357000"],
      "InstanceNumber": [1, 2, 3, 4, 5, 6, 7, 8, 9, 10, 11, 12, 13, 14, 15, 16, 17, 18, 19, 20, 21, 22, 23, 24, 25, 26, 27, 28, 29, 30, 31, 32, 33, 34, 35, 36, 37, 38, 39, 40, 41, 42, 43, 44, 45, 46, 47, 48, 49, 50, 51, 52, 53, 54, 55, 56, 57, 58, 59, 60, 61, 62, 63, 64, 65, 66, 67, 68, 69, 70, 71, 72, 73, 74, 75, 76, 77, 78, 79, 80, 81, 82, 83, 84, 85, 86, 87, 88, 89, 90, 91, 92, 93, 94, 95, 96, 97, 98, 99, 100, 101, 102, 103, 104, 105, 106, 107, 108, 109, 110, 111, 112, 113, 114, 115, 116, 117, 118, 119, 120, 121, 122, 123, 124, 125, 126, 127, 128, 129, 130, 131, 132, 133, 134, 135, 136, 137, 138, 139, 140, 141, 142, 143, 144, 145, 146, 147, 148, 149, 150, 151, 152, 153, 154, 155, 156, 157, 158, 159, 160, 161, 162, 163, 164, 165, 166, 167, 168, 169, 170, 171, 172, 173, 174, 175, 176, 177, 178, 179, 180, 181, 182, 183, 184, 185, 186, 187, 188, 189, 190],
      "WindowCenter": [4756.0, 4754.0, 4760.0, 4758.0, 4756.0, 4760.0, 4756.0, 4760.0, 4756.0, 4758.0, 4758.0, 4758.0, 4756.0, 4752.0, 4754.0, 4760.0, 4756.0, 4760.0, 4756.0, 4756.0, 4756.0, 4758.0, 4758.0, 4758.0, 4762.0, 4756.0, 4758.0, 4756.0, 4780.0, 4758.0, 4754.0, 4754.0, 4758.0, 4758.0, 4756.0, 4754.0, 4756.0, 4758.0, 4760.0, 4756.0, 4754.0, 4756.0, 4758.0, 4756.0, 4758.0, 4758.0, 4756.0, 4758.0, 4758.0, 4756.0, 4758.0, 4756.0, 4758.0, 4758.0, 4754.0, 4758.0, 4760.0, 4758.0, 4758.0, 4756.0, 4754.0, 4754.0, 4758.0, 4756.0, 4758.0, 4756.0, 4760.0, 4756.0, 4756.0, 4754.0, 4756.0, 4756.0, 4756.0, 4782.0, 4756.0, 4758.0, 4760.0, 4758.0, 4782.0, 4756.0, 4780.0, 4758.0, 4756.0, 4758.0, 4756.0, 4760.0, 4756.0, 4754.0, 4760.0, 4758.0, 4756.0, 4760.0, 4756.0, 4754.0, 4754.0, 4756.0, 4756.0, 4756.0, 4782.0, 4760.0, 4760.0, 4756.0, 4752.0, 4756.0, 4756.0, 4760.0, 4758.0, 4756.0, 4756.0, 4780.0, 4756.0, 4758.0, 4752.0, 4784.0, 4756.0, 4760.0, 4758.0, 4756.0, 4758.0, 4756.0, 4756.0, 4758.0, 4756.0, 4754.0, 4756.0, 4758.0, 4758.0, 4758.0, 4758.0, 4758.0, 4756.0, 4754.0, 4758.0, 4760.0, 4758.0, 4756.0, 4758.0, 4756.0, 4756.0, 4754.0, 4760.0, 4756.0, 4760.0, 4756.0, 4758.0, 4758.0, 4752.0, 4760.0, 4768.0, 4758.0, 4756.0, 4754.0, 4778.0, 4754.0, 4756.0, 4758.0, 4760.0, 4758.0, 4758.0, 4756.0, 4756.0, 4760.0, 4756.0, 4756.0, 4756.0, 4756.0, 4758.0, 4760.0, 4758.0, 4758.0, 4758.0, 4760.0, 4758.0, 4758.0, 4754.0, 4758.0, 4758.0, 4758.0, 4758.0, 4780.0, 4760.0, 4760.0, 4756.0, 4758.0, 4760.0, 4756.0, 4758.0, 4754.0, 4758.0, 4756.0],
      "WindowWidth": [18540.0, 18536.0, 18540.0, 18542.0, 18536.0, 18542.0, 18532.0, 18538.0, 18534.0, 18538.0, 18538.0, 18542.0, 18536.0, 18534.0, 18536.0, 18542.0, 18536.0, 18538.0, 18530.0, 18534.0, 18534.0, 18538.0, 18538.0, 18536.0, 18542.0, 18532.0, 18540.0, 18530.0, 18570.0, 18534.0, 18536.0, 18534.0, 18536.0, 18534.0, 18536.0, 18530.0, 18534.0, 18534.0, 18538.0, 18536.0, 18534.0, 18532.0, 18538.0, 18536.0, 18536.0, 18536.0, 18534.0, 18538.0, 18538.0, 18538.0, 18532.0, 18532.0, 18538.0, 18538.0, 18534.0, 18536.0, 18530.0, 18536.0, 18540.0, 18534.0, 18532.0, 18540.0, 18532.0, 18538.0, 18534.0, 18532.0, 18534.0, 18538.0, 18532.0, 18532.0, 18536.0, 18538.0, 18536.0, 18568.0, 18536.0, 18534.0, 18540.0, 18536.0, 18574.0, 18536.0, 18570.0, 18536.0, 18538.0, 18536.0, 18538.0, 18538.0, 18536.0, 18532.0, 18538.0, 18534.0, 18534.0, 18534.0, 18540.0, 18532.0, 18532.0, 18536.0, 18536.0, 18538.0, 18564.0, 18540.0, 18538.0, 18534.0, 18532.0, 18540.0, 18536.0, 18542.0, 18534.0, 18536.0, 18534.0, 18570.0, 18534.0, 18536.0, 18528.0, 18570.0, 18534.0, 18538.0, 18532.0, 18540.0, 18536.0, 18538.0, 18530.0, 18534.0, 18532.0, 18530.0, 18534.0, 18536.0, 18530.0, 18536.0, 18530.0, 18536.0, 18534.0, 18534.0, 18534.0, 18542.0, 18534.0, 18538.0, 18528.0, 18540.0, 18530.0, 18532.0, 18536.0, 18536.0, 18540.0, 18534.0, 18534.0, 18536.0, 18532.0, 18530.0, 18530.0, 18532.0, 18542.0, 18536.0, 18572.0, 18534.0, 18536.0, 18536.0, 18538.0, 18532.0, 18532.0, 18532.0, 18532.0, 18540.0, 18532.0, 18536.0, 18538.0, 18534.0, 18536.0, 18534.0, 18534.0, 18534.0, 18532.0, 18534.0, 18536.0, 18536.0, 18536.0, 18536.0, 18538.0, 18532.0, 18536.0, 18564.0, 18534.0, 18538.0, 18538.0, 18532.0, 18540.0, 18534.0, 18536.0, 18532.0, 18536.0, 18536.0]
    },
    "slices": {}
  }
}