{
  "AcquisitionMatrixPE": 104,
  "AcquisitionNumber": 1,
  "AcquisitionTime": "17:41:46.020000",
  "BandwidthPerPixelPhaseEncode": 17.17,
  "BaseResolution": 104,
  "BodyPartExamined": "BRAIN",
  "CoilCombinationMethod": "Sum of Squares",
  "ConsistencyInfo": "N4_VE11C_LATEST_20160120",
  "ConversionSoftware": "dcm2niix",
  "ConversionSoftwareVersion": "v1.0.20211006",
  "DerivedVendorReportedEchoSpacing": 0.000560011,
  "DeviceSerialNumber": "167006",
  "DwellTime": 2.1e-06,
  "EchoTime": 0.037,
  "EchoTrainLength": 104,
  "EffectiveEchoSpacing": 0.000560011,
  "FlipAngle": 52,
  "HeudiconvVersion": "0.10.0",
  "ImageComments": "Unaliased MB4/PE3/LB",
  "ImageOrientationPatientDICOM": [0.998332, 0.0548554, 0.017992, -0.0428898, 0.913363, -0.404881],
  "ImageOrientationText": "Tra>Cor(-23.8)>Sag(2.2)",
  "ImageType": [
    "ORIGINAL",
    "PRIMARY",
    "M",
    "MB",
    "ND",
    "MOSAIC"
],
  "ImagingFrequency": 123.259,
  "InPlanePhaseEncodingDirectionDICOM": "COL",
  "InstitutionAddress": "Chemin Queen-Mary 4565,Montreal,District,CA,H3W 1W5",
  "InstitutionName": "IUGM",
  "InstitutionalDepartmentName": "Department",
  "MRAcquisitionType": "2D",
  "MagneticFieldStrength": 3,
  "Manufacturer": "Siemens",
  "ManufacturersModelName": "Prisma_fit",
  "MatrixCoilMode": "SENSE",
  "Modality": "MR",
  "MultibandAccelerationFactor": 4,
  "PartialFourier": 1,
  "PatientPosition": "HFS",
  "PercentPhaseFOV": 100,
  "PercentSampling": 100,
  "PhaseEncodingDirection": "j",
  "PhaseEncodingSteps": 104,
  "PhaseResolution": 1,
  "PixelBandwidth": 2290,
  "ProcedureStepDescription": "memory^things",
  "ProtocolName": "func_task-things_run-3",
  "PulseSequenceDetails": "%CustomerSeq%\\cmrr_mbep2d_bold",
  "ReceiveCoilActiveElements": "HC1-7;NC1,2",
  "ReceiveCoilName": "HeadNeck_64",
  "ReconMatrixPE": 104,
  "RepetitionTime": 1.49,
  "SAR": 0.0521306,
  "ScanOptions": "FS",
  "ScanningSequence": "EP",
  "SequenceName": "epfid2d1_104",
  "SequenceVariant": "SK\\SS",
  "SeriesDescription": "func_task-things_run-3",
  "SeriesNumber": 16,
  "ShimSetting": [624, -7182, -8824, 609, 71, -20, -89, -8],
  "SliceThickness": 2,
  "SliceTiming": [0, 0.785, 0.1, 0.8825, 0.1975, 0.98, 0.295, 1.08, 0.3925, 1.1775, 0.49, 1.275, 0.59, 1.3725, 0.6875, 0, 0.785, 0.1, 0.8825, 0.1975, 0.98, 0.295, 1.08, 0.3925, 1.1775, 0.49, 1.275, 0.59, 1.3725, 0.6875, 0, 0.785, 0.1, 0.8825, 0.1975, 0.98, 0.295, 1.08, 0.3925, 1.1775, 0.49, 1.275, 0.59, 1.3725, 0.6875, 0, 0.785, 0.1, 0.8825, 0.1975, 0.98, 0.295, 1.08, 0.3925, 1.1775, 0.49, 1.275, 0.59, 1.3725, 0.6875],
  "SoftwareVersions": "syngo MR E11",
  "SpacingBetweenSlices": 2,
  "StationName": "MRC35049",
  "TaskName": "things",
  "TotalReadoutTime": 0.0576811,
  "TxRefAmp": 273.622,
  "WipMemBlock": "8ebfad31-1eee-41ba-8891-47ac04a5cf9d||Sequence: R016 ve11c/master r/e634e98; Dec 19 2017 11:00:25 by eja",
  "dcmmeta_affine": [
    [-1.9966644048690796, -0.08577969670295715, 0.07728619873523712, 108.85662841796875],
    [-0.10971084982156754, 1.8267260789871216, -0.8068675994873047, -49.96001434326172],
    [0.03598393127322197, 0.8097614645957947, 1.8283848762512207, -67.77388000488281],
    [0.0, 0.0, 0.0, 1.0]
],
  "dcmmeta_reorient_transform": [
    [0.0, -1.0, 0.0, 103.0],
    [1.0, 0.0, 0.0, 0.0],
    [0.0, 0.0, 1.0, 0.0],
    [0.0, 0.0, 0.0, 1.0]
],
  "dcmmeta_shape": [104, 104, 60, 190],
  "dcmmeta_slice_dim": 2,
  "dcmmeta_version": 0.6,
  "global": {
    "const": {
      "AcquisitionMatrix": [104, 0, 0, 104],
      "AngioFlag": "N",
      "BitsAllocated": 16,
      "BitsStored": 16,
      "BodyPartExamined": "BRAIN",
      "Columns": 832,
      "EchoNumbers": 1,
      "EchoTime": 37.0,
      "EchoTrainLength": 104,
      "FlipAngle": 52.0,
      "HighBit": 15,
      "ImageOrientationPatient": [0.99833219498334, 0.05485542497881, 0.01799196515512, -0.0428898493993, 0.91336304038791, -0.4048807445062],
      "ImagePositionPatient": [-795.58334460053, -843.0558138748, 297.28658504079],
      "ImageType": [
        "ORIGINAL",
        "PRIMARY",
        "M",
        "MB",
        "ND",
        "MOSAIC"
],
      "ImagedNucleus": "1H",
      "ImagingFrequency": 123.258879,
      "InPlanePhaseEncodingDirection": "COL",
      "MRAcquisitionType": "2D",
      "MagneticFieldStrength": 3.0,
      "Manufacturer": "SIEMENS",
      "ManufacturerModelName": "Prisma_fit",
      "Modality": "MR",
      "NumberOfAverages": 1.0,
      "NumberOfPhaseEncodingSteps": 104,
      "PercentPhaseFieldOfView": 100.0,
      "PercentSampling": 100.0,
      "PerformedProcedureStepStartTime": "170038.437000",
      "PhotometricInterpretation": "MONOCHROME2",
      "PixelBandwidth": 2290.0,
      "PixelRepresentation": 0,
      "PixelSpacing": [2.0, 2.0],
      "ProtocolName": "func_task-things_run-3",
      "RepetitionTime": 1490.0,
      "Rows": 832,
      "SAR": 0.05213062732031,
      "SamplesPerPixel": 1,
      "ScanOptions": "FS",
      "ScanningSequence": "EP",
      "SequenceName": "epfid2d1_104",
      "SequenceVariant": [
        "SK",
        "SS"
],
      "SeriesDescription": "func_task-things_run-3",
      "SeriesNumber": 16,
      "SeriesTime": "174259.528000",
      "SliceLocation": -37.596253566226,
      "SliceThickness": 2.0,
      "SmallestImagePixelValue": 0,
      "SoftwareVersions": "syngo MR E11",
      "SpacingBetweenSlices": 1.9999999547002,
      "SpecificCharacterSet": "ISO_IR 100",
      "StudyID": "1",
      "StudyTime": "170038.367000",
      "TransmitCoilName": "Body",
      "VariableFlipAngleFlag": "N",
      "WindowCenterWidthExplanation": "Algo1",
      "dBdt": 0.0},
    "slices": {}
  },
  "time": {
    "samples": {
      "AcquisitionNumber": [1, 2, 3, 4, 5, 6, 7, 8, 9, 10, 11, 12, 13, 14, 15, 16, 17, 18, 19, 20, 21, 22, 23, 24, 25, 26, 27, 28, 29, 30, 31, 32, 33, 34, 35, 36, 37, 38, 39, 40, 41, 42, 43, 44, 45, 46, 47, 48, 49, 50, 51, 52, 53, 54, 55, 56, 57, 58, 59, 60, 61, 62, 63, 64, 65, 66, 67, 68, 69, 70, 71, 72, 73, 74, 75, 76, 77, 78, 79, 80, 81, 82, 83, 84, 85, 86, 87, 88, 89, 90, 91, 92, 93, 94, 95, 96, 97, 98, 99, 100, 101, 102, 103, 104, 105, 106, 107, 108, 109, 110, 111, 112, 113, 114, 115, 116, 117, 118, 119, 120, 121, 122, 123, 124, 125, 126, 127, 128, 129, 130, 131, 132, 133, 134, 135, 136, 137, 138, 139, 140, 141, 142, 143, 144, 145, 146, 147, 148, 149, 150, 151, 152, 153, 154, 155, 156, 157, 158, 159, 160, 161, 162, 163, 164, 165, 166, 167, 168, 169, 170, 171, 172, 173, 174, 175, 176, 177, 178, 179, 180, 181, 182, 183, 184, 185, 186, 187, 188, 189, 190],
      "AcquisitionTime": ["174146.020000", "174147.510000", "174149.000000", "174150.490000", "174151.980000", "174153.470000", "174154.960000", "174156.450000", "174157.940000", "174159.430000", "174200.920000", "174202.410000", "174203.900000", "174205.390000", "174206.880000", "174208.370000", "174209.860000", "174211.350000", "174212.840000", "174214.330000", "174215.820000", "174217.310000", "174218.800000", "174220.290000", "174221.780000", "174223.270000", "174224.760000", "174226.250000", "174227.740000", "174229.230000", "174230.720000", "174232.210000", "174233.700000", "174235.190000", "174236.680000", "174238.170000", "174239.660000", "174241.150000", "174242.640000", "174244.130000", "174245.620000", "174247.110000", "174248.600000", "174250.090000", "174251.580000", "174253.070000", "174254.560000", "174256.050000", "174257.540000", "174259.030000", "174300.520000", "174302.010000", "174303.500000", "174304.990000", "174306.480000", "174307.970000", "174309.460000", "174310.950000", "174312.440000", "174313.930000", "174315.420000", "174316.910000", "174318.400000", "174319.890000", "174321.380000", "174322.870000", "174324.360000", "174325.850000", "174327.340000", "174328.830000", "174330.320000", "174331.810000", "174333.300000", "174334.790000", "174336.280000", "174337.770000", "174339.260000", "174340.750000", "174342.240000", "174343.730000", "174345.220000", "174346.710000", "174348.200000", "174349.690000", "174351.180000", "174352.670000", "174354.160000", "174355.650000", "174357.140000", "174358.630000", "174400.120000", "174401.610000", "174403.100000", "174404.590000", "174406.080000", "174407.570000", "174409.060000", "174410.550000", "174412.040000", "174413.530000", "174415.020000", "174416.510000", "174418.000000", "174419.490000", "174420.980000", "174422.470000", "174423.960000", "174425.450000", "174426.940000", "174428.430000", "174429.920000", "174431.410000", "174432.900000", "174434.390000", "174435.880000", "174437.370000", "174438.860000", "174440.350000", "174441.840000", "174443.330000", "174444.820000", "174446.310000", "174447.800000", "174449.290000", "174450.780000", "174452.270000", "174453.760000", "174455.250000", "174456.740000", "174458.230000", "174459.720000", "174501.210000", "174502.700000", "174504.190000", "174505.680000", "174507.170000", "174508.660000", "174510.150000", "174511.640000", "174513.130000", "174514.620000", "174516.110000", "174517.600000", "174519.090000", "174520.580000", "174522.070000", "174523.560000", "174525.050000", "174526.540000", "174528.030000", "174529.520000", "174531.010000", "174532.500000", "174533.990000", "174535.480000", "174536.970000", "174538.460000", "174539.950000", "174541.440000", "174542.930000", "174544.420000", "174545.910000", "174547.400000", "174548.890000", "174550.380000", "174551.870000", "174553.360000", "174554.850000", "174556.340000", "174557.830000", "174559.320000", "174600.810000", "174602.300000", "174603.790000", "174605.280000", "174606.770000", "174608.260000", "174609.750000", "174611.240000", "174612.730000", "174614.220000", "174615.710000", "174617.200000", "174618.690000", "174620.180000", "174621.670000", "174623.160000", "174624.650000", "174626.140000", "174627.630000"],
      "ContentTime": ["174259.531000", "174259.535000", "174259.538000", "174259.544000", "174259.547000", "174259.551000", "174259.554000", "174259.558000", "174259.561000", "174259.564000", "174259.567000", "174259.571000", "174259.574000", "174259.578000", "174259.581000", "174259.584000", "174259.588000", "174259.591000", "174259.594000", "174319.496000", "174319.500000", "174319.503000", "174319.507000", "174319.510000", "174319.513000", "174319.517000", "174319.520000", "174319.523000", "174319.526000", "174319.530000", "174319.533000", "174319.536000", "174319.539000", "174319.557000", "174319.561000", "174319.564000", "174319.567000", "174319.571000", "174319.574000", "174339.496000", "174339.500000", "174339.507000", "174339.518000", "174339.521000", "174339.524000", "174339.528000", "174339.531000", "174339.534000", "174339.538000", "174339.541000", "174339.544000", "174339.548000", "174339.551000", "174339.554000", "174339.558000", "174339.561000", "174339.564000", "174339.568000", "174339.571000", "174359.496000", "174359.500000", "174359.503000", "174359.506000", "174359.510000", "174359.513000", "174359.516000", "174359.519000", "174359.523000", "174359.526000", "174359.529000", "174359.533000", "174359.536000", "174359.539000", "174359.543000", "174359.546000", "174359.549000", "174359.552000", "174359.556000", "174359.559000", "174359.562000", "174419.496000", "174419.500000", "174419.503000", "174419.506000", "174419.510000", "174419.513000", "174419.516000", "174419.520000", "174419.523000", "174419.527000", "174419.530000", "174419.533000", "174419.537000", "174419.540000", "174419.544000", "174419.548000", "174419.551000", "174419.554000", "174419.558000", "174419.561000", "174459.496000", "174459.500000", "174459.503000", "174459.506000", "174459.510000", "174459.513000", "174459.517000", "174459.520000", "174459.524000", "174459.527000", "174459.530000", "174459.534000", "174459.537000", "174459.541000", "174459.544000", "174459.547000", "174459.551000", "174459.554000", "174459.557000", "174459.561000", "174459.564000", "174459.568000", "174459.571000", "174459.574000", "174459.578000", "174459.581000", "174459.584000", "174459.588000", "174459.591000", "174539.496000", "174539.500000", "174539.504000", "174539.518000", "174539.521000", "174539.525000", "174539.528000", "174539.531000", "174539.535000", "174539.538000", "174539.542000", "174539.545000", "174539.549000", "174539.552000", "174539.556000", "174539.559000", "174539.562000", "174539.566000", "174539.569000", "174539.573000", "174539.576000", "174539.579000", "174539.583000", "174539.586000", "174539.590000", "174539.593000", "174539.603000", "174619.496000", "174619.500000", "174619.503000", "174619.506000", "174619.510000", "174619.513000", "174619.517000", "174619.520000", "174619.524000", "174619.527000", "174619.530000", "174619.534000", "174619.537000", "174619.540000", "174619.544000", "174619.547000", "174619.551000", "174619.554000", "174619.557000", "174619.561000", "174619.564000", "174619.567000", "174619.571000", "174619.574000", "174619.577000", "174619.581000", "174619.584000", "174629.811000", "174629.815000", "174629.818000", "174629.821000", "174629.825000", "174629.828000", "174629.832000"],
      "InstanceCreationTime": ["174259.531000", "174259.535000", "174259.538000", "174259.544000", "174259.547000", "174259.551000", "174259.554000", "174259.558000", "174259.561000", "174259.564000", "174259.567000", "174259.571000", "174259.574000", "174259.578000", "174259.581000", "174259.584000", "174259.588000", "174259.591000", "174259.594000", "174319.496000", "174319.500000", "174319.503000", "174319.507000", "174319.510000", "174319.513000", "174319.517000", "174319.520000", "174319.523000", "174319.526000", "174319.530000", "174319.533000", "174319.536000", "174319.539000", "174319.557000", "174319.561000", "174319.564000", "174319.567000", "174319.571000", "174319.574000", "174339.496000", "174339.500000", "174339.507000", "174339.518000", "174339.521000", "174339.524000", "174339.528000", "174339.531000", "174339.534000", "174339.538000", "174339.541000", "174339.544000", "174339.548000", "174339.551000", "174339.554000", "174339.558000", "174339.561000", "174339.564000", "174339.568000", "174339.571000", "174359.496000", "174359.500000", "174359.503000", "174359.506000", "174359.510000", "174359.513000", "174359.516000", "174359.519000", "174359.523000", "174359.526000", "174359.529000", "174359.533000", "174359.536000", "174359.539000", "174359.543000", "174359.546000", "174359.549000", "174359.552000", "174359.556000", "174359.559000", "174359.562000", "174419.496000", "174419.500000", "174419.503000", "174419.506000", "174419.510000", "174419.513000", "174419.516000", "174419.520000", "174419.523000", "174419.527000", "174419.530000", "174419.533000", "174419.537000", "174419.540000", "174419.544000", "174419.548000", "174419.551000", "174419.554000", "174419.558000", "174419.561000", "174459.496000", "174459.500000", "174459.503000", "174459.506000", "174459.510000", "174459.513000", "174459.517000", "174459.520000", "174459.524000", "174459.527000", "174459.530000", "174459.534000", "174459.537000", "174459.541000", "174459.544000", "174459.547000", "174459.551000", "174459.554000", "174459.557000", "174459.561000", "174459.564000", "174459.568000", "174459.571000", "174459.574000", "174459.578000", "174459.581000", "174459.584000", "174459.588000", "174459.591000", "174539.496000", "174539.500000", "174539.504000", "174539.518000", "174539.521000", "174539.525000", "174539.528000", "174539.531000", "174539.535000", "174539.538000", "174539.542000", "174539.545000", "174539.549000", "174539.552000", "174539.556000", "174539.559000", "174539.562000", "174539.566000", "174539.569000", "174539.573000", "174539.576000", "174539.579000", "174539.583000", "174539.586000", "174539.590000", "174539.593000", "174539.603000", "174619.496000", "174619.500000", "174619.503000", "174619.506000", "174619.510000", "174619.513000", "174619.517000", "174619.520000", "174619.524000", "174619.527000", "174619.530000", "174619.534000", "174619.537000", "174619.540000", "174619.544000", "174619.547000", "174619.551000", "174619.554000", "174619.557000", "174619.561000", "174619.564000", "174619.567000", "174619.571000", "174619.574000", "174619.577000", "174619.581000", "174619.584000", "174629.811000", "174629.815000", "174629.818000", "174629.821000", "174629.825000", "174629.828000", "174629.832000"],
      "InstanceNumber": [1, 2, 3, 4, 5, 6, 7, 8, 9, 10, 11, 12, 13, 14, 15, 16, 17, 18, 19, 20, 21, 22, 23, 24, 25, 26, 27, 28, 29, 30, 31, 32, 33, 34, 35, 36, 37, 38, 39, 40, 41, 42, 43, 44, 45, 46, 47, 48, 49, 50, 51, 52, 53, 54, 55, 56, 57, 58, 59, 60, 61, 62, 63, 64, 65, 66, 67, 68, 69, 70, 71, 72, 73, 74, 75, 76, 77, 78, 79, 80, 81, 82, 83, 84, 85, 86, 87, 88, 89, 90, 91, 92, 93, 94, 95, 96, 97, 98, 99, 100, 101, 102, 103, 104, 105, 106, 107, 108, 109, 110, 111, 112, 113, 114, 115, 116, 117, 118, 119, 120, 121, 122, 123, 124, 125, 126, 127, 128, 129, 130, 131, 132, 133, 134, 135, 136, 137, 138, 139, 140, 141, 142, 143, 144, 145, 146, 147, 148, 149, 150, 151, 152, 153, 154, 155, 156, 157, 158, 159, 160, 161, 162, 163, 164, 165, 166, 167, 168, 169, 170, 171, 172, 173, 174, 175, 176, 177, 178, 179, 180, 181, 182, 183, 184, 185, 186, 187, 188, 189, 190],
      "LargestImagePixelValue": [42331, 41244, 41841, 41973, 42350, 42130, 41655, 41078, 41791, 42238, 41316, 41621, 41765, 41965, 42109, 41338, 42445, 42750, 41614, 42178, 42168, 42111, 41502, 42419, 40569, 40553, 41799, 40727, 41508, 41403, 40546, 41122, 41535, 41264, 40735, 40805, 40525, 40438, 40290, 41226, 40867, 40740, 41367, 40643, 41367, 41095, 41136, 40926, 40900, 40604, 41007, 41593, 41559, 40830, 40708, 42176, 41282, 41213, 41288, 40524, 41452, 41689, 40983, 42791, 41491, 40706, 41179, 40853, 41362, 41183, 40758, 41583, 41567, 41841, 41226, 41364, 42180, 42696, 42411, 41752, 42455, 42379, 42841, 42074, 42542, 42329, 41791, 42264, 42552, 42613, 42853, 42764, 42665, 42517, 41929, 42187, 42159, 43096, 43251, 41480, 41872, 42082, 41839, 41255, 41397, 42379, 41083, 42299, 42098, 41621, 42369, 42134, 41365, 42826, 41619, 41087, 42256, 41716, 41702, 42025, 41727, 42225, 43104, 41516, 43014, 41687, 42536, 41776, 43102, 43803, 43157, 42023, 42576, 41932, 43165, 42577, 42044, 40150, 41917, 42573, 42839, 41994, 42774, 43284, 42497, 41465, 43447, 42698, 42440, 43194, 42813, 42366, 43299, 41841, 42530, 41378, 41359, 42293, 41715, 42553, 41756, 41923, 42033, 41981, 40709, 41179, 41766, 40515, 41526, 41139, 41160, 41323, 41072, 40992, 41497, 41270, 40515, 40815, 39962, 41399, 39376, 39005, 42846, 39142, 38308, 40023, 40538, 39659, 40907, 41674],
      "WindowCenter": [10493.0, 10427.0, 10442.0, 10486.0, 10483.0, 10455.0, 10429.0, 10413.0, 10424.0, 10441.0, 10416.0, 10406.0, 10420.0, 10439.0, 10440.0, 10414.0, 10422.0, 10433.0, 10413.0, 10423.0, 10434.0, 10428.0, 10423.0, 10435.0, 10427.0, 10437.0, 10457.0, 10440.0, 10440.0, 10429.0, 10416.0, 10424.0, 10438.0, 10441.0, 10449.0, 10468.0, 10453.0, 10423.0, 10400.0, 10414.0, 10437.0, 10425.0, 10420.0, 10413.0, 10409.0, 10412.0, 10438.0, 10462.0, 10466.0, 10439.0, 10415.0, 10422.0, 10421.0, 10409.0, 10410.0, 10434.0, 10432.0, 10440.0, 10456.0, 10439.0, 10432.0, 10422.0, 10418.0, 10448.0, 10456.0, 10453.0, 10460.0, 10471.0, 10481.0, 10472.0, 10441.0, 10442.0, 10467.0, 10462.0, 10460.0, 10473.0, 10478.0, 10466.0, 10455.0, 10460.0, 10479.0, 10457.0, 10435.0, 10426.0, 10432.0, 10434.0, 10439.0, 10453.0, 10444.0, 10435.0, 10438.0, 10448.0, 10449.0, 10460.0, 10466.0, 10481.0, 10469.0, 10460.0, 10430.0, 10405.0, 10409.0, 10438.0, 10455.0, 10474.0, 10473.0, 10458.0, 10421.0, 10420.0, 10409.0, 10414.0, 10432.0, 10434.0, 10433.0, 10447.0, 10432.0, 10445.0, 10483.0, 10465.0, 10444.0, 10438.0, 10433.0, 10429.0, 10447.0, 10441.0, 10461.0, 10459.0, 10486.0, 10472.0, 10470.0, 10464.0, 10433.0, 10427.0, 10444.0, 10455.0, 10473.0, 10471.0, 10459.0, 10434.0, 10440.0, 10436.0, 10425.0, 10421.0, 10432.0, 10430.0, 10426.0, 10432.0, 10449.0, 10430.0, 10434.0, 10438.0, 10432.0, 10437.0, 10458.0, 10458.0, 10457.0, 10446.0, 10446.0, 10462.0, 10466.0, 10491.0, 10480.0, 10475.0, 10461.0, 10441.0, 10412.0, 10424.0, 10436.0, 10428.0, 10449.0, 10440.0, 10427.0, 10430.0, 10430.0, 10428.0, 10440.0, 10425.0, 10422.0, 10439.0, 10439.0, 10449.0, 10419.0, 10418.0, 10445.0, 10423.0, 10431.0, 10463.0, 10479.0, 10479.0, 10472.0, 10439.0],
      "WindowWidth": [22300.0, 22126.0, 22150.0, 22252.0, 22241.0, 22169.0, 22108.0, 22073.0, 22097.0, 22138.0, 22079.0, 22053.0, 22085.0, 22138.0, 22135.0, 22073.0, 22087.0, 22120.0, 22070.0, 22091.0, 22119.0, 22104.0, 22100.0, 22125.0, 22114.0, 22136.0, 22176.0, 22144.0, 22131.0, 22116.0, 22087.0, 22101.0, 22136.0, 22147.0, 22165.0, 22208.0, 22173.0, 22099.0, 22049.0, 22078.0, 22144.0, 22112.0, 22095.0, 22084.0, 22075.0, 22079.0, 22139.0, 22197.0, 22205.0, 22139.0, 22084.0, 22097.0, 22094.0, 22069.0, 22076.0, 22121.0, 22122.0, 22139.0, 22178.0, 22140.0, 22119.0, 22095.0, 22093.0, 22159.0, 22178.0, 22176.0, 22190.0, 22218.0, 22241.0, 22219.0, 22148.0, 22146.0, 22203.0, 22191.0, 22186.0, 22221.0, 22229.0, 22196.0, 22172.0, 22190.0, 22229.0, 22177.0, 22120.0, 22100.0, 22113.0, 22122.0, 22136.0, 22166.0, 22143.0, 22124.0, 22126.0, 22156.0, 22155.0, 22184.0, 22202.0, 22231.0, 22205.0, 22179.0, 22102.0, 22061.0, 22064.0, 22131.0, 22176.0, 22221.0, 22222.0, 22182.0, 22098.0, 22090.0, 22063.0, 22076.0, 22119.0, 22121.0, 22129.0, 22152.0, 22122.0, 22159.0, 22241.0, 22203.0, 22148.0, 22132.0, 22124.0, 22110.0, 22149.0, 22147.0, 22183.0, 22184.0, 22242.0, 22217.0, 22202.0, 22188.0, 22112.0, 22110.0, 22152.0, 22172.0, 22207.0, 22207.0, 22181.0, 22128.0, 22135.0, 22121.0, 22092.0, 22088.0, 22110.0, 22105.0, 22099.0, 22121.0, 22151.0, 22113.0, 22119.0, 22125.0, 22112.0, 22129.0, 22180.0, 22186.0, 22182.0, 22159.0, 22163.0, 22189.0, 22203.0, 22258.0, 22232.0, 22213.0, 22183.0, 22136.0, 22073.0, 22101.0, 22123.0, 22114.0, 22161.0, 22147.0, 22111.0, 22129.0, 22124.0, 22116.0, 22141.0, 22109.0, 22106.0, 22149.0, 22156.0, 22173.0, 22112.0, 22110.0, 22154.0, 22115.0, 22136.0, 22198.0, 22233.0, 22237.0, 22215.0, 22131.0]
    },
    "slices": {}
  }
}