{
  "AcquisitionMatrixPE": 104,
  "AcquisitionNumber": 1,
  "AcquisitionTime": "17:47:54.130000",
  "BandwidthPerPixelPhaseEncode": 17.17,
  "BaseResolution": 104,
  "BodyPartExamined": "BRAIN",
  "CoilCombinationMethod": "Sum of Squares",
  "ConsistencyInfo": "N4_VE11C_LATEST_20160120",
  "ConversionSoftware": "dcm2niix",
  "ConversionSoftwareVersion": "v1.0.20211006",
  "DerivedVendorReportedEchoSpacing": 0.000560011,
  "DeviceSerialNumber": "167006",
  "DwellTime": 2.1e-06,
  "EchoTime": 0.037,
  "EchoTrainLength": 104,
  "EffectiveEchoSpacing": 0.000560011,
  "FlipAngle": 52,
  "HeudiconvVersion": "0.10.0",
  "ImageComments": "Unaliased MB4/PE3/LB",
  "ImageOrientationPatientDICOM": [0.998332, 0.0548554, 0.017992, -0.0428898, 0.913363, -0.404881],
  "ImageOrientationText": "Tra>Cor(-23.8)>Sag(2.2)",
  "ImageType": [
    "ORIGINAL",
    "PRIMARY",
    "M",
    "MB",
    "ND",
    "MOSAIC"
],
  "ImagingFrequency": 123.259,
  "InPlanePhaseEncodingDirectionDICOM": "COL",
  "InstitutionAddress": "Chemin Queen-Mary 4565,Montreal,District,CA,H3W 1W5",
  "InstitutionName": "IUGM",
  "InstitutionalDepartmentName": "Department",
  "MRAcquisitionType": "2D",
  "MagneticFieldStrength": 3,
  "Manufacturer": "Siemens",
  "ManufacturersModelName": "Prisma_fit",
  "MatrixCoilMode": "SENSE",
  "Modality": "MR",
  "MultibandAccelerationFactor": 4,
  "PartialFourier": 1,
  "PatientPosition": "HFS",
  "PercentPhaseFOV": 100,
  "PercentSampling": 100,
  "PhaseEncodingDirection": "j",
  "PhaseEncodingSteps": 104,
  "PhaseResolution": 1,
  "PixelBandwidth": 2290,
  "ProcedureStepDescription": "memory^things",
  "ProtocolName": "func_task-things_run-4",
  "PulseSequenceDetails": "%CustomerSeq%\\cmrr_mbep2d_bold",
  "ReceiveCoilActiveElements": "HC1-7;NC1,2",
  "ReceiveCoilName": "HeadNeck_64",
  "ReconMatrixPE": 104,
  "RepetitionTime": 1.49,
  "SAR": 0.0521306,
  "ScanOptions": "FS",
  "ScanningSequence": "EP",
  "SequenceName": "epfid2d1_104",
  "SequenceVariant": "SK\\SS",
  "SeriesDescription": "func_task-things_run-4",
  "SeriesNumber": 19,
  "ShimSetting": [624, -7182, -8824, 609, 71, -20, -89, -8],
  "SliceThickness": 2,
  "SliceTiming": [0, 0.785, 0.1, 0.8825, 0.1975, 0.98, 0.295, 1.08, 0.3925, 1.1775, 0.49, 1.275, 0.59, 1.3725, 0.6875, 0, 0.785, 0.1, 0.8825, 0.1975, 0.98, 0.295, 1.08, 0.3925, 1.1775, 0.49, 1.275, 0.59, 1.3725, 0.6875, 0, 0.785, 0.1, 0.8825, 0.1975, 0.98, 0.295, 1.08, 0.3925, 1.1775, 0.49, 1.275, 0.59, 1.3725, 0.6875, 0, 0.785, 0.1, 0.8825, 0.1975, 0.98, 0.295, 1.08, 0.3925, 1.1775, 0.49, 1.275, 0.59, 1.3725, 0.6875],
  "SoftwareVersions": "syngo MR E11",
  "SpacingBetweenSlices": 2,
  "StationName": "MRC35049",
  "TaskName": "things",
  "TotalReadoutTime": 0.0576811,
  "TxRefAmp": 273.622,
  "WipMemBlock": "f8d101b3-18d7-4228-b934-3a9ab7c6f4ae||Sequence: R016 ve11c/master r/e634e98; Dec 19 2017 11:00:25 by eja",
  "dcmmeta_affine": [
    [-1.9966644048690796, -0.08577969670295715, 0.07728619873523712, 108.85662841796875],
    [-0.10971084982156754, 1.8267260789871216, -0.8068675994873047, -49.96001434326172],
    [0.03598393127322197, 0.8097614645957947, 1.8283848762512207, -67.77388000488281],
    [0.0, 0.0, 0.0, 1.0]
],
  "dcmmeta_reorient_transform": [
    [0.0, -1.0, 0.0, 103.0],
    [1.0, 0.0, 0.0, 0.0],
    [0.0, 0.0, 1.0, 0.0],
    [0.0, 0.0, 0.0, 1.0]
],
  "dcmmeta_shape": [104, 104, 60, 190],
  "dcmmeta_slice_dim": 2,
  "dcmmeta_version": 0.6,
  "global": {
    "const": {
      "AcquisitionMatrix": [104, 0, 0, 104],
      "AngioFlag": "N",
      "BitsAllocated": 16,
      "BitsStored": 16,
      "BodyPartExamined": "BRAIN",
      "Columns": 832,
      "EchoNumbers": 1,
      "EchoTime": 37.0,
      "EchoTrainLength": 104,
      "FlipAngle": 52.0,
      "HighBit": 15,
      "ImageOrientationPatient": [0.99833219498334, 0.05485542497881, 0.01799196515512, -0.0428898493993, 0.91336304038791, -0.4048807445062],
      "ImagePositionPatient": [-795.58334460053, -843.0558138748, 297.28658504079],
      "ImageType": [
        "ORIGINAL",
        "PRIMARY",
        "M",
        "MB",
        "ND",
        "MOSAIC"
],
      "ImagedNucleus": "1H",
      "ImagingFrequency": 123.258881,
      "InPlanePhaseEncodingDirection": "COL",
      "MRAcquisitionType": "2D",
      "MagneticFieldStrength": 3.0,
      "Manufacturer": "SIEMENS",
      "ManufacturerModelName": "Prisma_fit",
      "Modality": "MR",
      "NumberOfAverages": 1.0,
      "NumberOfPhaseEncodingSteps": 104,
      "PercentPhaseFieldOfView": 100.0,
      "PercentSampling": 100.0,
      "PerformedProcedureStepStartTime": "170038.437000",
      "PhotometricInterpretation": "MONOCHROME2",
      "PixelBandwidth": 2290.0,
      "PixelRepresentation": 0,
      "PixelSpacing": [2.0, 2.0],
      "ProtocolName": "func_task-things_run-4",
      "RepetitionTime": 1490.0,
      "Rows": 832,
      "SAR": 0.05213062732031,
      "SamplesPerPixel": 1,
      "ScanOptions": "FS",
      "ScanningSequence": "EP",
      "SequenceName": "epfid2d1_104",
      "SequenceVariant": [
        "SK",
        "SS"
],
      "SeriesDescription": "func_task-things_run-4",
      "SeriesNumber": 19,
      "SeriesTime": "174859.907000",
      "SliceLocation": -37.596253566226,
      "SliceThickness": 2.0,
      "SmallestImagePixelValue": 0,
      "SoftwareVersions": "syngo MR E11",
      "SpacingBetweenSlices": 1.9999999547002,
      "SpecificCharacterSet": "ISO_IR 100",
      "StudyID": "1",
      "StudyTime": "170038.367000",
      "TransmitCoilName": "Body",
      "VariableFlipAngleFlag": "N",
      "WindowCenterWidthExplanation": "Algo1",
      "dBdt": 0.0},
    "slices": {}
  },
  "time": {
    "samples": {
      "AcquisitionNumber": [1, 2, 3, 4, 5, 6, 7, 8, 9, 10, 11, 12, 13, 14, 15, 16, 17, 18, 19, 20, 21, 22, 23, 24, 25, 26, 27, 28, 29, 30, 31, 32, 33, 34, 35, 36, 37, 38, 39, 40, 41, 42, 43, 44, 45, 46, 47, 48, 49, 50, 51, 52, 53, 54, 55, 56, 57, 58, 59, 60, 61, 62, 63, 64, 65, 66, 67, 68, 69, 70, 71, 72, 73, 74, 75, 76, 77, 78, 79, 80, 81, 82, 83, 84, 85, 86, 87, 88, 89, 90, 91, 92, 93, 94, 95, 96, 97, 98, 99, 100, 101, 102, 103, 104, 105, 106, 107, 108, 109, 110, 111, 112, 113, 114, 115, 116, 117, 118, 119, 120, 121, 122, 123, 124, 125, 126, 127, 128, 129, 130, 131, 132, 133, 134, 135, 136, 137, 138, 139, 140, 141, 142, 143, 144, 145, 146, 147, 148, 149, 150, 151, 152, 153, 154, 155, 156, 157, 158, 159, 160, 161, 162, 163, 164, 165, 166, 167, 168, 169, 170, 171, 172, 173, 174, 175, 176, 177, 178, 179, 180, 181, 182, 183, 184, 185, 186, 187, 188, 189, 190],
      "AcquisitionTime": ["174754.130000", "174755.620000", "174757.110000", "174758.600000", "174800.090000", "174801.580000", "174803.070000", "174804.560000", "174806.050000", "174807.540000", "174809.030000", "174810.520000", "174812.010000", "174813.500000", "174814.990000", "174816.480000", "174817.970000", "174819.460000", "174820.950000", "174822.440000", "174823.930000", "174825.420000", "174826.910000", "174828.400000", "174829.890000", "174831.380000", "174832.870000", "174834.360000", "174835.850000", "174837.340000", "174838.830000", "174840.320000", "174841.810000", "174843.300000", "174844.790000", "174846.280000", "174847.770000", "174849.260000", "174850.750000", "174852.240000", "174853.730000", "174855.220000", "174856.710000", "174858.200000", "174859.690000", "174901.180000", "174902.670000", "174904.160000", "174905.650000", "174907.140000", "174908.630000", "174910.120000", "174911.610000", "174913.100000", "174914.590000", "174916.080000", "174917.570000", "174919.060000", "174920.550000", "174922.040000", "174923.530000", "174925.020000", "174926.510000", "174928.000000", "174929.490000", "174930.980000", "174932.470000", "174933.960000", "174935.450000", "174936.940000", "174938.430000", "174939.920000", "174941.410000", "174942.900000", "174944.390000", "174945.880000", "174947.370000", "174948.860000", "174950.350000", "174951.840000", "174953.330000", "174954.820000", "174956.310000", "174957.800000", "174959.290000", "175000.780000", "175002.270000", "175003.760000", "175005.250000", "175006.740000", "175008.230000", "175009.720000", "175011.210000", "175012.700000", "175014.190000", "175015.680000", "175017.170000", "175018.660000", "175020.150000", "175021.640000", "175023.130000", "175024.620000", "175026.110000", "175027.600000", "175029.090000", "175030.580000", "175032.070000", "175033.560000", "175035.050000", "175036.540000", "175038.030000", "175039.520000", "175041.010000", "175042.500000", "175043.990000", "175045.480000", "175046.970000", "175048.460000", "175049.950000", "175051.440000", "175052.930000", "175054.420000", "175055.910000", "175057.400000", "175058.890000", "175100.380000", "175101.870000", "175103.360000", "175104.850000", "175106.340000", "175107.830000", "175109.320000", "175110.810000", "175112.300000", "175113.790000", "175115.280000", "175116.770000", "175118.260000", "175119.750000", "175121.240000", "175122.730000", "175124.220000", "175125.710000", "175127.200000", "175128.690000", "175130.180000", "175131.670000", "175133.160000", "175134.650000", "175136.140000", "175137.630000", "175139.120000", "175140.610000", "175142.100000", "175143.590000", "175145.080000", "175146.570000", "175148.060000", "175149.550000", "175151.040000", "175152.530000", "175154.020000", "175155.510000", "175157.000000", "175158.490000", "175159.980000", "175201.470000", "175202.960000", "175204.450000", "175205.940000", "175207.430000", "175208.920000", "175210.410000", "175211.900000", "175213.390000", "175214.880000", "175216.370000", "175217.860000", "175219.350000", "175220.840000", "175222.330000", "175223.820000", "175225.310000", "175226.800000", "175228.290000", "175229.780000", "175231.270000", "175232.760000", "175234.250000", "175235.740000"],
      "ContentTime": ["174859.910000", "174859.914000", "174859.917000", "174859.920000", "174859.929000", "174859.932000", "174859.936000", "174859.939000", "174859.943000", "174859.946000", "174859.949000", "174859.952000", "174919.862000", "174919.866000", "174919.869000", "174919.872000", "174919.876000", "174919.879000", "174919.882000", "174919.886000", "174919.889000", "174919.894000", "174919.898000", "174919.901000", "174919.904000", "174919.907000", "174919.911000", "174919.914000", "174919.918000", "174919.921000", "174919.924000", "174919.928000", "174939.862000", "174939.866000", "174939.869000", "174939.872000", "174939.876000", "174939.879000", "174939.882000", "174939.902000", "174939.905000", "174939.908000", "174939.912000", "174939.915000", "174939.918000", "174939.921000", "174939.925000", "174939.928000", "174939.931000", "174939.935000", "174939.938000", "174939.941000", "174959.861000", "174959.865000", "174959.868000", "174959.872000", "174959.875000", "174959.878000", "174959.882000", "174959.885000", "174959.888000", "174959.892000", "174959.895000", "174959.898000", "174959.902000", "174959.905000", "174959.908000", "174959.912000", "174959.915000", "174959.918000", "174959.922000", "174959.925000", "175019.861000", "175019.865000", "175019.868000", "175019.872000", "175019.875000", "175019.879000", "175019.882000", "175019.885000", "175019.889000", "175019.892000", "175019.895000", "175019.899000", "175019.902000", "175019.905000", "175019.909000", "175019.912000", "175019.915000", "175019.919000", "175019.922000", "175019.925000", "175059.861000", "175059.865000", "175059.868000", "175059.871000", "175059.875000", "175059.878000", "175059.881000", "175059.885000", "175059.888000", "175059.891000", "175059.894000", "175059.898000", "175059.901000", "175059.905000", "175059.908000", "175059.911000", "175059.915000", "175059.918000", "175059.921000", "175059.925000", "175059.928000", "175059.931000", "175059.934000", "175059.938000", "175059.941000", "175059.944000", "175059.948000", "175059.951000", "175059.954000", "175059.958000", "175059.961000", "175139.862000", "175139.866000", "175139.869000", "175139.872000", "175139.876000", "175139.879000", "175139.882000", "175139.886000", "175139.889000", "175139.892000", "175139.896000", "175139.899000", "175139.902000", "175139.906000", "175139.909000", "175139.912000", "175139.916000", "175139.919000", "175139.938000", "175139.941000", "175139.944000", "175139.948000", "175139.951000", "175139.954000", "175139.957000", "175139.961000", "175139.964000", "175219.861000", "175219.865000", "175219.868000", "175219.872000", "175219.876000", "175219.879000", "175219.882000", "175219.885000", "175219.889000", "175219.892000", "175219.895000", "175219.899000", "175219.902000", "175219.905000", "175219.909000", "175219.912000", "175219.915000", "175219.919000", "175219.922000", "175219.925000", "175219.928000", "175219.932000", "175219.935000", "175219.938000", "175219.942000", "175219.945000", "175219.948000", "175238.398000", "175238.401000", "175238.405000", "175238.408000", "175238.417000", "175238.420000", "175238.423000", "175238.427000", "175238.430000", "175238.434000", "175238.437000", "175238.440000", "175238.444000"],
      "InstanceCreationTime": ["174859.910000", "174859.914000", "174859.917000", "174859.920000", "174859.929000", "174859.932000", "174859.936000", "174859.939000", "174859.943000", "174859.946000", "174859.949000", "174859.952000", "174919.862000", "174919.866000", "174919.869000", "174919.872000", "174919.876000", "174919.879000", "174919.882000", "174919.886000", "174919.889000", "174919.894000", "174919.898000", "174919.901000", "174919.904000", "174919.907000", "174919.911000", "174919.914000", "174919.918000", "174919.921000", "174919.924000", "174919.928000", "174939.862000", "174939.866000", "174939.869000", "174939.872000", "174939.876000", "174939.879000", "174939.882000", "174939.902000", "174939.905000", "174939.908000", "174939.912000", "174939.915000", "174939.918000", "174939.921000", "174939.925000", "174939.928000", "174939.931000", "174939.935000", "174939.938000", "174939.941000", "174959.861000", "174959.865000", "174959.868000", "174959.872000", "174959.875000", "174959.878000", "174959.882000", "174959.885000", "174959.888000", "174959.892000", "174959.895000", "174959.898000", "174959.902000", "174959.905000", "174959.908000", "174959.912000", "174959.915000", "174959.918000", "174959.922000", "174959.925000", "175019.861000", "175019.865000", "175019.868000", "175019.872000", "175019.875000", "175019.879000", "175019.882000", "175019.885000", "175019.889000", "175019.892000", "175019.895000", "175019.899000", "175019.902000", "175019.905000", "175019.909000", "175019.912000", "175019.915000", "175019.919000", "175019.922000", "175019.925000", "175059.861000", "175059.865000", "175059.868000", "175059.871000", "175059.875000", "175059.878000", "175059.881000", "175059.885000", "175059.888000", "175059.891000", "175059.894000", "175059.898000", "175059.901000", "175059.905000", "175059.908000", "175059.911000", "175059.915000", "175059.918000", "175059.921000", "175059.925000", "175059.928000", "175059.931000", "175059.934000", "175059.938000", "175059.941000", "175059.944000", "175059.948000", "175059.951000", "175059.954000", "175059.958000", "175059.961000", "175139.862000", "175139.866000", "175139.869000", "175139.872000", "175139.876000", "175139.879000", "175139.882000", "175139.886000", "175139.889000", "175139.892000", "175139.896000", "175139.899000", "175139.902000", "175139.906000", "175139.909000", "175139.912000", "175139.916000", "175139.919000", "175139.938000", "175139.941000", "175139.944000", "175139.948000", "175139.951000", "175139.954000", "175139.957000", "175139.961000", "175139.964000", "175219.861000", "175219.865000", "175219.868000", "175219.872000", "175219.876000", "175219.879000", "175219.882000", "175219.885000", "175219.889000", "175219.892000", "175219.895000", "175219.899000", "175219.902000", "175219.905000", "175219.909000", "175219.912000", "175219.915000", "175219.919000", "175219.922000", "175219.925000", "175219.928000", "175219.932000", "175219.935000", "175219.938000", "175219.942000", "175219.945000", "175219.948000", "175238.398000", "175238.401000", "175238.405000", "175238.408000", "175238.417000", "175238.420000", "175238.423000", "175238.427000", "175238.430000", "175238.434000", "175238.437000", "175238.440000", "175238.444000"],
      "InstanceNumber": [1, 2, 3, 4, 5, 6, 7, 8, 9, 10, 11, 12, 13, 14, 15, 16, 17, 18, 19, 20, 21, 22, 23, 24, 25, 26, 27, 28, 29, 30, 31, 32, 33, 34, 35, 36, 37, 38, 39, 40, 41, 42, 43, 44, 45, 46, 47, 48, 49, 50, 51, 52, 53, 54, 55, 56, 57, 58, 59, 60, 61, 62, 63, 64, 65, 66, 67, 68, 69, 70, 71, 72, 73, 74, 75, 76, 77, 78, 79, 80, 81, 82, 83, 84, 85, 86, 87, 88, 89, 90, 91, 92, 93, 94, 95, 96, 97, 98, 99, 100, 101, 102, 103, 104, 105, 106, 107, 108, 109, 110, 111, 112, 113, 114, 115, 116, 117, 118, 119, 120, 121, 122, 123, 124, 125, 126, 127, 128, 129, 130, 131, 132, 133, 134, 135, 136, 137, 138, 139, 140, 141, 142, 143, 144, 145, 146, 147, 148, 149, 150, 151, 152, 153, 154, 155, 156, 157, 158, 159, 160, 161, 162, 163, 164, 165, 166, 167, 168, 169, 170, 171, 172, 173, 174, 175, 176, 177, 178, 179, 180, 181, 182, 183, 184, 185, 186, 187, 188, 189, 190],
      "LargestImagePixelValue": [45975, 44731, 43131, 41745, 41683, 42704, 43105, 42311, 42320, 42248, 42018, 42400, 41499, 40822, 41189, 40298, 41697, 40961, 39643, 40124, 40826, 40346, 40286, 40709, 41799, 41472, 39638, 39960, 39279, 40722, 39716, 39968, 40461, 40451, 40326, 39901, 41320, 39459, 39125, 40863, 39509, 39665, 40312, 39820, 39476, 41284, 39598, 38961, 39858, 39281, 39366, 39207, 38731, 39985, 39130, 39064, 39016, 39230, 39254, 39544, 39258, 39391, 40119, 39005, 39021, 39454, 39778, 39091, 39324, 39272, 39343, 39087, 39446, 39621, 39475, 40207, 39129, 40588, 39266, 40597, 40162, 39350, 39563, 39054, 39328, 40923, 39182, 40054, 41044, 42658, 43044, 43186, 42903, 42732, 42678, 43229, 42704, 42618, 42137, 42615, 42630, 42607, 42959, 42534, 42660, 42259, 42340, 42382, 41734, 41545, 41709, 41649, 42047, 41591, 41830, 41129, 41659, 40601, 41392, 39129, 42648, 43468, 43455, 42832, 43147, 43564, 43437, 42323, 44131, 42789, 42456, 43193, 43687, 43487, 44256, 43523, 42922, 43710, 42271, 42755, 42323, 43351, 41733, 42414, 42727, 42268, 41464, 41979, 41953, 41998, 41872, 41231, 40947, 40411, 41437, 41083, 41418, 41802, 41668, 41401, 40674, 40135, 40139, 40851, 41194, 40361, 40981, 38968, 40732, 38675, 39349, 39098, 39020, 40536, 42132, 41302, 40807, 40803, 41055, 40742, 40359, 40132, 40509, 38231, 38380, 38035, 38430, 38730, 39383, 39001],
      "WindowCenter": [10495.0, 10441.0, 10420.0, 10436.0, 10455.0, 10449.0, 10437.0, 10415.0, 10428.0, 10456.0, 10453.0, 10438.0, 10417.0, 10411.0, 10409.0, 10408.0, 10444.0, 10465.0, 10447.0, 10447.0, 10426.0, 10402.0, 10400.0, 10422.0, 10432.0, 10428.0, 10405.0, 10413.0, 10397.0, 10393.0, 10373.0, 10397.0, 10422.0, 10422.0, 10416.0, 10409.0, 10424.0, 10410.0, 10406.0, 10422.0, 10402.0, 10407.0, 10420.0, 10420.0, 10414.0, 10446.0, 10421.0, 10409.0, 10425.0, 10427.0, 10421.0, 10406.0, 10397.0, 10407.0, 10401.0, 10414.0, 10421.0, 10431.0, 10450.0, 10446.0, 10426.0, 10416.0, 10403.0, 10396.0, 10405.0, 10421.0, 10420.0, 10429.0, 10447.0, 10451.0, 10436.0, 10404.0, 10387.0, 10393.0, 10396.0, 10422.0, 10418.0, 10433.0, 10424.0, 10449.0, 10465.0, 10445.0, 10432.0, 10417.0, 10420.0, 10454.0, 10432.0, 10436.0, 10448.0, 10447.0, 10448.0, 10447.0, 10450.0, 10451.0, 10453.0, 10455.0, 10441.0, 10432.0, 10433.0, 10440.0, 10443.0, 10450.0, 10440.0, 10435.0, 10448.0, 10440.0, 10438.0, 10442.0, 10446.0, 10461.0, 10460.0, 10453.0, 10445.0, 10437.0, 10425.0, 10402.0, 10414.0, 10410.0, 10429.0, 10406.0, 10438.0, 10453.0, 10482.0, 10482.0, 10477.0, 10449.0, 10428.0, 10402.0, 10421.0, 10433.0, 10461.0, 10488.0, 10502.0, 10475.0, 10454.0, 10437.0, 10441.0, 10462.0, 10454.0, 10459.0, 10442.0, 10457.0, 10441.0, 10453.0, 10467.0, 10464.0, 10443.0, 10434.0, 10439.0, 10458.0, 10460.0, 10442.0, 10446.0, 10424.0, 10423.0, 10429.0, 10440.0, 10447.0, 10444.0, 10433.0, 10413.0, 10401.0, 10405.0, 10442.0, 10450.0, 10441.0, 10425.0, 10429.0, 10440.0, 10426.0, 10443.0, 10426.0, 10421.0, 10419.0, 10412.0, 10423.0, 10440.0, 10479.0, 10483.0, 10451.0, 10430.0, 10400.0, 10385.0, 10364.0, 10379.0, 10413.0, 10431.0, 10427.0, 10426.0, 10399.0],
      "WindowWidth": [22284.0, 22144.0, 22093.0, 22132.0, 22175.0, 22152.0, 22121.0, 22074.0, 22103.0, 22171.0, 22166.0, 22124.0, 22077.0, 22068.0, 22065.0, 22073.0, 22151.0, 22198.0, 22160.0, 22157.0, 22106.0, 22050.0, 22048.0, 22097.0, 22116.0, 22109.0, 22066.0, 22085.0, 22047.0, 22028.0, 21990.0, 22043.0, 22102.0, 22098.0, 22085.0, 22072.0, 22101.0, 22078.0, 22071.0, 22099.0, 22059.0, 22069.0, 22094.0, 22098.0, 22091.0, 22163.0, 22103.0, 22079.0, 22109.0, 22116.0, 22103.0, 22069.0, 22049.0, 22069.0, 22060.0, 22092.0, 22106.0, 22130.0, 22180.0, 22163.0, 22120.0, 22096.0, 22061.0, 22049.0, 22071.0, 22109.0, 22103.0, 22125.0, 22164.0, 22179.0, 22140.0, 22066.0, 22022.0, 22039.0, 22049.0, 22105.0, 22109.0, 22129.0, 22115.0, 22166.0, 22211.0, 22167.0, 22131.0, 22098.0, 22103.0, 22181.0, 22133.0, 22136.0, 22162.0, 22157.0, 22146.0, 22143.0, 22157.0, 22158.0, 22161.0, 22161.0, 22130.0, 22106.0, 22112.0, 22128.0, 22136.0, 22153.0, 22128.0, 22118.0, 22153.0, 22135.0, 22127.0, 22143.0, 22153.0, 22189.0, 22185.0, 22169.0, 22150.0, 22127.0, 22095.0, 22046.0, 22079.0, 22070.0, 22120.0, 22071.0, 22125.0, 22154.0, 22223.0, 22229.0, 22215.0, 22143.0, 22094.0, 22043.0, 22076.0, 22119.0, 22182.0, 22245.0, 22271.0, 22206.0, 22154.0, 22117.0, 22133.0, 22179.0, 22167.0, 22174.0, 22142.0, 22172.0, 22136.0, 22160.0, 22192.0, 22185.0, 22141.0, 22121.0, 22131.0, 22180.0, 22181.0, 22141.0, 22152.0, 22102.0, 22093.0, 22104.0, 22130.0, 22142.0, 22140.0, 22124.0, 22073.0, 22051.0, 22057.0, 22148.0, 22156.0, 22143.0, 22106.0, 22127.0, 22143.0, 22120.0, 22158.0, 22112.0, 22111.0, 22098.0, 22063.0, 22092.0, 22134.0, 22224.0, 22232.0, 22158.0, 22121.0, 22046.0, 22014.0, 21975.0, 22005.0, 22090.0, 22128.0, 22114.0, 22109.0, 22046.0]
    },
    "slices": {}
  }
}