{
  "AcquisitionMatrixPE": 104,
  "AcquisitionNumber": 1,
  "AcquisitionTime": "17:58:55.882500",
  "BandwidthPerPixelPhaseEncode": 17.17,
  "BaseResolution": 104,
  "BodyPartExamined": "BRAIN",
  "CoilCombinationMethod": "Sum of Squares",
  "ConsistencyInfo": "N4_VE11C_LATEST_20160120",
  "ConversionSoftware": "dcm2niix",
  "ConversionSoftwareVersion": "v1.0.20211006",
  "DerivedVendorReportedEchoSpacing": 0.000560011,
  "DeviceSerialNumber": "167006",
  "DwellTime": 2.1e-06,
  "EchoTime": 0.037,
  "EchoTrainLength": 104,
  "EffectiveEchoSpacing": 0.000560011,
  "FlipAngle": 52,
  "HeudiconvVersion": "0.10.0",
  "ImageComments": "Unaliased MB4/PE3/LB",
  "ImageOrientationPatientDICOM": [0.998332, 0.0548554, 0.017992, -0.0428898, 0.913363, -0.404881],
  "ImageOrientationText": "Tra>Cor(-23.8)>Sag(2.2)",
  "ImageType": [
    "ORIGINAL",
    "PRIMARY",
    "M",
    "MB",
    "ND",
    "MOSAIC"
],
  "ImagingFrequency": 123.259,
  "InPlanePhaseEncodingDirectionDICOM": "COL",
  "InstitutionAddress": "Chemin Queen-Mary 4565,Montreal,District,CA,H3W 1W5",
  "InstitutionName": "IUGM",
  "InstitutionalDepartmentName": "Department",
  "MRAcquisitionType": "2D",
  "MagneticFieldStrength": 3,
  "Manufacturer": "Siemens",
  "ManufacturersModelName": "Prisma_fit",
  "MatrixCoilMode": "SENSE",
  "Modality": "MR",
  "MultibandAccelerationFactor": 4,
  "PartialFourier": 1,
  "PatientPosition": "HFS",
  "PercentPhaseFOV": 100,
  "PercentSampling": 100,
  "PhaseEncodingDirection": "j",
  "PhaseEncodingSteps": 104,
  "PhaseResolution": 1,
  "PixelBandwidth": 2290,
  "ProcedureStepDescription": "memory^things",
  "ProtocolName": "func_task-things_run-5",
  "PulseSequenceDetails": "%CustomerSeq%\\cmrr_mbep2d_bold",
  "ReceiveCoilActiveElements": "HC1-7;NC1,2",
  "ReceiveCoilName": "HeadNeck_64",
  "ReconMatrixPE": 104,
  "RepetitionTime": 1.49,
  "SAR": 0.0521306,
  "ScanOptions": "FS",
  "ScanningSequence": "EP",
  "SequenceName": "epfid2d1_104",
  "SequenceVariant": "SK\\SS",
  "SeriesDescription": "func_task-things_run-5",
  "SeriesNumber": 22,
  "ShimSetting": [624, -7182, -8824, 609, 71, -20, -89, -8],
  "SliceThickness": 2,
  "SliceTiming": [0, 0.7825, 0.0975, 0.8825, 0.195, 0.98, 0.2925, 1.0775, 0.3925, 1.175, 0.49, 1.2725, 0.5875, 1.3725, 0.685, 0, 0.7825, 0.0975, 0.8825, 0.195, 0.98, 0.2925, 1.0775, 0.3925, 1.175, 0.49, 1.2725, 0.5875, 1.3725, 0.685, 0, 0.7825, 0.0975, 0.8825, 0.195, 0.98, 0.2925, 1.0775, 0.3925, 1.175, 0.49, 1.2725, 0.5875, 1.3725, 0.685, 0, 0.7825, 0.0975, 0.8825, 0.195, 0.98, 0.2925, 1.0775, 0.3925, 1.175, 0.49, 1.2725, 0.5875, 1.3725, 0.685],
  "SoftwareVersions": "syngo MR E11",
  "SpacingBetweenSlices": 2,
  "StationName": "MRC35049",
  "TaskName": "things",
  "TotalReadoutTime": 0.0576811,
  "TxRefAmp": 273.622,
  "WipMemBlock": "2f3be82a-d48d-4970-ba03-477c5a475567||Sequence: R016 ve11c/master r/e634e98; Dec 19 2017 11:00:25 by eja",
  "dcmmeta_affine": [
    [-1.9966644048690796, -0.08577969670295715, 0.07728619873523712, 108.85662841796875],
    [-0.10971084982156754, 1.8267260789871216, -0.8068675994873047, -49.96001434326172],
    [0.03598393127322197, 0.8097614645957947, 1.8283848762512207, -67.77388000488281],
    [0.0, 0.0, 0.0, 1.0]
],
  "dcmmeta_reorient_transform": [
    [0.0, -1.0, 0.0, 103.0],
    [1.0, 0.0, 0.0, 0.0],
    [0.0, 0.0, 1.0, 0.0],
    [0.0, 0.0, 0.0, 1.0]
],
  "dcmmeta_shape": [104, 104, 60, 190],
  "dcmmeta_slice_dim": 2,
  "dcmmeta_version": 0.6,
  "global": {
    "const": {
      "AcquisitionMatrix": [104, 0, 0, 104],
      "AngioFlag": "N",
      "BitsAllocated": 16,
      "BitsStored": 16,
      "BodyPartExamined": "BRAIN",
      "Columns": 832,
      "EchoNumbers": 1,
      "EchoTime": 37.0,
      "EchoTrainLength": 104,
      "FlipAngle": 52.0,
      "HighBit": 15,
      "ImageOrientationPatient": [0.99833219498334, 0.05485542497881, 0.01799196515512, -0.0428898493993, 0.91336304038791, -0.4048807445062],
      "ImagePositionPatient": [-795.58334460053, -843.0558138748, 297.28658504079],
      "ImageType": [
        "ORIGINAL",
        "PRIMARY",
        "M",
        "MB",
        "ND",
        "MOSAIC"
],
      "ImagedNucleus": "1H",
      "ImagingFrequency": 123.258885,
      "InPlanePhaseEncodingDirection": "COL",
      "MRAcquisitionType": "2D",
      "MagneticFieldStrength": 3.0,
      "Manufacturer": "SIEMENS",
      "ManufacturerModelName": "Prisma_fit",
      "Modality": "MR",
      "NumberOfAverages": 1.0,
      "NumberOfPhaseEncodingSteps": 104,
      "PercentPhaseFieldOfView": 100.0,
      "PercentSampling": 100.0,
      "PerformedProcedureStepStartTime": "170038.437000",
      "PhotometricInterpretation": "MONOCHROME2",
      "PixelBandwidth": 2290.0,
      "PixelRepresentation": 0,
      "PixelSpacing": [2.0, 2.0],
      "ProtocolName": "func_task-things_run-5",
      "RepetitionTime": 1490.0,
      "Rows": 832,
      "SAR": 0.05213062732031,
      "SamplesPerPixel": 1,
      "ScanOptions": "FS",
      "ScanningSequence": "EP",
      "SequenceName": "epfid2d1_104",
      "SequenceVariant": [
        "SK",
        "SS"
],
      "SeriesDescription": "func_task-things_run-5",
      "SeriesNumber": 22,
      "SeriesTime": "175952.734000",
      "SliceLocation": -37.596253566226,
      "SliceThickness": 2.0,
      "SmallestImagePixelValue": 0,
      "SoftwareVersions": "syngo MR E11",
      "SpacingBetweenSlices": 1.9999999547002,
      "SpecificCharacterSet": "ISO_IR 100",
      "StudyID": "1",
      "StudyTime": "170038.367000",
      "TransmitCoilName": "Body",
      "VariableFlipAngleFlag": "N",
      "WindowCenterWidthExplanation": "Algo1",
      "dBdt": 0.0},
    "slices": {}
  },
  "time": {
    "samples": {
      "AcquisitionNumber": [1, 2, 3, 4, 5, 6, 7, 8, 9, 10, 11, 12, 13, 14, 15, 16, 17, 18, 19, 20, 21, 22, 23, 24, 25, 26, 27, 28, 29, 30, 31, 32, 33, 34, 35, 36, 37, 38, 39, 40, 41, 42, 43, 44, 45, 46, 47, 48, 49, 50, 51, 52, 53, 54, 55, 56, 57, 58, 59, 60, 61, 62, 63, 64, 65, 66, 67, 68, 69, 70, 71, 72, 73, 74, 75, 76, 77, 78, 79, 80, 81, 82, 83, 84, 85, 86, 87, 88, 89, 90, 91, 92, 93, 94, 95, 96, 97, 98, 99, 100, 101, 102, 103, 104, 105, 106, 107, 108, 109, 110, 111, 112, 113, 114, 115, 116, 117, 118, 119, 120, 121, 122, 123, 124, 125, 126, 127, 128, 129, 130, 131, 132, 133, 134, 135, 136, 137, 138, 139, 140, 141, 142, 143, 144, 145, 146, 147, 148, 149, 150, 151, 152, 153, 154, 155, 156, 157, 158, 159, 160, 161, 162, 163, 164, 165, 166, 167, 168, 169, 170, 171, 172, 173, 174, 175, 176, 177, 178, 179, 180, 181, 182, 183, 184, 185, 186, 187, 188, 189, 190],
      "AcquisitionTime": ["175855.882500", "175857.372500", "175858.862500", "175900.352500", "175901.842500", "175903.332500", "175904.822500", "175906.312500", "175907.802500", "175909.292500", "175910.782500", "175912.272500", "175913.762500", "175915.252500", "175916.742500", "175918.232500", "175919.722500", "175921.212500", "175922.702500", "175924.192500", "175925.682500", "175927.172500", "175928.662500", "175930.152500", "175931.642500", "175933.132500", "175934.622500", "175936.112500", "175937.602500", "175939.092500", "175940.582500", "175942.072500", "175943.562500", "175945.052500", "175946.542500", "175948.032500", "175949.522500", "175951.012500", "175952.502500", "175953.992500", "175955.482500", "175956.972500", "175958.462500", "175959.952500", "180001.442500", "180002.932500", "180004.422500", "180005.912500", "180007.402500", "180008.892500", "180010.382500", "180011.872500", "180013.362500", "180014.852500", "180016.342500", "180017.832500", "180019.322500", "180020.812500", "180022.302500", "180023.792500", "180025.282500", "180026.772500", "180028.262500", "180029.752500", "180031.242500", "180032.732500", "180034.222500", "180035.712500", "180037.202500", "180038.692500", "180040.182500", "180041.672500", "180043.162500", "180044.652500", "180046.142500", "180047.632500", "180049.122500", "180050.612500", "180052.102500", "180053.592500", "180055.082500", "180056.572500", "180058.062500", "180059.552500", "180101.042500", "180102.532500", "180104.022500", "180105.512500", "180107.002500", "180108.492500", "180109.982500", "180111.472500", "180112.962500", "180114.452500", "180115.942500", "180117.432500", "180118.922500", "180120.412500", "180121.902500", "180123.392500", "180124.882500", "180126.372500", "180127.862500", "180129.352500", "180130.842500", "180132.332500", "180133.822500", "180135.312500", "180136.802500", "180138.292500", "180139.782500", "180141.272500", "180142.762500", "180144.252500", "180145.742500", "180147.232500", "180148.722500", "180150.212500", "180151.702500", "180153.192500", "180154.682500", "180156.172500", "180157.662500", "180159.152500", "180200.642500", "180202.132500", "180203.622500", "180205.112500", "180206.602500", "180208.092500", "180209.582500", "180211.072500", "180212.562500", "180214.052500", "180215.542500", "180217.032500", "180218.522500", "180220.012500", "180221.502500", "180222.992500", "180224.482500", "180225.972500", "180227.462500", "180228.952500", "180230.442500", "180231.932500", "180233.422500", "180234.912500", "180236.402500", "180237.892500", "180239.382500", "180240.872500", "180242.362500", "180243.852500", "180245.342500", "180246.832500", "180248.322500", "180249.812500", "180251.302500", "180252.792500", "180254.282500", "180255.772500", "180257.262500", "180258.752500", "180300.242500", "180301.732500", "180303.222500", "180304.712500", "180306.202500", "180307.692500", "180309.182500", "180310.672500", "180312.162500", "180313.652500", "180315.142500", "180316.632500", "180318.122500", "180319.612500", "180321.102500", "180322.592500", "180324.082500", "180325.572500", "180327.062500", "180328.552500", "180330.042500", "180331.532500", "180333.022500", "180334.512500", "180336.002500", "180337.492500"],
      "ContentTime": ["175952.737000", "175952.741000", "175952.744000", "180012.702000", "180012.706000", "180012.709000", "180012.712000", "180012.716000", "180012.719000", "180012.722000", "180012.726000", "180012.729000", "180012.732000", "180012.736000", "180012.739000", "180012.742000", "180012.745000", "180012.749000", "180012.752000", "180012.755000", "180012.759000", "180012.762000", "180012.765000", "180032.702000", "180032.706000", "180032.709000", "180032.712000", "180032.716000", "180032.719000", "180032.722000", "180032.725000", "180032.729000", "180032.732000", "180032.735000", "180032.739000", "180032.742000", "180032.745000", "180032.748000", "180032.752000", "180032.755000", "180032.758000", "180032.762000", "180032.766000", "180052.702000", "180052.706000", "180052.719000", "180052.722000", "180052.725000", "180052.729000", "180052.732000", "180052.735000", "180052.738000", "180052.742000", "180052.745000", "180052.749000", "180052.752000", "180052.755000", "180052.758000", "180052.762000", "180052.765000", "180052.768000", "180052.772000", "180052.775000", "180112.702000", "180112.706000", "180112.709000", "180112.713000", "180112.716000", "180112.719000", "180112.722000", "180112.726000", "180112.729000", "180112.732000", "180112.736000", "180112.739000", "180112.742000", "180112.746000", "180112.749000", "180112.752000", "180112.756000", "180112.759000", "180112.762000", "180112.766000", "180112.769000", "180132.703000", "180132.707000", "180132.710000", "180132.714000", "180132.717000", "180132.720000", "180132.724000", "180132.727000", "180132.730000", "180132.734000", "180132.737000", "180132.740000", "180132.744000", "180132.747000", "180132.750000", "180132.753000", "180132.757000", "180132.760000", "180132.763000", "180132.767000", "180212.702000", "180212.706000", "180212.709000", "180212.713000", "180212.716000", "180212.719000", "180212.723000", "180212.726000", "180212.729000", "180212.733000", "180212.736000", "180212.739000", "180212.742000", "180212.746000", "180212.749000", "180212.752000", "180212.756000", "180212.759000", "180212.762000", "180212.766000", "180212.769000", "180212.772000", "180212.776000", "180212.779000", "180212.782000", "180212.786000", "180212.789000", "180252.702000", "180252.706000", "180252.710000", "180252.713000", "180252.716000", "180252.720000", "180252.723000", "180252.726000", "180252.730000", "180252.733000", "180252.737000", "180252.740000", "180252.743000", "180252.747000", "180252.750000", "180252.754000", "180252.770000", "180252.774000", "180252.777000", "180252.780000", "180252.784000", "180252.787000", "180252.790000", "180252.794000", "180252.797000", "180252.800000", "180252.804000", "180332.702000", "180332.706000", "180332.709000", "180332.713000", "180332.716000", "180332.719000", "180332.723000", "180332.726000", "180332.729000", "180332.733000", "180332.736000", "180332.739000", "180332.750000", "180332.754000", "180332.757000", "180332.760000", "180332.764000", "180332.767000", "180332.770000", "180332.774000", "180332.777000", "180332.781000", "180332.784000", "180332.787000", "180332.791000", "180332.794000", "180332.797000", "180339.647000", "180339.650000", "180339.654000", "180339.657000", "180339.660000"],
      "InstanceCreationTime": ["175952.737000", "175952.741000", "175952.744000", "180012.702000", "180012.706000", "180012.709000", "180012.712000", "180012.716000", "180012.719000", "180012.722000", "180012.726000", "180012.729000", "180012.732000", "180012.736000", "180012.739000", "180012.742000", "180012.745000", "180012.749000", "180012.752000", "180012.755000", "180012.759000", "180012.762000", "180012.765000", "180032.702000", "180032.706000", "180032.709000", "180032.712000", "180032.716000", "180032.719000", "180032.722000", "180032.725000", "180032.729000", "180032.732000", "180032.735000", "180032.739000", "180032.742000", "180032.745000", "180032.748000", "180032.752000", "180032.755000", "180032.758000", "180032.762000", "180032.766000", "180052.702000", "180052.706000", "180052.719000", "180052.722000", "180052.725000", "180052.729000", "180052.732000", "180052.735000", "180052.738000", "180052.742000", "180052.745000", "180052.749000", "180052.752000", "180052.755000", "180052.758000", "180052.762000", "180052.765000", "180052.768000", "180052.772000", "180052.775000", "180112.702000", "180112.706000", "180112.709000", "180112.713000", "180112.716000", "180112.719000", "180112.722000", "180112.726000", "180112.729000", "180112.732000", "180112.736000", "180112.739000", "180112.742000", "180112.746000", "180112.749000", "180112.752000", "180112.756000", "180112.759000", "180112.762000", "180112.766000", "180112.769000", "180132.703000", "180132.707000", "180132.710000", "180132.714000", "180132.717000", "180132.720000", "180132.724000", "180132.727000", "180132.730000", "180132.734000", "180132.737000", "180132.740000", "180132.744000", "180132.747000", "180132.750000", "180132.753000", "180132.757000", "180132.760000", "180132.763000", "180132.767000", "180212.702000", "180212.706000", "180212.709000", "180212.713000", "180212.716000", "180212.719000", "180212.723000", "180212.726000", "180212.729000", "180212.733000", "180212.736000", "180212.739000", "180212.742000", "180212.746000", "180212.749000", "180212.752000", "180212.756000", "180212.759000", "180212.762000", "180212.766000", "180212.769000", "180212.772000", "180212.776000", "180212.779000", "180212.782000", "180212.786000", "180212.789000", "180252.702000", "180252.706000", "180252.710000", "180252.713000", "180252.716000", "180252.720000", "180252.723000", "180252.726000", "180252.730000", "180252.733000", "180252.737000", "180252.740000", "180252.743000", "180252.747000", "180252.750000", "180252.754000", "180252.770000", "180252.774000", "180252.777000", "180252.780000", "180252.784000", "180252.787000", "180252.790000", "180252.794000", "180252.797000", "180252.800000", "180252.804000", "180332.702000", "180332.706000", "180332.709000", "180332.713000", "180332.716000", "180332.719000", "180332.723000", "180332.726000", "180332.729000", "180332.733000", "180332.736000", "180332.739000", "180332.750000", "180332.754000", "180332.757000", "180332.760000", "180332.764000", "180332.767000", "180332.770000", "180332.774000", "180332.777000", "180332.781000", "180332.784000", "180332.787000", "180332.791000", "180332.794000", "180332.797000", "180339.647000", "180339.650000", "180339.654000", "180339.657000", "180339.660000"],
      "InstanceNumber": [1, 2, 3, 4, 5, 6, 7, 8, 9, 10, 11, 12, 13, 14, 15, 16, 17, 18, 19, 20, 21, 22, 23, 24, 25, 26, 27, 28, 29, 30, 31, 32, 33, 34, 35, 36, 37, 38, 39, 40, 41, 42, 43, 44, 45, 46, 47, 48, 49, 50, 51, 52, 53, 54, 55, 56, 57, 58, 59, 60, 61, 62, 63, 64, 65, 66, 67, 68, 69, 70, 71, 72, 73, 74, 75, 76, 77, 78, 79, 80, 81, 82, 83, 84, 85, 86, 87, 88, 89, 90, 91, 92, 93, 94, 95, 96, 97, 98, 99, 100, 101, 102, 103, 104, 105, 106, 107, 108, 109, 110, 111, 112, 113, 114, 115, 116, 117, 118, 119, 120, 121, 122, 123, 124, 125, 126, 127, 128, 129, 130, 131, 132, 133, 134, 135, 136, 137, 138, 139, 140, 141, 142, 143, 144, 145, 146, 147, 148, 149, 150, 151, 152, 153, 154, 155, 156, 157, 158, 159, 160, 161, 162, 163, 164, 165, 166, 167, 168, 169, 170, 171, 172, 173, 174, 175, 176, 177, 178, 179, 180, 181, 182, 183, 184, 185, 186, 187, 188, 189, 190],
      "LargestImagePixelValue": [45090, 43490, 44565, 43344, 42546, 43566, 42935, 43721, 42742, 42513, 42867, 42672, 42976, 43051, 42358, 43052, 42317, 42714, 43020, 42021, 42993, 42467, 43685, 42609, 42087, 42598, 41904, 42069, 42309, 41641, 42197, 41486, 41755, 41183, 40942, 41429, 41037, 41444, 40901, 41886, 41438, 41464, 42445, 40990, 41244, 41180, 41134, 40498, 41181, 41239, 41276, 40483, 40275, 40453, 40862, 40401, 41210, 40543, 40787, 40360, 40118, 40522, 40863, 40774, 40433, 41793, 40063, 40736, 40810, 40381, 39933, 41218, 40544, 40538, 39777, 39397, 41045, 40252, 40298, 40391, 40214, 40427, 38935, 40735, 39499, 39781, 38933, 39123, 38862, 38414, 39379, 39081, 38619, 39537, 38705, 38205, 38886, 38416, 38626, 37932, 39649, 38027, 40112, 38158, 38449, 37798, 38242, 37933, 38134, 39140, 37883, 37885, 38273, 37946, 38261, 37937, 38274, 39172, 38793, 38137, 39336, 39095, 39089, 39908, 39262, 38659, 39127, 39259, 37974, 38012, 38195, 38345, 38273, 38417, 38254, 38689, 38420, 39055, 38570, 45376, 39284, 39479, 39172, 39552, 39322, 37915, 38399, 39227, 38148, 39872, 39626, 39300, 39338, 40589, 39625, 40524, 40212, 40361, 41791, 41383, 41806, 42062, 41443, 41881, 41223, 41995, 41976, 41986, 41378, 41991, 41452, 40267, 40098, 39757, 38923, 39833, 39345, 40237, 40352, 40033, 40025, 39845, 40779, 41304, 40606, 41382, 41274, 40996, 41158, 39224],
      "WindowCenter": [10486.0, 10444.0, 10467.0, 10470.0, 10431.0, 10421.0, 10405.0, 10420.0, 10391.0, 10397.0, 10425.0, 10440.0, 10448.0, 10437.0, 10411.0, 10393.0, 10376.0, 10388.0, 10406.0, 10398.0, 10406.0, 10399.0, 10426.0, 10421.0, 10408.0, 10402.0, 10395.0, 10413.0, 10421.0, 10411.0, 10438.0, 10428.0, 10428.0, 10414.0, 10414.0, 10420.0, 10441.0, 10451.0, 10428.0, 10420.0, 10406.0, 10402.0, 10405.0, 10397.0, 10413.0, 10417.0, 10414.0, 10390.0, 10386.0, 10392.0, 10404.0, 10415.0, 10419.0, 10422.0, 10418.0, 10406.0, 10405.0, 10395.0, 10412.0, 10426.0, 10421.0, 10420.0, 10410.0, 10390.0, 10389.0, 10418.0, 10411.0, 10424.0, 10419.0, 10388.0, 10368.0, 10384.0, 10400.0, 10409.0, 10405.0, 10399.0, 10411.0, 10391.0, 10401.0, 10421.0, 10423.0, 10409.0, 10386.0, 10382.0, 10361.0, 10375.0, 10416.0, 10423.0, 10407.0, 10390.0, 10383.0, 10357.0, 10355.0, 10375.0, 10374.0, 10382.0, 10395.0, 10380.0, 10369.0, 10357.0, 10383.0, 10378.0, 10411.0, 10394.0, 10399.0, 10393.0, 10396.0, 10397.0, 10408.0, 10404.0, 10382.0, 10376.0, 10369.0, 10366.0, 10379.0, 10397.0, 10416.0, 10421.0, 10400.0, 10366.0, 10370.0, 10372.0, 10425.0, 10450.0, 10436.0, 10405.0, 10375.0, 10362.0, 10327.0, 10328.0, 10347.0, 10362.0, 10376.0, 10389.0, 10380.0, 10371.0, 10360.0, 10372.0, 10376.0, 10448.0, 10400.0, 10408.0, 10411.0, 10415.0, 10408.0, 10379.0, 10367.0, 10374.0, 10363.0, 10393.0, 10414.0, 10419.0, 10417.0, 10422.0, 10390.0, 10391.0, 10409.0, 10432.0, 10444.0, 10431.0, 10418.0, 10416.0, 10420.0, 10431.0, 10432.0, 10438.0, 10429.0, 10419.0, 10387.0, 10390.0, 10399.0, 10399.0, 10406.0, 10382.0, 10380.0, 10384.0, 10396.0, 10424.0, 10429.0, 10407.0, 10387.0, 10367.0, 10356.0, 10369.0, 10381.0, 10397.0, 10407.0, 10392.0, 10381.0, 10356.0],
      "WindowWidth": [22259.0, 22154.0, 22195.0, 22205.0, 22109.0, 22076.0, 22045.0, 22074.0, 22009.0, 22023.0, 22090.0, 22129.0, 22144.0, 22114.0, 22059.0, 22015.0, 21976.0, 22006.0, 22048.0, 22031.0, 22042.0, 22027.0, 22087.0, 22084.0, 22055.0, 22039.0, 22023.0, 22071.0, 22088.0, 22066.0, 22128.0, 22106.0, 22105.0, 22079.0, 22075.0, 22092.0, 22144.0, 22163.0, 22108.0, 22082.0, 22056.0, 22044.0, 22048.0, 22035.0, 22072.0, 22085.0, 22073.0, 22019.0, 22006.0, 22021.0, 22055.0, 22076.0, 22090.0, 22094.0, 22080.0, 22057.0, 22047.0, 22026.0, 22069.0, 22102.0, 22093.0, 22094.0, 22066.0, 22016.0, 22016.0, 22077.0, 22070.0, 22094.0, 22087.0, 22018.0, 21970.0, 22004.0, 22044.0, 22065.0, 22056.0, 22049.0, 22077.0, 22023.0, 22049.0, 22098.0, 22098.0, 22068.0, 22021.0, 22003.0, 21963.0, 21988.0, 22089.0, 22108.0, 22070.0, 22029.0, 22010.0, 21951.0, 21947.0, 21994.0, 21996.0, 22020.0, 22046.0, 22011.0, 21984.0, 21963.0, 22008.0, 22008.0, 22078.0, 22053.0, 22055.0, 22047.0, 22047.0, 22048.0, 22074.0, 22060.0, 22011.0, 22003.0, 21981.0, 21986.0, 22007.0, 22052.0, 22095.0, 22102.0, 22054.0, 21982.0, 21977.0, 21987.0, 22112.0, 22163.0, 22132.0, 22058.0, 21986.0, 21958.0, 21886.0, 21886.0, 21931.0, 21962.0, 22001.0, 22033.0, 22008.0, 21986.0, 21961.0, 21991.0, 22001.0, 22145.0, 22056.0, 22070.0, 22078.0, 22080.0, 22063.0, 22006.0, 21970.0, 21992.0, 21970.0, 22032.0, 22085.0, 22095.0, 22085.0, 22096.0, 22022.0, 22025.0, 22068.0, 22127.0, 22142.0, 22112.0, 22074.0, 22068.0, 22083.0, 22102.0, 22112.0, 22126.0, 22101.0, 22079.0, 22006.0, 22015.0, 22038.0, 22049.0, 22065.0, 22006.0, 21997.0, 22005.0, 22032.0, 22095.0, 22111.0, 22058.0, 22013.0, 21966.0, 21933.0, 21963.0, 21993.0, 22028.0, 22056.0, 22021.0, 21994.0, 21947.0]
    },
    "slices": {}
  }
}