{
  "AcquisitionMatrixPE": 104,
  "AcquisitionNumber": 1,
  "AcquisitionTime": "17:58:55.882500",
  "BandwidthPerPixelPhaseEncode": 17.17,
  "BaseResolution": 104,
  "BodyPartExamined": "BRAIN",
  "CoilCombinationMethod": "Sum of Squares",
  "ConsistencyInfo": "N4_VE11C_LATEST_20160120",
  "ConversionSoftware": "dcm2niix",
  "ConversionSoftwareVersion": "v1.0.20211006",
  "DerivedVendorReportedEchoSpacing": 0.000560011,
  "DeviceSerialNumber": "167006",
  "DwellTime": 2.1e-06,
  "EchoTime": 0.037,
  "EchoTime1": 0.037,
  "EchoTime2": 0.001,
  "EchoTrainLength": 104,
  "EffectiveEchoSpacing": 0.000560011,
  "FlipAngle": 52,
  "HeudiconvVersion": "0.10.0",
  "ImageComments": "Unaliased MB4/PE3/LB",
  "ImageOrientationPatientDICOM": [0.998332, 0.0548554, 0.017992, -0.0428898, 0.913363, -0.404881],
  "ImageOrientationText": "Tra>Cor(-23.8)>Sag(2.2)",
  "ImageType": [
    "ORIGINAL",
    "PRIMARY",
    "P",
    "MB",
    "ND",
    "MOSAIC",
    "PHASE"
],
  "ImagingFrequency": 123.259,
  "InPlanePhaseEncodingDirectionDICOM": "COL",
  "InstitutionAddress": "Chemin Queen-Mary 4565,Montreal,District,CA,H3W 1W5",
  "InstitutionName": "IUGM",
  "InstitutionalDepartmentName": "Department",
  "MRAcquisitionType": "2D",
  "MagneticFieldStrength": 3,
  "Manufacturer": "Siemens",
  "ManufacturersModelName": "Prisma_fit",
  "MatrixCoilMode": "SENSE",
  "Modality": "MR",
  "MultibandAccelerationFactor": 4,
  "PartialFourier": 1,
  "PatientPosition": "HFS",
  "PercentPhaseFOV": 100,
  "PercentSampling": 100,
  "PhaseEncodingDirection": "j",
  "PhaseEncodingSteps": 104,
  "PhaseResolution": 1,
  "PixelBandwidth": 2290,
  "ProcedureStepDescription": "memory^things",
  "ProtocolName": "func_task-things_run-5",
  "PulseSequenceDetails": "%CustomerSeq%\\cmrr_mbep2d_bold",
  "ReceiveCoilActiveElements": "HC1-7;NC1,2",
  "ReceiveCoilName": "HeadNeck_64",
  "ReconMatrixPE": 104,
  "RepetitionTime": 1.49,
  "SAR": 0.0521306,
  "ScanOptions": "FS",
  "ScanningSequence": "EP",
  "SequenceName": "epfid2d1_104",
  "SequenceVariant": "SK\\SS",
  "SeriesDescription": "func_task-things_run-5",
  "SeriesNumber": 23,
  "ShimSetting": [624, -7182, -8824, 609, 71, -20, -89, -8],
  "SliceThickness": 2,
  "SliceTiming": [0, 0.7825, 0.0975, 0.8825, 0.195, 0.98, 0.2925, 1.0775, 0.3925, 1.175, 0.49, 1.2725, 0.5875, 1.3725, 0.685, 0, 0.7825, 0.0975, 0.8825, 0.195, 0.98, 0.2925, 1.0775, 0.3925, 1.175, 0.49, 1.2725, 0.5875, 1.3725, 0.685, 0, 0.7825, 0.0975, 0.8825, 0.195, 0.98, 0.2925, 1.0775, 0.3925, 1.175, 0.49, 1.2725, 0.5875, 1.3725, 0.685, 0, 0.7825, 0.0975, 0.8825, 0.195, 0.98, 0.2925, 1.0775, 0.3925, 1.175, 0.49, 1.2725, 0.5875, 1.3725, 0.685],
  "SoftwareVersions": "syngo MR E11",
  "SpacingBetweenSlices": 2,
  "StationName": "MRC35049",
  "TaskName": "things",
  "TotalReadoutTime": 0.0576811,
  "TxRefAmp": 273.622,
  "WipMemBlock": "2f3be82a-d48d-4970-ba03-477c5a475567||Sequence: R016 ve11c/master r/e634e98; Dec 19 2017 11:00:25 by eja",
  "dcmmeta_affine": [
    [-1.9966644048690796, -0.08577969670295715, 0.07728619873523712, 108.85662841796875],
    [-0.10971084982156754, 1.8267260789871216, -0.8068675994873047, -49.96001434326172],
    [0.03598393127322197, 0.8097614645957947, 1.8283848762512207, -67.77388000488281],
    [0.0, 0.0, 0.0, 1.0]
],
  "dcmmeta_reorient_transform": [
    [0.0, -1.0, 0.0, 103.0],
    [1.0, 0.0, 0.0, 0.0],
    [0.0, 0.0, 1.0, 0.0],
    [0.0, 0.0, 0.0, 1.0]
],
  "dcmmeta_shape": [104, 104, 60, 190],
  "dcmmeta_slice_dim": 2,
  "dcmmeta_version": 0.6,
  "global": {
    "const": {
      "AcquisitionMatrix": [104, 0, 0, 104],
      "AngioFlag": "N",
      "BitsAllocated": 16,
      "BitsStored": 16,
      "BodyPartExamined": "BRAIN",
      "Columns": 832,
      "EchoNumbers": 1,
      "EchoTime": 37.0,
      "EchoTrainLength": 104,
      "FlipAngle": 52.0,
      "HighBit": 15,
      "ImageOrientationPatient": [0.99833219498334, 0.05485542497881, 0.01799196515512, -0.0428898493993, 0.91336304038791, -0.4048807445062],
      "ImagePositionPatient": [-795.58334460053, -843.0558138748, 297.28658504079],
      "ImageType": [
        "ORIGINAL",
        "PRIMARY",
        "P",
        "MB",
        "ND",
        "MOSAIC"
],
      "ImagedNucleus": "1H",
      "ImagingFrequency": 123.258885,
      "InPlanePhaseEncodingDirection": "COL",
      "LargestImagePixelValue": 4095,
      "MRAcquisitionType": "2D",
      "MagneticFieldStrength": 3.0,
      "Manufacturer": "SIEMENS",
      "ManufacturerModelName": "Prisma_fit",
      "Modality": "MR",
      "NumberOfAverages": 1.0,
      "NumberOfPhaseEncodingSteps": 104,
      "PercentPhaseFieldOfView": 100.0,
      "PercentSampling": 100.0,
      "PerformedProcedureStepStartTime": "170038.437000",
      "PhotometricInterpretation": "MONOCHROME2",
      "PixelBandwidth": 2290.0,
      "PixelRepresentation": 0,
      "PixelSpacing": [2.0, 2.0],
      "ProtocolName": "func_task-things_run-5",
      "RepetitionTime": 1490.0,
      "RescaleIntercept": -4096.0,
      "RescaleSlope": 2.0,
      "RescaleType": "US",
      "Rows": 832,
      "SAR": 0.05213062732031,
      "SamplesPerPixel": 1,
      "ScanOptions": "FS",
      "ScanningSequence": "EP",
      "SequenceName": "epfid2d1_104",
      "SequenceVariant": [
        "SK",
        "SS"
],
      "SeriesDescription": "func_task-things_run-5",
      "SeriesNumber": 23,
      "SeriesTime": "175952.767000",
      "SliceLocation": -37.596253566226,
      "SliceThickness": 2.0,
      "SmallestImagePixelValue": 0,
      "SoftwareVersions": "syngo MR E11",
      "SpacingBetweenSlices": 1.9999999547002,
      "SpecificCharacterSet": "ISO_IR 100",
      "StudyID": "1",
      "StudyTime": "170038.367000",
      "TransmitCoilName": "Body",
      "VariableFlipAngleFlag": "N",
      "WindowCenterWidthExplanation": "Algo1",
      "dBdt": 0.0},
    "slices": {}
  },
  "time": {
    "samples": {
      "AcquisitionNumber": [1, 2, 3, 4, 5, 6, 7, 8, 9, 10, 11, 12, 13, 14, 15, 16, 17, 18, 19, 20, 21, 22, 23, 24, 25, 26, 27, 28, 29, 30, 31, 32, 33, 34, 35, 36, 37, 38, 39, 40, 41, 42, 43, 44, 45, 46, 47, 48, 49, 50, 51, 52, 53, 54, 55, 56, 57, 58, 59, 60, 61, 62, 63, 64, 65, 66, 67, 68, 69, 70, 71, 72, 73, 74, 75, 76, 77, 78, 79, 80, 81, 82, 83, 84, 85, 86, 87, 88, 89, 90, 91, 92, 93, 94, 95, 96, 97, 98, 99, 100, 101, 102, 103, 104, 105, 106, 107, 108, 109, 110, 111, 112, 113, 114, 115, 116, 117, 118, 119, 120, 121, 122, 123, 124, 125, 126, 127, 128, 129, 130, 131, 132, 133, 134, 135, 136, 137, 138, 139, 140, 141, 142, 143, 144, 145, 146, 147, 148, 149, 150, 151, 152, 153, 154, 155, 156, 157, 158, 159, 160, 161, 162, 163, 164, 165, 166, 167, 168, 169, 170, 171, 172, 173, 174, 175, 176, 177, 178, 179, 180, 181, 182, 183, 184, 185, 186, 187, 188, 189, 190],
      "AcquisitionTime": ["175855.882500", "175857.372500", "175858.862500", "175900.352500", "175901.842500", "175903.332500", "175904.822500", "175906.312500", "175907.802500", "175909.292500", "175910.782500", "175912.272500", "175913.762500", "175915.252500", "175916.742500", "175918.232500", "175919.722500", "175921.212500", "175922.702500", "175924.192500", "175925.682500", "175927.172500", "175928.662500", "175930.152500", "175931.642500", "175933.132500", "175934.622500", "175936.112500", "175937.602500", "175939.092500", "175940.582500", "175942.072500", "175943.562500", "175945.052500", "175946.542500", "175948.032500", "175949.522500", "175951.012500", "175952.502500", "175953.992500", "175955.482500", "175956.972500", "175958.462500", "175959.952500", "180001.442500", "180002.932500", "180004.422500", "180005.912500", "180007.402500", "180008.892500", "180010.382500", "180011.872500", "180013.362500", "180014.852500", "180016.342500", "180017.832500", "180019.322500", "180020.812500", "180022.302500", "180023.792500", "180025.282500", "180026.772500", "180028.262500", "180029.752500", "180031.242500", "180032.732500", "180034.222500", "180035.712500", "180037.202500", "180038.692500", "180040.182500", "180041.672500", "180043.162500", "180044.652500", "180046.142500", "180047.632500", "180049.122500", "180050.612500", "180052.102500", "180053.592500", "180055.082500", "180056.572500", "180058.062500", "180059.552500", "180101.042500", "180102.532500", "180104.022500", "180105.512500", "180107.002500", "180108.492500", "180109.982500", "180111.472500", "180112.962500", "180114.452500", "180115.942500", "180117.432500", "180118.922500", "180120.412500", "180121.902500", "180123.392500", "180124.882500", "180126.372500", "180127.862500", "180129.352500", "180130.842500", "180132.332500", "180133.822500", "180135.312500", "180136.802500", "180138.292500", "180139.782500", "180141.272500", "180142.762500", "180144.252500", "180145.742500", "180147.232500", "180148.722500", "180150.212500", "180151.702500", "180153.192500", "180154.682500", "180156.172500", "180157.662500", "180159.152500", "180200.642500", "180202.132500", "180203.622500", "180205.112500", "180206.602500", "180208.092500", "180209.582500", "180211.072500", "180212.562500", "180214.052500", "180215.542500", "180217.032500", "180218.522500", "180220.012500", "180221.502500", "180222.992500", "180224.482500", "180225.972500", "180227.462500", "180228.952500", "180230.442500", "180231.932500", "180233.422500", "180234.912500", "180236.402500", "180237.892500", "180239.382500", "180240.872500", "180242.362500", "180243.852500", "180245.342500", "180246.832500", "180248.322500", "180249.812500", "180251.302500", "180252.792500", "180254.282500", "180255.772500", "180257.262500", "180258.752500", "180300.242500", "180301.732500", "180303.222500", "180304.712500", "180306.202500", "180307.692500", "180309.182500", "180310.672500", "180312.162500", "180313.652500", "180315.142500", "180316.632500", "180318.122500", "180319.612500", "180321.102500", "180322.592500", "180324.082500", "180325.572500", "180327.062500", "180328.552500", "180330.042500", "180331.532500", "180333.022500", "180334.512500", "180336.002500", "180337.492500"],
      "ContentTime": ["175952.769000", "175952.772000", "175952.774000", "180012.819000", "180012.821000", "180012.824000", "180012.827000", "180012.829000", "180012.832000", "180012.834000", "180012.837000", "180012.839000", "180012.841000", "180012.844000", "180012.846000", "180012.849000", "180012.851000", "180012.854000", "180012.856000", "180012.859000", "180012.861000", "180012.864000", "180012.866000", "180032.806000", "180032.808000", "180032.811000", "180032.814000", "180032.816000", "180032.819000", "180032.821000", "180032.823000", "180032.826000", "180032.828000", "180032.831000", "180032.833000", "180032.841000", "180032.844000", "180032.846000", "180032.849000", "180032.851000", "180032.854000", "180032.856000", "180032.859000", "180052.822000", "180052.825000", "180052.827000", "180052.830000", "180052.832000", "180052.835000", "180052.837000", "180052.840000", "180052.842000", "180052.845000", "180052.847000", "180052.850000", "180052.852000", "180052.855000", "180052.857000", "180052.864000", "180052.867000", "180052.869000", "180052.872000", "180052.874000", "180112.815000", "180112.818000", "180112.821000", "180112.823000", "180112.826000", "180112.828000", "180112.831000", "180112.833000", "180112.836000", "180112.838000", "180112.841000", "180112.843000", "180112.846000", "180112.848000", "180112.851000", "180112.853000", "180112.856000", "180112.858000", "180112.861000", "180112.863000", "180112.866000", "180132.814000", "180132.817000", "180132.820000", "180132.822000", "180132.825000", "180132.827000", "180132.830000", "180132.832000", "180132.835000", "180132.837000", "180132.840000", "180132.842000", "180132.845000", "180132.847000", "180132.850000", "180132.852000", "180132.855000", "180132.857000", "180132.860000", "180132.862000", "180212.839000", "180212.841000", "180212.844000", "180212.846000", "180212.849000", "180212.851000", "180212.854000", "180212.857000", "180212.859000", "180212.862000", "180212.864000", "180212.867000", "180212.869000", "180212.872000", "180212.874000", "180212.877000", "180212.879000", "180212.882000", "180212.894000", "180212.896000", "180212.899000", "180212.901000", "180212.904000", "180212.906000", "180212.909000", "180212.912000", "180212.914000", "180252.846000", "180252.849000", "180252.851000", "180252.854000", "180252.856000", "180252.859000", "180252.861000", "180252.864000", "180252.867000", "180252.869000", "180252.872000", "180252.874000", "180252.877000", "180252.879000", "180252.882000", "180252.884000", "180252.887000", "180252.889000", "180252.892000", "180252.895000", "180252.897000", "180252.900000", "180252.902000", "180252.905000", "180252.907000", "180252.910000", "180252.912000", "180332.853000", "180332.856000", "180332.859000", "180332.861000", "180332.864000", "180332.866000", "180332.869000", "180332.871000", "180332.874000", "180332.876000", "180332.879000", "180332.881000", "180332.884000", "180332.887000", "180332.889000", "180332.892000", "180332.894000", "180332.897000", "180332.899000", "180332.902000", "180332.904000", "180332.907000", "180332.909000", "180332.912000", "180332.915000", "180332.917000", "180332.920000", "180339.704000", "180339.708000", "180339.710000", "180339.713000", "180339.716000"],
      "InstanceCreationTime": ["175952.769000", "175952.772000", "175952.774000", "180012.819000", "180012.821000", "180012.824000", "180012.827000", "180012.829000", "180012.832000", "180012.834000", "180012.837000", "180012.839000", "180012.841000", "180012.844000", "180012.846000", "180012.849000", "180012.851000", "180012.854000", "180012.856000", "180012.859000", "180012.861000", "180012.864000", "180012.866000", "180032.806000", "180032.808000", "180032.811000", "180032.814000", "180032.816000", "180032.819000", "180032.821000", "180032.823000", "180032.826000", "180032.828000", "180032.831000", "180032.833000", "180032.841000", "180032.844000", "180032.846000", "180032.849000", "180032.851000", "180032.854000", "180032.856000", "180032.859000", "180052.822000", "180052.825000", "180052.827000", "180052.830000", "180052.832000", "180052.835000", "180052.837000", "180052.840000", "180052.842000", "180052.845000", "180052.847000", "180052.850000", "180052.852000", "180052.855000", "180052.857000", "180052.864000", "180052.867000", "180052.869000", "180052.872000", "180052.874000", "180112.815000", "180112.818000", "180112.821000", "180112.823000", "180112.826000", "180112.828000", "180112.831000", "180112.833000", "180112.836000", "180112.838000", "180112.841000", "180112.843000", "180112.846000", "180112.848000", "180112.851000", "180112.853000", "180112.856000", "180112.858000", "180112.861000", "180112.863000", "180112.866000", "180132.814000", "180132.817000", "180132.820000", "180132.822000", "180132.825000", "180132.827000", "180132.830000", "180132.832000", "180132.835000", "180132.837000", "180132.840000", "180132.842000", "180132.845000", "180132.847000", "180132.850000", "180132.852000", "180132.855000", "180132.857000", "180132.860000", "180132.862000", "180212.839000", "180212.841000", "180212.844000", "180212.846000", "180212.849000", "180212.851000", "180212.854000", "180212.857000", "180212.859000", "180212.862000", "180212.864000", "180212.867000", "180212.869000", "180212.872000", "180212.874000", "180212.877000", "180212.879000", "180212.882000", "180212.894000", "180212.896000", "180212.899000", "180212.901000", "180212.904000", "180212.906000", "180212.909000", "180212.912000", "180212.914000", "180252.846000", "180252.849000", "180252.851000", "180252.854000", "180252.856000", "180252.859000", "180252.861000", "180252.864000", "180252.867000", "180252.869000", "180252.872000", "180252.874000", "180252.877000", "180252.879000", "180252.882000", "180252.884000", "180252.887000", "180252.889000", "180252.892000", "180252.895000", "180252.897000", "180252.900000", "180252.902000", "180252.905000", "180252.907000", "180252.910000", "180252.912000", "180332.853000", "180332.856000", "180332.859000", "180332.861000", "180332.864000", "180332.866000", "180332.869000", "180332.871000", "180332.874000", "180332.876000", "180332.879000", "180332.881000", "180332.884000", "180332.887000", "180332.889000", "180332.892000", "180332.894000", "180332.897000", "180332.899000", "180332.902000", "180332.904000", "180332.907000", "180332.909000", "180332.912000", "180332.915000", "180332.917000", "180332.920000", "180339.704000", "180339.708000", "180339.710000", "180339.713000", "180339.716000"],
      "InstanceNumber": [1, 2, 3, 4, 5, 6, 7, 8, 9, 10, 11, 12, 13, 14, 15, 16, 17, 18, 19, 20, 21, 22, 23, 24, 25, 26, 27, 28, 29, 30, 31, 32, 33, 34, 35, 36, 37, 38, 39, 40, 41, 42, 43, 44, 45, 46, 47, 48, 49, 50, 51, 52, 53, 54, 55, 56, 57, 58, 59, 60, 61, 62, 63, 64, 65, 66, 67, 68, 69, 70, 71, 72, 73, 74, 75, 76, 77, 78, 79, 80, 81, 82, 83, 84, 85, 86, 87, 88, 89, 90, 91, 92, 93, 94, 95, 96, 97, 98, 99, 100, 101, 102, 103, 104, 105, 106, 107, 108, 109, 110, 111, 112, 113, 114, 115, 116, 117, 118, 119, 120, 121, 122, 123, 124, 125, 126, 127, 128, 129, 130, 131, 132, 133, 134, 135, 136, 137, 138, 139, 140, 141, 142, 143, 144, 145, 146, 147, 148, 149, 150, 151, 152, 153, 154, 155, 156, 157, 158, 159, 160, 161, 162, 163, 164, 165, 166, 167, 168, 169, 170, 171, 172, 173, 174, 175, 176, 177, 178, 179, 180, 181, 182, 183, 184, 185, 186, 187, 188, 189, 190],
      "WindowCenter": [4784.0, 4786.0, 4786.0, 4782.0, 4784.0, 4784.0, 4784.0, 4782.0, 4804.0, 4782.0, 4808.0, 4784.0, 4786.0, 4786.0, 4784.0, 4784.0, 4784.0, 4782.0, 4804.0, 4806.0, 4784.0, 4788.0, 4784.0, 4782.0, 4782.0, 4784.0, 4782.0, 4782.0, 4786.0, 4780.0, 4780.0, 4784.0, 4782.0, 4784.0, 4788.0, 4780.0, 4784.0, 4780.0, 4788.0, 4782.0, 4780.0, 4784.0, 4784.0, 4788.0, 4784.0, 4782.0, 4784.0, 4784.0, 4786.0, 4784.0, 4784.0, 4784.0, 4782.0, 4786.0, 4786.0, 4784.0, 4784.0, 4784.0, 4784.0, 4784.0, 4786.0, 4784.0, 4782.0, 4786.0, 4784.0, 4782.0, 4784.0, 4784.0, 4782.0, 4786.0, 4782.0, 4806.0, 4786.0, 4780.0, 4784.0, 4784.0, 4784.0, 4782.0, 4786.0, 4784.0, 4784.0, 4784.0, 4784.0, 4786.0, 4788.0, 4786.0, 4784.0, 4784.0, 4782.0, 4784.0, 4786.0, 4808.0, 4784.0, 4786.0, 4786.0, 4808.0, 4786.0, 4784.0, 4786.0, 4786.0, 4784.0, 4782.0, 4784.0, 4782.0, 4784.0, 4784.0, 4788.0, 4784.0, 4784.0, 4784.0, 4784.0, 4788.0, 4786.0, 4782.0, 4784.0, 4782.0, 4786.0, 4780.0, 4784.0, 4786.0, 4786.0, 4784.0, 4782.0, 4786.0, 4784.0, 4786.0, 4786.0, 4786.0, 4788.0, 4784.0, 4784.0, 4784.0, 4784.0, 4782.0, 4782.0, 4784.0, 4786.0, 4784.0, 4806.0, 4784.0, 4784.0, 4782.0, 4786.0, 4782.0, 4782.0, 4786.0, 4784.0, 4788.0, 4784.0, 4784.0, 4784.0, 4786.0, 4782.0, 4784.0, 4784.0, 4786.0, 4786.0, 4784.0, 4782.0, 4784.0, 4784.0, 4784.0, 4784.0, 4786.0, 4788.0, 4786.0, 4788.0, 4784.0, 4784.0, 4786.0, 4786.0, 4788.0, 4784.0, 4782.0, 4784.0, 4786.0, 4788.0, 4786.0, 4788.0, 4784.0, 4782.0, 4786.0, 4786.0, 4788.0, 4786.0, 4782.0, 4784.0, 4788.0, 4780.0, 4786.0],
      "WindowWidth": [18562.0, 18560.0, 18562.0, 18564.0, 18562.0, 18560.0, 18564.0, 18562.0, 18592.0, 18564.0, 18594.0, 18560.0, 18556.0, 18560.0, 18560.0, 18564.0, 18558.0, 18564.0, 18598.0, 18594.0, 18560.0, 18560.0, 18562.0, 18562.0, 18566.0, 18564.0, 18560.0, 18566.0, 18566.0, 18562.0, 18566.0, 18562.0, 18564.0, 18568.0, 18566.0, 18558.0, 18566.0, 18562.0, 18562.0, 18564.0, 18564.0, 18566.0, 18568.0, 18564.0, 18566.0, 18562.0, 18564.0, 18560.0, 18570.0, 18566.0, 18570.0, 18570.0, 18566.0, 18564.0, 18566.0, 18568.0, 18558.0, 18560.0, 18564.0, 18558.0, 18562.0, 18566.0, 18558.0, 18560.0, 18562.0, 18564.0, 18560.0, 18560.0, 18566.0, 18566.0, 18560.0, 18594.0, 18564.0, 18560.0, 18566.0, 18564.0, 18566.0, 18568.0, 18560.0, 18566.0, 18566.0, 18560.0, 18566.0, 18570.0, 18560.0, 18560.0, 18566.0, 18564.0, 18560.0, 18564.0, 18566.0, 18592.0, 18562.0, 18562.0, 18560.0, 18592.0, 18564.0, 18562.0, 18564.0, 18568.0, 18564.0, 18568.0, 18560.0, 18564.0, 18566.0, 18562.0, 18560.0, 18560.0, 18560.0, 18562.0, 18566.0, 18566.0, 18560.0, 18562.0, 18564.0, 18562.0, 18566.0, 18562.0, 18562.0, 18566.0, 18564.0, 18564.0, 18556.0, 18566.0, 18564.0, 18558.0, 18558.0, 18568.0, 18562.0, 18562.0, 18564.0, 18558.0, 18564.0, 18560.0, 18560.0, 18562.0, 18566.0, 18564.0, 18602.0, 18564.0, 18564.0, 18562.0, 18560.0, 18558.0, 18566.0, 18562.0, 18564.0, 18564.0, 18560.0, 18566.0, 18562.0, 18560.0, 18558.0, 18560.0, 18560.0, 18566.0, 18566.0, 18560.0, 18566.0, 18562.0, 18560.0, 18564.0, 18556.0, 18566.0, 18566.0, 18562.0, 18570.0, 18560.0, 18564.0, 18562.0, 18562.0, 18564.0, 18564.0, 18560.0, 18562.0, 18560.0, 18562.0, 18564.0, 18558.0, 18560.0, 18560.0, 18562.0, 18564.0, 18564.0, 18560.0, 18560.0, 18562.0, 18562.0, 18564.0, 18558.0]
    },
    "slices": {}
  }
}