{
  "AcquisitionMatrixPE": 104,
  "AcquisitionNumber": 1,
  "AcquisitionTime": "17:28:1.950000",
  "BandwidthPerPixelPhaseEncode": 17.17,
  "BaseResolution": 104,
  "BodyPartExamined": "BRAIN",
  "CoilCombinationMethod": "Sum of Squares",
  "ConsistencyInfo": "N4_VE11C_LATEST_20160120",
  "ConversionSoftware": "dcm2niix",
  "ConversionSoftwareVersion": "v1.0.20211006",
  "DerivedVendorReportedEchoSpacing": 0.000560011,
  "DeviceSerialNumber": "167006",
  "DwellTime": 2.1e-06,
  "EchoTime": 0.037,
  "EchoTrainLength": 104,
  "EffectiveEchoSpacing": 0.000560011,
  "FlipAngle": 52,
  "HeudiconvVersion": "0.10.0",
  "ImageComments": "Unaliased MB4/PE3/LB",
  "ImageOrientationPatientDICOM": [0.998332, 0.0548554, 0.017992, -0.0428898, 0.913363, -0.404881],
  "ImageOrientationText": "Tra>Cor(-23.8)>Sag(2.2)",
  "ImageType": [
    "ORIGINAL",
    "PRIMARY",
    "M",
    "MB",
    "ND",
    "MOSAIC"
],
  "ImagingFrequency": 123.259,
  "InPlanePhaseEncodingDirectionDICOM": "COL",
  "InstitutionAddress": "Chemin Queen-Mary 4565,Montreal,District,CA,H3W 1W5",
  "InstitutionName": "IUGM",
  "InstitutionalDepartmentName": "Department",
  "MRAcquisitionType": "2D",
  "MagneticFieldStrength": 3,
  "Manufacturer": "Siemens",
  "ManufacturersModelName": "Prisma_fit",
  "MatrixCoilMode": "SENSE",
  "Modality": "MR",
  "MultibandAccelerationFactor": 4,
  "PartialFourier": 1,
  "PatientPosition": "HFS",
  "PercentPhaseFOV": 100,
  "PercentSampling": 100,
  "PhaseEncodingDirection": "j",
  "PhaseEncodingSteps": 104,
  "PhaseResolution": 1,
  "PixelBandwidth": 2290,
  "ProcedureStepDescription": "memory^things",
  "ProtocolName": "func_task-things_run-2",
  "PulseSequenceDetails": "%CustomerSeq%\\cmrr_mbep2d_bold",
  "ReceiveCoilActiveElements": "HC1-7;NC1,2",
  "ReceiveCoilName": "HeadNeck_64",
  "ReconMatrixPE": 104,
  "RepetitionTime": 1.49,
  "SAR": 0.0521306,
  "ScanOptions": "FS",
  "ScanningSequence": "EP",
  "SequenceName": "epfid2d1_104",
  "SequenceVariant": "SK\\SS",
  "SeriesDescription": "func_task-things_run-2",
  "SeriesNumber": 13,
  "ShimSetting": [624, -7182, -8824, 609, 71, -20, -89, -8],
  "SliceThickness": 2,
  "SliceTiming": [0, 0.785, 0.1, 0.8825, 0.1975, 0.98, 0.295, 1.0775, 0.3925, 1.1775, 0.49, 1.275, 0.59, 1.3725, 0.6875, 0, 0.785, 0.1, 0.8825, 0.1975, 0.98, 0.295, 1.0775, 0.3925, 1.1775, 0.49, 1.275, 0.59, 1.3725, 0.6875, 0, 0.785, 0.1, 0.8825, 0.1975, 0.98, 0.295, 1.0775, 0.3925, 1.1775, 0.49, 1.275, 0.59, 1.3725, 0.6875, 0, 0.785, 0.1, 0.8825, 0.1975, 0.98, 0.295, 1.0775, 0.3925, 1.1775, 0.49, 1.275, 0.59, 1.3725, 0.6875],
  "SoftwareVersions": "syngo MR E11",
  "SpacingBetweenSlices": 2,
  "StationName": "MRC35049",
  "TaskName": "things",
  "TotalReadoutTime": 0.0576811,
  "TxRefAmp": 273.622,
  "WipMemBlock": "2d58c421-7695-4ebd-87a2-ae3ce9ef07d1||Sequence: R016 ve11c/master r/e634e98; Dec 19 2017 11:00:25 by eja",
  "dcmmeta_affine": [
    [-1.9966644048690796, -0.08577969670295715, 0.07728619873523712, 108.85662841796875],
    [-0.10971084982156754, 1.8267260789871216, -0.8068675994873047, -49.96001434326172],
    [0.03598393127322197, 0.8097614645957947, 1.8283848762512207, -67.77388000488281],
    [0.0, 0.0, 0.0, 1.0]
],
  "dcmmeta_reorient_transform": [
    [0.0, -1.0, 0.0, 103.0],
    [1.0, 0.0, 0.0, 0.0],
    [0.0, 0.0, 1.0, 0.0],
    [0.0, 0.0, 0.0, 1.0]
],
  "dcmmeta_shape": [104, 104, 60, 190],
  "dcmmeta_slice_dim": 2,
  "dcmmeta_version": 0.6,
  "global": {
    "const": {
      "AcquisitionMatrix": [104, 0, 0, 104],
      "AngioFlag": "N",
      "BitsAllocated": 16,
      "BitsStored": 16,
      "BodyPartExamined": "BRAIN",
      "Columns": 832,
      "EchoNumbers": 1,
      "EchoTime": 37.0,
      "EchoTrainLength": 104,
      "FlipAngle": 52.0,
      "HighBit": 15,
      "ImageOrientationPatient": [0.99833219498334, 0.05485542497881, 0.01799196515512, -0.0428898493993, 0.91336304038791, -0.4048807445062],
      "ImagePositionPatient": [-795.58334460053, -843.0558138748, 297.28658504079],
      "ImageType": [
        "ORIGINAL",
        "PRIMARY",
        "M",
        "MB",
        "ND",
        "MOSAIC"
],
      "ImagedNucleus": "1H",
      "ImagingFrequency": 123.258878,
      "InPlanePhaseEncodingDirection": "COL",
      "MRAcquisitionType": "2D",
      "MagneticFieldStrength": 3.0,
      "Manufacturer": "SIEMENS",
      "ManufacturerModelName": "Prisma_fit",
      "Modality": "MR",
      "NumberOfAverages": 1.0,
      "NumberOfPhaseEncodingSteps": 104,
      "PercentPhaseFieldOfView": 100.0,
      "PercentSampling": 100.0,
      "PerformedProcedureStepStartTime": "170038.437000",
      "PhotometricInterpretation": "MONOCHROME2",
      "PixelBandwidth": 2290.0,
      "PixelRepresentation": 0,
      "PixelSpacing": [2.0, 2.0],
      "ProtocolName": "func_task-things_run-2",
      "RepetitionTime": 1490.0,
      "Rows": 832,
      "SAR": 0.05213062732031,
      "SamplesPerPixel": 1,
      "ScanOptions": "FS",
      "ScanningSequence": "EP",
      "SequenceName": "epfid2d1_104",
      "SequenceVariant": [
        "SK",
        "SS"
],
      "SeriesDescription": "func_task-things_run-2",
      "SeriesNumber": 13,
      "SeriesTime": "172912.740000",
      "SliceLocation": -37.596253566226,
      "SliceThickness": 2.0,
      "SmallestImagePixelValue": 0,
      "SoftwareVersions": "syngo MR E11",
      "SpacingBetweenSlices": 1.9999999547002,
      "SpecificCharacterSet": "ISO_IR 100",
      "StudyID": "1",
      "StudyTime": "170038.367000",
      "TransmitCoilName": "Body",
      "VariableFlipAngleFlag": "N",
      "WindowCenterWidthExplanation": "Algo1",
      "dBdt": 0.0},
    "slices": {}
  },
  "time": {
    "samples": {
      "AcquisitionNumber": [1, 2, 3, 4, 5, 6, 7, 8, 9, 10, 11, 12, 13, 14, 15, 16, 17, 18, 19, 20, 21, 22, 23, 24, 25, 26, 27, 28, 29, 30, 31, 32, 33, 34, 35, 36, 37, 38, 39, 40, 41, 42, 43, 44, 45, 46, 47, 48, 49, 50, 51, 52, 53, 54, 55, 56, 57, 58, 59, 60, 61, 62, 63, 64, 65, 66, 67, 68, 69, 70, 71, 72, 73, 74, 75, 76, 77, 78, 79, 80, 81, 82, 83, 84, 85, 86, 87, 88, 89, 90, 91, 92, 93, 94, 95, 96, 97, 98, 99, 100, 101, 102, 103, 104, 105, 106, 107, 108, 109, 110, 111, 112, 113, 114, 115, 116, 117, 118, 119, 120, 121, 122, 123, 124, 125, 126, 127, 128, 129, 130, 131, 132, 133, 134, 135, 136, 137, 138, 139, 140, 141, 142, 143, 144, 145, 146, 147, 148, 149, 150, 151, 152, 153, 154, 155, 156, 157, 158, 159, 160, 161, 162, 163, 164, 165, 166, 167, 168, 169, 170, 171, 172, 173, 174, 175, 176, 177, 178, 179, 180, 181, 182, 183, 184, 185, 186, 187, 188, 189, 190],
      "AcquisitionTime": ["172801.950000", "172803.440000", "172804.930000", "172806.420000", "172807.910000", "172809.400000", "172810.890000", "172812.380000", "172813.870000", "172815.360000", "172816.850000", "172818.340000", "172819.830000", "172821.320000", "172822.810000", "172824.300000", "172825.790000", "172827.280000", "172828.770000", "172830.260000", "172831.750000", "172833.240000", "172834.730000", "172836.220000", "172837.710000", "172839.200000", "172840.690000", "172842.180000", "172843.670000", "172845.160000", "172846.650000", "172848.140000", "172849.630000", "172851.120000", "172852.610000", "172854.100000", "172855.590000", "172857.080000", "172858.570000", "172900.060000", "172901.550000", "172903.040000", "172904.530000", "172906.020000", "172907.510000", "172909.000000", "172910.490000", "172911.980000", "172913.470000", "172914.960000", "172916.450000", "172917.940000", "172919.430000", "172920.920000", "172922.410000", "172923.900000", "172925.390000", "172926.880000", "172928.370000", "172929.860000", "172931.350000", "172932.840000", "172934.330000", "172935.820000", "172937.310000", "172938.800000", "172940.290000", "172941.780000", "172943.270000", "172944.760000", "172946.250000", "172947.740000", "172949.230000", "172950.720000", "172952.210000", "172953.700000", "172955.190000", "172956.680000", "172958.170000", "172959.660000", "173001.150000", "173002.640000", "173004.130000", "173005.620000", "173007.110000", "173008.600000", "173010.090000", "173011.580000", "173013.070000", "173014.560000", "173016.050000", "173017.540000", "173019.030000", "173020.520000", "173022.010000", "173023.500000", "173024.990000", "173026.480000", "173027.970000", "173029.460000", "173030.950000", "173032.440000", "173033.930000", "173035.420000", "173036.910000", "173038.400000", "173039.890000", "173041.380000", "173042.870000", "173044.360000", "173045.850000", "173047.340000", "173048.830000", "173050.320000", "173051.810000", "173053.300000", "173054.790000", "173056.280000", "173057.770000", "173059.260000", "173100.750000", "173102.240000", "173103.730000", "173105.220000", "173106.710000", "173108.200000", "173109.690000", "173111.180000", "173112.670000", "173114.160000", "173115.650000", "173117.140000", "173118.630000", "173120.120000", "173121.610000", "173123.100000", "173124.590000", "173126.080000", "173127.570000", "173129.060000", "173130.550000", "173132.040000", "173133.530000", "173135.020000", "173136.510000", "173138.000000", "173139.490000", "173140.980000", "173142.470000", "173143.960000", "173145.450000", "173146.940000", "173148.430000", "173149.920000", "173151.410000", "173152.900000", "173154.390000", "173155.880000", "173157.370000", "173158.860000", "173200.350000", "173201.840000", "173203.330000", "173204.820000", "173206.310000", "173207.800000", "173209.290000", "173210.780000", "173212.270000", "173213.760000", "173215.250000", "173216.740000", "173218.230000", "173219.720000", "173221.210000", "173222.700000", "173224.190000", "173225.680000", "173227.170000", "173228.660000", "173230.150000", "173231.640000", "173233.130000", "173234.620000", "173236.110000", "173237.600000", "173239.090000", "173240.580000", "173242.070000", "173243.560000"],
      "ContentTime": ["172912.743000", "172912.747000", "172912.750000", "172912.753000", "172912.757000", "172912.760000", "172912.763000", "172912.767000", "172912.770000", "172912.774000", "172912.777000", "172912.780000", "172912.784000", "172912.787000", "172912.799000", "172912.803000", "172932.702000", "172932.706000", "172932.709000", "172932.724000", "172932.727000", "172932.731000", "172932.734000", "172932.737000", "172932.741000", "172932.745000", "172932.749000", "172932.752000", "172932.756000", "172932.759000", "172932.762000", "172932.766000", "172932.769000", "172932.772000", "172932.776000", "172932.779000", "172952.702000", "172952.706000", "172952.709000", "172952.713000", "172952.716000", "172952.719000", "172952.723000", "172952.726000", "172952.729000", "172952.732000", "172952.736000", "172952.739000", "172952.743000", "172952.746000", "172952.749000", "172952.753000", "172952.756000", "172952.759000", "172952.763000", "172952.766000", "173012.702000", "173012.706000", "173012.709000", "173012.713000", "173012.716000", "173012.719000", "173012.723000", "173012.726000", "173012.729000", "173012.733000", "173012.736000", "173012.740000", "173012.744000", "173012.748000", "173012.751000", "173012.754000", "173012.758000", "173012.761000", "173012.765000", "173012.768000", "173032.702000", "173032.706000", "173032.709000", "173032.712000", "173032.716000", "173032.719000", "173032.722000", "173032.726000", "173032.729000", "173032.732000", "173032.736000", "173032.739000", "173032.742000", "173032.746000", "173032.749000", "173032.752000", "173032.756000", "173032.759000", "173032.762000", "173032.766000", "173032.769000", "173112.702000", "173112.706000", "173112.709000", "173112.712000", "173112.716000", "173112.719000", "173112.722000", "173112.726000", "173112.738000", "173112.741000", "173112.744000", "173112.748000", "173112.751000", "173112.754000", "173112.758000", "173112.761000", "173112.765000", "173112.768000", "173112.771000", "173112.775000", "173112.778000", "173112.781000", "173112.785000", "173112.788000", "173112.792000", "173112.795000", "173112.798000", "173112.802000", "173112.805000", "173112.808000", "173152.702000", "173152.706000", "173152.709000", "173152.712000", "173152.716000", "173152.719000", "173152.722000", "173152.726000", "173152.729000", "173152.732000", "173152.736000", "173152.739000", "173152.742000", "173152.746000", "173152.749000", "173152.752000", "173152.766000", "173152.769000", "173152.773000", "173152.776000", "173152.780000", "173152.783000", "173152.786000", "173152.790000", "173152.793000", "173152.797000", "173152.800000", "173232.702000", "173232.706000", "173232.709000", "173232.712000", "173232.716000", "173232.719000", "173232.723000", "173232.726000", "173232.729000", "173232.733000", "173232.736000", "173232.739000", "173232.743000", "173232.746000", "173232.749000", "173232.753000", "173232.757000", "173232.760000", "173232.763000", "173232.767000", "173232.770000", "173232.774000", "173232.777000", "173232.780000", "173232.784000", "173232.787000", "173232.790000", "173245.310000", "173245.313000", "173245.317000", "173245.320000", "173245.323000", "173245.327000", "173245.330000", "173245.333000", "173245.337000"],
      "InstanceCreationTime": ["172912.743000", "172912.747000", "172912.750000", "172912.753000", "172912.757000", "172912.760000", "172912.763000", "172912.767000", "172912.770000", "172912.774000", "172912.777000", "172912.780000", "172912.784000", "172912.787000", "172912.799000", "172912.803000", "172932.702000", "172932.706000", "172932.709000", "172932.724000", "172932.727000", "172932.731000", "172932.734000", "172932.737000", "172932.741000", "172932.745000", "172932.749000", "172932.752000", "172932.756000", "172932.759000", "172932.762000", "172932.766000", "172932.769000", "172932.772000", "172932.776000", "172932.779000", "172952.702000", "172952.706000", "172952.709000", "172952.713000", "172952.716000", "172952.719000", "172952.723000", "172952.726000", "172952.729000", "172952.732000", "172952.736000", "172952.739000", "172952.743000", "172952.746000", "172952.749000", "172952.753000", "172952.756000", "172952.759000", "172952.763000", "172952.766000", "173012.702000", "173012.706000", "173012.709000", "173012.713000", "173012.716000", "173012.719000", "173012.723000", "173012.726000", "173012.729000", "173012.733000", "173012.736000", "173012.740000", "173012.744000", "173012.748000", "173012.751000", "173012.754000", "173012.758000", "173012.761000", "173012.765000", "173012.768000", "173032.702000", "173032.706000", "173032.709000", "173032.712000", "173032.716000", "173032.719000", "173032.722000", "173032.726000", "173032.729000", "173032.732000", "173032.736000", "173032.739000", "173032.742000", "173032.746000", "173032.749000", "173032.752000", "173032.756000", "173032.759000", "173032.762000", "173032.766000", "173032.769000", "173112.702000", "173112.706000", "173112.709000", "173112.712000", "173112.716000", "173112.719000", "173112.722000", "173112.726000", "173112.738000", "173112.741000", "173112.744000", "173112.748000", "173112.751000", "173112.754000", "173112.758000", "173112.761000", "173112.765000", "173112.768000", "173112.771000", "173112.775000", "173112.778000", "173112.781000", "173112.785000", "173112.788000", "173112.792000", "173112.795000", "173112.798000", "173112.802000", "173112.805000", "173112.808000", "173152.702000", "173152.706000", "173152.709000", "173152.712000", "173152.716000", "173152.719000", "173152.722000", "173152.726000", "173152.729000", "173152.732000", "173152.736000", "173152.739000", "173152.742000", "173152.746000", "173152.749000", "173152.752000", "173152.766000", "173152.769000", "173152.773000", "173152.776000", "173152.780000", "173152.783000", "173152.786000", "173152.790000", "173152.793000", "173152.797000", "173152.800000", "173232.702000", "173232.706000", "173232.709000", "173232.712000", "173232.716000", "173232.719000", "173232.723000", "173232.726000", "173232.729000", "173232.733000", "173232.736000", "173232.739000", "173232.743000", "173232.746000", "173232.749000", "173232.753000", "173232.757000", "173232.760000", "173232.763000", "173232.767000", "173232.770000", "173232.774000", "173232.777000", "173232.780000", "173232.784000", "173232.787000", "173232.790000", "173245.310000", "173245.313000", "173245.317000", "173245.320000", "173245.323000", "173245.327000", "173245.330000", "173245.333000", "173245.337000"],
      "InstanceNumber": [1, 2, 3, 4, 5, 6, 7, 8, 9, 10, 11, 12, 13, 14, 15, 16, 17, 18, 19, 20, 21, 22, 23, 24, 25, 26, 27, 28, 29, 30, 31, 32, 33, 34, 35, 36, 37, 38, 39, 40, 41, 42, 43, 44, 45, 46, 47, 48, 49, 50, 51, 52, 53, 54, 55, 56, 57, 58, 59, 60, 61, 62, 63, 64, 65, 66, 67, 68, 69, 70, 71, 72, 73, 74, 75, 76, 77, 78, 79, 80, 81, 82, 83, 84, 85, 86, 87, 88, 89, 90, 91, 92, 93, 94, 95, 96, 97, 98, 99, 100, 101, 102, 103, 104, 105, 106, 107, 108, 109, 110, 111, 112, 113, 114, 115, 116, 117, 118, 119, 120, 121, 122, 123, 124, 125, 126, 127, 128, 129, 130, 131, 132, 133, 134, 135, 136, 137, 138, 139, 140, 141, 142, 143, 144, 145, 146, 147, 148, 149, 150, 151, 152, 153, 154, 155, 156, 157, 158, 159, 160, 161, 162, 163, 164, 165, 166, 167, 168, 169, 170, 171, 172, 173, 174, 175, 176, 177, 178, 179, 180, 181, 182, 183, 184, 185, 186, 187, 188, 189, 190],
      "LargestImagePixelValue": [41403, 40836, 40587, 40043, 40206, 40888, 40899, 42929, 43205, 43438, 42971, 40869, 42374, 43770, 42826, 42585, 43349, 43154, 43068, 42703, 43109, 42882, 42563, 42887, 42576, 42805, 42129, 41488, 42361, 41080, 40413, 40387, 40585, 42535, 39764, 40890, 40285, 41483, 43541, 42227, 42095, 41570, 42607, 42309, 41741, 40216, 40170, 47315, 39513, 41579, 42535, 41669, 41419, 40331, 40223, 44526, 47900, 43519, 45318, 44483, 43460, 42052, 42114, 44884, 41329, 40328, 41754, 43361, 42444, 40475, 46497, 44517, 43400, 42433, 44156, 41511, 42446, 43519, 43608, 42726, 41682, 43005, 43475, 43869, 42938, 45567, 43447, 42146, 40274, 39536, 42185, 40785, 41452, 43601, 42339, 44572, 45543, 44299, 44025, 42106, 39703, 41030, 41087, 44537, 49313, 42367, 42627, 43759, 44238, 43431, 44416, 44100, 45831, 45613, 45411, 45915, 39455, 42233, 43390, 40687, 39686, 43580, 43696, 43548, 42899, 43448, 41003, 38981, 42732, 43112, 43200, 43822, 43983, 42452, 43670, 43310, 44621, 45480, 45097, 42107, 41539, 44420, 44681, 44790, 44798, 45420, 42955, 44186, 42534, 39598, 39036, 42840, 43749, 43456, 42638, 43538, 44193, 48402, 44193, 45129, 42064, 41409, 40295, 41861, 42648, 43183, 42113, 43219, 40911, 44955, 46053, 41267, 43267, 42419, 42361, 41765, 41964, 43089, 40815, 41473, 41485, 40814, 42491, 42608, 41146, 41906, 41202, 41099, 41737, 41400],
      "WindowCenter": [10608.0, 10549.0, 10510.0, 10508.0, 10522.0, 10531.0, 10537.0, 10546.0, 10550.0, 10559.0, 10554.0, 10524.0, 10529.0, 10533.0, 10513.0, 10513.0, 10548.0, 10551.0, 10559.0, 10545.0, 10540.0, 10530.0, 10519.0, 10539.0, 10554.0, 10577.0, 10560.0, 10527.0, 10516.0, 10512.0, 10517.0, 10540.0, 10565.0, 10579.0, 10547.0, 10562.0, 10556.0, 10559.0, 10573.0, 10565.0, 10567.0, 10547.0, 10569.0, 10564.0, 10563.0, 10565.0, 10562.0, 10595.0, 10510.0, 10513.0, 10539.0, 10564.0, 10573.0, 10553.0, 10520.0, 10526.0, 10550.0, 10537.0, 10591.0, 10623.0, 10596.0, 10568.0, 10536.0, 10532.0, 10512.0, 10523.0, 10571.0, 10595.0, 10573.0, 10529.0, 10559.0, 10541.0, 10540.0, 10575.0, 10604.0, 10565.0, 10529.0, 10519.0, 10523.0, 10536.0, 10547.0, 10550.0, 10543.0, 10530.0, 10527.0, 10546.0, 10532.0, 10519.0, 10506.0, 10519.0, 10539.0, 10523.0, 10538.0, 10576.0, 10550.0, 10564.0, 10564.0, 10528.0, 10535.0, 10539.0, 10512.0, 10548.0, 10521.0, 10526.0, 10545.0, 10493.0, 10541.0, 10602.0, 10612.0, 10607.0, 10578.0, 10545.0, 10556.0, 10550.0, 10540.0, 10536.0, 10482.0, 10515.0, 10530.0, 10499.0, 10498.0, 10514.0, 10508.0, 10535.0, 10562.0, 10586.0, 10531.0, 10474.0, 10501.0, 10499.0, 10507.0, 10550.0, 10562.0, 10545.0, 10540.0, 10512.0, 10519.0, 10534.0, 10549.0, 10552.0, 10516.0, 10533.0, 10537.0, 10548.0, 10575.0, 10593.0, 10562.0, 10545.0, 10501.0, 10465.0, 10459.0, 10509.0, 10547.0, 10577.0, 10583.0, 10586.0, 10556.0, 10570.0, 10513.0, 10508.0, 10489.0, 10483.0, 10441.0, 10460.0, 10484.0, 10508.0, 10537.0, 10561.0, 10515.0, 10516.0, 10507.0, 10438.0, 10462.0, 10481.0, 10523.0, 10557.0, 10549.0, 10524.0, 10470.0, 10451.0, 10448.0, 10443.0, 10484.0, 10536.0, 10552.0, 10556.0, 10533.0, 10497.0, 10483.0, 10466.0],
      "WindowWidth": [22609.0, 22445.0, 22339.0, 22332.0, 22362.0, 22382.0, 22390.0, 22396.0, 22403.0, 22426.0, 22414.0, 22351.0, 22350.0, 22370.0, 22317.0, 22320.0, 22407.0, 22409.0, 22428.0, 22395.0, 22384.0, 22377.0, 22338.0, 22384.0, 22430.0, 22478.0, 22448.0, 22363.0, 22342.0, 22343.0, 22355.0, 22409.0, 22469.0, 22483.0, 22424.0, 22455.0, 22440.0, 22436.0, 22460.0, 22450.0, 22457.0, 22412.0, 22460.0, 22448.0, 22445.0, 22458.0, 22457.0, 22509.0, 22342.0, 22330.0, 22389.0, 22455.0, 22481.0, 22438.0, 22357.0, 22349.0, 22401.0, 22376.0, 22504.0, 22581.0, 22515.0, 22465.0, 22388.0, 22364.0, 22326.0, 22355.0, 22461.0, 22504.0, 22470.0, 22379.0, 22419.0, 22380.0, 22383.0, 22472.0, 22540.0, 22461.0, 22367.0, 22331.0, 22340.0, 22373.0, 22417.0, 22411.0, 22386.0, 22356.0, 22352.0, 22396.0, 22364.0, 22338.0, 22325.0, 22358.0, 22380.0, 22351.0, 22383.0, 22461.0, 22407.0, 22440.0, 22433.0, 22355.0, 22366.0, 22389.0, 22338.0, 22419.0, 22356.0, 22354.0, 22382.0, 22272.0, 22386.0, 22528.0, 22545.0, 22539.0, 22466.0, 22390.0, 22407.0, 22400.0, 22374.0, 22363.0, 22274.0, 22327.0, 22355.0, 22302.0, 22303.0, 22317.0, 22296.0, 22366.0, 22441.0, 22492.0, 22374.0, 22252.0, 22297.0, 22285.0, 22310.0, 22406.0, 22433.0, 22398.0, 22387.0, 22315.0, 22332.0, 22359.0, 22406.0, 22427.0, 22340.0, 22357.0, 22364.0, 22389.0, 22458.0, 22496.0, 22442.0, 22396.0, 22297.0, 22227.0, 22220.0, 22313.0, 22399.0, 22469.0, 22486.0, 22496.0, 22416.0, 22438.0, 22309.0, 22299.0, 22272.0, 22271.0, 22165.0, 22203.0, 22252.0, 22308.0, 22379.0, 22432.0, 22324.0, 22323.0, 22297.0, 22152.0, 22193.0, 22241.0, 22350.0, 22436.0, 22410.0, 22345.0, 22227.0, 22178.0, 22175.0, 22168.0, 22254.0, 22379.0, 22424.0, 22425.0, 22376.0, 22288.0, 22257.0, 22223.0]
    },
    "slices": {}
  }
}