{
  "AcquisitionMatrixPE": 104,
  "AcquisitionNumber": 1,
  "AcquisitionTime": "17:22:6.902500",
  "BandwidthPerPixelPhaseEncode": 17.17,
  "BaseResolution": 104,
  "BodyPartExamined": "BRAIN",
  "CoilCombinationMethod": "Sum of Squares",
  "ConsistencyInfo": "N4_VE11C_LATEST_20160120",
  "ConversionSoftware": "dcm2niix",
  "ConversionSoftwareVersion": "v1.0.20211006",
  "DerivedVendorReportedEchoSpacing": 0.000560011,
  "DeviceSerialNumber": "167006",
  "DwellTime": 2.1e-06,
  "EchoTime": 0.037,
  "EchoTrainLength": 104,
  "EffectiveEchoSpacing": 0.000560011,
  "FlipAngle": 52,
  "HeudiconvVersion": "0.10.0",
  "ImageComments": "Unaliased MB4/PE3/LB",
  "ImageOrientationPatientDICOM": [0.998332, 0.0548554, 0.017992, -0.0428898, 0.913363, -0.404881],
  "ImageOrientationText": "Tra>Cor(-23.8)>Sag(2.2)",
  "ImageType": [
    "ORIGINAL",
    "PRIMARY",
    "M",
    "MB",
    "ND",
    "MOSAIC"
],
  "ImagingFrequency": 123.259,
  "InPlanePhaseEncodingDirectionDICOM": "COL",
  "InstitutionAddress": "Chemin Queen-Mary 4565,Montreal,District,CA,H3W 1W5",
  "InstitutionName": "IUGM",
  "InstitutionalDepartmentName": "Department",
  "MRAcquisitionType": "2D",
  "MagneticFieldStrength": 3,
  "Manufacturer": "Siemens",
  "ManufacturersModelName": "Prisma_fit",
  "MatrixCoilMode": "SENSE",
  "Modality": "MR",
  "MultibandAccelerationFactor": 4,
  "PartialFourier": 1,
  "PatientPosition": "HFS",
  "PercentPhaseFOV": 100,
  "PercentSampling": 100,
  "PhaseEncodingDirection": "j",
  "PhaseEncodingSteps": 104,
  "PhaseResolution": 1,
  "PixelBandwidth": 2290,
  "ProcedureStepDescription": "memory^things",
  "ProtocolName": "func_task-things_run-1",
  "PulseSequenceDetails": "%CustomerSeq%\\cmrr_mbep2d_bold",
  "ReceiveCoilActiveElements": "HC1-7;NC1,2",
  "ReceiveCoilName": "HeadNeck_64",
  "ReconMatrixPE": 104,
  "RepetitionTime": 1.49,
  "SAR": 0.0521306,
  "ScanOptions": "FS",
  "ScanningSequence": "EP",
  "SequenceName": "epfid2d1_104",
  "SequenceVariant": "SK\\SS",
  "SeriesDescription": "func_task-things_run-1",
  "SeriesNumber": 10,
  "ShimSetting": [624, -7182, -8824, 609, 71, -20, -89, -8],
  "SliceThickness": 2,
  "SliceTiming": [0, 0.785, 0.0975, 0.8825, 0.1975, 0.98, 0.295, 1.0775, 0.3925, 1.1775, 0.49, 1.275, 0.5875, 1.3725, 0.6875, 0, 0.785, 0.0975, 0.8825, 0.1975, 0.98, 0.295, 1.0775, 0.3925, 1.1775, 0.49, 1.275, 0.5875, 1.3725, 0.6875, 0, 0.785, 0.0975, 0.8825, 0.1975, 0.98, 0.295, 1.0775, 0.3925, 1.1775, 0.49, 1.275, 0.5875, 1.3725, 0.6875, 0, 0.785, 0.0975, 0.8825, 0.1975, 0.98, 0.295, 1.0775, 0.3925, 1.1775, 0.49, 1.275, 0.5875, 1.3725, 0.6875],
  "SoftwareVersions": "syngo MR E11",
  "SpacingBetweenSlices": 2,
  "StationName": "MRC35049",
  "TaskName": "things",
  "TotalReadoutTime": 0.0576811,
  "TxRefAmp": 273.622,
  "WipMemBlock": "a8ec634d-c70a-47fd-b8d3-0d4411fb373c||Sequence: R016 ve11c/master r/e634e98; Dec 19 2017 11:00:25 by eja",
  "dcmmeta_affine": [
    [-1.9966644048690796, -0.08577969670295715, 0.07728619873523712, 108.85662841796875],
    [-0.10971084982156754, 1.8267260789871216, -0.8068675994873047, -49.96001434326172],
    [0.03598393127322197, 0.8097614645957947, 1.8283848762512207, -67.77388000488281],
    [0.0, 0.0, 0.0, 1.0]
],
  "dcmmeta_reorient_transform": [
    [0.0, -1.0, 0.0, 103.0],
    [1.0, 0.0, 0.0, 0.0],
    [0.0, 0.0, 1.0, 0.0],
    [0.0, 0.0, 0.0, 1.0]
],
  "dcmmeta_shape": [104, 104, 60, 190],
  "dcmmeta_slice_dim": 2,
  "dcmmeta_version": 0.6,
  "global": {
    "const": {
      "AcquisitionMatrix": [104, 0, 0, 104],
      "AngioFlag": "N",
      "BitsAllocated": 16,
      "BitsStored": 16,
      "BodyPartExamined": "BRAIN",
      "Columns": 832,
      "EchoNumbers": 1,
      "EchoTime": 37.0,
      "EchoTrainLength": 104,
      "FlipAngle": 52.0,
      "HighBit": 15,
      "ImageOrientationPatient": [0.99833219498334, 0.05485542497881, 0.01799196515512, -0.0428898493993, 0.91336304038791, -0.4048807445062],
      "ImagePositionPatient": [-795.58334460053, -843.0558138748, 297.28658504079],
      "ImageType": [
        "ORIGINAL",
        "PRIMARY",
        "M",
        "MB",
        "ND",
        "MOSAIC"
],
      "ImagedNucleus": "1H",
      "ImagingFrequency": 123.25887,
      "InPlanePhaseEncodingDirection": "COL",
      "MRAcquisitionType": "2D",
      "MagneticFieldStrength": 3.0,
      "Manufacturer": "SIEMENS",
      "ManufacturerModelName": "Prisma_fit",
      "Modality": "MR",
      "NumberOfAverages": 1.0,
      "NumberOfPhaseEncodingSteps": 104,
      "PercentPhaseFieldOfView": 100.0,
      "PercentSampling": 100.0,
      "PerformedProcedureStepStartTime": "170038.437000",
      "PhotometricInterpretation": "MONOCHROME2",
      "PixelBandwidth": 2290.0,
      "PixelRepresentation": 0,
      "PixelSpacing": [2.0, 2.0],
      "ProtocolName": "func_task-things_run-1",
      "RepetitionTime": 1490.0,
      "Rows": 832,
      "SAR": 0.05213062732031,
      "SamplesPerPixel": 1,
      "ScanOptions": "FS",
      "ScanningSequence": "EP",
      "SequenceName": "epfid2d1_104",
      "SequenceVariant": [
        "SK",
        "SS"
],
      "SeriesDescription": "func_task-things_run-1",
      "SeriesNumber": 10,
      "SeriesTime": "172339.896000",
      "SliceLocation": -37.596253566226,
      "SliceThickness": 2.0,
      "SmallestImagePixelValue": 0,
      "SoftwareVersions": "syngo MR E11",
      "SpacingBetweenSlices": 1.9999999547002,
      "SpecificCharacterSet": "ISO_IR 100",
      "StudyID": "1",
      "StudyTime": "170038.367000",
      "TransmitCoilName": "Body",
      "VariableFlipAngleFlag": "N",
      "WindowCenterWidthExplanation": "Algo1",
      "dBdt": 0.0},
    "slices": {}
  },
  "time": {
    "samples": {
      "AcquisitionNumber": [1, 2, 3, 4, 5, 6, 7, 8, 9, 10, 11, 12, 13, 14, 15, 16, 17, 18, 19, 20, 21, 22, 23, 24, 25, 26, 27, 28, 29, 30, 31, 32, 33, 34, 35, 36, 37, 38, 39, 40, 41, 42, 43, 44, 45, 46, 47, 48, 49, 50, 51, 52, 53, 54, 55, 56, 57, 58, 59, 60, 61, 62, 63, 64, 65, 66, 67, 68, 69, 70, 71, 72, 73, 74, 75, 76, 77, 78, 79, 80, 81, 82, 83, 84, 85, 86, 87, 88, 89, 90, 91, 92, 93, 94, 95, 96, 97, 98, 99, 100, 101, 102, 103, 104, 105, 106, 107, 108, 109, 110, 111, 112, 113, 114, 115, 116, 117, 118, 119, 120, 121, 122, 123, 124, 125, 126, 127, 128, 129, 130, 131, 132, 133, 134, 135, 136, 137, 138, 139, 140, 141, 142, 143, 144, 145, 146, 147, 148, 149, 150, 151, 152, 153, 154, 155, 156, 157, 158, 159, 160, 161, 162, 163, 164, 165, 166, 167, 168, 169, 170, 171, 172, 173, 174, 175, 176, 177, 178, 179, 180, 181, 182, 183, 184, 185, 186, 187, 188, 189, 190],
      "AcquisitionTime": ["172206.902500", "172208.392500", "172209.882500", "172211.372500", "172212.862500", "172214.352500", "172215.842500", "172217.332500", "172218.822500", "172220.312500", "172221.802500", "172223.292500", "172224.782500", "172226.272500", "172227.762500", "172229.252500", "172230.742500", "172232.232500", "172233.722500", "172235.212500", "172236.702500", "172238.192500", "172239.682500", "172241.172500", "172242.662500", "172244.152500", "172245.642500", "172247.132500", "172248.622500", "172250.112500", "172251.602500", "172253.092500", "172254.582500", "172256.072500", "172257.562500", "172259.052500", "172300.542500", "172302.032500", "172303.522500", "172305.012500", "172306.502500", "172307.992500", "172309.482500", "172310.972500", "172312.462500", "172313.952500", "172315.442500", "172316.932500", "172318.422500", "172319.912500", "172321.402500", "172322.892500", "172324.382500", "172325.872500", "172327.362500", "172328.852500", "172330.342500", "172331.832500", "172333.322500", "172334.812500", "172336.302500", "172337.792500", "172339.282500", "172340.772500", "172342.262500", "172343.752500", "172345.242500", "172346.732500", "172348.222500", "172349.712500", "172351.202500", "172352.692500", "172354.182500", "172355.672500", "172357.162500", "172358.652500", "172400.142500", "172401.632500", "172403.122500", "172404.612500", "172406.102500", "172407.592500", "172409.082500", "172410.572500", "172412.062500", "172413.552500", "172415.042500", "172416.532500", "172418.022500", "172419.512500", "172421.002500", "172422.492500", "172423.982500", "172425.472500", "172426.962500", "172428.452500", "172429.942500", "172431.432500", "172432.922500", "172434.412500", "172435.902500", "172437.392500", "172438.882500", "172440.372500", "172441.862500", "172443.352500", "172444.842500", "172446.332500", "172447.822500", "172449.312500", "172450.802500", "172452.292500", "172453.782500", "172455.272500", "172456.762500", "172458.252500", "172459.742500", "172501.232500", "172502.722500", "172504.212500", "172505.702500", "172507.192500", "172508.682500", "172510.172500", "172511.662500", "172513.152500", "172514.642500", "172516.132500", "172517.622500", "172519.112500", "172520.602500", "172522.092500", "172523.582500", "172525.072500", "172526.562500", "172528.052500", "172529.542500", "172531.032500", "172532.522500", "172534.012500", "172535.502500", "172536.992500", "172538.482500", "172539.972500", "172541.462500", "172542.952500", "172544.442500", "172545.932500", "172547.422500", "172548.912500", "172550.402500", "172551.892500", "172553.382500", "172554.872500", "172556.362500", "172557.852500", "172559.342500", "172600.832500", "172602.322500", "172603.812500", "172605.302500", "172606.792500", "172608.282500", "172609.772500", "172611.262500", "172612.752500", "172614.242500", "172615.732500", "172617.222500", "172618.712500", "172620.202500", "172621.692500", "172623.182500", "172624.672500", "172626.162500", "172627.652500", "172629.142500", "172630.632500", "172632.122500", "172633.612500", "172635.102500", "172636.592500", "172638.082500", "172639.572500", "172641.062500", "172642.552500", "172644.042500", "172645.532500", "172647.022500", "172648.512500"],
      "ContentTime": ["172339.899000", "172339.903000", "172339.906000", "172339.910000", "172339.913000", "172339.916000", "172339.920000", "172339.923000", "172339.926000", "172339.930000", "172339.933000", "172339.937000", "172339.940000", "172339.955000", "172339.959000", "172339.962000", "172339.965000", "172339.969000", "172339.972000", "172339.975000", "172339.979000", "172339.982000", "172339.985000", "172339.989000", "172339.992000", "172339.995000", "172339.999000", "172340.002000", "172340.005000", "172340.009000", "172340.012000", "172340.022000", "172340.025000", "172340.028000", "172340.032000", "172340.035000", "172340.039000", "172340.042000", "172359.862000", "172359.899000", "172359.902000", "172359.916000", "172359.919000", "172359.922000", "172359.926000", "172359.929000", "172359.933000", "172359.936000", "172359.939000", "172359.942000", "172359.946000", "172359.949000", "172359.952000", "172359.956000", "172359.959000", "172359.963000", "172359.966000", "172359.969000", "172419.861000", "172419.865000", "172419.868000", "172419.871000", "172419.875000", "172419.878000", "172419.881000", "172419.885000", "172419.889000", "172419.893000", "172419.896000", "172419.899000", "172419.903000", "172419.906000", "172419.909000", "172419.913000", "172419.916000", "172419.920000", "172419.923000", "172419.926000", "172439.861000", "172439.865000", "172439.868000", "172439.871000", "172439.875000", "172439.878000", "172439.881000", "172439.885000", "172439.888000", "172439.892000", "172439.895000", "172439.898000", "172439.902000", "172439.905000", "172439.908000", "172439.911000", "172439.915000", "172439.918000", "172439.922000", "172439.925000", "172519.861000", "172519.865000", "172519.868000", "172519.871000", "172519.875000", "172519.878000", "172519.881000", "172519.885000", "172519.888000", "172519.892000", "172519.895000", "172519.898000", "172519.902000", "172519.905000", "172519.908000", "172519.912000", "172519.927000", "172519.931000", "172519.934000", "172519.938000", "172519.941000", "172519.944000", "172519.948000", "172519.951000", "172519.954000", "172519.958000", "172519.961000", "172519.964000", "172519.968000", "172519.971000", "172559.862000", "172559.866000", "172559.869000", "172559.872000", "172559.876000", "172559.879000", "172559.883000", "172559.886000", "172559.890000", "172559.893000", "172559.896000", "172559.900000", "172559.903000", "172559.907000", "172559.910000", "172559.913000", "172559.917000", "172559.920000", "172559.923000", "172559.927000", "172559.930000", "172559.933000", "172559.937000", "172559.940000", "172559.943000", "172559.947000", "172559.950000", "172639.861000", "172639.865000", "172639.868000", "172639.872000", "172639.875000", "172639.879000", "172639.882000", "172639.885000", "172639.889000", "172639.892000", "172639.896000", "172639.899000", "172639.902000", "172639.906000", "172639.909000", "172639.912000", "172639.916000", "172639.919000", "172639.922000", "172639.926000", "172639.929000", "172639.932000", "172639.936000", "172639.939000", "172639.942000", "172639.947000", "172639.950000", "172651.027000", "172651.030000", "172651.034000", "172651.037000", "172651.047000", "172651.051000", "172651.055000", "172651.058000"],
      "InstanceCreationTime": ["172339.899000", "172339.903000", "172339.906000", "172339.910000", "172339.913000", "172339.916000", "172339.920000", "172339.923000", "172339.926000", "172339.930000", "172339.933000", "172339.937000", "172339.940000", "172339.955000", "172339.959000", "172339.962000", "172339.965000", "172339.969000", "172339.972000", "172339.975000", "172339.979000", "172339.982000", "172339.985000", "172339.989000", "172339.992000", "172339.995000", "172339.999000", "172340.002000", "172340.005000", "172340.009000", "172340.012000", "172340.022000", "172340.025000", "172340.028000", "172340.032000", "172340.035000", "172340.039000", "172340.042000", "172359.862000", "172359.899000", "172359.902000", "172359.916000", "172359.919000", "172359.922000", "172359.926000", "172359.929000", "172359.933000", "172359.936000", "172359.939000", "172359.942000", "172359.946000", "172359.949000", "172359.952000", "172359.956000", "172359.959000", "172359.963000", "172359.966000", "172359.969000", "172419.861000", "172419.865000", "172419.868000", "172419.871000", "172419.875000", "172419.878000", "172419.881000", "172419.885000", "172419.889000", "172419.893000", "172419.896000", "172419.899000", "172419.903000", "172419.906000", "172419.909000", "172419.913000", "172419.916000", "172419.920000", "172419.923000", "172419.926000", "172439.861000", "172439.865000", "172439.868000", "172439.871000", "172439.875000", "172439.878000", "172439.881000", "172439.885000", "172439.888000", "172439.892000", "172439.895000", "172439.898000", "172439.902000", "172439.905000", "172439.908000", "172439.911000", "172439.915000", "172439.918000", "172439.922000", "172439.925000", "172519.861000", "172519.865000", "172519.868000", "172519.871000", "172519.875000", "172519.878000", "172519.881000", "172519.885000", "172519.888000", "172519.892000", "172519.895000", "172519.898000", "172519.902000", "172519.905000", "172519.908000", "172519.912000", "172519.927000", "172519.931000", "172519.934000", "172519.938000", "172519.941000", "172519.944000", "172519.948000", "172519.951000", "172519.954000", "172519.958000", "172519.961000", "172519.964000", "172519.968000", "172519.971000", "172559.862000", "172559.866000", "172559.869000", "172559.872000", "172559.876000", "172559.879000", "172559.883000", "172559.886000", "172559.890000", "172559.893000", "172559.896000", "172559.900000", "172559.903000", "172559.907000", "172559.910000", "172559.913000", "172559.917000", "172559.920000", "172559.923000", "172559.927000", "172559.930000", "172559.933000", "172559.937000", "172559.940000", "172559.943000", "172559.947000", "172559.950000", "172639.861000", "172639.865000", "172639.868000", "172639.872000", "172639.875000", "172639.879000", "172639.882000", "172639.885000", "172639.889000", "172639.892000", "172639.896000", "172639.899000", "172639.902000", "172639.906000", "172639.909000", "172639.912000", "172639.916000", "172639.919000", "172639.922000", "172639.926000", "172639.929000", "172639.932000", "172639.936000", "172639.939000", "172639.942000", "172639.947000", "172639.950000", "172651.027000", "172651.030000", "172651.034000", "172651.037000", "172651.047000", "172651.051000", "172651.055000", "172651.058000"],
      "InstanceNumber": [1, 2, 3, 4, 5, 6, 7, 8, 9, 10, 11, 12, 13, 14, 15, 16, 17, 18, 19, 20, 21, 22, 23, 24, 25, 26, 27, 28, 29, 30, 31, 32, 33, 34, 35, 36, 37, 38, 39, 40, 41, 42, 43, 44, 45, 46, 47, 48, 49, 50, 51, 52, 53, 54, 55, 56, 57, 58, 59, 60, 61, 62, 63, 64, 65, 66, 67, 68, 69, 70, 71, 72, 73, 74, 75, 76, 77, 78, 79, 80, 81, 82, 83, 84, 85, 86, 87, 88, 89, 90, 91, 92, 93, 94, 95, 96, 97, 98, 99, 100, 101, 102, 103, 104, 105, 106, 107, 108, 109, 110, 111, 112, 113, 114, 115, 116, 117, 118, 119, 120, 121, 122, 123, 124, 125, 126, 127, 128, 129, 130, 131, 132, 133, 134, 135, 136, 137, 138, 139, 140, 141, 142, 143, 144, 145, 146, 147, 148, 149, 150, 151, 152, 153, 154, 155, 156, 157, 158, 159, 160, 161, 162, 163, 164, 165, 166, 167, 168, 169, 170, 171, 172, 173, 174, 175, 176, 177, 178, 179, 180, 181, 182, 183, 184, 185, 186, 187, 188, 189, 190],
      "LargestImagePixelValue": [45045, 43148, 43258, 42835, 42267, 41836, 41693, 40917, 40674, 40401, 41190, 42864, 42512, 41410, 41074, 40561, 42131, 41909, 41447, 41031, 40873, 42007, 43225, 42862, 42051, 42145, 41365, 42083, 42441, 42722, 41480, 42631, 41507, 42331, 42095, 42045, 41541, 41382, 41283, 41172, 42002, 41446, 40685, 41096, 41352, 41080, 41378, 42010, 40748, 40653, 40554, 40692, 40692, 40154, 40407, 40530, 39994, 40534, 39561, 39088, 40034, 40354, 39037, 39280, 40620, 39490, 39013, 44357, 39362, 40174, 42427, 40875, 41235, 40499, 41010, 40754, 41558, 42783, 42402, 44452, 42541, 43746, 43282, 43708, 42392, 43065, 43070, 43261, 44331, 41080, 41178, 41518, 41992, 43243, 43831, 44645, 45168, 45290, 44479, 45010, 45414, 44615, 44754, 45795, 43615, 42873, 45537, 46452, 46437, 46200, 45795, 46349, 45961, 45257, 46075, 45417, 42481, 44402, 43305, 44976, 45170, 44457, 42964, 43066, 43603, 42686, 43253, 41655, 40387, 40883, 41649, 39591, 40641, 41511, 41072, 40250, 39998, 41113, 40702, 39009, 43061, 40279, 40473, 40093, 39397, 39773, 40620, 41101, 47522, 43200, 43016, 42650, 42496, 47890, 44248, 43239, 41468, 41801, 41611, 41540, 42184, 42387, 40723, 42353, 41579, 40406, 43456, 41623, 41302, 46177, 43013, 43446, 40556, 40947, 39162, 45741, 43295, 42143, 39156, 41461, 47516, 40695, 40631, 40626, 38398, 37890, 40821, 40635, 44226, 41464],
      "WindowCenter": [10605.0, 10569.0, 10567.0, 10568.0, 10553.0, 10544.0, 10555.0, 10570.0, 10583.0, 10580.0, 10574.0, 10569.0, 10547.0, 10530.0, 10548.0, 10570.0, 10588.0, 10563.0, 10539.0, 10517.0, 10522.0, 10552.0, 10579.0, 10571.0, 10543.0, 10540.0, 10541.0, 10557.0, 10581.0, 10585.0, 10566.0, 10566.0, 10549.0, 10551.0, 10566.0, 10570.0, 10563.0, 10555.0, 10549.0, 10540.0, 10556.0, 10560.0, 10544.0, 10563.0, 10569.0, 10575.0, 10581.0, 10590.0, 10572.0, 10558.0, 10545.0, 10535.0, 10541.0, 10555.0, 10546.0, 10540.0, 10530.0, 10541.0, 10557.0, 10545.0, 10538.0, 10533.0, 10514.0, 10519.0, 10538.0, 10517.0, 10505.0, 10558.0, 10504.0, 10523.0, 10550.0, 10529.0, 10533.0, 10528.0, 10525.0, 10519.0, 10523.0, 10529.0, 10531.0, 10565.0, 10540.0, 10554.0, 10562.0, 10559.0, 10550.0, 10578.0, 10582.0, 10586.0, 10586.0, 10539.0, 10544.0, 10560.0, 10576.0, 10600.0, 10600.0, 10594.0, 10575.0, 10578.0, 10585.0, 10591.0, 10601.0, 10598.0, 10576.0, 10585.0, 10562.0, 10583.0, 10609.0, 10622.0, 10612.0, 10606.0, 10595.0, 10588.0, 10592.0, 10592.0, 10598.0, 10596.0, 10572.0, 10583.0, 10574.0, 10594.0, 10602.0, 10599.0, 10600.0, 10586.0, 10577.0, 10562.0, 10616.0, 10599.0, 10599.0, 10606.0, 10603.0, 10574.0, 10561.0, 10569.0, 10563.0, 10557.0, 10571.0, 10578.0, 10593.0, 10558.0, 10598.0, 10574.0, 10585.0, 10586.0, 10582.0, 10580.0, 10575.0, 10562.0, 10605.0, 10562.0, 10572.0, 10599.0, 10600.0, 10607.0, 10579.0, 10568.0, 10558.0, 10583.0, 10580.0, 10569.0, 10573.0, 10573.0, 10570.0, 10602.0, 10560.0, 10573.0, 10639.0, 10614.0, 10600.0, 10637.0, 10606.0, 10600.0, 10559.0, 10571.0, 10453.0, 10640.0, 10591.0, 10592.0, 10543.0, 10550.0, 10612.0, 10573.0, 10583.0, 10571.0, 10519.0, 10503.0, 10534.0, 10534.0, 10579.0, 10575.0],
      "WindowWidth": [22581.0, 22486.0, 22468.0, 22468.0, 22432.0, 22404.0, 22430.0, 22471.0, 22502.0, 22494.0, 22478.0, 22459.0, 22406.0, 22376.0, 22421.0, 22473.0, 22504.0, 22444.0, 22391.0, 22342.0, 22356.0, 22428.0, 22488.0, 22462.0, 22400.0, 22394.0, 22407.0, 22438.0, 22493.0, 22503.0, 22462.0, 22455.0, 22423.0, 22424.0, 22459.0, 22467.0, 22450.0, 22431.0, 22420.0, 22398.0, 22433.0, 22449.0, 22410.0, 22453.0, 22468.0, 22485.0, 22495.0, 22526.0, 22481.0, 22443.0, 22410.0, 22386.0, 22402.0, 22442.0, 22420.0, 22403.0, 22385.0, 22405.0, 22450.0, 22419.0, 22398.0, 22381.0, 22345.0, 22355.0, 22397.0, 22354.0, 22323.0, 22435.0, 22327.0, 22365.0, 22421.0, 22373.0, 22383.0, 22374.0, 22359.0, 22346.0, 22352.0, 22352.0, 22358.0, 22443.0, 22380.0, 22421.0, 22447.0, 22427.0, 22414.0, 22478.0, 22488.0, 22500.0, 22491.0, 22385.0, 22396.0, 22435.0, 22470.0, 22523.0, 22522.0, 22504.0, 22457.0, 22464.0, 22483.0, 22496.0, 22518.0, 22520.0, 22456.0, 22482.0, 22430.0, 22494.0, 22538.0, 22564.0, 22542.0, 22533.0, 22505.0, 22486.0, 22498.0, 22510.0, 22509.0, 22510.0, 22467.0, 22479.0, 22466.0, 22500.0, 22519.0, 22517.0, 22539.0, 22493.0, 22475.0, 22442.0, 22570.0, 22531.0, 22538.0, 22549.0, 22545.0, 22484.0, 22450.0, 22470.0, 22456.0, 22441.0, 22479.0, 22490.0, 22527.0, 22442.0, 22534.0, 22479.0, 22514.0, 22508.0, 22501.0, 22494.0, 22472.0, 22444.0, 22530.0, 22431.0, 22461.0, 22526.0, 22528.0, 22527.0, 22469.0, 22445.0, 22432.0, 22494.0, 22495.0, 22458.0, 22466.0, 22467.0, 22473.0, 22544.0, 22448.0, 22480.0, 22621.0, 22573.0, 22537.0, 22609.0, 22547.0, 22534.0, 22449.0, 22475.0, 22213.0, 22616.0, 22518.0, 22517.0, 22411.0, 22409.0, 22538.0, 22472.0, 22498.0, 22466.0, 22355.0, 22326.0, 22384.0, 22391.0, 22481.0, 22474.0]
    },
    "slices": {}
  }
}