{
  "AcquisitionMatrixPE": 104,
  "AcquisitionNumber": 1,
  "AcquisitionTime": "17:28:1.950000",
  "BandwidthPerPixelPhaseEncode": 17.17,
  "BaseResolution": 104,
  "BodyPartExamined": "BRAIN",
  "CoilCombinationMethod": "Sum of Squares",
  "ConsistencyInfo": "N4_VE11C_LATEST_20160120",
  "ConversionSoftware": "dcm2niix",
  "ConversionSoftwareVersion": "v1.0.20211006",
  "DerivedVendorReportedEchoSpacing": 0.000560011,
  "DeviceSerialNumber": "167006",
  "DwellTime": 2.1e-06,
  "EchoTime": 0.037,
  "EchoTime1": 0.037,
  "EchoTime2": 0.001,
  "EchoTrainLength": 104,
  "EffectiveEchoSpacing": 0.000560011,
  "FlipAngle": 52,
  "HeudiconvVersion": "0.10.0",
  "ImageComments": "Unaliased MB4/PE3/LB",
  "ImageOrientationPatientDICOM": [0.998332, 0.0548554, 0.017992, -0.0428898, 0.913363, -0.404881],
  "ImageOrientationText": "Tra>Cor(-23.8)>Sag(2.2)",
  "ImageType": [
    "ORIGINAL",
    "PRIMARY",
    "P",
    "MB",
    "ND",
    "MOSAIC",
    "PHASE"
],
  "ImagingFrequency": 123.259,
  "InPlanePhaseEncodingDirectionDICOM": "COL",
  "InstitutionAddress": "Chemin Queen-Mary 4565,Montreal,District,CA,H3W 1W5",
  "InstitutionName": "IUGM",
  "InstitutionalDepartmentName": "Department",
  "MRAcquisitionType": "2D",
  "MagneticFieldStrength": 3,
  "Manufacturer": "Siemens",
  "ManufacturersModelName": "Prisma_fit",
  "MatrixCoilMode": "SENSE",
  "Modality": "MR",
  "MultibandAccelerationFactor": 4,
  "PartialFourier": 1,
  "PatientPosition": "HFS",
  "PercentPhaseFOV": 100,
  "PercentSampling": 100,
  "PhaseEncodingDirection": "j",
  "PhaseEncodingSteps": 104,
  "PhaseResolution": 1,
  "PixelBandwidth": 2290,
  "ProcedureStepDescription": "memory^things",
  "ProtocolName": "func_task-things_run-2",
  "PulseSequenceDetails": "%CustomerSeq%\\cmrr_mbep2d_bold",
  "ReceiveCoilActiveElements": "HC1-7;NC1,2",
  "ReceiveCoilName": "HeadNeck_64",
  "ReconMatrixPE": 104,
  "RepetitionTime": 1.49,
  "SAR": 0.0521306,
  "ScanOptions": "FS",
  "ScanningSequence": "EP",
  "SequenceName": "epfid2d1_104",
  "SequenceVariant": "SK\\SS",
  "SeriesDescription": "func_task-things_run-2",
  "SeriesNumber": 14,
  "ShimSetting": [624, -7182, -8824, 609, 71, -20, -89, -8],
  "SliceThickness": 2,
  "SliceTiming": [0, 0.785, 0.1, 0.8825, 0.1975, 0.98, 0.295, 1.0775, 0.3925, 1.1775, 0.49, 1.275, 0.59, 1.3725, 0.6875, 0, 0.785, 0.1, 0.8825, 0.1975, 0.98, 0.295, 1.0775, 0.3925, 1.1775, 0.49, 1.275, 0.59, 1.3725, 0.6875, 0, 0.785, 0.1, 0.8825, 0.1975, 0.98, 0.295, 1.0775, 0.3925, 1.1775, 0.49, 1.275, 0.59, 1.3725, 0.6875, 0, 0.785, 0.1, 0.8825, 0.1975, 0.98, 0.295, 1.0775, 0.3925, 1.1775, 0.49, 1.275, 0.59, 1.3725, 0.6875],
  "SoftwareVersions": "syngo MR E11",
  "SpacingBetweenSlices": 2,
  "StationName": "MRC35049",
  "TaskName": "things",
  "TotalReadoutTime": 0.0576811,
  "TxRefAmp": 273.622,
  "WipMemBlock": "2d58c421-7695-4ebd-87a2-ae3ce9ef07d1||Sequence: R016 ve11c/master r/e634e98; Dec 19 2017 11:00:25 by eja",
  "dcmmeta_affine": [
    [-1.9966644048690796, -0.08577969670295715, 0.07728619873523712, 108.85662841796875],
    [-0.10971084982156754, 1.8267260789871216, -0.8068675994873047, -49.96001434326172],
    [0.03598393127322197, 0.8097614645957947, 1.8283848762512207, -67.77388000488281],
    [0.0, 0.0, 0.0, 1.0]
],
  "dcmmeta_reorient_transform": [
    [0.0, -1.0, 0.0, 103.0],
    [1.0, 0.0, 0.0, 0.0],
    [0.0, 0.0, 1.0, 0.0],
    [0.0, 0.0, 0.0, 1.0]
],
  "dcmmeta_shape": [104, 104, 60, 190],
  "dcmmeta_slice_dim": 2,
  "dcmmeta_version": 0.6,
  "global": {
    "const": {
      "AcquisitionMatrix": [104, 0, 0, 104],
      "AngioFlag": "N",
      "BitsAllocated": 16,
      "BitsStored": 16,
      "BodyPartExamined": "BRAIN",
      "Columns": 832,
      "EchoNumbers": 1,
      "EchoTime": 37.0,
      "EchoTrainLength": 104,
      "FlipAngle": 52.0,
      "HighBit": 15,
      "ImageOrientationPatient": [0.99833219498334, 0.05485542497881, 0.01799196515512, -0.0428898493993, 0.91336304038791, -0.4048807445062],
      "ImagePositionPatient": [-795.58334460053, -843.0558138748, 297.28658504079],
      "ImageType": [
        "ORIGINAL",
        "PRIMARY",
        "P",
        "MB",
        "ND",
        "MOSAIC"
],
      "ImagedNucleus": "1H",
      "ImagingFrequency": 123.258878,
      "InPlanePhaseEncodingDirection": "COL",
      "LargestImagePixelValue": 4095,
      "MRAcquisitionType": "2D",
      "MagneticFieldStrength": 3.0,
      "Manufacturer": "SIEMENS",
      "ManufacturerModelName": "Prisma_fit",
      "Modality": "MR",
      "NumberOfAverages": 1.0,
      "NumberOfPhaseEncodingSteps": 104,
      "PercentPhaseFieldOfView": 100.0,
      "PercentSampling": 100.0,
      "PerformedProcedureStepStartTime": "170038.437000",
      "PhotometricInterpretation": "MONOCHROME2",
      "PixelBandwidth": 2290.0,
      "PixelRepresentation": 0,
      "PixelSpacing": [2.0, 2.0],
      "ProtocolName": "func_task-things_run-2",
      "RepetitionTime": 1490.0,
      "RescaleIntercept": -4096.0,
      "RescaleSlope": 2.0,
      "RescaleType": "US",
      "Rows": 832,
      "SAR": 0.05213062732031,
      "SamplesPerPixel": 1,
      "ScanOptions": "FS",
      "ScanningSequence": "EP",
      "SequenceName": "epfid2d1_104",
      "SequenceVariant": [
        "SK",
        "SS"
],
      "SeriesDescription": "func_task-things_run-2",
      "SeriesNumber": 14,
      "SeriesTime": "172912.850000",
      "SliceLocation": -37.596253566226,
      "SliceThickness": 2.0,
      "SmallestImagePixelValue": 0,
      "SoftwareVersions": "syngo MR E11",
      "SpacingBetweenSlices": 1.9999999547002,
      "SpecificCharacterSet": "ISO_IR 100",
      "StudyID": "1",
      "StudyTime": "170038.367000",
      "TransmitCoilName": "Body",
      "VariableFlipAngleFlag": "N",
      "WindowCenterWidthExplanation": "Algo1",
      "dBdt": 0.0},
    "slices": {}
  },
  "time": {
    "samples": {
      "AcquisitionNumber": [1, 2, 3, 4, 5, 6, 7, 8, 9, 10, 11, 12, 13, 14, 15, 16, 17, 18, 19, 20, 21, 22, 23, 24, 25, 26, 27, 28, 29, 30, 31, 32, 33, 34, 35, 36, 37, 38, 39, 40, 41, 42, 43, 44, 45, 46, 47, 48, 49, 50, 51, 52, 53, 54, 55, 56, 57, 58, 59, 60, 61, 62, 63, 64, 65, 66, 67, 68, 69, 70, 71, 72, 73, 74, 75, 76, 77, 78, 79, 80, 81, 82, 83, 84, 85, 86, 87, 88, 89, 90, 91, 92, 93, 94, 95, 96, 97, 98, 99, 100, 101, 102, 103, 104, 105, 106, 107, 108, 109, 110, 111, 112, 113, 114, 115, 116, 117, 118, 119, 120, 121, 122, 123, 124, 125, 126, 127, 128, 129, 130, 131, 132, 133, 134, 135, 136, 137, 138, 139, 140, 141, 142, 143, 144, 145, 146, 147, 148, 149, 150, 151, 152, 153, 154, 155, 156, 157, 158, 159, 160, 161, 162, 163, 164, 165, 166, 167, 168, 169, 170, 171, 172, 173, 174, 175, 176, 177, 178, 179, 180, 181, 182, 183, 184, 185, 186, 187, 188, 189, 190],
      "AcquisitionTime": ["172801.950000", "172803.440000", "172804.930000", "172806.420000", "172807.910000", "172809.400000", "172810.890000", "172812.380000", "172813.870000", "172815.360000", "172816.850000", "172818.340000", "172819.830000", "172821.320000", "172822.810000", "172824.300000", "172825.790000", "172827.280000", "172828.770000", "172830.260000", "172831.750000", "172833.240000", "172834.730000", "172836.220000", "172837.710000", "172839.200000", "172840.690000", "172842.180000", "172843.670000", "172845.160000", "172846.650000", "172848.140000", "172849.630000", "172851.120000", "172852.610000", "172854.100000", "172855.590000", "172857.080000", "172858.570000", "172900.060000", "172901.550000", "172903.040000", "172904.530000", "172906.020000", "172907.510000", "172909.000000", "172910.490000", "172911.980000", "172913.470000", "172914.960000", "172916.450000", "172917.940000", "172919.430000", "172920.920000", "172922.410000", "172923.900000", "172925.390000", "172926.880000", "172928.370000", "172929.860000", "172931.350000", "172932.840000", "172934.330000", "172935.820000", "172937.310000", "172938.800000", "172940.290000", "172941.780000", "172943.270000", "172944.760000", "172946.250000", "172947.740000", "172949.230000", "172950.720000", "172952.210000", "172953.700000", "172955.190000", "172956.680000", "172958.170000", "172959.660000", "173001.150000", "173002.640000", "173004.130000", "173005.620000", "173007.110000", "173008.600000", "173010.090000", "173011.580000", "173013.070000", "173014.560000", "173016.050000", "173017.540000", "173019.030000", "173020.520000", "173022.010000", "173023.500000", "173024.990000", "173026.480000", "173027.970000", "173029.460000", "173030.950000", "173032.440000", "173033.930000", "173035.420000", "173036.910000", "173038.400000", "173039.890000", "173041.380000", "173042.870000", "173044.360000", "173045.850000", "173047.340000", "173048.830000", "173050.320000", "173051.810000", "173053.300000", "173054.790000", "173056.280000", "173057.770000", "173059.260000", "173100.750000", "173102.240000", "173103.730000", "173105.220000", "173106.710000", "173108.200000", "173109.690000", "173111.180000", "173112.670000", "173114.160000", "173115.650000", "173117.140000", "173118.630000", "173120.120000", "173121.610000", "173123.100000", "173124.590000", "173126.080000", "173127.570000", "173129.060000", "173130.550000", "173132.040000", "173133.530000", "173135.020000", "173136.510000", "173138.000000", "173139.490000", "173140.980000", "173142.470000", "173143.960000", "173145.450000", "173146.940000", "173148.430000", "173149.920000", "173151.410000", "173152.900000", "173154.390000", "173155.880000", "173157.370000", "173158.860000", "173200.350000", "173201.840000", "173203.330000", "173204.820000", "173206.310000", "173207.800000", "173209.290000", "173210.780000", "173212.270000", "173213.760000", "173215.250000", "173216.740000", "173218.230000", "173219.720000", "173221.210000", "173222.700000", "173224.190000", "173225.680000", "173227.170000", "173228.660000", "173230.150000", "173231.640000", "173233.130000", "173234.620000", "173236.110000", "173237.600000", "173239.090000", "173240.580000", "173242.070000", "173243.560000"],
      "ContentTime": ["172912.852000", "172912.855000", "172912.857000", "172912.860000", "172912.863000", "172912.865000", "172912.867000", "172912.870000", "172912.873000", "172912.875000", "172912.878000", "172912.880000", "172912.883000", "172912.885000", "172912.888000", "172912.890000", "172932.815000", "172932.818000", "172932.821000", "172932.823000", "172932.826000", "172932.828000", "172932.831000", "172932.833000", "172932.836000", "172932.838000", "172932.841000", "172932.843000", "172932.846000", "172932.848000", "172932.851000", "172932.853000", "172932.856000", "172932.858000", "172932.861000", "172932.864000", "172952.803000", "172952.806000", "172952.808000", "172952.811000", "172952.813000", "172952.816000", "172952.823000", "172952.826000", "172952.828000", "172952.830000", "172952.833000", "172952.835000", "172952.838000", "172952.840000", "172952.843000", "172952.845000", "172952.848000", "172952.850000", "172952.853000", "172952.855000", "173012.825000", "173012.827000", "173012.835000", "173012.837000", "173012.840000", "173012.842000", "173012.845000", "173012.848000", "173012.850000", "173012.853000", "173012.855000", "173012.858000", "173012.860000", "173012.863000", "173012.865000", "173012.868000", "173012.870000", "173012.873000", "173012.875000", "173012.878000", "173032.812000", "173032.815000", "173032.818000", "173032.820000", "173032.823000", "173032.825000", "173032.827000", "173032.830000", "173032.832000", "173032.835000", "173032.837000", "173032.840000", "173032.842000", "173032.845000", "173032.847000", "173032.850000", "173032.852000", "173032.855000", "173032.857000", "173032.860000", "173032.862000", "173113.419000", "173113.422000", "173113.425000", "173113.427000", "173113.430000", "173113.433000", "173113.436000", "173113.438000", "173113.441000", "173113.443000", "173113.446000", "173113.448000", "173113.451000", "173113.453000", "173113.456000", "173113.458000", "173113.461000", "173113.463000", "173113.466000", "173113.491000", "173113.494000", "173113.496000", "173113.499000", "173113.501000", "173113.504000", "173113.506000", "173113.509000", "173113.512000", "173113.514000", "173113.526000", "173152.857000", "173152.860000", "173152.862000", "173152.865000", "173152.867000", "173152.870000", "173152.872000", "173152.875000", "173152.877000", "173152.880000", "173152.882000", "173152.885000", "173152.887000", "173152.890000", "173152.892000", "173152.895000", "173152.897000", "173152.900000", "173152.903000", "173152.905000", "173152.908000", "173152.910000", "173152.913000", "173152.915000", "173152.918000", "173152.920000", "173152.923000", "173232.842000", "173232.844000", "173232.847000", "173232.849000", "173232.852000", "173232.854000", "173232.857000", "173232.859000", "173232.862000", "173232.864000", "173232.867000", "173232.869000", "173232.872000", "173232.874000", "173232.877000", "173232.879000", "173232.882000", "173232.884000", "173232.887000", "173232.896000", "173232.898000", "173232.901000", "173232.903000", "173232.906000", "173232.909000", "173232.911000", "173232.914000", "173245.373000", "173245.376000", "173245.379000", "173245.381000", "173245.385000", "173245.387000", "173245.390000", "173245.392000", "173245.395000"],
      "InstanceCreationTime": ["172912.852000", "172912.855000", "172912.857000", "172912.860000", "172912.863000", "172912.865000", "172912.867000", "172912.870000", "172912.873000", "172912.875000", "172912.878000", "172912.880000", "172912.883000", "172912.885000", "172912.888000", "172912.890000", "172932.815000", "172932.818000", "172932.821000", "172932.823000", "172932.826000", "172932.828000", "172932.831000", "172932.833000", "172932.836000", "172932.838000", "172932.841000", "172932.843000", "172932.846000", "172932.848000", "172932.851000", "172932.853000", "172932.856000", "172932.858000", "172932.861000", "172932.864000", "172952.803000", "172952.806000", "172952.808000", "172952.811000", "172952.813000", "172952.816000", "172952.823000", "172952.826000", "172952.828000", "172952.830000", "172952.833000", "172952.835000", "172952.838000", "172952.840000", "172952.843000", "172952.845000", "172952.848000", "172952.850000", "172952.853000", "172952.855000", "173012.825000", "173012.827000", "173012.835000", "173012.837000", "173012.840000", "173012.842000", "173012.845000", "173012.848000", "173012.850000", "173012.853000", "173012.855000", "173012.858000", "173012.860000", "173012.863000", "173012.865000", "173012.868000", "173012.870000", "173012.873000", "173012.875000", "173012.878000", "173032.812000", "173032.815000", "173032.818000", "173032.820000", "173032.823000", "173032.825000", "173032.827000", "173032.830000", "173032.832000", "173032.835000", "173032.837000", "173032.840000", "173032.842000", "173032.845000", "173032.847000", "173032.850000", "173032.852000", "173032.855000", "173032.857000", "173032.860000", "173032.862000", "173113.419000", "173113.422000", "173113.425000", "173113.427000", "173113.430000", "173113.433000", "173113.436000", "173113.438000", "173113.441000", "173113.443000", "173113.446000", "173113.448000", "173113.451000", "173113.453000", "173113.456000", "173113.458000", "173113.461000", "173113.463000", "173113.466000", "173113.491000", "173113.494000", "173113.496000", "173113.499000", "173113.501000", "173113.504000", "173113.506000", "173113.509000", "173113.512000", "173113.514000", "173113.526000", "173152.857000", "173152.860000", "173152.862000", "173152.865000", "173152.867000", "173152.870000", "173152.872000", "173152.875000", "173152.877000", "173152.880000", "173152.882000", "173152.885000", "173152.887000", "173152.890000", "173152.892000", "173152.895000", "173152.897000", "173152.900000", "173152.903000", "173152.905000", "173152.908000", "173152.910000", "173152.913000", "173152.915000", "173152.918000", "173152.920000", "173152.923000", "173232.842000", "173232.844000", "173232.847000", "173232.849000", "173232.852000", "173232.854000", "173232.857000", "173232.859000", "173232.862000", "173232.864000", "173232.867000", "173232.869000", "173232.872000", "173232.874000", "173232.877000", "173232.879000", "173232.882000", "173232.884000", "173232.887000", "173232.896000", "173232.898000", "173232.901000", "173232.903000", "173232.906000", "173232.909000", "173232.911000", "173232.914000", "173245.373000", "173245.376000", "173245.379000", "173245.381000", "173245.385000", "173245.387000", "173245.390000", "173245.392000", "173245.395000"],
      "InstanceNumber": [1, 2, 3, 4, 5, 6, 7, 8, 9, 10, 11, 12, 13, 14, 15, 16, 17, 18, 19, 20, 21, 22, 23, 24, 25, 26, 27, 28, 29, 30, 31, 32, 33, 34, 35, 36, 37, 38, 39, 40, 41, 42, 43, 44, 45, 46, 47, 48, 49, 50, 51, 52, 53, 54, 55, 56, 57, 58, 59, 60, 61, 62, 63, 64, 65, 66, 67, 68, 69, 70, 71, 72, 73, 74, 75, 76, 77, 78, 79, 80, 81, 82, 83, 84, 85, 86, 87, 88, 89, 90, 91, 92, 93, 94, 95, 96, 97, 98, 99, 100, 101, 102, 103, 104, 105, 106, 107, 108, 109, 110, 111, 112, 113, 114, 115, 116, 117, 118, 119, 120, 121, 122, 123, 124, 125, 126, 127, 128, 129, 130, 131, 132, 133, 134, 135, 136, 137, 138, 139, 140, 141, 142, 143, 144, 145, 146, 147, 148, 149, 150, 151, 152, 153, 154, 155, 156, 157, 158, 159, 160, 161, 162, 163, 164, 165, 166, 167, 168, 169, 170, 171, 172, 173, 174, 175, 176, 177, 178, 179, 180, 181, 182, 183, 184, 185, 186, 187, 188, 189, 190],
      "WindowCenter": [4816.0, 4816.0, 4818.0, 4816.0, 4816.0, 4794.0, 4794.0, 4794.0, 4794.0, 4792.0, 4790.0, 4814.0, 4790.0, 4792.0, 4792.0, 4792.0, 4814.0, 4816.0, 4794.0, 4796.0, 4792.0, 4816.0, 4794.0, 4818.0, 4816.0, 4792.0, 4818.0, 4816.0, 4794.0, 4816.0, 4794.0, 4820.0, 4816.0, 4816.0, 4820.0, 4816.0, 4816.0, 4816.0, 4792.0, 4814.0, 4792.0, 4818.0, 4816.0, 4814.0, 4820.0, 4816.0, 4816.0, 4816.0, 4814.0, 4792.0, 4816.0, 4818.0, 4818.0, 4792.0, 4818.0, 4818.0, 4818.0, 4820.0, 4816.0, 4822.0, 4816.0, 4818.0, 4814.0, 4816.0, 4822.0, 4820.0, 4820.0, 4796.0, 4796.0, 4816.0, 4794.0, 4820.0, 4818.0, 4818.0, 4820.0, 4794.0, 4814.0, 4820.0, 4816.0, 4822.0, 4816.0, 4816.0, 4820.0, 4816.0, 4818.0, 4818.0, 4818.0, 4796.0, 4818.0, 4818.0, 4818.0, 4796.0, 4796.0, 4796.0, 4820.0, 4820.0, 4820.0, 4814.0, 4816.0, 4818.0, 4818.0, 4820.0, 4818.0, 4822.0, 4818.0, 4822.0, 4820.0, 4822.0, 4798.0, 4818.0, 4796.0, 4814.0, 4820.0, 4818.0, 4796.0, 4820.0, 4822.0, 4820.0, 4820.0, 4820.0, 4818.0, 4822.0, 4794.0, 4822.0, 4822.0, 4796.0, 4822.0, 4816.0, 4816.0, 4822.0, 4822.0, 4818.0, 4822.0, 4818.0, 4820.0, 4820.0, 4820.0, 4820.0, 4818.0, 4816.0, 4818.0, 4816.0, 4822.0, 4822.0, 4820.0, 4822.0, 4818.0, 4820.0, 4822.0, 4818.0, 4816.0, 4816.0, 4820.0, 4820.0, 4822.0, 4820.0, 4820.0, 4818.0, 4818.0, 4818.0, 4818.0, 4818.0, 4816.0, 4796.0, 4818.0, 4822.0, 4796.0, 4816.0, 4818.0, 4816.0, 4816.0, 4818.0, 4794.0, 4820.0, 4822.0, 4798.0, 4820.0, 4820.0, 4818.0, 4816.0, 4816.0, 4820.0, 4796.0, 4820.0, 4820.0, 4818.0, 4820.0, 4820.0, 4816.0, 4820.0],
      "WindowWidth": [18588.0, 18580.0, 18586.0, 18586.0, 18586.0, 18556.0, 18556.0, 18560.0, 18562.0, 18558.0, 18558.0, 18590.0, 18556.0, 18558.0, 18558.0, 18558.0, 18590.0, 18592.0, 18556.0, 18562.0, 18558.0, 18590.0, 18558.0, 18592.0, 18586.0, 18560.0, 18590.0, 18592.0, 18556.0, 18590.0, 18560.0, 18588.0, 18594.0, 18588.0, 18592.0, 18586.0, 18588.0, 18586.0, 18552.0, 18588.0, 18554.0, 18588.0, 18590.0, 18588.0, 18588.0, 18588.0, 18588.0, 18590.0, 18586.0, 18554.0, 18588.0, 18590.0, 18586.0, 18560.0, 18588.0, 18586.0, 18588.0, 18588.0, 18588.0, 18588.0, 18582.0, 18584.0, 18578.0, 18586.0, 18588.0, 18590.0, 18586.0, 18556.0, 18550.0, 18582.0, 18554.0, 18590.0, 18584.0, 18588.0, 18584.0, 18552.0, 18580.0, 18592.0, 18584.0, 18584.0, 18582.0, 18586.0, 18588.0, 18584.0, 18582.0, 18584.0, 18582.0, 18552.0, 18586.0, 18584.0, 18586.0, 18556.0, 18552.0, 18554.0, 18582.0, 18586.0, 18582.0, 18580.0, 18584.0, 18584.0, 18584.0, 18578.0, 18582.0, 18584.0, 18584.0, 18586.0, 18586.0, 18588.0, 18554.0, 18584.0, 18554.0, 18582.0, 18582.0, 18586.0, 18552.0, 18586.0, 18588.0, 18586.0, 18582.0, 18584.0, 18582.0, 18586.0, 18546.0, 18590.0, 18584.0, 18554.0, 18584.0, 18578.0, 18586.0, 18588.0, 18586.0, 18582.0, 18584.0, 18580.0, 18586.0, 18586.0, 18584.0, 18582.0, 18578.0, 18580.0, 18582.0, 18584.0, 18586.0, 18584.0, 18580.0, 18588.0, 18580.0, 18586.0, 18586.0, 18588.0, 18582.0, 18588.0, 18584.0, 18582.0, 18586.0, 18582.0, 18588.0, 18584.0, 18586.0, 18584.0, 18584.0, 18582.0, 18588.0, 18556.0, 18586.0, 18590.0, 18554.0, 18584.0, 18586.0, 18586.0, 18590.0, 18586.0, 18560.0, 18586.0, 18586.0, 18554.0, 18586.0, 18586.0, 18590.0, 18586.0, 18584.0, 18586.0, 18554.0, 18586.0, 18586.0, 18586.0, 18586.0, 18588.0, 18588.0, 18588.0]
    },
    "slices": {}
  }
}