{
  "AcquisitionMatrixPE": 104,
  "AcquisitionNumber": 1,
  "AcquisitionTime": "11:20:47.855000",
  "BandwidthPerPixelPhaseEncode": 17.17,
  "BaseResolution": 104,
  "BodyPartExamined": "BRAIN",
  "CoilString": "HC1-7;NC1_2",
  "ConsistencyInfo": "N4_VE11C_LATEST_20160120",
  "ConversionSoftware": "dcm2niix",
  "ConversionSoftwareVersion": "v1.0.20190902",
  "DerivedVendorReportedEchoSpacing": 0.000560011,
  "DeviceSerialNumber": "167006",
  "DwellTime": 2.1e-06,
  "EchoTime": 0.037,
  "EchoTrainLength": 104,
  "EffectiveEchoSpacing": 0.000560011,
  "FlipAngle": 52,
  "ImageComments": "Unaliased_MB4_PE3_LB",
  "ImageOrientationPatientDICOM": [0.999356, 0.00200214, 0.0358245, 0.016397, 0.862602, -0.505617],
  "ImageType": [
    "ORIGINAL",
    "PRIMARY",
    "P",
    "MB",
    "ND",
    "MOSAIC"
],
  "ImagingFrequency": 123.259,
  "InPlanePhaseEncodingDirectionDICOM": "COL",
  "InstitutionAddress": "Chemin_Queen-Mary_4565_Montreal_District_CA_H3W_1W5",
  "InstitutionName": "IUGM",
  "InstitutionalDepartmentName": "Department",
  "MRAcquisitionType": "2D",
  "MagneticFieldStrength": 3,
  "Manufacturer": "Siemens",
  "ManufacturersModelName": "Prisma_fit",
  "Modality": "MR",
  "MultibandAccelerationFactor": 4,
  "PartialFourier": 1,
  "PatientPosition": "HFS",
  "PercentPhaseFOV": 100,
  "PhaseEncodingDirection": "j",
  "PhaseEncodingSteps": 104,
  "PhaseResolution": 1,
  "PixelBandwidth": 2290,
  "ProcedureStepDescription": "memory_things",
  "ProtocolName": "func_task-things_run-5",
  "PulseSequenceDetails": "%CustomerSeq%_cmrr_mbep2d_bold",
  "ReceiveCoilActiveElements": "HC1-7;NC1,2",
  "ReceiveCoilName": "HeadNeck_64",
  "ReconMatrixPE": 104,
  "RepetitionTime": 1.49,
  "SAR": 0.0559572,
  "ScanOptions": "FS",
  "ScanningSequence": "EP",
  "SequenceName": "epfid2d1_104",
  "SequenceVariant": "SK_SS",
  "SeriesDescription": "func_task-things_run-5",
  "SeriesNumber": 23,
  "ShimSetting": [611, -7188, -8864, 300, -47, -99, 30, -52],
  "SliceThickness": 2,
  "SliceTiming": [0, 0.785, 0.0975, 0.8825, 0.1975, 0.98, 0.295, 1.0775, 0.3925, 1.175, 0.49, 1.275, 0.5875, 1.3725, 0.685, 0, 0.785, 0.0975, 0.8825, 0.1975, 0.98, 0.295, 1.0775, 0.3925, 1.175, 0.49, 1.275, 0.5875, 1.3725, 0.685, 0, 0.785, 0.0975, 0.8825, 0.1975, 0.98, 0.295, 1.0775, 0.3925, 1.175, 0.49, 1.275, 0.5875, 1.3725, 0.685, 0, 0.785, 0.0975, 0.8825, 0.1975, 0.98, 0.295, 1.0775, 0.3925, 1.175, 0.49, 1.275, 0.5875, 1.3725, 0.685],
  "SoftwareVersions": "syngo_MR_E11",
  "SpacingBetweenSlices": 2,
  "StationName": "MRC35049",
  "TaskName": "things",
  "TotalReadoutTime": 0.0576811,
  "TxRefAmp": 283.496,
  "WipMemBlock": "d217f71c-f985-4d0d-a169-b6ee1bcbfd48||Sequence: R016 ve11c/master r/e634e98; Dec 19 2017 11:00:25 by eja",
  "dcmmeta_affine": [
    [-1.998712182044983, 0.03279399499297142, 0.06382926553487778, 104.20185089111328],
    [-0.004004288464784622, 1.725204348564148, -1.0117578506469727, -51.22603988647461],
    [0.07164905220270157, 1.011234164237976, 1.7240277528762817, -92.75532531738281],
    [0.0, 0.0, 0.0, 1.0]
],
  "dcmmeta_reorient_transform": [
    [0.0, -1.0, 0.0, 103.0],
    [1.0, 0.0, 0.0, 0.0],
    [0.0, 0.0, 1.0, 0.0],
    [0.0, 0.0, 0.0, 1.0]
],
  "dcmmeta_shape": [104, 104, 60, 190],
  "dcmmeta_slice_dim": 2,
  "dcmmeta_version": 0.6,
  "global": {
    "const": {
      "AcquisitionMatrix": [104, 0, 0, 104],
      "AngioFlag": "N",
      "BitsAllocated": 16,
      "BitsStored": 16,
      "BodyPartExamined": "BRAIN",
      "Columns": 832,
      "EchoNumbers": 1,
      "EchoTime": 37.0,
      "EchoTrainLength": 104,
      "FlipAngle": 52.0,
      "HighBit": 15,
      "ImageOrientationPatient": [0.99935609005882, 0.00200214428082, 0.03582452624434, 0.01639699707, 0.86260216340816, -0.5056170944209],
      "ImagePositionPatient": [-847.04787853928, -755.90194290226, 353.41078601613],
      "ImageType": [
        "ORIGINAL",
        "PRIMARY",
        "P",
        "MB",
        "ND",
        "MOSAIC"
],
      "ImagedNucleus": "1H",
      "ImagingFrequency": 123.259181,
      "InPlanePhaseEncodingDirection": "COL",
      "LargestImagePixelValue": 4095,
      "MRAcquisitionType": "2D",
      "MagneticFieldStrength": 3.0,
      "Manufacturer": "SIEMENS",
      "ManufacturerModelName": "Prisma_fit",
      "Modality": "MR",
      "NumberOfAverages": 1.0,
      "NumberOfPhaseEncodingSteps": 104,
      "PercentPhaseFieldOfView": 100.0,
      "PercentSampling": 100.0,
      "PerformedProcedureStepStartTime": "103444.165000",
      "PhotometricInterpretation": "MONOCHROME2",
      "PixelBandwidth": 2290.0,
      "PixelRepresentation": 0,
      "PixelSpacing": [2.0, 2.0],
      "ProtocolName": "func_task-things_run-5",
      "RepetitionTime": 1490.0,
      "RescaleIntercept": -4096.0,
      "RescaleSlope": 2.0,
      "RescaleType": "US",
      "Rows": 832,
      "SAR": 0.05595723847466,
      "SamplesPerPixel": 1,
      "ScanOptions": "FS",
      "ScanningSequence": "EP",
      "SequenceName": "epfid2d1_104",
      "SequenceVariant": [
        "SK",
        "SS"
],
      "SeriesDescription": "func_task-things_run-5",
      "SeriesNumber": 23,
      "SeriesTime": "112200.450000",
      "SliceLocation": -50.716641396134,
      "SliceThickness": 2.0,
      "SmallestImagePixelValue": 0,
      "SoftwareVersions": "syngo MR E11",
      "SpacingBetweenSlices": 1.9999999977921,
      "SpecificCharacterSet": "ISO_IR 100",
      "StudyID": "1",
      "StudyTime": "103444.107000",
      "TransmitCoilName": "Body",
      "VariableFlipAngleFlag": "N",
      "WindowCenterWidthExplanation": "Algo1",
      "dBdt": 0.0},
    "slices": {}
  },
  "time": {
    "samples": {
      "AcquisitionNumber": [1, 2, 3, 4, 5, 6, 7, 8, 9, 10, 11, 12, 13, 14, 15, 16, 17, 18, 19, 20, 21, 22, 23, 24, 25, 26, 27, 28, 29, 30, 31, 32, 33, 34, 35, 36, 37, 38, 39, 40, 41, 42, 43, 44, 45, 46, 47, 48, 49, 50, 51, 52, 53, 54, 55, 56, 57, 58, 59, 60, 61, 62, 63, 64, 65, 66, 67, 68, 69, 70, 71, 72, 73, 74, 75, 76, 77, 78, 79, 80, 81, 82, 83, 84, 85, 86, 87, 88, 89, 90, 91, 92, 93, 94, 95, 96, 97, 98, 99, 100, 101, 102, 103, 104, 105, 106, 107, 108, 109, 110, 111, 112, 113, 114, 115, 116, 117, 118, 119, 120, 121, 122, 123, 124, 125, 126, 127, 128, 129, 130, 131, 132, 133, 134, 135, 136, 137, 138, 139, 140, 141, 142, 143, 144, 145, 146, 147, 148, 149, 150, 151, 152, 153, 154, 155, 156, 157, 158, 159, 160, 161, 162, 163, 164, 165, 166, 167, 168, 169, 170, 171, 172, 173, 174, 175, 176, 177, 178, 179, 180, 181, 182, 183, 184, 185, 186, 187, 188, 189, 190],
      "AcquisitionTime": ["112047.855000", "112049.345000", "112050.835000", "112052.325000", "112053.815000", "112055.305000", "112056.795000", "112058.285000", "112059.775000", "112101.265000", "112102.755000", "112104.245000", "112105.735000", "112107.225000", "112108.715000", "112110.205000", "112111.695000", "112113.185000", "112114.675000", "112116.165000", "112117.655000", "112119.145000", "112120.635000", "112122.125000", "112123.615000", "112125.105000", "112126.595000", "112128.085000", "112129.575000", "112131.065000", "112132.555000", "112134.045000", "112135.535000", "112137.025000", "112138.515000", "112140.005000", "112141.495000", "112142.985000", "112144.475000", "112145.965000", "112147.455000", "112148.945000", "112150.435000", "112151.925000", "112153.415000", "112154.905000", "112156.395000", "112157.885000", "112159.375000", "112200.865000", "112202.355000", "112203.845000", "112205.335000", "112206.825000", "112208.315000", "112209.805000", "112211.295000", "112212.785000", "112214.275000", "112215.765000", "112217.255000", "112218.745000", "112220.235000", "112221.725000", "112223.215000", "112224.705000", "112226.195000", "112227.685000", "112229.175000", "112230.665000", "112232.155000", "112233.645000", "112235.135000", "112236.625000", "112238.115000", "112239.605000", "112241.095000", "112242.585000", "112244.075000", "112245.565000", "112247.055000", "112248.545000", "112250.035000", "112251.525000", "112253.015000", "112254.505000", "112255.995000", "112257.485000", "112258.975000", "112300.465000", "112301.955000", "112303.445000", "112304.935000", "112306.425000", "112307.915000", "112309.405000", "112310.895000", "112312.385000", "112313.875000", "112315.365000", "112316.855000", "112318.345000", "112319.835000", "112321.325000", "112322.815000", "112324.305000", "112325.795000", "112327.285000", "112328.775000", "112330.265000", "112331.755000", "112333.245000", "112334.735000", "112336.225000", "112337.715000", "112339.205000", "112340.695000", "112342.185000", "112343.675000", "112345.165000", "112346.655000", "112348.145000", "112349.635000", "112351.125000", "112352.615000", "112354.105000", "112355.595000", "112357.085000", "112358.575000", "112400.065000", "112401.555000", "112403.045000", "112404.535000", "112406.025000", "112407.515000", "112409.005000", "112410.495000", "112411.985000", "112413.475000", "112414.965000", "112416.455000", "112417.945000", "112419.435000", "112420.925000", "112422.415000", "112423.905000", "112425.395000", "112426.885000", "112428.375000", "112429.865000", "112431.355000", "112432.845000", "112434.335000", "112435.825000", "112437.315000", "112438.805000", "112440.295000", "112441.785000", "112443.275000", "112444.765000", "112446.255000", "112447.745000", "112449.235000", "112450.725000", "112452.215000", "112453.705000", "112455.195000", "112456.685000", "112458.175000", "112459.665000", "112501.155000", "112502.645000", "112504.135000", "112505.625000", "112507.115000", "112508.605000", "112510.095000", "112511.585000", "112513.075000", "112514.565000", "112516.055000", "112517.545000", "112519.035000", "112520.525000", "112522.015000", "112523.505000", "112524.995000", "112526.485000", "112527.975000", "112529.465000"],
      "ContentTime": ["112200.452000", "112200.456000", "112200.459000", "112200.468000", "112200.471000", "112200.473000", "112200.476000", "112200.479000", "112200.481000", "112200.484000", "112200.486000", "112200.489000", "112200.492000", "112200.494000", "112200.497000", "112200.499000", "112200.502000", "112200.504000", "112220.411000", "112220.414000", "112220.416000", "112220.419000", "112220.421000", "112220.424000", "112220.427000", "112220.429000", "112220.437000", "112220.439000", "112220.442000", "112220.444000", "112220.447000", "112220.449000", "112220.452000", "112220.455000", "112220.457000", "112220.460000", "112220.462000", "112220.465000", "112240.404000", "112240.407000", "112240.410000", "112240.412000", "112240.415000", "112240.417000", "112240.420000", "112240.422000", "112240.430000", "112240.432000", "112240.435000", "112240.437000", "112240.440000", "112240.442000", "112240.445000", "112240.447000", "112240.450000", "112240.452000", "112240.455000", "112240.457000", "112240.460000", "112300.398000", "112300.400000", "112300.403000", "112300.405000", "112300.408000", "112300.411000", "112300.413000", "112300.416000", "112300.418000", "112300.421000", "112300.423000", "112300.426000", "112300.428000", "112300.431000", "112300.433000", "112300.436000", "112300.439000", "112300.441000", "112300.444000", "112300.447000", "112320.408000", "112320.410000", "112320.413000", "112320.415000", "112320.418000", "112320.421000", "112320.423000", "112320.426000", "112320.428000", "112320.431000", "112320.433000", "112320.436000", "112320.438000", "112320.441000", "112320.443000", "112320.446000", "112320.448000", "112320.451000", "112320.454000", "112320.456000", "112400.467000", "112400.470000", "112400.472000", "112400.476000", "112400.479000", "112400.481000", "112400.484000", "112400.486000", "112400.489000", "112400.491000", "112400.494000", "112400.496000", "112400.499000", "112400.501000", "112400.504000", "112400.506000", "112400.509000", "112400.512000", "112400.514000", "112400.517000", "112400.519000", "112400.522000", "112400.524000", "112400.527000", "112400.530000", "112400.533000", "112400.535000", "112400.538000", "112400.540000", "112440.436000", "112440.438000", "112440.441000", "112440.443000", "112440.446000", "112440.449000", "112440.451000", "112440.454000", "112440.456000", "112440.459000", "112440.461000", "112440.464000", "112440.466000", "112440.469000", "112440.471000", "112440.474000", "112440.476000", "112440.479000", "112440.481000", "112440.484000", "112440.486000", "112440.489000", "112440.491000", "112440.494000", "112440.497000", "112440.499000", "112440.502000", "112520.865000", "112520.868000", "112520.870000", "112520.873000", "112520.876000", "112520.878000", "112520.881000", "112520.883000", "112520.886000", "112520.888000", "112520.891000", "112520.893000", "112520.896000", "112520.898000", "112520.901000", "112520.904000", "112520.906000", "112520.909000", "112520.911000", "112520.914000", "112520.917000", "112520.919000", "112520.922000", "112520.924000", "112520.927000", "112520.930000", "112520.932000", "112531.640000", "112531.643000", "112531.646000", "112531.648000", "112531.651000", "112531.653000", "112531.656000", "112531.659000"],
      "InstanceCreationTime": ["112200.452000", "112200.456000", "112200.459000", "112200.468000", "112200.471000", "112200.473000", "112200.476000", "112200.479000", "112200.481000", "112200.484000", "112200.486000", "112200.489000", "112200.492000", "112200.494000", "112200.497000", "112200.499000", "112200.502000", "112200.504000", "112220.411000", "112220.414000", "112220.416000", "112220.419000", "112220.421000", "112220.424000", "112220.427000", "112220.429000", "112220.437000", "112220.439000", "112220.442000", "112220.444000", "112220.447000", "112220.449000", "112220.452000", "112220.455000", "112220.457000", "112220.460000", "112220.462000", "112220.465000", "112240.404000", "112240.407000", "112240.410000", "112240.412000", "112240.415000", "112240.417000", "112240.420000", "112240.422000", "112240.430000", "112240.432000", "112240.435000", "112240.437000", "112240.440000", "112240.442000", "112240.445000", "112240.447000", "112240.450000", "112240.452000", "112240.455000", "112240.457000", "112240.460000", "112300.398000", "112300.400000", "112300.403000", "112300.405000", "112300.408000", "112300.411000", "112300.413000", "112300.416000", "112300.418000", "112300.421000", "112300.423000", "112300.426000", "112300.428000", "112300.431000", "112300.433000", "112300.436000", "112300.439000", "112300.441000", "112300.444000", "112300.447000", "112320.408000", "112320.410000", "112320.413000", "112320.415000", "112320.418000", "112320.421000", "112320.423000", "112320.426000", "112320.428000", "112320.431000", "112320.433000", "112320.436000", "112320.438000", "112320.441000", "112320.443000", "112320.446000", "112320.448000", "112320.451000", "112320.454000", "112320.456000", "112400.467000", "112400.470000", "112400.472000", "112400.476000", "112400.479000", "112400.481000", "112400.484000", "112400.486000", "112400.489000", "112400.491000", "112400.494000", "112400.496000", "112400.499000", "112400.501000", "112400.504000", "112400.506000", "112400.509000", "112400.512000", "112400.514000", "112400.517000", "112400.519000", "112400.522000", "112400.524000", "112400.527000", "112400.530000", "112400.533000", "112400.535000", "112400.538000", "112400.540000", "112440.436000", "112440.438000", "112440.441000", "112440.443000", "112440.446000", "112440.449000", "112440.451000", "112440.454000", "112440.456000", "112440.459000", "112440.461000", "112440.464000", "112440.466000", "112440.469000", "112440.471000", "112440.474000", "112440.476000", "112440.479000", "112440.481000", "112440.484000", "112440.486000", "112440.489000", "112440.491000", "112440.494000", "112440.497000", "112440.499000", "112440.502000", "112520.865000", "112520.868000", "112520.870000", "112520.873000", "112520.876000", "112520.878000", "112520.881000", "112520.883000", "112520.886000", "112520.888000", "112520.891000", "112520.893000", "112520.896000", "112520.898000", "112520.901000", "112520.904000", "112520.906000", "112520.909000", "112520.911000", "112520.914000", "112520.917000", "112520.919000", "112520.922000", "112520.924000", "112520.927000", "112520.930000", "112520.932000", "112531.640000", "112531.643000", "112531.646000", "112531.648000", "112531.651000", "112531.653000", "112531.656000", "112531.659000"],
      "InstanceNumber": [1, 2, 3, 4, 5, 6, 7, 8, 9, 10, 11, 12, 13, 14, 15, 16, 17, 18, 19, 20, 21, 22, 23, 24, 25, 26, 27, 28, 29, 30, 31, 32, 33, 34, 35, 36, 37, 38, 39, 40, 41, 42, 43, 44, 45, 46, 47, 48, 49, 50, 51, 52, 53, 54, 55, 56, 57, 58, 59, 60, 61, 62, 63, 64, 65, 66, 67, 68, 69, 70, 71, 72, 73, 74, 75, 76, 77, 78, 79, 80, 81, 82, 83, 84, 85, 86, 87, 88, 89, 90, 91, 92, 93, 94, 95, 96, 97, 98, 99, 100, 101, 102, 103, 104, 105, 106, 107, 108, 109, 110, 111, 112, 113, 114, 115, 116, 117, 118, 119, 120, 121, 122, 123, 124, 125, 126, 127, 128, 129, 130, 131, 132, 133, 134, 135, 136, 137, 138, 139, 140, 141, 142, 143, 144, 145, 146, 147, 148, 149, 150, 151, 152, 153, 154, 155, 156, 157, 158, 159, 160, 161, 162, 163, 164, 165, 166, 167, 168, 169, 170, 171, 172, 173, 174, 175, 176, 177, 178, 179, 180, 181, 182, 183, 184, 185, 186, 187, 188, 189, 190],
      "WindowCenter": [4894.0, 4894.0, 4894.0, 4872.0, 4898.0, 4892.0, 4896.0, 4922.0, 4898.0, 4868.0, 4840.0, 4834.0, 4838.0, 4900.0, 4892.0, 4896.0, 4892.0, 4894.0, 4868.0, 4872.0, 4872.0, 4870.0, 4868.0, 4896.0, 4898.0, 4896.0, 4896.0, 4870.0, 4870.0, 4894.0, 4914.0, 4934.0, 4918.0, 4864.0, 4780.0, 4768.0, 4772.0, 4836.0, 4888.0, 4858.0, 4872.0, 4870.0, 4854.0, 4868.0, 4868.0, 4832.0, 4802.0, 4840.0, 4866.0, 4870.0, 4886.0, 4882.0, 4878.0, 4878.0, 4890.0, 4896.0, 4870.0, 4832.0, 4836.0, 4840.0, 4866.0, 4894.0, 4888.0, 4888.0, 4884.0, 4886.0, 4890.0, 4868.0, 4892.0, 4868.0, 4892.0, 4868.0, 4890.0, 4892.0, 4886.0, 4888.0, 4894.0, 4890.0, 4892.0, 4890.0, 4872.0, 4870.0, 4866.0, 4870.0, 4866.0, 4890.0, 4890.0, 4890.0, 4892.0, 4888.0, 4890.0, 4888.0, 4894.0, 4868.0, 4868.0, 4870.0, 4894.0, 4890.0, 4890.0, 4888.0, 4890.0, 4892.0, 4892.0, 4870.0, 4892.0, 4890.0, 4892.0, 4892.0, 4896.0, 4894.0, 4870.0, 4894.0, 4868.0, 4870.0, 4866.0, 4892.0, 4890.0, 4894.0, 4890.0, 4892.0, 4888.0, 4888.0, 4892.0, 4868.0, 4892.0, 4868.0, 4870.0, 4868.0, 4896.0, 4866.0, 4886.0, 4890.0, 4890.0, 4892.0, 4872.0, 4866.0, 4896.0, 4866.0, 4870.0, 4892.0, 4894.0, 4888.0, 4890.0, 4892.0, 4870.0, 4894.0, 4866.0, 4866.0, 4868.0, 4868.0, 4870.0, 4890.0, 4892.0, 4890.0, 4890.0, 4868.0, 4864.0, 4872.0, 4892.0, 4868.0, 4892.0, 4894.0, 4890.0, 4892.0, 4892.0, 4866.0, 4892.0, 4900.0, 4894.0, 4894.0, 4890.0, 4898.0, 4894.0, 4868.0, 4866.0, 4870.0, 4894.0, 4894.0, 4898.0, 4888.0, 4896.0, 4898.0, 4892.0, 4898.0, 4900.0, 4900.0, 4840.0, 4842.0, 4836.0, 4866.0],
      "WindowWidth": [18644.0, 18636.0, 18642.0, 18618.0, 18640.0, 18644.0, 18644.0, 18656.0, 18642.0, 18616.0, 18578.0, 18578.0, 18574.0, 18634.0, 18640.0, 18644.0, 18636.0, 18640.0, 18614.0, 18610.0, 18610.0, 18618.0, 18612.0, 18644.0, 18646.0, 18642.0, 18646.0, 18616.0, 18620.0, 18642.0, 18666.0, 18720.0, 18668.0, 18630.0, 18518.0, 18518.0, 18522.0, 18590.0, 18652.0, 18610.0, 18646.0, 18644.0, 18606.0, 18624.0, 18624.0, 18594.0, 18554.0, 18588.0, 18626.0, 18618.0, 18648.0, 18644.0, 18634.0, 18636.0, 18648.0, 18636.0, 18618.0, 18592.0, 18578.0, 18592.0, 18618.0, 18646.0, 18644.0, 18638.0, 18642.0, 18644.0, 18648.0, 18620.0, 18652.0, 18624.0, 18646.0, 18626.0, 18648.0, 18652.0, 18650.0, 18644.0, 18646.0, 18652.0, 18640.0, 18654.0, 18618.0, 18622.0, 18622.0, 18618.0, 18624.0, 18644.0, 18650.0, 18642.0, 18648.0, 18646.0, 18648.0, 18650.0, 18646.0, 18622.0, 18616.0, 18626.0, 18652.0, 18654.0, 18644.0, 18650.0, 18644.0, 18644.0, 18650.0, 18626.0, 18646.0, 18654.0, 18642.0, 18648.0, 18648.0, 18640.0, 18626.0, 18642.0, 18628.0, 18616.0, 18628.0, 18646.0, 18648.0, 18650.0, 18650.0, 18648.0, 18644.0, 18638.0, 18652.0, 18620.0, 18646.0, 18626.0, 18618.0, 18628.0, 18644.0, 18620.0, 18640.0, 18650.0, 18646.0, 18646.0, 18624.0, 18624.0, 18644.0, 18618.0, 18618.0, 18646.0, 18644.0, 18648.0, 18644.0, 18648.0, 18614.0, 18642.0, 18616.0, 18616.0, 18618.0, 18620.0, 18620.0, 18636.0, 18650.0, 18638.0, 18650.0, 18618.0, 18618.0, 18614.0, 18642.0, 18620.0, 18638.0, 18652.0, 18642.0, 18648.0, 18648.0, 18624.0, 18652.0, 18648.0, 18650.0, 18638.0, 18648.0, 18638.0, 18644.0, 18612.0, 18616.0, 18618.0, 18644.0, 18652.0, 18644.0, 18648.0, 18644.0, 18650.0, 18646.0, 18632.0, 18640.0, 18646.0, 18578.0, 18590.0, 18580.0, 18614.0]
    },
    "slices": {}
  }
}