{
  "AcquisitionMatrixPE": 104,
  "AcquisitionNumber": 1,
  "AcquisitionTime": "11:08:27.707500",
  "BandwidthPerPixelPhaseEncode": 17.17,
  "BaseResolution": 104,
  "BodyPartExamined": "BRAIN",
  "CoilString": "HC1-7;NC1_2",
  "ConsistencyInfo": "N4_VE11C_LATEST_20160120",
  "ConversionSoftware": "dcm2niix",
  "ConversionSoftwareVersion": "v1.0.20190902",
  "DerivedVendorReportedEchoSpacing": 0.000560011,
  "DeviceSerialNumber": "167006",
  "DwellTime": 2.1e-06,
  "EchoTime": 0.037,
  "EchoTrainLength": 104,
  "EffectiveEchoSpacing": 0.000560011,
  "FlipAngle": 52,
  "ImageComments": "Unaliased_MB4_PE3_LB",
  "ImageOrientationPatientDICOM": [0.999356, 0.00200214, 0.0358245, 0.016397, 0.862602, -0.505617],
  "ImageType": [
    "ORIGINAL",
    "PRIMARY",
    "P",
    "MB",
    "ND",
    "MOSAIC"
],
  "ImagingFrequency": 123.259,
  "InPlanePhaseEncodingDirectionDICOM": "COL",
  "InstitutionAddress": "Chemin_Queen-Mary_4565_Montreal_District_CA_H3W_1W5",
  "InstitutionName": "IUGM",
  "InstitutionalDepartmentName": "Department",
  "MRAcquisitionType": "2D",
  "MagneticFieldStrength": 3,
  "Manufacturer": "Siemens",
  "ManufacturersModelName": "Prisma_fit",
  "Modality": "MR",
  "MultibandAccelerationFactor": 4,
  "PartialFourier": 1,
  "PatientPosition": "HFS",
  "PercentPhaseFOV": 100,
  "PhaseEncodingDirection": "j",
  "PhaseEncodingSteps": 104,
  "PhaseResolution": 1,
  "PixelBandwidth": 2290,
  "ProcedureStepDescription": "memory_things",
  "ProtocolName": "func_task-things_run-3",
  "PulseSequenceDetails": "%CustomerSeq%_cmrr_mbep2d_bold",
  "ReceiveCoilActiveElements": "HC1-7;NC1,2",
  "ReceiveCoilName": "HeadNeck_64",
  "ReconMatrixPE": 104,
  "RepetitionTime": 1.49,
  "SAR": 0.0559572,
  "ScanOptions": "FS",
  "ScanningSequence": "EP",
  "SequenceName": "epfid2d1_104",
  "SequenceVariant": "SK_SS",
  "SeriesDescription": "func_task-things_run-3",
  "SeriesNumber": 17,
  "ShimSetting": [611, -7188, -8864, 300, -47, -99, 30, -52],
  "SliceThickness": 2,
  "SliceTiming": [0, 0.785, 0.0975, 0.8825, 0.1975, 0.98, 0.295, 1.0775, 0.3925, 1.1775, 0.49, 1.275, 0.5875, 1.3725, 0.6875, 0, 0.785, 0.0975, 0.8825, 0.1975, 0.98, 0.295, 1.0775, 0.3925, 1.1775, 0.49, 1.275, 0.5875, 1.3725, 0.6875, 0, 0.785, 0.0975, 0.8825, 0.1975, 0.98, 0.295, 1.0775, 0.3925, 1.1775, 0.49, 1.275, 0.5875, 1.3725, 0.6875, 0, 0.785, 0.0975, 0.8825, 0.1975, 0.98, 0.295, 1.0775, 0.3925, 1.1775, 0.49, 1.275, 0.5875, 1.3725, 0.6875],
  "SoftwareVersions": "syngo_MR_E11",
  "SpacingBetweenSlices": 2,
  "StationName": "MRC35049",
  "TaskName": "things",
  "TotalReadoutTime": 0.0576811,
  "TxRefAmp": 283.496,
  "WipMemBlock": "d975fbc0-e209-4b2d-9f03-bc3686f83207||Sequence: R016 ve11c/master r/e634e98; Dec 19 2017 11:00:25 by eja",
  "dcmmeta_affine": [
    [-1.998712182044983, 0.03279399499297142, 0.06382926553487778, 104.20185089111328],
    [-0.004004288464784622, 1.725204348564148, -1.0117578506469727, -51.22603988647461],
    [0.07164905220270157, 1.011234164237976, 1.7240277528762817, -92.75532531738281],
    [0.0, 0.0, 0.0, 1.0]
],
  "dcmmeta_reorient_transform": [
    [0.0, -1.0, 0.0, 103.0],
    [1.0, 0.0, 0.0, 0.0],
    [0.0, 0.0, 1.0, 0.0],
    [0.0, 0.0, 0.0, 1.0]
],
  "dcmmeta_shape": [104, 104, 60, 190],
  "dcmmeta_slice_dim": 2,
  "dcmmeta_version": 0.6,
  "global": {
    "const": {
      "AcquisitionMatrix": [104, 0, 0, 104],
      "AngioFlag": "N",
      "BitsAllocated": 16,
      "BitsStored": 16,
      "BodyPartExamined": "BRAIN",
      "Columns": 832,
      "EchoNumbers": 1,
      "EchoTime": 37.0,
      "EchoTrainLength": 104,
      "FlipAngle": 52.0,
      "HighBit": 15,
      "ImageOrientationPatient": [0.99935609005882, 0.00200214428082, 0.03582452624434, 0.01639699707, 0.86260216340816, -0.5056170944209],
      "ImagePositionPatient": [-847.04787853928, -755.90194290226, 353.41078601613],
      "ImageType": [
        "ORIGINAL",
        "PRIMARY",
        "P",
        "MB",
        "ND",
        "MOSAIC"
],
      "ImagedNucleus": "1H",
      "ImagingFrequency": 123.259176,
      "InPlanePhaseEncodingDirection": "COL",
      "LargestImagePixelValue": 4095,
      "MRAcquisitionType": "2D",
      "MagneticFieldStrength": 3.0,
      "Manufacturer": "SIEMENS",
      "ManufacturerModelName": "Prisma_fit",
      "Modality": "MR",
      "NumberOfAverages": 1.0,
      "NumberOfPhaseEncodingSteps": 104,
      "PercentPhaseFieldOfView": 100.0,
      "PercentSampling": 100.0,
      "PerformedProcedureStepStartTime": "103444.165000",
      "PhotometricInterpretation": "MONOCHROME2",
      "PixelBandwidth": 2290.0,
      "PixelRepresentation": 0,
      "PixelSpacing": [2.0, 2.0],
      "ProtocolName": "func_task-things_run-3",
      "RepetitionTime": 1490.0,
      "RescaleIntercept": -4096.0,
      "RescaleSlope": 2.0,
      "RescaleType": "US",
      "Rows": 832,
      "SAR": 0.05595723847466,
      "SamplesPerPixel": 1,
      "ScanOptions": "FS",
      "ScanningSequence": "EP",
      "SequenceName": "epfid2d1_104",
      "SequenceVariant": [
        "SK",
        "SS"
],
      "SeriesDescription": "func_task-things_run-3",
      "SeriesNumber": 17,
      "SeriesTime": "110955.137000",
      "SliceLocation": -50.716641396134,
      "SliceThickness": 2.0,
      "SmallestImagePixelValue": 0,
      "SoftwareVersions": "syngo MR E11",
      "SpacingBetweenSlices": 1.9999999977921,
      "SpecificCharacterSet": "ISO_IR 100",
      "StudyID": "1",
      "StudyTime": "103444.107000",
      "TransmitCoilName": "Body",
      "VariableFlipAngleFlag": "N",
      "WindowCenterWidthExplanation": "Algo1",
      "dBdt": 0.0},
    "slices": {}
  },
  "time": {
    "samples": {
      "AcquisitionNumber": [1, 2, 3, 4, 5, 6, 7, 8, 9, 10, 11, 12, 13, 14, 15, 16, 17, 18, 19, 20, 21, 22, 23, 24, 25, 26, 27, 28, 29, 30, 31, 32, 33, 34, 35, 36, 37, 38, 39, 40, 41, 42, 43, 44, 45, 46, 47, 48, 49, 50, 51, 52, 53, 54, 55, 56, 57, 58, 59, 60, 61, 62, 63, 64, 65, 66, 67, 68, 69, 70, 71, 72, 73, 74, 75, 76, 77, 78, 79, 80, 81, 82, 83, 84, 85, 86, 87, 88, 89, 90, 91, 92, 93, 94, 95, 96, 97, 98, 99, 100, 101, 102, 103, 104, 105, 106, 107, 108, 109, 110, 111, 112, 113, 114, 115, 116, 117, 118, 119, 120, 121, 122, 123, 124, 125, 126, 127, 128, 129, 130, 131, 132, 133, 134, 135, 136, 137, 138, 139, 140, 141, 142, 143, 144, 145, 146, 147, 148, 149, 150, 151, 152, 153, 154, 155, 156, 157, 158, 159, 160, 161, 162, 163, 164, 165, 166, 167, 168, 169, 170, 171, 172, 173, 174, 175, 176, 177, 178, 179, 180, 181, 182, 183, 184, 185, 186, 187, 188, 189, 190],
      "AcquisitionTime": ["110827.707500", "110829.197500", "110830.687500", "110832.177500", "110833.667500", "110835.157500", "110836.647500", "110838.137500", "110839.627500", "110841.117500", "110842.607500", "110844.097500", "110845.587500", "110847.077500", "110848.567500", "110850.057500", "110851.547500", "110853.037500", "110854.527500", "110856.017500", "110857.507500", "110858.997500", "110900.487500", "110901.977500", "110903.467500", "110904.957500", "110906.447500", "110907.937500", "110909.427500", "110910.917500", "110912.407500", "110913.897500", "110915.387500", "110916.877500", "110918.367500", "110919.857500", "110921.347500", "110922.837500", "110924.327500", "110925.817500", "110927.307500", "110928.797500", "110930.287500", "110931.777500", "110933.267500", "110934.757500", "110936.247500", "110937.737500", "110939.227500", "110940.717500", "110942.207500", "110943.697500", "110945.187500", "110946.677500", "110948.167500", "110949.657500", "110951.147500", "110952.637500", "110954.127500", "110955.617500", "110957.107500", "110958.597500", "111000.087500", "111001.577500", "111003.067500", "111004.557500", "111006.047500", "111007.537500", "111009.027500", "111010.517500", "111012.007500", "111013.497500", "111014.987500", "111016.477500", "111017.967500", "111019.457500", "111020.947500", "111022.437500", "111023.927500", "111025.417500", "111026.907500", "111028.397500", "111029.887500", "111031.377500", "111032.867500", "111034.357500", "111035.847500", "111037.337500", "111038.827500", "111040.317500", "111041.807500", "111043.297500", "111044.787500", "111046.277500", "111047.767500", "111049.257500", "111050.747500", "111052.237500", "111053.727500", "111055.217500", "111056.707500", "111058.197500", "111059.687500", "111101.177500", "111102.667500", "111104.157500", "111105.647500", "111107.137500", "111108.627500", "111110.117500", "111111.607500", "111113.097500", "111114.587500", "111116.077500", "111117.567500", "111119.057500", "111120.547500", "111122.037500", "111123.527500", "111125.017500", "111126.507500", "111127.997500", "111129.487500", "111130.977500", "111132.467500", "111133.957500", "111135.447500", "111136.937500", "111138.427500", "111139.917500", "111141.407500", "111142.897500", "111144.387500", "111145.877500", "111147.367500", "111148.857500", "111150.347500", "111151.837500", "111153.327500", "111154.817500", "111156.307500", "111157.797500", "111159.287500", "111200.777500", "111202.267500", "111203.757500", "111205.247500", "111206.737500", "111208.227500", "111209.717500", "111211.207500", "111212.697500", "111214.187500", "111215.677500", "111217.167500", "111218.657500", "111220.147500", "111221.637500", "111223.127500", "111224.617500", "111226.107500", "111227.597500", "111229.087500", "111230.577500", "111232.067500", "111233.557500", "111235.047500", "111236.537500", "111238.027500", "111239.517500", "111241.007500", "111242.497500", "111243.987500", "111245.477500", "111246.967500", "111248.457500", "111249.947500", "111251.437500", "111252.927500", "111254.417500", "111255.907500", "111257.397500", "111258.887500", "111300.377500", "111301.867500", "111303.357500", "111304.847500", "111306.337500", "111307.827500", "111309.317500"],
      "ContentTime": ["110955.140000", "110955.142000", "110955.145000", "110955.147000", "110955.150000", "110955.153000", "110955.155000", "110955.158000", "110955.167000", "110955.169000", "110955.172000", "110955.174000", "110955.177000", "110955.179000", "110955.182000", "110955.184000", "110955.187000", "110955.190000", "110955.192000", "110955.195000", "110955.197000", "110955.200000", "110955.202000", "110955.205000", "110955.208000", "110955.214000", "110955.216000", "110955.219000", "110955.221000", "110955.224000", "110955.227000", "110955.229000", "110955.232000", "110955.234000", "111015.028000", "111015.031000", "111015.033000", "111015.036000", "111015.038000", "111015.041000", "111015.044000", "111015.046000", "111015.049000", "111015.051000", "111015.054000", "111015.056000", "111015.059000", "111015.061000", "111015.064000", "111015.066000", "111015.069000", "111015.072000", "111015.074000", "111015.077000", "111035.016000", "111035.018000", "111035.021000", "111035.023000", "111035.026000", "111035.029000", "111035.031000", "111035.034000", "111035.036000", "111035.039000", "111035.041000", "111035.044000", "111035.046000", "111035.049000", "111035.051000", "111035.054000", "111035.056000", "111035.059000", "111035.061000", "111035.064000", "111055.026000", "111055.029000", "111055.031000", "111055.034000", "111055.036000", "111055.039000", "111055.041000", "111055.044000", "111055.046000", "111055.049000", "111055.051000", "111055.054000", "111055.056000", "111055.059000", "111055.061000", "111055.064000", "111055.066000", "111055.069000", "111055.071000", "111055.074000", "111135.081000", "111135.084000", "111135.086000", "111135.089000", "111135.091000", "111135.094000", "111135.097000", "111135.099000", "111135.102000", "111135.104000", "111135.107000", "111135.109000", "111135.112000", "111135.114000", "111135.117000", "111135.119000", "111135.122000", "111135.124000", "111135.127000", "111135.129000", "111135.132000", "111135.135000", "111135.137000", "111135.140000", "111135.142000", "111135.145000", "111135.147000", "111135.150000", "111135.152000", "111135.155000", "111135.157000", "111215.065000", "111215.068000", "111215.071000", "111215.073000", "111215.076000", "111215.078000", "111215.081000", "111215.083000", "111215.086000", "111215.088000", "111215.091000", "111215.093000", "111215.096000", "111215.098000", "111215.101000", "111215.104000", "111215.106000", "111215.109000", "111215.111000", "111215.114000", "111215.116000", "111215.119000", "111215.121000", "111215.124000", "111215.126000", "111215.129000", "111215.131000", "111255.079000", "111255.081000", "111255.084000", "111255.087000", "111255.089000", "111255.092000", "111255.094000", "111255.097000", "111255.100000", "111255.102000", "111255.105000", "111255.107000", "111255.110000", "111255.112000", "111255.115000", "111255.118000", "111255.120000", "111255.123000", "111255.125000", "111255.128000", "111255.130000", "111255.133000", "111255.135000", "111255.138000", "111255.140000", "111255.143000", "111255.145000", "111311.420000", "111311.423000", "111311.426000", "111311.428000", "111311.431000", "111311.433000", "111311.436000", "111311.438000", "111311.441000", "111311.444000", "111311.446000"],
      "InstanceCreationTime": ["110955.140000", "110955.142000", "110955.145000", "110955.147000", "110955.150000", "110955.153000", "110955.155000", "110955.158000", "110955.167000", "110955.169000", "110955.172000", "110955.174000", "110955.177000", "110955.179000", "110955.182000", "110955.184000", "110955.187000", "110955.190000", "110955.192000", "110955.195000", "110955.197000", "110955.200000", "110955.202000", "110955.205000", "110955.208000", "110955.214000", "110955.216000", "110955.219000", "110955.221000", "110955.224000", "110955.227000", "110955.229000", "110955.232000", "110955.234000", "111015.028000", "111015.031000", "111015.033000", "111015.036000", "111015.038000", "111015.041000", "111015.044000", "111015.046000", "111015.049000", "111015.051000", "111015.054000", "111015.056000", "111015.059000", "111015.061000", "111015.064000", "111015.066000", "111015.069000", "111015.072000", "111015.074000", "111015.077000", "111035.016000", "111035.018000", "111035.021000", "111035.023000", "111035.026000", "111035.029000", "111035.031000", "111035.034000", "111035.036000", "111035.039000", "111035.041000", "111035.044000", "111035.046000", "111035.049000", "111035.051000", "111035.054000", "111035.056000", "111035.059000", "111035.061000", "111035.064000", "111055.026000", "111055.029000", "111055.031000", "111055.034000", "111055.036000", "111055.039000", "111055.041000", "111055.044000", "111055.046000", "111055.049000", "111055.051000", "111055.054000", "111055.056000", "111055.059000", "111055.061000", "111055.064000", "111055.066000", "111055.069000", "111055.071000", "111055.074000", "111135.081000", "111135.084000", "111135.086000", "111135.089000", "111135.091000", "111135.094000", "111135.097000", "111135.099000", "111135.102000", "111135.104000", "111135.107000", "111135.109000", "111135.112000", "111135.114000", "111135.117000", "111135.119000", "111135.122000", "111135.124000", "111135.127000", "111135.129000", "111135.132000", "111135.135000", "111135.137000", "111135.140000", "111135.142000", "111135.145000", "111135.147000", "111135.150000", "111135.152000", "111135.155000", "111135.157000", "111215.065000", "111215.068000", "111215.071000", "111215.073000", "111215.076000", "111215.078000", "111215.081000", "111215.083000", "111215.086000", "111215.088000", "111215.091000", "111215.093000", "111215.096000", "111215.098000", "111215.101000", "111215.104000", "111215.106000", "111215.109000", "111215.111000", "111215.114000", "111215.116000", "111215.119000", "111215.121000", "111215.124000", "111215.126000", "111215.129000", "111215.131000", "111255.079000", "111255.081000", "111255.084000", "111255.087000", "111255.089000", "111255.092000", "111255.094000", "111255.097000", "111255.100000", "111255.102000", "111255.105000", "111255.107000", "111255.110000", "111255.112000", "111255.115000", "111255.118000", "111255.120000", "111255.123000", "111255.125000", "111255.128000", "111255.130000", "111255.133000", "111255.135000", "111255.138000", "111255.140000", "111255.143000", "111255.145000", "111311.420000", "111311.423000", "111311.426000", "111311.428000", "111311.431000", "111311.433000", "111311.436000", "111311.438000", "111311.441000", "111311.444000", "111311.446000"],
      "InstanceNumber": [1, 2, 3, 4, 5, 6, 7, 8, 9, 10, 11, 12, 13, 14, 15, 16, 17, 18, 19, 20, 21, 22, 23, 24, 25, 26, 27, 28, 29, 30, 31, 32, 33, 34, 35, 36, 37, 38, 39, 40, 41, 42, 43, 44, 45, 46, 47, 48, 49, 50, 51, 52, 53, 54, 55, 56, 57, 58, 59, 60, 61, 62, 63, 64, 65, 66, 67, 68, 69, 70, 71, 72, 73, 74, 75, 76, 77, 78, 79, 80, 81, 82, 83, 84, 85, 86, 87, 88, 89, 90, 91, 92, 93, 94, 95, 96, 97, 98, 99, 100, 101, 102, 103, 104, 105, 106, 107, 108, 109, 110, 111, 112, 113, 114, 115, 116, 117, 118, 119, 120, 121, 122, 123, 124, 125, 126, 127, 128, 129, 130, 131, 132, 133, 134, 135, 136, 137, 138, 139, 140, 141, 142, 143, 144, 145, 146, 147, 148, 149, 150, 151, 152, 153, 154, 155, 156, 157, 158, 159, 160, 161, 162, 163, 164, 165, 166, 167, 168, 169, 170, 171, 172, 173, 174, 175, 176, 177, 178, 179, 180, 181, 182, 183, 184, 185, 186, 187, 188, 189, 190],
      "WindowCenter": [4888.0, 4884.0, 4886.0, 4886.0, 4884.0, 4880.0, 4860.0, 4856.0, 4880.0, 4884.0, 4882.0, 4862.0, 4884.0, 4880.0, 4858.0, 4858.0, 4886.0, 4884.0, 4888.0, 4882.0, 4886.0, 4886.0, 4884.0, 4886.0, 4884.0, 4886.0, 4864.0, 4884.0, 4860.0, 4880.0, 4854.0, 4876.0, 4880.0, 4858.0, 4862.0, 4890.0, 4888.0, 4878.0, 4882.0, 4880.0, 4858.0, 4882.0, 4888.0, 4884.0, 4890.0, 4886.0, 4890.0, 4886.0, 4886.0, 4882.0, 4880.0, 4880.0, 4880.0, 4882.0, 4882.0, 4884.0, 4886.0, 4888.0, 4884.0, 4884.0, 4888.0, 4882.0, 4884.0, 4884.0, 4884.0, 4882.0, 4884.0, 4884.0, 4884.0, 4888.0, 4886.0, 4884.0, 4886.0, 4882.0, 4862.0, 4886.0, 4886.0, 4886.0, 4860.0, 4882.0, 4884.0, 4884.0, 4884.0, 4882.0, 4858.0, 4882.0, 4884.0, 4886.0, 4890.0, 4892.0, 4890.0, 4864.0, 4886.0, 4884.0, 4878.0, 4856.0, 4856.0, 4880.0, 4882.0, 4888.0, 4888.0, 4894.0, 4866.0, 4888.0, 4888.0, 4882.0, 4882.0, 4878.0, 4880.0, 4856.0, 4858.0, 4858.0, 4886.0, 4886.0, 4888.0, 4888.0, 4890.0, 4886.0, 4886.0, 4882.0, 4886.0, 4884.0, 4886.0, 4888.0, 4888.0, 4888.0, 4890.0, 4886.0, 4888.0, 4884.0, 4886.0, 4886.0, 4886.0, 4886.0, 4884.0, 4886.0, 4888.0, 4886.0, 4886.0, 4882.0, 4890.0, 4886.0, 4882.0, 4884.0, 4890.0, 4888.0, 4888.0, 4886.0, 4890.0, 4888.0, 4886.0, 4884.0, 4888.0, 4886.0, 4886.0, 4886.0, 4886.0, 4882.0, 4884.0, 4884.0, 4884.0, 4886.0, 4890.0, 4888.0, 4890.0, 4890.0, 4890.0, 4886.0, 4886.0, 4884.0, 4880.0, 4880.0, 4880.0, 4886.0, 4882.0, 4890.0, 4888.0, 4888.0, 4892.0, 4884.0, 4882.0, 4888.0, 4884.0, 4882.0, 4882.0, 4886.0, 4888.0, 4886.0, 4888.0, 4888.0],
      "WindowWidth": [18648.0, 18654.0, 18650.0, 18658.0, 18646.0, 18650.0, 18614.0, 18612.0, 18648.0, 18652.0, 18652.0, 18624.0, 18648.0, 18648.0, 18616.0, 18618.0, 18652.0, 18646.0, 18656.0, 18636.0, 18648.0, 18642.0, 18642.0, 18648.0, 18658.0, 18646.0, 18624.0, 18642.0, 18622.0, 18642.0, 18616.0, 18642.0, 18648.0, 18616.0, 18626.0, 18656.0, 18656.0, 18634.0, 18648.0, 18638.0, 18614.0, 18644.0, 18648.0, 18646.0, 18654.0, 18652.0, 18650.0, 18654.0, 18648.0, 18650.0, 18646.0, 18644.0, 18646.0, 18652.0, 18646.0, 18646.0, 18646.0, 18654.0, 18648.0, 18644.0, 18654.0, 18646.0, 18648.0, 18640.0, 18648.0, 18644.0, 18650.0, 18644.0, 18650.0, 18652.0, 18646.0, 18652.0, 18646.0, 18642.0, 18622.0, 18646.0, 18648.0, 18648.0, 18616.0, 18646.0, 18642.0, 18644.0, 18644.0, 18644.0, 18616.0, 18640.0, 18650.0, 18640.0, 18646.0, 18660.0, 18656.0, 18620.0, 18650.0, 18648.0, 18644.0, 18610.0, 18608.0, 18640.0, 18644.0, 18650.0, 18642.0, 18656.0, 18622.0, 18644.0, 18654.0, 18636.0, 18644.0, 18640.0, 18646.0, 18612.0, 18612.0, 18612.0, 18650.0, 18650.0, 18650.0, 18642.0, 18648.0, 18646.0, 18648.0, 18642.0, 18642.0, 18640.0, 18650.0, 18648.0, 18650.0, 18644.0, 18652.0, 18640.0, 18654.0, 18646.0, 18648.0, 18642.0, 18648.0, 18642.0, 18650.0, 18648.0, 18650.0, 18644.0, 18646.0, 18642.0, 18652.0, 18650.0, 18636.0, 18654.0, 18646.0, 18650.0, 18648.0, 18642.0, 18648.0, 18650.0, 18650.0, 18640.0, 18652.0, 18646.0, 18654.0, 18648.0, 18648.0, 18642.0, 18648.0, 18646.0, 18638.0, 18642.0, 18650.0, 18648.0, 18652.0, 18654.0, 18658.0, 18644.0, 18648.0, 18648.0, 18638.0, 18648.0, 18644.0, 18646.0, 18646.0, 18652.0, 18652.0, 18650.0, 18650.0, 18652.0, 18646.0, 18648.0, 18646.0, 18644.0, 18638.0, 18646.0, 18654.0, 18646.0, 18648.0, 18644.0]
    },
    "slices": {}
  }
}