{
  "AcquisitionMatrixPE": 104,
  "AcquisitionNumber": 1,
  "AcquisitionTime": "11:14:39.185000",
  "BandwidthPerPixelPhaseEncode": 17.17,
  "BaseResolution": 104,
  "BodyPartExamined": "BRAIN",
  "CoilString": "HC1-7;NC1_2",
  "ConsistencyInfo": "N4_VE11C_LATEST_20160120",
  "ConversionSoftware": "dcm2niix",
  "ConversionSoftwareVersion": "v1.0.20190902",
  "DerivedVendorReportedEchoSpacing": 0.000560011,
  "DeviceSerialNumber": "167006",
  "DwellTime": 2.1e-06,
  "EchoTime": 0.037,
  "EchoTrainLength": 104,
  "EffectiveEchoSpacing": 0.000560011,
  "FlipAngle": 52,
  "ImageComments": "Unaliased_MB4_PE3_LB",
  "ImageOrientationPatientDICOM": [0.999356, 0.00200214, 0.0358245, 0.016397, 0.862602, -0.505617],
  "ImageType": [
    "ORIGINAL",
    "PRIMARY",
    "M",
    "MB",
    "ND",
    "MOSAIC"
],
  "ImagingFrequency": 123.259,
  "InPlanePhaseEncodingDirectionDICOM": "COL",
  "InstitutionAddress": "Chemin_Queen-Mary_4565_Montreal_District_CA_H3W_1W5",
  "InstitutionName": "IUGM",
  "InstitutionalDepartmentName": "Department",
  "MRAcquisitionType": "2D",
  "MagneticFieldStrength": 3,
  "Manufacturer": "Siemens",
  "ManufacturersModelName": "Prisma_fit",
  "Modality": "MR",
  "MultibandAccelerationFactor": 4,
  "PartialFourier": 1,
  "PatientPosition": "HFS",
  "PercentPhaseFOV": 100,
  "PhaseEncodingDirection": "j",
  "PhaseEncodingSteps": 104,
  "PhaseResolution": 1,
  "PixelBandwidth": 2290,
  "ProcedureStepDescription": "memory_things",
  "ProtocolName": "func_task-things_run-4",
  "PulseSequenceDetails": "%CustomerSeq%_cmrr_mbep2d_bold",
  "ReceiveCoilActiveElements": "HC1-7;NC1,2",
  "ReceiveCoilName": "HeadNeck_64",
  "ReconMatrixPE": 104,
  "RepetitionTime": 1.49,
  "SAR": 0.0559572,
  "ScanOptions": "FS",
  "ScanningSequence": "EP",
  "SequenceName": "epfid2d1_104",
  "SequenceVariant": "SK_SS",
  "SeriesDescription": "func_task-things_run-4",
  "SeriesNumber": 19,
  "ShimSetting": [611, -7188, -8864, 300, -47, -99, 30, -52],
  "SliceThickness": 2,
  "SliceTiming": [0, 0.7825, 0.0975, 0.88, 0.195, 0.98, 0.2925, 1.0775, 0.39, 1.175, 0.49, 1.2725, 0.5875, 1.37, 0.685, 0, 0.7825, 0.0975, 0.88, 0.195, 0.98, 0.2925, 1.0775, 0.39, 1.175, 0.49, 1.2725, 0.5875, 1.37, 0.685, 0, 0.7825, 0.0975, 0.88, 0.195, 0.98, 0.2925, 1.0775, 0.39, 1.175, 0.49, 1.2725, 0.5875, 1.37, 0.685, 0, 0.7825, 0.0975, 0.88, 0.195, 0.98, 0.2925, 1.0775, 0.39, 1.175, 0.49, 1.2725, 0.5875, 1.37, 0.685],
  "SoftwareVersions": "syngo_MR_E11",
  "SpacingBetweenSlices": 2,
  "StationName": "MRC35049",
  "TaskName": "things",
  "TotalReadoutTime": 0.0576811,
  "TxRefAmp": 283.496,
  "WipMemBlock": "495d8308-34e7-4f3f-8113-5976fd6b0368||Sequence: R016 ve11c/master r/e634e98; Dec 19 2017 11:00:25 by eja",
  "dcmmeta_affine": [
    [-1.998712182044983, 0.03279399499297142, 0.06382926553487778, 104.20185089111328],
    [-0.004004288464784622, 1.725204348564148, -1.0117578506469727, -51.22603988647461],
    [0.07164905220270157, 1.011234164237976, 1.7240277528762817, -92.75532531738281],
    [0.0, 0.0, 0.0, 1.0]
],
  "dcmmeta_reorient_transform": [
    [0.0, -1.0, 0.0, 103.0],
    [1.0, 0.0, 0.0, 0.0],
    [0.0, 0.0, 1.0, 0.0],
    [0.0, 0.0, 0.0, 1.0]
],
  "dcmmeta_shape": [104, 104, 60, 190],
  "dcmmeta_slice_dim": 2,
  "dcmmeta_version": 0.6,
  "global": {
    "const": {
      "AcquisitionMatrix": [104, 0, 0, 104],
      "AngioFlag": "N",
      "BitsAllocated": 16,
      "BitsStored": 16,
      "BodyPartExamined": "BRAIN",
      "Columns": 832,
      "EchoNumbers": 1,
      "EchoTime": 37.0,
      "EchoTrainLength": 104,
      "FlipAngle": 52.0,
      "HighBit": 15,
      "ImageOrientationPatient": [0.99935609005882, 0.00200214428082, 0.03582452624434, 0.01639699707, 0.86260216340816, -0.5056170944209],
      "ImagePositionPatient": [-847.04787853928, -755.90194290226, 353.41078601613],
      "ImageType": [
        "ORIGINAL",
        "PRIMARY",
        "M",
        "MB",
        "ND",
        "MOSAIC"
],
      "ImagedNucleus": "1H",
      "ImagingFrequency": 123.259178,
      "InPlanePhaseEncodingDirection": "COL",
      "MRAcquisitionType": "2D",
      "MagneticFieldStrength": 3.0,
      "Manufacturer": "SIEMENS",
      "ManufacturerModelName": "Prisma_fit",
      "Modality": "MR",
      "NumberOfAverages": 1.0,
      "NumberOfPhaseEncodingSteps": 104,
      "PercentPhaseFieldOfView": 100.0,
      "PercentSampling": 100.0,
      "PerformedProcedureStepStartTime": "103444.165000",
      "PhotometricInterpretation": "MONOCHROME2",
      "PixelBandwidth": 2290.0,
      "PixelRepresentation": 0,
      "PixelSpacing": [2.0, 2.0],
      "ProtocolName": "func_task-things_run-4",
      "RepetitionTime": 1490.0,
      "Rows": 832,
      "SAR": 0.05595723847466,
      "SamplesPerPixel": 1,
      "ScanOptions": "FS",
      "ScanningSequence": "EP",
      "SequenceName": "epfid2d1_104",
      "SequenceVariant": [
        "SK",
        "SS"
],
      "SeriesDescription": "func_task-things_run-4",
      "SeriesNumber": 19,
      "SeriesTime": "111611.619000",
      "SliceLocation": -50.716641396134,
      "SliceThickness": 2.0,
      "SmallestImagePixelValue": 0,
      "SoftwareVersions": "syngo MR E11",
      "SpacingBetweenSlices": 1.9999999977921,
      "SpecificCharacterSet": "ISO_IR 100",
      "StudyID": "1",
      "StudyTime": "103444.107000",
      "TransmitCoilName": "Body",
      "VariableFlipAngleFlag": "N",
      "WindowCenterWidthExplanation": "Algo1",
      "dBdt": 0.0},
    "slices": {}
  },
  "time": {
    "samples": {
      "AcquisitionNumber": [1, 2, 3, 4, 5, 6, 7, 8, 9, 10, 11, 12, 13, 14, 15, 16, 17, 18, 19, 20, 21, 22, 23, 24, 25, 26, 27, 28, 29, 30, 31, 32, 33, 34, 35, 36, 37, 38, 39, 40, 41, 42, 43, 44, 45, 46, 47, 48, 49, 50, 51, 52, 53, 54, 55, 56, 57, 58, 59, 60, 61, 62, 63, 64, 65, 66, 67, 68, 69, 70, 71, 72, 73, 74, 75, 76, 77, 78, 79, 80, 81, 82, 83, 84, 85, 86, 87, 88, 89, 90, 91, 92, 93, 94, 95, 96, 97, 98, 99, 100, 101, 102, 103, 104, 105, 106, 107, 108, 109, 110, 111, 112, 113, 114, 115, 116, 117, 118, 119, 120, 121, 122, 123, 124, 125, 126, 127, 128, 129, 130, 131, 132, 133, 134, 135, 136, 137, 138, 139, 140, 141, 142, 143, 144, 145, 146, 147, 148, 149, 150, 151, 152, 153, 154, 155, 156, 157, 158, 159, 160, 161, 162, 163, 164, 165, 166, 167, 168, 169, 170, 171, 172, 173, 174, 175, 176, 177, 178, 179, 180, 181, 182, 183, 184, 185, 186, 187, 188, 189, 190],
      "AcquisitionTime": ["111439.185000", "111440.675000", "111442.165000", "111443.655000", "111445.145000", "111446.635000", "111448.125000", "111449.615000", "111451.105000", "111452.595000", "111454.085000", "111455.575000", "111457.065000", "111458.555000", "111500.045000", "111501.535000", "111503.025000", "111504.515000", "111506.005000", "111507.495000", "111508.985000", "111510.475000", "111511.965000", "111513.455000", "111514.945000", "111516.435000", "111517.925000", "111519.415000", "111520.905000", "111522.395000", "111523.885000", "111525.375000", "111526.865000", "111528.355000", "111529.845000", "111531.335000", "111532.825000", "111534.315000", "111535.805000", "111537.295000", "111538.785000", "111540.275000", "111541.765000", "111543.255000", "111544.745000", "111546.235000", "111547.725000", "111549.215000", "111550.705000", "111552.195000", "111553.685000", "111555.175000", "111556.665000", "111558.155000", "111559.645000", "111601.135000", "111602.625000", "111604.115000", "111605.605000", "111607.095000", "111608.585000", "111610.075000", "111611.565000", "111613.055000", "111614.545000", "111616.035000", "111617.525000", "111619.015000", "111620.505000", "111621.995000", "111623.485000", "111624.975000", "111626.465000", "111627.955000", "111629.445000", "111630.935000", "111632.425000", "111633.915000", "111635.405000", "111636.895000", "111638.385000", "111639.875000", "111641.365000", "111642.855000", "111644.345000", "111645.835000", "111647.325000", "111648.815000", "111650.305000", "111651.795000", "111653.285000", "111654.775000", "111656.265000", "111657.755000", "111659.245000", "111700.735000", "111702.225000", "111703.715000", "111705.205000", "111706.695000", "111708.185000", "111709.675000", "111711.165000", "111712.655000", "111714.145000", "111715.635000", "111717.125000", "111718.615000", "111720.105000", "111721.595000", "111723.085000", "111724.575000", "111726.065000", "111727.555000", "111729.045000", "111730.535000", "111732.025000", "111733.515000", "111735.005000", "111736.495000", "111737.985000", "111739.475000", "111740.965000", "111742.455000", "111743.945000", "111745.435000", "111746.925000", "111748.415000", "111749.905000", "111751.395000", "111752.885000", "111754.375000", "111755.865000", "111757.355000", "111758.845000", "111800.335000", "111801.825000", "111803.315000", "111804.805000", "111806.295000", "111807.785000", "111809.275000", "111810.765000", "111812.255000", "111813.745000", "111815.235000", "111816.725000", "111818.215000", "111819.705000", "111821.195000", "111822.685000", "111824.175000", "111825.665000", "111827.155000", "111828.645000", "111830.135000", "111831.625000", "111833.115000", "111834.605000", "111836.095000", "111837.585000", "111839.075000", "111840.565000", "111842.055000", "111843.545000", "111845.035000", "111846.525000", "111848.015000", "111849.505000", "111850.995000", "111852.485000", "111853.975000", "111855.465000", "111856.955000", "111858.445000", "111859.935000", "111901.425000", "111902.915000", "111904.405000", "111905.895000", "111907.385000", "111908.875000", "111910.365000", "111911.855000", "111913.345000", "111914.835000", "111916.325000", "111917.815000", "111919.305000", "111920.795000"],
      "ContentTime": ["111611.622000", "111611.626000", "111611.630000", "111611.633000", "111611.636000", "111611.640000", "111611.663000", "111611.667000", "111611.670000", "111611.673000", "111611.677000", "111611.687000", "111611.691000", "111611.694000", "111611.698000", "111611.701000", "111611.704000", "111611.708000", "111611.711000", "111611.714000", "111611.718000", "111611.721000", "111611.724000", "111611.728000", "111611.731000", "111611.735000", "111611.738000", "111611.742000", "111611.745000", "111611.748000", "111611.752000", "111611.755000", "111611.758000", "111611.762000", "111611.765000", "111611.768000", "111611.772000", "111611.775000", "111611.781000", "111631.586000", "111631.590000", "111631.593000", "111631.597000", "111631.600000", "111631.603000", "111631.607000", "111631.610000", "111631.613000", "111631.617000", "111631.620000", "111631.623000", "111631.627000", "111631.630000", "111631.633000", "111631.645000", "111631.648000", "111631.652000", "111631.655000", "111631.658000", "111651.586000", "111651.590000", "111651.593000", "111651.597000", "111651.600000", "111651.603000", "111651.607000", "111651.610000", "111651.613000", "111651.617000", "111651.620000", "111651.623000", "111651.627000", "111651.630000", "111651.633000", "111651.637000", "111651.640000", "111651.643000", "111651.647000", "111651.650000", "111711.586000", "111711.590000", "111711.594000", "111711.597000", "111711.600000", "111711.604000", "111711.607000", "111711.610000", "111711.614000", "111711.617000", "111711.621000", "111711.624000", "111711.627000", "111711.631000", "111711.634000", "111711.637000", "111711.641000", "111711.644000", "111711.647000", "111711.651000", "111711.654000", "111751.586000", "111751.590000", "111751.593000", "111751.597000", "111751.600000", "111751.604000", "111751.607000", "111751.610000", "111751.614000", "111751.617000", "111751.620000", "111751.642000", "111751.645000", "111751.650000", "111751.655000", "111751.659000", "111751.662000", "111751.665000", "111751.669000", "111751.672000", "111751.675000", "111751.679000", "111751.682000", "111751.685000", "111751.689000", "111751.692000", "111751.696000", "111751.699000", "111831.587000", "111831.591000", "111831.594000", "111831.598000", "111831.601000", "111831.605000", "111831.608000", "111831.611000", "111831.615000", "111831.618000", "111831.621000", "111831.625000", "111831.628000", "111831.631000", "111831.635000", "111831.638000", "111831.642000", "111831.645000", "111831.648000", "111831.652000", "111831.655000", "111831.658000", "111831.662000", "111831.665000", "111831.669000", "111831.672000", "111831.675000", "111911.586000", "111911.590000", "111911.593000", "111911.597000", "111911.600000", "111911.604000", "111911.607000", "111911.610000", "111911.614000", "111911.617000", "111911.621000", "111911.624000", "111911.627000", "111911.631000", "111911.634000", "111911.637000", "111911.641000", "111911.644000", "111911.647000", "111911.651000", "111911.654000", "111911.657000", "111911.661000", "111911.664000", "111911.667000", "111911.671000", "111911.674000", "111922.584000", "111922.588000", "111922.592000", "111922.595000", "111922.598000", "111922.602000", "111922.605000", "111922.609000"],
      "InstanceCreationTime": ["111611.622000", "111611.626000", "111611.630000", "111611.633000", "111611.636000", "111611.640000", "111611.663000", "111611.667000", "111611.670000", "111611.673000", "111611.677000", "111611.687000", "111611.691000", "111611.694000", "111611.698000", "111611.701000", "111611.704000", "111611.708000", "111611.711000", "111611.714000", "111611.718000", "111611.721000", "111611.724000", "111611.728000", "111611.731000", "111611.735000", "111611.738000", "111611.742000", "111611.745000", "111611.748000", "111611.752000", "111611.755000", "111611.758000", "111611.762000", "111611.765000", "111611.768000", "111611.772000", "111611.775000", "111611.781000", "111631.586000", "111631.590000", "111631.593000", "111631.597000", "111631.600000", "111631.603000", "111631.607000", "111631.610000", "111631.613000", "111631.617000", "111631.620000", "111631.623000", "111631.627000", "111631.630000", "111631.633000", "111631.645000", "111631.648000", "111631.652000", "111631.655000", "111631.658000", "111651.586000", "111651.590000", "111651.593000", "111651.597000", "111651.600000", "111651.603000", "111651.607000", "111651.610000", "111651.613000", "111651.617000", "111651.620000", "111651.623000", "111651.627000", "111651.630000", "111651.633000", "111651.637000", "111651.640000", "111651.643000", "111651.647000", "111651.650000", "111711.586000", "111711.590000", "111711.594000", "111711.597000", "111711.600000", "111711.604000", "111711.607000", "111711.610000", "111711.614000", "111711.617000", "111711.621000", "111711.624000", "111711.627000", "111711.631000", "111711.634000", "111711.637000", "111711.641000", "111711.644000", "111711.647000", "111711.651000", "111711.654000", "111751.586000", "111751.590000", "111751.593000", "111751.597000", "111751.600000", "111751.604000", "111751.607000", "111751.610000", "111751.614000", "111751.617000", "111751.620000", "111751.642000", "111751.645000", "111751.650000", "111751.655000", "111751.659000", "111751.662000", "111751.665000", "111751.669000", "111751.672000", "111751.675000", "111751.679000", "111751.682000", "111751.685000", "111751.689000", "111751.692000", "111751.696000", "111751.699000", "111831.587000", "111831.591000", "111831.594000", "111831.598000", "111831.601000", "111831.605000", "111831.608000", "111831.611000", "111831.615000", "111831.618000", "111831.621000", "111831.625000", "111831.628000", "111831.631000", "111831.635000", "111831.638000", "111831.642000", "111831.645000", "111831.648000", "111831.652000", "111831.655000", "111831.658000", "111831.662000", "111831.665000", "111831.669000", "111831.672000", "111831.675000", "111911.586000", "111911.590000", "111911.593000", "111911.597000", "111911.600000", "111911.604000", "111911.607000", "111911.610000", "111911.614000", "111911.617000", "111911.621000", "111911.624000", "111911.627000", "111911.631000", "111911.634000", "111911.637000", "111911.641000", "111911.644000", "111911.647000", "111911.651000", "111911.654000", "111911.657000", "111911.661000", "111911.664000", "111911.667000", "111911.671000", "111911.674000", "111922.584000", "111922.588000", "111922.592000", "111922.595000", "111922.598000", "111922.602000", "111922.605000", "111922.609000"],
      "InstanceNumber": [1, 2, 3, 4, 5, 6, 7, 8, 9, 10, 11, 12, 13, 14, 15, 16, 17, 18, 19, 20, 21, 22, 23, 24, 25, 26, 27, 28, 29, 30, 31, 32, 33, 34, 35, 36, 37, 38, 39, 40, 41, 42, 43, 44, 45, 46, 47, 48, 49, 50, 51, 52, 53, 54, 55, 56, 57, 58, 59, 60, 61, 62, 63, 64, 65, 66, 67, 68, 69, 70, 71, 72, 73, 74, 75, 76, 77, 78, 79, 80, 81, 82, 83, 84, 85, 86, 87, 88, 89, 90, 91, 92, 93, 94, 95, 96, 97, 98, 99, 100, 101, 102, 103, 104, 105, 106, 107, 108, 109, 110, 111, 112, 113, 114, 115, 116, 117, 118, 119, 120, 121, 122, 123, 124, 125, 126, 127, 128, 129, 130, 131, 132, 133, 134, 135, 136, 137, 138, 139, 140, 141, 142, 143, 144, 145, 146, 147, 148, 149, 150, 151, 152, 153, 154, 155, 156, 157, 158, 159, 160, 161, 162, 163, 164, 165, 166, 167, 168, 169, 170, 171, 172, 173, 174, 175, 176, 177, 178, 179, 180, 181, 182, 183, 184, 185, 186, 187, 188, 189, 190],
      "LargestImagePixelValue": [47398, 47898, 46134, 45550, 44971, 46328, 45210, 47405, 45170, 46761, 45734, 47041, 44831, 47013, 45318, 47291, 46226, 46904, 46162, 47030, 44706, 47273, 46035, 46945, 45501, 46928, 45576, 47226, 47967, 48406, 48571, 49779, 47134, 48126, 49026, 47535, 49067, 47835, 49296, 47845, 49303, 47034, 48120, 47945, 47389, 47364, 47636, 48490, 46075, 47537, 46467, 47976, 46392, 48413, 47148, 48767, 47006, 48004, 46901, 48011, 46924, 47350, 48402, 47882, 49471, 47097, 47177, 47935, 47392, 46750, 48903, 46812, 47862, 47255, 47897, 47034, 48739, 45774, 47135, 45518, 47813, 46587, 47793, 45787, 47901, 47136, 47694, 47252, 48192, 48080, 47495, 48526, 46060, 47991, 46633, 48457, 46868, 49050, 47006, 45076, 47683, 46237, 48338, 47954, 48294, 47797, 48563, 47371, 49109, 47446, 47413, 46753, 46407, 46336, 47759, 47242, 47298, 47670, 47609, 48274, 47179, 48319, 47081, 46864, 47189, 45983, 48261, 47253, 47983, 46650, 47996, 47547, 45296, 47754, 45611, 48289, 48232, 44891, 45147, 48265, 48662, 45144, 44803, 46240, 47396, 47943, 48244, 47774, 47993, 48477, 44779, 44293, 44953, 44984, 47740, 46645, 46312, 46088, 47038, 47561, 47839, 46912, 45600, 46649, 44423, 46158, 45372, 47150, 45598, 47376, 46660, 46282, 47368, 45756, 46296, 45981, 46209, 45313, 47500, 45898, 47813, 46545, 47386, 47667, 47796, 44495, 47568, 45388, 47357, 45460],
      "WindowCenter": [11197.0, 11166.0, 11128.0, 11105.0, 11099.0, 11098.0, 11088.0, 11114.0, 11097.0, 11110.0, 11100.0, 11108.0, 11091.0, 11116.0, 11096.0, 11111.0, 11101.0, 11106.0, 11097.0, 11101.0, 11074.0, 11100.0, 11087.0, 11099.0, 11092.0, 11107.0, 11086.0, 11105.0, 11110.0, 11115.0, 11128.0, 11149.0, 11138.0, 11123.0, 11113.0, 11104.0, 11128.0, 11129.0, 11144.0, 11121.0, 11120.0, 11101.0, 11094.0, 11085.0, 11087.0, 11090.0, 11110.0, 11116.0, 11103.0, 11117.0, 11090.0, 11102.0, 11095.0, 11117.0, 11112.0, 11127.0, 11105.0, 11105.0, 11095.0, 11111.0, 11113.0, 11129.0, 11135.0, 11139.0, 11152.0, 11122.0, 11113.0, 11113.0, 11116.0, 11117.0, 11150.0, 11133.0, 11141.0, 11119.0, 11108.0, 11102.0, 11118.0, 11098.0, 11099.0, 11074.0, 11096.0, 11098.0, 11122.0, 11105.0, 11125.0, 11113.0, 11118.0, 11120.0, 11129.0, 11115.0, 11108.0, 11124.0, 11093.0, 11115.0, 11104.0, 11117.0, 11097.0, 11119.0, 11102.0, 11075.0, 11079.0, 11062.0, 11098.0, 11111.0, 11119.0, 11109.0, 11111.0, 11098.0, 11107.0, 11083.0, 11083.0, 11079.0, 11087.0, 11097.0, 11132.0, 11137.0, 11127.0, 11104.0, 11105.0, 11097.0, 11095.0, 11107.0, 11092.0, 11087.0, 11076.0, 11073.0, 11110.0, 11114.0, 11122.0, 11104.0, 11119.0, 11113.0, 11082.0, 11092.0, 11073.0, 11107.0, 11130.0, 11105.0, 11098.0, 11099.0, 11113.0, 11095.0, 11078.0, 11059.0, 11069.0, 11094.0, 11102.0, 11086.0, 11070.0, 11066.0, 11036.0, 11023.0, 11012.0, 11020.0, 11066.0, 11084.0, 11111.0, 11096.0, 11088.0, 11100.0, 11118.0, 11117.0, 11095.0, 11101.0, 11068.0, 11089.0, 11092.0, 11112.0, 11095.0, 11129.0, 11111.0, 11104.0, 11106.0, 11090.0, 11093.0, 11085.0, 11085.0, 11083.0, 11099.0, 11082.0, 11090.0, 11075.0, 11085.0, 11100.0, 11106.0, 11070.0, 11079.0, 11040.0, 11057.0, 11055.0],
      "WindowWidth": [24252.0, 24137.0, 24033.0, 23969.0, 23945.0, 23933.0, 23912.0, 23962.0, 23930.0, 23956.0, 23938.0, 23948.0, 23918.0, 23967.0, 23928.0, 23949.0, 23934.0, 23945.0, 23928.0, 23934.0, 23881.0, 23927.0, 23907.0, 23932.0, 23922.0, 23951.0, 23908.0, 23944.0, 23958.0, 23965.0, 23990.0, 24035.0, 24020.0, 23983.0, 23955.0, 23937.0, 23989.0, 23994.0, 24022.0, 23974.0, 23966.0, 23927.0, 23908.0, 23888.0, 23893.0, 23903.0, 23946.0, 23959.0, 23939.0, 23969.0, 23910.0, 23929.0, 23921.0, 23961.0, 23959.0, 23987.0, 23943.0, 23939.0, 23921.0, 23952.0, 23959.0, 24003.0, 24009.0, 24021.0, 24041.0, 23983.0, 23962.0, 23962.0, 23969.0, 23976.0, 24042.0, 24011.0, 24026.0, 23975.0, 23946.0, 23937.0, 23967.0, 23935.0, 23932.0, 23883.0, 23921.0, 23928.0, 23977.0, 23948.0, 23987.0, 23962.0, 23971.0, 23974.0, 23992.0, 23962.0, 23945.0, 23982.0, 23920.0, 23964.0, 23940.0, 23964.0, 23924.0, 23967.0, 23933.0, 23883.0, 23881.0, 23846.0, 23918.0, 23950.0, 23967.0, 23946.0, 23945.0, 23916.0, 23937.0, 23886.0, 23890.0, 23883.0, 23901.0, 23926.0, 24001.0, 24017.0, 23991.0, 23936.0, 23932.0, 23913.0, 23916.0, 23936.0, 23908.0, 23901.0, 23875.0, 23869.0, 23950.0, 23958.0, 23976.0, 23936.0, 23968.0, 23955.0, 23893.0, 23916.0, 23872.0, 23943.0, 23991.0, 23950.0, 23943.0, 23923.0, 23951.0, 23926.0, 23890.0, 23834.0, 23853.0, 23909.0, 23927.0, 23893.0, 23848.0, 23839.0, 23790.0, 23767.0, 23736.0, 23758.0, 23845.0, 23893.0, 23960.0, 23922.0, 23897.0, 23923.0, 23965.0, 23964.0, 23920.0, 23929.0, 23864.0, 23903.0, 23913.0, 23953.0, 23923.0, 23991.0, 23952.0, 23937.0, 23939.0, 23909.0, 23912.0, 23895.0, 23895.0, 23893.0, 23925.0, 23889.0, 23903.0, 23867.0, 23891.0, 23923.0, 23941.0, 23872.0, 23879.0, 23797.0, 23826.0, 23833.0]
    },
    "slices": {}
  }
}