{
  "AcquisitionMatrixPE": 104,
  "AcquisitionNumber": 1,
  "AcquisitionTime": "10:56:4.640000",
  "BandwidthPerPixelPhaseEncode": 17.17,
  "BaseResolution": 104,
  "BodyPartExamined": "BRAIN",
  "CoilString": "HC1-7;NC1_2",
  "ConsistencyInfo": "N4_VE11C_LATEST_20160120",
  "ConversionSoftware": "dcm2niix",
  "ConversionSoftwareVersion": "v1.0.20190902",
  "DerivedVendorReportedEchoSpacing": 0.000560011,
  "DeviceSerialNumber": "167006",
  "DwellTime": 2.1e-06,
  "EchoTime": 0.037,
  "EchoTrainLength": 104,
  "EffectiveEchoSpacing": 0.000560011,
  "FlipAngle": 52,
  "ImageComments": "Unaliased_MB4_PE3_LB",
  "ImageOrientationPatientDICOM": [0.999356, 0.00200214, 0.0358245, 0.016397, 0.862602, -0.505617],
  "ImageType": [
    "ORIGINAL",
    "PRIMARY",
    "M",
    "MB",
    "ND",
    "MOSAIC"
],
  "ImagingFrequency": 123.259,
  "InPlanePhaseEncodingDirectionDICOM": "COL",
  "InstitutionAddress": "Chemin_Queen-Mary_4565_Montreal_District_CA_H3W_1W5",
  "InstitutionName": "IUGM",
  "InstitutionalDepartmentName": "Department",
  "MRAcquisitionType": "2D",
  "MagneticFieldStrength": 3,
  "Manufacturer": "Siemens",
  "ManufacturersModelName": "Prisma_fit",
  "Modality": "MR",
  "MultibandAccelerationFactor": 4,
  "PartialFourier": 1,
  "PatientPosition": "HFS",
  "PercentPhaseFOV": 100,
  "PhaseEncodingDirection": "j",
  "PhaseEncodingSteps": 104,
  "PhaseResolution": 1,
  "PixelBandwidth": 2290,
  "ProcedureStepDescription": "memory_things",
  "ProtocolName": "func_task-things_run-1",
  "PulseSequenceDetails": "%CustomerSeq%_cmrr_mbep2d_bold",
  "ReceiveCoilActiveElements": "HC1-7;NC1,2",
  "ReceiveCoilName": "HeadNeck_64",
  "ReconMatrixPE": 104,
  "RepetitionTime": 1.49,
  "SAR": 0.0559572,
  "ScanOptions": "FS",
  "ScanningSequence": "EP",
  "SequenceName": "epfid2d1_104",
  "SequenceVariant": "SK_SS",
  "SeriesDescription": "func_task-things_run-1",
  "SeriesNumber": 10,
  "ShimSetting": [611, -7188, -8864, 300, -47, -99, 30, -52],
  "SliceThickness": 2,
  "SliceTiming": [0, 0.7825, 0.0975, 0.88, 0.195, 0.98, 0.2925, 1.0775, 0.3925, 1.175, 0.49, 1.2725, 0.5875, 1.37, 0.685, 0, 0.7825, 0.0975, 0.88, 0.195, 0.98, 0.2925, 1.0775, 0.3925, 1.175, 0.49, 1.2725, 0.5875, 1.37, 0.685, 0, 0.7825, 0.0975, 0.88, 0.195, 0.98, 0.2925, 1.0775, 0.3925, 1.175, 0.49, 1.2725, 0.5875, 1.37, 0.685, 0, 0.7825, 0.0975, 0.88, 0.195, 0.98, 0.2925, 1.0775, 0.3925, 1.175, 0.49, 1.2725, 0.5875, 1.37, 0.685],
  "SoftwareVersions": "syngo_MR_E11",
  "SpacingBetweenSlices": 2,
  "StationName": "MRC35049",
  "TaskName": "things",
  "TotalReadoutTime": 0.0576811,
  "TxRefAmp": 283.496,
  "WipMemBlock": "8c74ab0c-8975-404f-8ee2-223fc83382de||Sequence: R016 ve11c/master r/e634e98; Dec 19 2017 11:00:25 by eja",
  "dcmmeta_affine": [
    [-1.998712182044983, 0.03279399499297142, 0.06382926553487778, 104.20185089111328],
    [-0.004004288464784622, 1.725204348564148, -1.0117578506469727, -51.22603988647461],
    [0.07164905220270157, 1.011234164237976, 1.7240277528762817, -92.75532531738281],
    [0.0, 0.0, 0.0, 1.0]
],
  "dcmmeta_reorient_transform": [
    [0.0, -1.0, 0.0, 103.0],
    [1.0, 0.0, 0.0, 0.0],
    [0.0, 0.0, 1.0, 0.0],
    [0.0, 0.0, 0.0, 1.0]
],
  "dcmmeta_shape": [104, 104, 60, 190],
  "dcmmeta_slice_dim": 2,
  "dcmmeta_version": 0.6,
  "global": {
    "const": {
      "AcquisitionMatrix": [104, 0, 0, 104],
      "AngioFlag": "N",
      "BitsAllocated": 16,
      "BitsStored": 16,
      "BodyPartExamined": "BRAIN",
      "Columns": 832,
      "EchoNumbers": 1,
      "EchoTime": 37.0,
      "EchoTrainLength": 104,
      "FlipAngle": 52.0,
      "HighBit": 15,
      "ImageOrientationPatient": [0.99935609005882, 0.00200214428082, 0.03582452624434, 0.01639699707, 0.86260216340816, -0.5056170944209],
      "ImagePositionPatient": [-847.04787853928, -755.90194290226, 353.41078601613],
      "ImageType": [
        "ORIGINAL",
        "PRIMARY",
        "M",
        "MB",
        "ND",
        "MOSAIC"
],
      "ImagedNucleus": "1H",
      "ImagingFrequency": 123.259168,
      "InPlanePhaseEncodingDirection": "COL",
      "MRAcquisitionType": "2D",
      "MagneticFieldStrength": 3.0,
      "Manufacturer": "SIEMENS",
      "ManufacturerModelName": "Prisma_fit",
      "Modality": "MR",
      "NumberOfAverages": 1.0,
      "NumberOfPhaseEncodingSteps": 104,
      "PercentPhaseFieldOfView": 100.0,
      "PercentSampling": 100.0,
      "PerformedProcedureStepStartTime": "103444.165000",
      "PhotometricInterpretation": "MONOCHROME2",
      "PixelBandwidth": 2290.0,
      "PixelRepresentation": 0,
      "PixelSpacing": [2.0, 2.0],
      "ProtocolName": "func_task-things_run-1",
      "RepetitionTime": 1490.0,
      "Rows": 832,
      "SAR": 0.05595723847466,
      "SamplesPerPixel": 1,
      "ScanOptions": "FS",
      "ScanningSequence": "EP",
      "SequenceName": "epfid2d1_104",
      "SequenceVariant": [
        "SK",
        "SS"
],
      "SeriesDescription": "func_task-things_run-1",
      "SeriesNumber": 10,
      "SeriesTime": "105731.623000",
      "SliceLocation": -50.716641396134,
      "SliceThickness": 2.0,
      "SmallestImagePixelValue": 0,
      "SoftwareVersions": "syngo MR E11",
      "SpacingBetweenSlices": 1.9999999977921,
      "SpecificCharacterSet": "ISO_IR 100",
      "StudyID": "1",
      "StudyTime": "103444.107000",
      "TransmitCoilName": "Body",
      "VariableFlipAngleFlag": "N",
      "WindowCenterWidthExplanation": "Algo1",
      "dBdt": 0.0},
    "slices": {}
  },
  "time": {
    "samples": {
      "AcquisitionNumber": [1, 2, 3, 4, 5, 6, 7, 8, 9, 10, 11, 12, 13, 14, 15, 16, 17, 18, 19, 20, 21, 22, 23, 24, 25, 26, 27, 28, 29, 30, 31, 32, 33, 34, 35, 36, 37, 38, 39, 40, 41, 42, 43, 44, 45, 46, 47, 48, 49, 50, 51, 52, 53, 54, 55, 56, 57, 58, 59, 60, 61, 62, 63, 64, 65, 66, 67, 68, 69, 70, 71, 72, 73, 74, 75, 76, 77, 78, 79, 80, 81, 82, 83, 84, 85, 86, 87, 88, 89, 90, 91, 92, 93, 94, 95, 96, 97, 98, 99, 100, 101, 102, 103, 104, 105, 106, 107, 108, 109, 110, 111, 112, 113, 114, 115, 116, 117, 118, 119, 120, 121, 122, 123, 124, 125, 126, 127, 128, 129, 130, 131, 132, 133, 134, 135, 136, 137, 138, 139, 140, 141, 142, 143, 144, 145, 146, 147, 148, 149, 150, 151, 152, 153, 154, 155, 156, 157, 158, 159, 160, 161, 162, 163, 164, 165, 166, 167, 168, 169, 170, 171, 172, 173, 174, 175, 176, 177, 178, 179, 180, 181, 182, 183, 184, 185, 186, 187, 188, 189, 190],
      "AcquisitionTime": ["105604.640000", "105606.130000", "105607.620000", "105609.110000", "105610.600000", "105612.090000", "105613.580000", "105615.070000", "105616.560000", "105618.050000", "105619.540000", "105621.030000", "105622.520000", "105624.010000", "105625.500000", "105626.990000", "105628.480000", "105629.970000", "105631.460000", "105632.950000", "105634.440000", "105635.930000", "105637.420000", "105638.910000", "105640.400000", "105641.890000", "105643.380000", "105644.870000", "105646.360000", "105647.850000", "105649.340000", "105650.830000", "105652.320000", "105653.810000", "105655.300000", "105656.790000", "105658.280000", "105659.770000", "105701.260000", "105702.750000", "105704.240000", "105705.730000", "105707.220000", "105708.710000", "105710.200000", "105711.690000", "105713.180000", "105714.670000", "105716.160000", "105717.650000", "105719.140000", "105720.630000", "105722.120000", "105723.610000", "105725.100000", "105726.590000", "105728.080000", "105729.570000", "105731.060000", "105732.550000", "105734.040000", "105735.530000", "105737.020000", "105738.510000", "105740.000000", "105741.490000", "105742.980000", "105744.470000", "105745.960000", "105747.450000", "105748.940000", "105750.430000", "105751.920000", "105753.410000", "105754.900000", "105756.390000", "105757.880000", "105759.370000", "105800.860000", "105802.350000", "105803.840000", "105805.330000", "105806.820000", "105808.310000", "105809.800000", "105811.290000", "105812.780000", "105814.270000", "105815.760000", "105817.250000", "105818.740000", "105820.230000", "105821.720000", "105823.210000", "105824.700000", "105826.190000", "105827.680000", "105829.170000", "105830.660000", "105832.150000", "105833.640000", "105835.130000", "105836.620000", "105838.110000", "105839.600000", "105841.090000", "105842.580000", "105844.070000", "105845.560000", "105847.050000", "105848.540000", "105850.030000", "105851.520000", "105853.010000", "105854.500000", "105855.990000", "105857.480000", "105858.970000", "105900.460000", "105901.950000", "105903.440000", "105904.930000", "105906.420000", "105907.910000", "105909.400000", "105910.890000", "105912.380000", "105913.870000", "105915.360000", "105916.850000", "105918.340000", "105919.830000", "105921.320000", "105922.810000", "105924.300000", "105925.790000", "105927.280000", "105928.770000", "105930.260000", "105931.750000", "105933.240000", "105934.730000", "105936.220000", "105937.710000", "105939.200000", "105940.690000", "105942.180000", "105943.670000", "105945.160000", "105946.650000", "105948.140000", "105949.630000", "105951.120000", "105952.610000", "105954.100000", "105955.590000", "105957.080000", "105958.570000", "110000.060000", "110001.550000", "110003.040000", "110004.530000", "110006.020000", "110007.510000", "110009.000000", "110010.490000", "110011.980000", "110013.470000", "110014.960000", "110016.450000", "110017.940000", "110019.430000", "110020.920000", "110022.410000", "110023.900000", "110025.390000", "110026.880000", "110028.370000", "110029.860000", "110031.350000", "110032.840000", "110034.330000", "110035.820000", "110037.310000", "110038.800000", "110040.290000", "110041.780000", "110043.270000", "110044.760000", "110046.250000"],
      "ContentTime": ["105731.626000", "105731.630000", "105731.633000", "105731.637000", "105731.640000", "105731.643000", "105731.647000", "105731.650000", "105731.654000", "105731.657000", "105731.660000", "105731.664000", "105731.667000", "105731.671000", "105731.674000", "105731.687000", "105731.691000", "105731.694000", "105731.697000", "105731.701000", "105731.704000", "105731.708000", "105731.711000", "105731.715000", "105731.718000", "105731.721000", "105731.725000", "105731.728000", "105731.732000", "105731.735000", "105751.586000", "105751.590000", "105751.594000", "105751.603000", "105751.606000", "105751.610000", "105751.613000", "105751.617000", "105751.620000", "105751.624000", "105751.627000", "105751.630000", "105751.634000", "105751.637000", "105751.641000", "105751.644000", "105751.647000", "105751.651000", "105751.654000", "105751.657000", "105811.586000", "105811.590000", "105811.593000", "105811.597000", "105811.600000", "105811.603000", "105811.607000", "105811.610000", "105811.613000", "105811.617000", "105811.620000", "105811.623000", "105811.627000", "105811.630000", "105811.633000", "105811.637000", "105811.640000", "105811.647000", "105811.654000", "105811.658000", "105811.661000", "105831.586000", "105831.590000", "105831.593000", "105831.597000", "105831.600000", "105831.603000", "105831.607000", "105831.610000", "105831.614000", "105831.617000", "105831.620000", "105831.624000", "105831.627000", "105831.631000", "105831.634000", "105831.637000", "105831.641000", "105831.644000", "105831.648000", "105831.651000", "105851.586000", "105851.590000", "105851.593000", "105851.597000", "105851.600000", "105851.604000", "105851.607000", "105851.610000", "105851.614000", "105851.626000", "105851.631000", "105851.634000", "105851.638000", "105851.652000", "105851.656000", "105851.663000", "105851.667000", "105851.670000", "105851.673000", "105851.677000", "105931.586000", "105931.590000", "105931.593000", "105931.597000", "105931.600000", "105931.604000", "105931.607000", "105931.611000", "105931.614000", "105931.617000", "105931.621000", "105931.624000", "105931.628000", "105931.631000", "105931.634000", "105931.638000", "105931.641000", "105931.645000", "105931.648000", "105931.651000", "105931.655000", "105931.658000", "105931.661000", "105931.665000", "105931.668000", "105931.672000", "105931.675000", "110011.586000", "110011.590000", "110011.594000", "110011.597000", "110011.600000", "110011.604000", "110011.607000", "110011.611000", "110011.614000", "110011.618000", "110011.621000", "110011.624000", "110011.628000", "110011.631000", "110011.635000", "110011.638000", "110011.641000", "110011.645000", "110011.648000", "110011.652000", "110011.655000", "110011.659000", "110011.662000", "110011.665000", "110011.669000", "110011.672000", "110011.675000", "110048.068000", "110048.072000", "110048.076000", "110048.085000", "110048.088000", "110048.092000", "110048.095000", "110048.099000", "110048.102000", "110048.106000", "110048.109000", "110048.114000", "110048.117000", "110048.120000", "110048.124000", "110048.127000", "110048.131000", "110048.134000", "110048.138000", "110048.141000", "110048.145000", "110048.149000", "110048.152000", "110048.155000", "110048.159000"],
      "InstanceCreationTime": ["105731.626000", "105731.630000", "105731.633000", "105731.637000", "105731.640000", "105731.643000", "105731.647000", "105731.650000", "105731.654000", "105731.657000", "105731.660000", "105731.664000", "105731.667000", "105731.671000", "105731.674000", "105731.687000", "105731.691000", "105731.694000", "105731.697000", "105731.701000", "105731.704000", "105731.708000", "105731.711000", "105731.715000", "105731.718000", "105731.721000", "105731.725000", "105731.728000", "105731.732000", "105731.735000", "105751.586000", "105751.590000", "105751.594000", "105751.603000", "105751.606000", "105751.610000", "105751.613000", "105751.617000", "105751.620000", "105751.624000", "105751.627000", "105751.630000", "105751.634000", "105751.637000", "105751.641000", "105751.644000", "105751.647000", "105751.651000", "105751.654000", "105751.657000", "105811.586000", "105811.590000", "105811.593000", "105811.597000", "105811.600000", "105811.603000", "105811.607000", "105811.610000", "105811.613000", "105811.617000", "105811.620000", "105811.623000", "105811.627000", "105811.630000", "105811.633000", "105811.637000", "105811.640000", "105811.647000", "105811.654000", "105811.658000", "105811.661000", "105831.586000", "105831.590000", "105831.593000", "105831.597000", "105831.600000", "105831.603000", "105831.607000", "105831.610000", "105831.614000", "105831.617000", "105831.620000", "105831.624000", "105831.627000", "105831.631000", "105831.634000", "105831.637000", "105831.641000", "105831.644000", "105831.648000", "105831.651000", "105851.586000", "105851.590000", "105851.593000", "105851.597000", "105851.600000", "105851.604000", "105851.607000", "105851.610000", "105851.614000", "105851.626000", "105851.631000", "105851.634000", "105851.638000", "105851.652000", "105851.656000", "105851.663000", "105851.667000", "105851.670000", "105851.673000", "105851.677000", "105931.586000", "105931.590000", "105931.593000", "105931.597000", "105931.600000", "105931.604000", "105931.607000", "105931.611000", "105931.614000", "105931.617000", "105931.621000", "105931.624000", "105931.628000", "105931.631000", "105931.634000", "105931.638000", "105931.641000", "105931.645000", "105931.648000", "105931.651000", "105931.655000", "105931.658000", "105931.661000", "105931.665000", "105931.668000", "105931.672000", "105931.675000", "110011.586000", "110011.590000", "110011.594000", "110011.597000", "110011.600000", "110011.604000", "110011.607000", "110011.611000", "110011.614000", "110011.618000", "110011.621000", "110011.624000", "110011.628000", "110011.631000", "110011.635000", "110011.638000", "110011.641000", "110011.645000", "110011.648000", "110011.652000", "110011.655000", "110011.659000", "110011.662000", "110011.665000", "110011.669000", "110011.672000", "110011.675000", "110048.068000", "110048.072000", "110048.076000", "110048.085000", "110048.088000", "110048.092000", "110048.095000", "110048.099000", "110048.102000", "110048.106000", "110048.109000", "110048.114000", "110048.117000", "110048.120000", "110048.124000", "110048.127000", "110048.131000", "110048.134000", "110048.138000", "110048.141000", "110048.145000", "110048.149000", "110048.152000", "110048.155000", "110048.159000"],
      "InstanceNumber": [1, 2, 3, 4, 5, 6, 7, 8, 9, 10, 11, 12, 13, 14, 15, 16, 17, 18, 19, 20, 21, 22, 23, 24, 25, 26, 27, 28, 29, 30, 31, 32, 33, 34, 35, 36, 37, 38, 39, 40, 41, 42, 43, 44, 45, 46, 47, 48, 49, 50, 51, 52, 53, 54, 55, 56, 57, 58, 59, 60, 61, 62, 63, 64, 65, 66, 67, 68, 69, 70, 71, 72, 73, 74, 75, 76, 77, 78, 79, 80, 81, 82, 83, 84, 85, 86, 87, 88, 89, 90, 91, 92, 93, 94, 95, 96, 97, 98, 99, 100, 101, 102, 103, 104, 105, 106, 107, 108, 109, 110, 111, 112, 113, 114, 115, 116, 117, 118, 119, 120, 121, 122, 123, 124, 125, 126, 127, 128, 129, 130, 131, 132, 133, 134, 135, 136, 137, 138, 139, 140, 141, 142, 143, 144, 145, 146, 147, 148, 149, 150, 151, 152, 153, 154, 155, 156, 157, 158, 159, 160, 161, 162, 163, 164, 165, 166, 167, 168, 169, 170, 171, 172, 173, 174, 175, 176, 177, 178, 179, 180, 181, 182, 183, 184, 185, 186, 187, 188, 189, 190],
      "LargestImagePixelValue": [51297, 50722, 50550, 49532, 49846, 50271, 49769, 49498, 49578, 49660, 50807, 48980, 50385, 49773, 50542, 50157, 51150, 50042, 50518, 50633, 50903, 51057, 49896, 50363, 50122, 50243, 50316, 50212, 50918, 50899, 50627, 50718, 51040, 50343, 50294, 50561, 50688, 50429, 50539, 50548, 50416, 50340, 50784, 50380, 50740, 50653, 50359, 50351, 50400, 50178, 50595, 50184, 50935, 50132, 50640, 50369, 51015, 50688, 50019, 50924, 51610, 50796, 50929, 49964, 50887, 50626, 50969, 50664, 51107, 49884, 50682, 50181, 50208, 50212, 49732, 50619, 50656, 49836, 49644, 50524, 49535, 50860, 49899, 50737, 49898, 50440, 50265, 50737, 50178, 50030, 49388, 49837, 49656, 50212, 50530, 50424, 50605, 50943, 50335, 50831, 50837, 49924, 50479, 50100, 50743, 49477, 50464, 50524, 48982, 49970, 49014, 49974, 50175, 50222, 50211, 50219, 50167, 50019, 49756, 49691, 50263, 50340, 49813, 50472, 50236, 50098, 50680, 50028, 50317, 49873, 50038, 50432, 50627, 49891, 49964, 50287, 50717, 49979, 50294, 50296, 50161, 50252, 50364, 50168, 50833, 50798, 50280, 50447, 50171, 50357, 49632, 49993, 50221, 50731, 49548, 50295, 49906, 50018, 50511, 50190, 49830, 50358, 50026, 50429, 50199, 50033, 49821, 50258, 49944, 50137, 49360, 50113, 49961, 50006, 50540, 49784, 49490, 50644, 50299, 50378, 49943, 50595, 49951, 50361, 50160, 50231, 49812, 50273, 49849, 50124],
      "WindowCenter": [11439.0, 11370.0, 11321.0, 11285.0, 11289.0, 11310.0, 11322.0, 11324.0, 11315.0, 11297.0, 11311.0, 11300.0, 11309.0, 11303.0, 11307.0, 11299.0, 11315.0, 11311.0, 11313.0, 11313.0, 11310.0, 11307.0, 11301.0, 11295.0, 11272.0, 11279.0, 11286.0, 11277.0, 11287.0, 11283.0, 11292.0, 11301.0, 11298.0, 11267.0, 11262.0, 11275.0, 11283.0, 11290.0, 11291.0, 11292.0, 11301.0, 11296.0, 11277.0, 11270.0, 11282.0, 11293.0, 11301.0, 11290.0, 11279.0, 11271.0, 11274.0, 11278.0, 11286.0, 11295.0, 11310.0, 11315.0, 11310.0, 11296.0, 11277.0, 11275.0, 11269.0, 11271.0, 11274.0, 11281.0, 11290.0, 11278.0, 11261.0, 11253.0, 11262.0, 11256.0, 11266.0, 11269.0, 11261.0, 11266.0, 11250.0, 11268.0, 11293.0, 11293.0, 11291.0, 11280.0, 11267.0, 11266.0, 11257.0, 11281.0, 11281.0, 11294.0, 11284.0, 11277.0, 11258.0, 11235.0, 11224.0, 11239.0, 11244.0, 11256.0, 11261.0, 11268.0, 11270.0, 11260.0, 11262.0, 11275.0, 11287.0, 11281.0, 11297.0, 11309.0, 11299.0, 11284.0, 11271.0, 11253.0, 11247.0, 11247.0, 11262.0, 11293.0, 11304.0, 11281.0, 11248.0, 11226.0, 11208.0, 11201.0, 11198.0, 11199.0, 11220.0, 11237.0, 11242.0, 11241.0, 11249.0, 11266.0, 11288.0, 11279.0, 11280.0, 11256.0, 11251.0, 11262.0, 11269.0, 11260.0, 11260.0, 11257.0, 11267.0, 11261.0, 11259.0, 11253.0, 11245.0, 11247.0, 11249.0, 11249.0, 11252.0, 11258.0, 11263.0, 11266.0, 11257.0, 11243.0, 11239.0, 11250.0, 11248.0, 11258.0, 11247.0, 11242.0, 11234.0, 11233.0, 11245.0, 11242.0, 11251.0, 11241.0, 11229.0, 11230.0, 11231.0, 11241.0, 11252.0, 11250.0, 11243.0, 11240.0, 11227.0, 11239.0, 11241.0, 11235.0, 11244.0, 11257.0, 11249.0, 11232.0, 11207.0, 11204.0, 11220.0, 11243.0, 11255.0, 11264.0, 11242.0, 11235.0, 11215.0, 11216.0, 11213.0, 11233.0],
      "WindowWidth": [24849.0, 24646.0, 24507.0, 24409.0, 24411.0, 24454.0, 24483.0, 24487.0, 24465.0, 24421.0, 24451.0, 24432.0, 24448.0, 24436.0, 24444.0, 24424.0, 24458.0, 24453.0, 24455.0, 24453.0, 24444.0, 24438.0, 24427.0, 24410.0, 24356.0, 24373.0, 24389.0, 24367.0, 24385.0, 24378.0, 24397.0, 24420.0, 24412.0, 24343.0, 24330.0, 24361.0, 24380.0, 24398.0, 24401.0, 24401.0, 24420.0, 24411.0, 24364.0, 24348.0, 24374.0, 24404.0, 24425.0, 24400.0, 24370.0, 24353.0, 24357.0, 24368.0, 24386.0, 24409.0, 24440.0, 24458.0, 24442.0, 24409.0, 24366.0, 24354.0, 24336.0, 24345.0, 24354.0, 24374.0, 24390.0, 24365.0, 24323.0, 24305.0, 24321.0, 24312.0, 24333.0, 24341.0, 24325.0, 24334.0, 24302.0, 24338.0, 24395.0, 24399.0, 24397.0, 24371.0, 24342.0, 24337.0, 24320.0, 24373.0, 24374.0, 24403.0, 24380.0, 24358.0, 24314.0, 24263.0, 24238.0, 24269.0, 24287.0, 24311.0, 24323.0, 24335.0, 24343.0, 24318.0, 24324.0, 24353.0, 24383.0, 24372.0, 24405.0, 24435.0, 24410.0, 24380.0, 24347.0, 24307.0, 24299.0, 24296.0, 24332.0, 24400.0, 24424.0, 24366.0, 24288.0, 24234.0, 24191.0, 24178.0, 24171.0, 24175.0, 24224.0, 24264.0, 24280.0, 24276.0, 24293.0, 24333.0, 24385.0, 24367.0, 24369.0, 24314.0, 24296.0, 24319.0, 24337.0, 24320.0, 24322.0, 24313.0, 24334.0, 24324.0, 24316.0, 24302.0, 24284.0, 24288.0, 24294.0, 24296.0, 24298.0, 24313.0, 24326.0, 24334.0, 24312.0, 24280.0, 24275.0, 24296.0, 24292.0, 24315.0, 24294.0, 24281.0, 24262.0, 24257.0, 24284.0, 24278.0, 24301.0, 24277.0, 24251.0, 24249.0, 24255.0, 24277.0, 24305.0, 24298.0, 24281.0, 24273.0, 24247.0, 24269.0, 24274.0, 24265.0, 24279.0, 24314.0, 24298.0, 24253.0, 24194.0, 24186.0, 24224.0, 24276.0, 24310.0, 24331.0, 24278.0, 24257.0, 24214.0, 24216.0, 24212.0, 24257.0]
    },
    "slices": {}
  }
}