{
  "AcquisitionMatrixPE": 104,
  "AcquisitionNumber": 1,
  "AcquisitionTime": "11:26:52.562500",
  "BandwidthPerPixelPhaseEncode": 17.17,
  "BaseResolution": 104,
  "BodyPartExamined": "BRAIN",
  "CoilString": "HC1-7;NC1_2",
  "ConsistencyInfo": "N4_VE11C_LATEST_20160120",
  "ConversionSoftware": "dcm2niix",
  "ConversionSoftwareVersion": "v1.0.20190902",
  "DerivedVendorReportedEchoSpacing": 0.000560011,
  "DeviceSerialNumber": "167006",
  "DwellTime": 2.1e-06,
  "EchoTime": 0.037,
  "EchoTrainLength": 104,
  "EffectiveEchoSpacing": 0.000560011,
  "FlipAngle": 52,
  "ImageComments": "Unaliased_MB4_PE3_LB",
  "ImageOrientationPatientDICOM": [0.999356, 0.00200214, 0.0358245, 0.016397, 0.862602, -0.505617],
  "ImageType": [
    "ORIGINAL",
    "PRIMARY",
    "P",
    "MB",
    "ND",
    "MOSAIC"
],
  "ImagingFrequency": 123.259,
  "InPlanePhaseEncodingDirectionDICOM": "COL",
  "InstitutionAddress": "Chemin_Queen-Mary_4565_Montreal_District_CA_H3W_1W5",
  "InstitutionName": "IUGM",
  "InstitutionalDepartmentName": "Department",
  "MRAcquisitionType": "2D",
  "MagneticFieldStrength": 3,
  "Manufacturer": "Siemens",
  "ManufacturersModelName": "Prisma_fit",
  "Modality": "MR",
  "MultibandAccelerationFactor": 4,
  "PartialFourier": 1,
  "PatientPosition": "HFS",
  "PercentPhaseFOV": 100,
  "PhaseEncodingDirection": "j",
  "PhaseEncodingSteps": 104,
  "PhaseResolution": 1,
  "PixelBandwidth": 2290,
  "ProcedureStepDescription": "memory_things",
  "ProtocolName": "func_task-things_run-6",
  "PulseSequenceDetails": "%CustomerSeq%_cmrr_mbep2d_bold",
  "ReceiveCoilActiveElements": "HC1-7;NC1,2",
  "ReceiveCoilName": "HeadNeck_64",
  "ReconMatrixPE": 104,
  "RepetitionTime": 1.49,
  "SAR": 0.0559572,
  "ScanOptions": "FS",
  "ScanningSequence": "EP",
  "SequenceName": "epfid2d1_104",
  "SequenceVariant": "SK_SS",
  "SeriesDescription": "func_task-things_run-6",
  "SeriesNumber": 26,
  "ShimSetting": [611, -7188, -8864, 300, -47, -99, 30, -52],
  "SliceThickness": 2,
  "SliceTiming": [0, 0.7825, 0.0975, 0.8825, 0.195, 0.98, 0.295, 1.0775, 0.3925, 1.175, 0.49, 1.2725, 0.5875, 1.3725, 0.685, 0, 0.7825, 0.0975, 0.8825, 0.195, 0.98, 0.295, 1.0775, 0.3925, 1.175, 0.49, 1.2725, 0.5875, 1.3725, 0.685, 0, 0.7825, 0.0975, 0.8825, 0.195, 0.98, 0.295, 1.0775, 0.3925, 1.175, 0.49, 1.2725, 0.5875, 1.3725, 0.685, 0, 0.7825, 0.0975, 0.8825, 0.195, 0.98, 0.295, 1.0775, 0.3925, 1.175, 0.49, 1.2725, 0.5875, 1.3725, 0.685],
  "SoftwareVersions": "syngo_MR_E11",
  "SpacingBetweenSlices": 2,
  "StationName": "MRC35049",
  "TaskName": "things",
  "TotalReadoutTime": 0.0576811,
  "TxRefAmp": 283.496,
  "WipMemBlock": "a8eed59f-dd60-4136-acb5-ba28e844463f||Sequence: R016 ve11c/master r/e634e98; Dec 19 2017 11:00:25 by eja",
  "dcmmeta_affine": [
    [-1.998712182044983, 0.03279399499297142, 0.06382926553487778, 104.20185089111328],
    [-0.004004288464784622, 1.725204348564148, -1.0117578506469727, -51.22603988647461],
    [0.07164905220270157, 1.011234164237976, 1.7240277528762817, -92.75532531738281],
    [0.0, 0.0, 0.0, 1.0]
],
  "dcmmeta_reorient_transform": [
    [0.0, -1.0, 0.0, 103.0],
    [1.0, 0.0, 0.0, 0.0],
    [0.0, 0.0, 1.0, 0.0],
    [0.0, 0.0, 0.0, 1.0]
],
  "dcmmeta_shape": [104, 104, 60, 190],
  "dcmmeta_slice_dim": 2,
  "dcmmeta_version": 0.6,
  "global": {
    "const": {
      "AcquisitionMatrix": [104, 0, 0, 104],
      "AngioFlag": "N",
      "BitsAllocated": 16,
      "BitsStored": 16,
      "BodyPartExamined": "BRAIN",
      "Columns": 832,
      "EchoNumbers": 1,
      "EchoTime": 37.0,
      "EchoTrainLength": 104,
      "FlipAngle": 52.0,
      "HighBit": 15,
      "ImageOrientationPatient": [0.99935609005882, 0.00200214428082, 0.03582452624434, 0.01639699707, 0.86260216340816, -0.5056170944209],
      "ImagePositionPatient": [-847.04787853928, -755.90194290226, 353.41078601613],
      "ImageType": [
        "ORIGINAL",
        "PRIMARY",
        "P",
        "MB",
        "ND",
        "MOSAIC"
],
      "ImagedNucleus": "1H",
      "ImagingFrequency": 123.259187,
      "InPlanePhaseEncodingDirection": "COL",
      "LargestImagePixelValue": 4095,
      "MRAcquisitionType": "2D",
      "MagneticFieldStrength": 3.0,
      "Manufacturer": "SIEMENS",
      "ManufacturerModelName": "Prisma_fit",
      "Modality": "MR",
      "NumberOfAverages": 1.0,
      "NumberOfPhaseEncodingSteps": 104,
      "PercentPhaseFieldOfView": 100.0,
      "PercentSampling": 100.0,
      "PerformedProcedureStepStartTime": "103444.165000",
      "PhotometricInterpretation": "MONOCHROME2",
      "PixelBandwidth": 2290.0,
      "PixelRepresentation": 0,
      "PixelSpacing": [2.0, 2.0],
      "ProtocolName": "func_task-things_run-6",
      "RepetitionTime": 1490.0,
      "RescaleIntercept": -4096.0,
      "RescaleSlope": 2.0,
      "RescaleType": "US",
      "Rows": 832,
      "SAR": 0.05595723847466,
      "SamplesPerPixel": 1,
      "ScanOptions": "FS",
      "ScanningSequence": "EP",
      "SequenceName": "epfid2d1_104",
      "SequenceVariant": [
        "SK",
        "SS"
],
      "SeriesDescription": "func_task-things_run-6",
      "SeriesNumber": 26,
      "SeriesTime": "112815.114000",
      "SliceLocation": -50.716641396134,
      "SliceThickness": 2.0,
      "SmallestImagePixelValue": 0,
      "SoftwareVersions": "syngo MR E11",
      "SpacingBetweenSlices": 1.9999999977921,
      "SpecificCharacterSet": "ISO_IR 100",
      "StudyID": "1",
      "StudyTime": "103444.107000",
      "TransmitCoilName": "Body",
      "VariableFlipAngleFlag": "N",
      "WindowCenterWidthExplanation": "Algo1",
      "dBdt": 0.0},
    "slices": {}
  },
  "time": {
    "samples": {
      "AcquisitionNumber": [1, 2, 3, 4, 5, 6, 7, 8, 9, 10, 11, 12, 13, 14, 15, 16, 17, 18, 19, 20, 21, 22, 23, 24, 25, 26, 27, 28, 29, 30, 31, 32, 33, 34, 35, 36, 37, 38, 39, 40, 41, 42, 43, 44, 45, 46, 47, 48, 49, 50, 51, 52, 53, 54, 55, 56, 57, 58, 59, 60, 61, 62, 63, 64, 65, 66, 67, 68, 69, 70, 71, 72, 73, 74, 75, 76, 77, 78, 79, 80, 81, 82, 83, 84, 85, 86, 87, 88, 89, 90, 91, 92, 93, 94, 95, 96, 97, 98, 99, 100, 101, 102, 103, 104, 105, 106, 107, 108, 109, 110, 111, 112, 113, 114, 115, 116, 117, 118, 119, 120, 121, 122, 123, 124, 125, 126, 127, 128, 129, 130, 131, 132, 133, 134, 135, 136, 137, 138, 139, 140, 141, 142, 143, 144, 145, 146, 147, 148, 149, 150, 151, 152, 153, 154, 155, 156, 157, 158, 159, 160, 161, 162, 163, 164, 165, 166, 167, 168, 169, 170, 171, 172, 173, 174, 175, 176, 177, 178, 179, 180, 181, 182, 183, 184, 185, 186, 187, 188, 189, 190],
      "AcquisitionTime": ["112652.562500", "112654.052500", "112655.542500", "112657.032500", "112658.522500", "112700.012500", "112701.502500", "112702.992500", "112704.482500", "112705.972500", "112707.462500", "112708.952500", "112710.442500", "112711.932500", "112713.422500", "112714.912500", "112716.402500", "112717.892500", "112719.382500", "112720.872500", "112722.362500", "112723.852500", "112725.342500", "112726.832500", "112728.322500", "112729.812500", "112731.302500", "112732.792500", "112734.282500", "112735.772500", "112737.262500", "112738.752500", "112740.242500", "112741.732500", "112743.222500", "112744.712500", "112746.202500", "112747.692500", "112749.182500", "112750.672500", "112752.162500", "112753.652500", "112755.142500", "112756.632500", "112758.122500", "112759.612500", "112801.102500", "112802.592500", "112804.082500", "112805.572500", "112807.062500", "112808.552500", "112810.042500", "112811.532500", "112813.022500", "112814.512500", "112816.002500", "112817.492500", "112818.982500", "112820.472500", "112821.962500", "112823.452500", "112824.942500", "112826.432500", "112827.922500", "112829.412500", "112830.902500", "112832.392500", "112833.882500", "112835.372500", "112836.862500", "112838.352500", "112839.842500", "112841.332500", "112842.822500", "112844.312500", "112845.802500", "112847.292500", "112848.782500", "112850.272500", "112851.762500", "112853.252500", "112854.742500", "112856.232500", "112857.722500", "112859.212500", "112900.702500", "112902.192500", "112903.682500", "112905.172500", "112906.662500", "112908.152500", "112909.642500", "112911.132500", "112912.622500", "112914.112500", "112915.602500", "112917.092500", "112918.582500", "112920.072500", "112921.562500", "112923.052500", "112924.542500", "112926.032500", "112927.522500", "112929.012500", "112930.502500", "112931.992500", "112933.482500", "112934.972500", "112936.462500", "112937.952500", "112939.442500", "112940.932500", "112942.422500", "112943.912500", "112945.402500", "112946.892500", "112948.382500", "112949.872500", "112951.362500", "112952.852500", "112954.342500", "112955.832500", "112957.322500", "112958.812500", "113000.302500", "113001.792500", "113003.282500", "113004.772500", "113006.262500", "113007.752500", "113009.242500", "113010.732500", "113012.222500", "113013.712500", "113015.202500", "113016.692500", "113018.182500", "113019.672500", "113021.162500", "113022.652500", "113024.142500", "113025.632500", "113027.122500", "113028.612500", "113030.102500", "113031.592500", "113033.082500", "113034.572500", "113036.062500", "113037.552500", "113039.042500", "113040.532500", "113042.022500", "113043.512500", "113045.002500", "113046.492500", "113047.982500", "113049.472500", "113050.962500", "113052.452500", "113053.942500", "113055.432500", "113056.922500", "113058.412500", "113059.902500", "113101.392500", "113102.882500", "113104.372500", "113105.862500", "113107.352500", "113108.842500", "113110.332500", "113111.822500", "113113.312500", "113114.802500", "113116.292500", "113117.782500", "113119.272500", "113120.762500", "113122.252500", "113123.742500", "113125.232500", "113126.722500", "113128.212500", "113129.702500", "113131.192500", "113132.682500", "113134.172500"],
      "ContentTime": ["112815.116000", "112815.119000", "112815.121000", "112815.124000", "112815.126000", "112815.129000", "112815.131000", "112815.134000", "112815.136000", "112815.139000", "112815.141000", "112815.144000", "112815.147000", "112815.149000", "112815.152000", "112815.154000", "112815.157000", "112815.159000", "112815.162000", "112815.169000", "112815.171000", "112815.174000", "112815.176000", "112815.179000", "112815.181000", "112815.184000", "112815.186000", "112815.189000", "112815.191000", "112835.045000", "112835.048000", "112835.051000", "112835.053000", "112835.056000", "112835.058000", "112835.061000", "112835.064000", "112835.066000", "112835.069000", "112835.071000", "112835.074000", "112835.076000", "112835.079000", "112835.082000", "112835.084000", "112835.087000", "112835.089000", "112835.092000", "112835.095000", "112835.097000", "112855.033000", "112855.035000", "112855.038000", "112855.041000", "112855.043000", "112855.051000", "112855.053000", "112855.056000", "112855.058000", "112855.061000", "112855.063000", "112855.066000", "112855.068000", "112855.071000", "112855.075000", "112855.078000", "112855.081000", "112855.083000", "112855.086000", "112855.088000", "112915.026000", "112915.029000", "112915.031000", "112915.034000", "112915.036000", "112915.039000", "112915.042000", "112915.044000", "112915.047000", "112915.049000", "112915.052000", "112915.055000", "112915.057000", "112915.060000", "112915.062000", "112915.065000", "112915.067000", "112915.070000", "112915.072000", "112915.075000", "112955.093000", "112955.095000", "112955.098000", "112955.101000", "112955.103000", "112955.106000", "112955.108000", "112955.111000", "112955.114000", "112955.116000", "112955.119000", "112955.121000", "112955.124000", "112955.126000", "112955.129000", "112955.132000", "112955.134000", "112955.137000", "112955.139000", "112955.142000", "112955.145000", "112955.147000", "112955.150000", "112955.153000", "112955.155000", "112955.158000", "112955.160000", "112955.163000", "112955.165000", "112955.168000", "112955.171000", "112955.173000", "113035.066000", "113035.068000", "113035.071000", "113035.073000", "113035.076000", "113035.078000", "113035.081000", "113035.083000", "113035.086000", "113035.089000", "113035.092000", "113035.094000", "113035.097000", "113035.099000", "113035.102000", "113035.105000", "113035.107000", "113035.110000", "113035.112000", "113035.115000", "113035.117000", "113035.120000", "113035.123000", "113035.125000", "113035.128000", "113035.130000", "113115.078000", "113115.081000", "113115.084000", "113115.086000", "113115.089000", "113115.092000", "113115.094000", "113115.097000", "113115.099000", "113115.102000", "113115.104000", "113115.107000", "113115.110000", "113115.112000", "113115.115000", "113115.117000", "113115.120000", "113115.123000", "113115.125000", "113115.128000", "113115.132000", "113115.135000", "113115.137000", "113115.140000", "113115.143000", "113115.145000", "113115.148000", "113136.257000", "113136.260000", "113136.263000", "113136.265000", "113136.268000", "113136.270000", "113136.273000", "113136.275000", "113136.278000", "113136.280000", "113136.283000", "113136.286000", "113136.288000", "113136.291000", "113136.293000"],
      "InstanceCreationTime": ["112815.116000", "112815.119000", "112815.121000", "112815.124000", "112815.126000", "112815.129000", "112815.131000", "112815.134000", "112815.136000", "112815.139000", "112815.141000", "112815.144000", "112815.147000", "112815.149000", "112815.152000", "112815.154000", "112815.157000", "112815.159000", "112815.162000", "112815.169000", "112815.171000", "112815.174000", "112815.176000", "112815.179000", "112815.181000", "112815.184000", "112815.186000", "112815.189000", "112815.191000", "112835.045000", "112835.048000", "112835.051000", "112835.053000", "112835.056000", "112835.058000", "112835.061000", "112835.064000", "112835.066000", "112835.069000", "112835.071000", "112835.074000", "112835.076000", "112835.079000", "112835.082000", "112835.084000", "112835.087000", "112835.089000", "112835.092000", "112835.095000", "112835.097000", "112855.033000", "112855.035000", "112855.038000", "112855.041000", "112855.043000", "112855.051000", "112855.053000", "112855.056000", "112855.058000", "112855.061000", "112855.063000", "112855.066000", "112855.068000", "112855.071000", "112855.075000", "112855.078000", "112855.081000", "112855.083000", "112855.086000", "112855.088000", "112915.026000", "112915.029000", "112915.031000", "112915.034000", "112915.036000", "112915.039000", "112915.042000", "112915.044000", "112915.047000", "112915.049000", "112915.052000", "112915.055000", "112915.057000", "112915.060000", "112915.062000", "112915.065000", "112915.067000", "112915.070000", "112915.072000", "112915.075000", "112955.093000", "112955.095000", "112955.098000", "112955.101000", "112955.103000", "112955.106000", "112955.108000", "112955.111000", "112955.114000", "112955.116000", "112955.119000", "112955.121000", "112955.124000", "112955.126000", "112955.129000", "112955.132000", "112955.134000", "112955.137000", "112955.139000", "112955.142000", "112955.145000", "112955.147000", "112955.150000", "112955.153000", "112955.155000", "112955.158000", "112955.160000", "112955.163000", "112955.165000", "112955.168000", "112955.171000", "112955.173000", "113035.066000", "113035.068000", "113035.071000", "113035.073000", "113035.076000", "113035.078000", "113035.081000", "113035.083000", "113035.086000", "113035.089000", "113035.092000", "113035.094000", "113035.097000", "113035.099000", "113035.102000", "113035.105000", "113035.107000", "113035.110000", "113035.112000", "113035.115000", "113035.117000", "113035.120000", "113035.123000", "113035.125000", "113035.128000", "113035.130000", "113115.078000", "113115.081000", "113115.084000", "113115.086000", "113115.089000", "113115.092000", "113115.094000", "113115.097000", "113115.099000", "113115.102000", "113115.104000", "113115.107000", "113115.110000", "113115.112000", "113115.115000", "113115.117000", "113115.120000", "113115.123000", "113115.125000", "113115.128000", "113115.132000", "113115.135000", "113115.137000", "113115.140000", "113115.143000", "113115.145000", "113115.148000", "113136.257000", "113136.260000", "113136.263000", "113136.265000", "113136.268000", "113136.270000", "113136.273000", "113136.275000", "113136.278000", "113136.280000", "113136.283000", "113136.286000", "113136.288000", "113136.291000", "113136.293000"],
      "InstanceNumber": [1, 2, 3, 4, 5, 6, 7, 8, 9, 10, 11, 12, 13, 14, 15, 16, 17, 18, 19, 20, 21, 22, 23, 24, 25, 26, 27, 28, 29, 30, 31, 32, 33, 34, 35, 36, 37, 38, 39, 40, 41, 42, 43, 44, 45, 46, 47, 48, 49, 50, 51, 52, 53, 54, 55, 56, 57, 58, 59, 60, 61, 62, 63, 64, 65, 66, 67, 68, 69, 70, 71, 72, 73, 74, 75, 76, 77, 78, 79, 80, 81, 82, 83, 84, 85, 86, 87, 88, 89, 90, 91, 92, 93, 94, 95, 96, 97, 98, 99, 100, 101, 102, 103, 104, 105, 106, 107, 108, 109, 110, 111, 112, 113, 114, 115, 116, 117, 118, 119, 120, 121, 122, 123, 124, 125, 126, 127, 128, 129, 130, 131, 132, 133, 134, 135, 136, 137, 138, 139, 140, 141, 142, 143, 144, 145, 146, 147, 148, 149, 150, 151, 152, 153, 154, 155, 156, 157, 158, 159, 160, 161, 162, 163, 164, 165, 166, 167, 168, 169, 170, 171, 172, 173, 174, 175, 176, 177, 178, 179, 180, 181, 182, 183, 184, 185, 186, 187, 188, 189, 190],
      "WindowCenter": [4836.0, 4810.0, 4834.0, 4806.0, 4838.0, 4836.0, 4806.0, 4836.0, 4834.0, 4832.0, 4874.0, 4874.0, 4810.0, 4808.0, 4778.0, 4768.0, 4806.0, 4798.0, 4806.0, 4838.0, 4866.0, 4864.0, 4874.0, 4864.0, 4842.0, 4900.0, 4838.0, 4744.0, 4732.0, 4732.0, 4778.0, 4868.0, 4842.0, 4872.0, 4872.0, 4866.0, 4834.0, 4802.0, 4800.0, 4774.0, 4840.0, 4842.0, 4812.0, 4870.0, 4836.0, 4808.0, 4782.0, 4778.0, 4808.0, 4840.0, 4836.0, 4838.0, 4840.0, 4836.0, 4812.0, 4836.0, 4806.0, 4808.0, 4814.0, 4880.0, 4872.0, 4808.0, 4774.0, 4742.0, 4744.0, 4772.0, 4808.0, 4840.0, 4870.0, 4868.0, 4874.0, 4840.0, 4840.0, 4808.0, 4814.0, 4776.0, 4808.0, 4804.0, 4814.0, 4836.0, 4846.0, 4810.0, 4812.0, 4782.0, 4810.0, 4880.0, 4842.0, 4816.0, 4818.0, 4778.0, 4780.0, 4774.0, 4812.0, 4808.0, 4842.0, 4868.0, 4840.0, 4848.0, 4832.0, 4804.0, 4842.0, 4808.0, 4804.0, 4838.0, 4806.0, 4816.0, 4838.0, 4834.0, 4842.0, 4812.0, 4806.0, 4842.0, 4836.0, 4844.0, 4840.0, 4842.0, 4838.0, 4808.0, 4812.0, 4782.0, 4812.0, 4782.0, 4810.0, 4808.0, 4870.0, 4868.0, 4836.0, 4872.0, 4902.0, 4834.0, 4744.0, 4734.0, 4744.0, 4806.0, 4834.0, 4842.0, 4874.0, 4872.0, 4844.0, 4874.0, 4838.0, 4808.0, 4776.0, 4804.0, 4778.0, 4812.0, 4840.0, 4840.0, 4872.0, 4838.0, 4842.0, 4808.0, 4814.0, 4804.0, 4814.0, 4806.0, 4842.0, 4838.0, 4846.0, 4838.0, 4842.0, 4834.0, 4814.0, 4880.0, 4880.0, 4806.0, 4770.0, 4742.0, 4772.0, 4812.0, 4834.0, 4842.0, 4866.0, 4872.0, 4840.0, 4846.0, 4810.0, 4840.0, 4838.0, 4782.0, 4812.0, 4782.0, 4812.0, 4812.0, 4846.0, 4844.0, 4874.0, 4872.0, 4816.0, 4778.0],
      "WindowWidth": [18586.0, 18548.0, 18584.0, 18554.0, 18582.0, 18584.0, 18550.0, 18584.0, 18578.0, 18586.0, 18600.0, 18610.0, 18554.0, 18550.0, 18522.0, 18520.0, 18550.0, 18552.0, 18552.0, 18590.0, 18618.0, 18620.0, 18612.0, 18618.0, 18580.0, 18628.0, 18576.0, 18492.0, 18484.0, 18488.0, 18512.0, 18608.0, 18582.0, 18608.0, 18612.0, 18616.0, 18586.0, 18546.0, 18546.0, 18522.0, 18574.0, 18580.0, 18550.0, 18604.0, 18580.0, 18546.0, 18516.0, 18516.0, 18546.0, 18578.0, 18578.0, 18576.0, 18578.0, 18570.0, 18550.0, 18576.0, 18546.0, 18546.0, 18542.0, 18590.0, 18594.0, 18548.0, 18518.0, 18490.0, 18486.0, 18514.0, 18548.0, 18582.0, 18610.0, 18612.0, 18612.0, 18578.0, 18572.0, 18548.0, 18546.0, 18520.0, 18542.0, 18548.0, 18536.0, 18580.0, 18578.0, 18546.0, 18552.0, 18512.0, 18542.0, 18600.0, 18580.0, 18546.0, 18540.0, 18518.0, 18516.0, 18518.0, 18544.0, 18548.0, 18578.0, 18616.0, 18578.0, 18576.0, 18576.0, 18544.0, 18568.0, 18552.0, 18546.0, 18570.0, 18546.0, 18544.0, 18578.0, 18576.0, 18580.0, 18546.0, 18546.0, 18576.0, 18582.0, 18576.0, 18582.0, 18570.0, 18572.0, 18542.0, 18544.0, 18518.0, 18544.0, 18518.0, 18544.0, 18548.0, 18602.0, 18608.0, 18580.0, 18594.0, 18626.0, 18582.0, 18484.0, 18488.0, 18490.0, 18540.0, 18580.0, 18588.0, 18620.0, 18618.0, 18586.0, 18616.0, 18580.0, 18548.0, 18518.0, 18546.0, 18520.0, 18548.0, 18576.0, 18582.0, 18608.0, 18582.0, 18580.0, 18544.0, 18544.0, 18546.0, 18542.0, 18550.0, 18568.0, 18582.0, 18574.0, 18586.0, 18578.0, 18582.0, 18550.0, 18598.0, 18604.0, 18552.0, 18516.0, 18492.0, 18512.0, 18544.0, 18578.0, 18580.0, 18610.0, 18616.0, 18574.0, 18582.0, 18554.0, 18572.0, 18574.0, 18522.0, 18544.0, 18514.0, 18544.0, 18550.0, 18576.0, 18582.0, 18602.0, 18610.0, 18540.0, 18512.0]
    },
    "slices": {}
  }
}