{
  "AcquisitionMatrixPE": 104,
  "AcquisitionNumber": 1,
  "AcquisitionTime": "11:14:39.185000",
  "BandwidthPerPixelPhaseEncode": 17.17,
  "BaseResolution": 104,
  "BodyPartExamined": "BRAIN",
  "CoilString": "HC1-7;NC1_2",
  "ConsistencyInfo": "N4_VE11C_LATEST_20160120",
  "ConversionSoftware": "dcm2niix",
  "ConversionSoftwareVersion": "v1.0.20190902",
  "DerivedVendorReportedEchoSpacing": 0.000560011,
  "DeviceSerialNumber": "167006",
  "DwellTime": 2.1e-06,
  "EchoTime": 0.037,
  "EchoTrainLength": 104,
  "EffectiveEchoSpacing": 0.000560011,
  "FlipAngle": 52,
  "ImageComments": "Unaliased_MB4_PE3_LB",
  "ImageOrientationPatientDICOM": [0.999356, 0.00200214, 0.0358245, 0.016397, 0.862602, -0.505617],
  "ImageType": [
    "ORIGINAL",
    "PRIMARY",
    "P",
    "MB",
    "ND",
    "MOSAIC"
],
  "ImagingFrequency": 123.259,
  "InPlanePhaseEncodingDirectionDICOM": "COL",
  "InstitutionAddress": "Chemin_Queen-Mary_4565_Montreal_District_CA_H3W_1W5",
  "InstitutionName": "IUGM",
  "InstitutionalDepartmentName": "Department",
  "MRAcquisitionType": "2D",
  "MagneticFieldStrength": 3,
  "Manufacturer": "Siemens",
  "ManufacturersModelName": "Prisma_fit",
  "Modality": "MR",
  "MultibandAccelerationFactor": 4,
  "PartialFourier": 1,
  "PatientPosition": "HFS",
  "PercentPhaseFOV": 100,
  "PhaseEncodingDirection": "j",
  "PhaseEncodingSteps": 104,
  "PhaseResolution": 1,
  "PixelBandwidth": 2290,
  "ProcedureStepDescription": "memory_things",
  "ProtocolName": "func_task-things_run-4",
  "PulseSequenceDetails": "%CustomerSeq%_cmrr_mbep2d_bold",
  "ReceiveCoilActiveElements": "HC1-7;NC1,2",
  "ReceiveCoilName": "HeadNeck_64",
  "ReconMatrixPE": 104,
  "RepetitionTime": 1.49,
  "SAR": 0.0559572,
  "ScanOptions": "FS",
  "ScanningSequence": "EP",
  "SequenceName": "epfid2d1_104",
  "SequenceVariant": "SK_SS",
  "SeriesDescription": "func_task-things_run-4",
  "SeriesNumber": 20,
  "ShimSetting": [611, -7188, -8864, 300, -47, -99, 30, -52],
  "SliceThickness": 2,
  "SliceTiming": [0, 0.7825, 0.0975, 0.88, 0.195, 0.98, 0.2925, 1.0775, 0.39, 1.175, 0.49, 1.2725, 0.5875, 1.37, 0.685, 0, 0.7825, 0.0975, 0.88, 0.195, 0.98, 0.2925, 1.0775, 0.39, 1.175, 0.49, 1.2725, 0.5875, 1.37, 0.685, 0, 0.7825, 0.0975, 0.88, 0.195, 0.98, 0.2925, 1.0775, 0.39, 1.175, 0.49, 1.2725, 0.5875, 1.37, 0.685, 0, 0.7825, 0.0975, 0.88, 0.195, 0.98, 0.2925, 1.0775, 0.39, 1.175, 0.49, 1.2725, 0.5875, 1.37, 0.685],
  "SoftwareVersions": "syngo_MR_E11",
  "SpacingBetweenSlices": 2,
  "StationName": "MRC35049",
  "TaskName": "things",
  "TotalReadoutTime": 0.0576811,
  "TxRefAmp": 283.496,
  "WipMemBlock": "495d8308-34e7-4f3f-8113-5976fd6b0368||Sequence: R016 ve11c/master r/e634e98; Dec 19 2017 11:00:25 by eja",
  "dcmmeta_affine": [
    [-1.998712182044983, 0.03279399499297142, 0.06382926553487778, 104.20185089111328],
    [-0.004004288464784622, 1.725204348564148, -1.0117578506469727, -51.22603988647461],
    [0.07164905220270157, 1.011234164237976, 1.7240277528762817, -92.75532531738281],
    [0.0, 0.0, 0.0, 1.0]
],
  "dcmmeta_reorient_transform": [
    [0.0, -1.0, 0.0, 103.0],
    [1.0, 0.0, 0.0, 0.0],
    [0.0, 0.0, 1.0, 0.0],
    [0.0, 0.0, 0.0, 1.0]
],
  "dcmmeta_shape": [104, 104, 60, 190],
  "dcmmeta_slice_dim": 2,
  "dcmmeta_version": 0.6,
  "global": {
    "const": {
      "AcquisitionMatrix": [104, 0, 0, 104],
      "AngioFlag": "N",
      "BitsAllocated": 16,
      "BitsStored": 16,
      "BodyPartExamined": "BRAIN",
      "Columns": 832,
      "EchoNumbers": 1,
      "EchoTime": 37.0,
      "EchoTrainLength": 104,
      "FlipAngle": 52.0,
      "HighBit": 15,
      "ImageOrientationPatient": [0.99935609005882, 0.00200214428082, 0.03582452624434, 0.01639699707, 0.86260216340816, -0.5056170944209],
      "ImagePositionPatient": [-847.04787853928, -755.90194290226, 353.41078601613],
      "ImageType": [
        "ORIGINAL",
        "PRIMARY",
        "P",
        "MB",
        "ND",
        "MOSAIC"
],
      "ImagedNucleus": "1H",
      "ImagingFrequency": 123.259178,
      "InPlanePhaseEncodingDirection": "COL",
      "LargestImagePixelValue": 4095,
      "MRAcquisitionType": "2D",
      "MagneticFieldStrength": 3.0,
      "Manufacturer": "SIEMENS",
      "ManufacturerModelName": "Prisma_fit",
      "Modality": "MR",
      "NumberOfAverages": 1.0,
      "NumberOfPhaseEncodingSteps": 104,
      "PercentPhaseFieldOfView": 100.0,
      "PercentSampling": 100.0,
      "PerformedProcedureStepStartTime": "103444.165000",
      "PhotometricInterpretation": "MONOCHROME2",
      "PixelBandwidth": 2290.0,
      "PixelRepresentation": 0,
      "PixelSpacing": [2.0, 2.0],
      "ProtocolName": "func_task-things_run-4",
      "RepetitionTime": 1490.0,
      "RescaleIntercept": -4096.0,
      "RescaleSlope": 2.0,
      "RescaleType": "US",
      "Rows": 832,
      "SAR": 0.05595723847466,
      "SamplesPerPixel": 1,
      "ScanOptions": "FS",
      "ScanningSequence": "EP",
      "SequenceName": "epfid2d1_104",
      "SequenceVariant": [
        "SK",
        "SS"
],
      "SeriesDescription": "func_task-things_run-4",
      "SeriesNumber": 20,
      "SeriesTime": "111611.830000",
      "SliceLocation": -50.716641396134,
      "SliceThickness": 2.0,
      "SmallestImagePixelValue": 0,
      "SoftwareVersions": "syngo MR E11",
      "SpacingBetweenSlices": 1.9999999977921,
      "SpecificCharacterSet": "ISO_IR 100",
      "StudyID": "1",
      "StudyTime": "103444.107000",
      "TransmitCoilName": "Body",
      "VariableFlipAngleFlag": "N",
      "WindowCenterWidthExplanation": "Algo1",
      "dBdt": 0.0},
    "slices": {}
  },
  "time": {
    "samples": {
      "AcquisitionNumber": [1, 2, 3, 4, 5, 6, 7, 8, 9, 10, 11, 12, 13, 14, 15, 16, 17, 18, 19, 20, 21, 22, 23, 24, 25, 26, 27, 28, 29, 30, 31, 32, 33, 34, 35, 36, 37, 38, 39, 40, 41, 42, 43, 44, 45, 46, 47, 48, 49, 50, 51, 52, 53, 54, 55, 56, 57, 58, 59, 60, 61, 62, 63, 64, 65, 66, 67, 68, 69, 70, 71, 72, 73, 74, 75, 76, 77, 78, 79, 80, 81, 82, 83, 84, 85, 86, 87, 88, 89, 90, 91, 92, 93, 94, 95, 96, 97, 98, 99, 100, 101, 102, 103, 104, 105, 106, 107, 108, 109, 110, 111, 112, 113, 114, 115, 116, 117, 118, 119, 120, 121, 122, 123, 124, 125, 126, 127, 128, 129, 130, 131, 132, 133, 134, 135, 136, 137, 138, 139, 140, 141, 142, 143, 144, 145, 146, 147, 148, 149, 150, 151, 152, 153, 154, 155, 156, 157, 158, 159, 160, 161, 162, 163, 164, 165, 166, 167, 168, 169, 170, 171, 172, 173, 174, 175, 176, 177, 178, 179, 180, 181, 182, 183, 184, 185, 186, 187, 188, 189, 190],
      "AcquisitionTime": ["111439.185000", "111440.675000", "111442.165000", "111443.655000", "111445.145000", "111446.635000", "111448.125000", "111449.615000", "111451.105000", "111452.595000", "111454.085000", "111455.575000", "111457.065000", "111458.555000", "111500.045000", "111501.535000", "111503.025000", "111504.515000", "111506.005000", "111507.495000", "111508.985000", "111510.475000", "111511.965000", "111513.455000", "111514.945000", "111516.435000", "111517.925000", "111519.415000", "111520.905000", "111522.395000", "111523.885000", "111525.375000", "111526.865000", "111528.355000", "111529.845000", "111531.335000", "111532.825000", "111534.315000", "111535.805000", "111537.295000", "111538.785000", "111540.275000", "111541.765000", "111543.255000", "111544.745000", "111546.235000", "111547.725000", "111549.215000", "111550.705000", "111552.195000", "111553.685000", "111555.175000", "111556.665000", "111558.155000", "111559.645000", "111601.135000", "111602.625000", "111604.115000", "111605.605000", "111607.095000", "111608.585000", "111610.075000", "111611.565000", "111613.055000", "111614.545000", "111616.035000", "111617.525000", "111619.015000", "111620.505000", "111621.995000", "111623.485000", "111624.975000", "111626.465000", "111627.955000", "111629.445000", "111630.935000", "111632.425000", "111633.915000", "111635.405000", "111636.895000", "111638.385000", "111639.875000", "111641.365000", "111642.855000", "111644.345000", "111645.835000", "111647.325000", "111648.815000", "111650.305000", "111651.795000", "111653.285000", "111654.775000", "111656.265000", "111657.755000", "111659.245000", "111700.735000", "111702.225000", "111703.715000", "111705.205000", "111706.695000", "111708.185000", "111709.675000", "111711.165000", "111712.655000", "111714.145000", "111715.635000", "111717.125000", "111718.615000", "111720.105000", "111721.595000", "111723.085000", "111724.575000", "111726.065000", "111727.555000", "111729.045000", "111730.535000", "111732.025000", "111733.515000", "111735.005000", "111736.495000", "111737.985000", "111739.475000", "111740.965000", "111742.455000", "111743.945000", "111745.435000", "111746.925000", "111748.415000", "111749.905000", "111751.395000", "111752.885000", "111754.375000", "111755.865000", "111757.355000", "111758.845000", "111800.335000", "111801.825000", "111803.315000", "111804.805000", "111806.295000", "111807.785000", "111809.275000", "111810.765000", "111812.255000", "111813.745000", "111815.235000", "111816.725000", "111818.215000", "111819.705000", "111821.195000", "111822.685000", "111824.175000", "111825.665000", "111827.155000", "111828.645000", "111830.135000", "111831.625000", "111833.115000", "111834.605000", "111836.095000", "111837.585000", "111839.075000", "111840.565000", "111842.055000", "111843.545000", "111845.035000", "111846.525000", "111848.015000", "111849.505000", "111850.995000", "111852.485000", "111853.975000", "111855.465000", "111856.955000", "111858.445000", "111859.935000", "111901.425000", "111902.915000", "111904.405000", "111905.895000", "111907.385000", "111908.875000", "111910.365000", "111911.855000", "111913.345000", "111914.835000", "111916.325000", "111917.815000", "111919.305000", "111920.795000"],
      "ContentTime": ["111611.832000", "111611.835000", "111611.838000", "111611.840000", "111611.843000", "111611.845000", "111611.848000", "111611.850000", "111611.853000", "111611.856000", "111611.858000", "111611.861000", "111611.863000", "111611.866000", "111611.868000", "111611.871000", "111611.873000", "111611.876000", "111611.878000", "111611.881000", "111611.883000", "111611.886000", "111611.888000", "111611.891000", "111611.893000", "111611.896000", "111611.898000", "111611.901000", "111611.903000", "111611.906000", "111611.908000", "111611.911000", "111611.913000", "111611.916000", "111611.918000", "111611.921000", "111611.923000", "111611.931000", "111611.933000", "111631.704000", "111631.707000", "111631.709000", "111631.712000", "111631.714000", "111631.717000", "111631.720000", "111631.722000", "111631.725000", "111631.727000", "111631.730000", "111631.732000", "111631.735000", "111631.737000", "111631.740000", "111631.742000", "111631.745000", "111631.748000", "111631.750000", "111631.753000", "111651.691000", "111651.694000", "111651.697000", "111651.699000", "111651.702000", "111651.704000", "111651.707000", "111651.709000", "111651.712000", "111651.715000", "111651.717000", "111651.720000", "111651.722000", "111651.725000", "111651.727000", "111651.730000", "111651.732000", "111651.735000", "111651.737000", "111651.740000", "111711.708000", "111711.711000", "111711.713000", "111711.716000", "111711.718000", "111711.721000", "111711.723000", "111711.726000", "111711.728000", "111711.731000", "111711.734000", "111711.736000", "111711.739000", "111711.741000", "111711.744000", "111711.746000", "111711.749000", "111711.751000", "111711.754000", "111711.756000", "111751.761000", "111751.764000", "111751.766000", "111751.769000", "111751.771000", "111751.774000", "111751.776000", "111751.779000", "111751.781000", "111751.784000", "111751.787000", "111751.789000", "111751.792000", "111751.794000", "111751.797000", "111751.799000", "111751.802000", "111751.804000", "111751.807000", "111751.809000", "111751.812000", "111751.814000", "111751.817000", "111751.819000", "111751.822000", "111751.824000", "111751.827000", "111751.830000", "111751.832000", "111831.724000", "111831.727000", "111831.729000", "111831.732000", "111831.734000", "111831.738000", "111831.741000", "111831.743000", "111831.746000", "111831.748000", "111831.751000", "111831.753000", "111831.756000", "111831.758000", "111831.761000", "111831.763000", "111831.766000", "111831.805000", "111831.808000", "111831.810000", "111831.813000", "111831.815000", "111831.818000", "111831.820000", "111831.823000", "111831.825000", "111831.828000", "111911.720000", "111911.723000", "111911.725000", "111911.728000", "111911.731000", "111911.733000", "111911.736000", "111911.738000", "111911.741000", "111911.743000", "111911.746000", "111911.748000", "111911.751000", "111911.753000", "111911.756000", "111911.758000", "111911.761000", "111911.763000", "111911.766000", "111911.769000", "111911.771000", "111911.774000", "111911.776000", "111911.779000", "111911.782000", "111911.784000", "111911.787000", "111922.648000", "111922.651000", "111922.654000", "111922.656000", "111922.659000", "111922.662000", "111922.664000", "111922.667000"],
      "InstanceCreationTime": ["111611.832000", "111611.835000", "111611.838000", "111611.840000", "111611.843000", "111611.845000", "111611.848000", "111611.850000", "111611.853000", "111611.856000", "111611.858000", "111611.861000", "111611.863000", "111611.866000", "111611.868000", "111611.871000", "111611.873000", "111611.876000", "111611.878000", "111611.881000", "111611.883000", "111611.886000", "111611.888000", "111611.891000", "111611.893000", "111611.896000", "111611.898000", "111611.901000", "111611.903000", "111611.906000", "111611.908000", "111611.911000", "111611.913000", "111611.916000", "111611.918000", "111611.921000", "111611.923000", "111611.931000", "111611.933000", "111631.704000", "111631.707000", "111631.709000", "111631.712000", "111631.714000", "111631.717000", "111631.720000", "111631.722000", "111631.725000", "111631.727000", "111631.730000", "111631.732000", "111631.735000", "111631.737000", "111631.740000", "111631.742000", "111631.745000", "111631.748000", "111631.750000", "111631.753000", "111651.691000", "111651.694000", "111651.697000", "111651.699000", "111651.702000", "111651.704000", "111651.707000", "111651.709000", "111651.712000", "111651.715000", "111651.717000", "111651.720000", "111651.722000", "111651.725000", "111651.727000", "111651.730000", "111651.732000", "111651.735000", "111651.737000", "111651.740000", "111711.708000", "111711.711000", "111711.713000", "111711.716000", "111711.718000", "111711.721000", "111711.723000", "111711.726000", "111711.728000", "111711.731000", "111711.734000", "111711.736000", "111711.739000", "111711.741000", "111711.744000", "111711.746000", "111711.749000", "111711.751000", "111711.754000", "111711.756000", "111751.761000", "111751.764000", "111751.766000", "111751.769000", "111751.771000", "111751.774000", "111751.776000", "111751.779000", "111751.781000", "111751.784000", "111751.787000", "111751.789000", "111751.792000", "111751.794000", "111751.797000", "111751.799000", "111751.802000", "111751.804000", "111751.807000", "111751.809000", "111751.812000", "111751.814000", "111751.817000", "111751.819000", "111751.822000", "111751.824000", "111751.827000", "111751.830000", "111751.832000", "111831.724000", "111831.727000", "111831.729000", "111831.732000", "111831.734000", "111831.738000", "111831.741000", "111831.743000", "111831.746000", "111831.748000", "111831.751000", "111831.753000", "111831.756000", "111831.758000", "111831.761000", "111831.763000", "111831.766000", "111831.805000", "111831.808000", "111831.810000", "111831.813000", "111831.815000", "111831.818000", "111831.820000", "111831.823000", "111831.825000", "111831.828000", "111911.720000", "111911.723000", "111911.725000", "111911.728000", "111911.731000", "111911.733000", "111911.736000", "111911.738000", "111911.741000", "111911.743000", "111911.746000", "111911.748000", "111911.751000", "111911.753000", "111911.756000", "111911.758000", "111911.761000", "111911.763000", "111911.766000", "111911.769000", "111911.771000", "111911.774000", "111911.776000", "111911.779000", "111911.782000", "111911.784000", "111911.787000", "111922.648000", "111922.651000", "111922.654000", "111922.656000", "111922.659000", "111922.662000", "111922.664000", "111922.667000"],
      "InstanceNumber": [1, 2, 3, 4, 5, 6, 7, 8, 9, 10, 11, 12, 13, 14, 15, 16, 17, 18, 19, 20, 21, 22, 23, 24, 25, 26, 27, 28, 29, 30, 31, 32, 33, 34, 35, 36, 37, 38, 39, 40, 41, 42, 43, 44, 45, 46, 47, 48, 49, 50, 51, 52, 53, 54, 55, 56, 57, 58, 59, 60, 61, 62, 63, 64, 65, 66, 67, 68, 69, 70, 71, 72, 73, 74, 75, 76, 77, 78, 79, 80, 81, 82, 83, 84, 85, 86, 87, 88, 89, 90, 91, 92, 93, 94, 95, 96, 97, 98, 99, 100, 101, 102, 103, 104, 105, 106, 107, 108, 109, 110, 111, 112, 113, 114, 115, 116, 117, 118, 119, 120, 121, 122, 123, 124, 125, 126, 127, 128, 129, 130, 131, 132, 133, 134, 135, 136, 137, 138, 139, 140, 141, 142, 143, 144, 145, 146, 147, 148, 149, 150, 151, 152, 153, 154, 155, 156, 157, 158, 159, 160, 161, 162, 163, 164, 165, 166, 167, 168, 169, 170, 171, 172, 173, 174, 175, 176, 177, 178, 179, 180, 181, 182, 183, 184, 185, 186, 187, 188, 189, 190],
      "WindowCenter": [4892.0, 4890.0, 4892.0, 4892.0, 4892.0, 4892.0, 4890.0, 4892.0, 4892.0, 4890.0, 4892.0, 4894.0, 4890.0, 4892.0, 4892.0, 4892.0, 4894.0, 4888.0, 4888.0, 4890.0, 4894.0, 4890.0, 4890.0, 4892.0, 4890.0, 4888.0, 4888.0, 4890.0, 4892.0, 4868.0, 4892.0, 4888.0, 4886.0, 4890.0, 4890.0, 4890.0, 4892.0, 4890.0, 4890.0, 4888.0, 4890.0, 4888.0, 4888.0, 4886.0, 4888.0, 4888.0, 4886.0, 4890.0, 4890.0, 4892.0, 4888.0, 4890.0, 4890.0, 4888.0, 4888.0, 4886.0, 4888.0, 4886.0, 4888.0, 4886.0, 4888.0, 4870.0, 4888.0, 4890.0, 4890.0, 4890.0, 4888.0, 4890.0, 4888.0, 4890.0, 4890.0, 4888.0, 4890.0, 4894.0, 4890.0, 4890.0, 4888.0, 4888.0, 4888.0, 4888.0, 4890.0, 4888.0, 4892.0, 4892.0, 4892.0, 4890.0, 4892.0, 4892.0, 4892.0, 4890.0, 4892.0, 4888.0, 4892.0, 4892.0, 4890.0, 4892.0, 4890.0, 4886.0, 4888.0, 4890.0, 4894.0, 4862.0, 4892.0, 4868.0, 4892.0, 4890.0, 4886.0, 4886.0, 4882.0, 4880.0, 4886.0, 4892.0, 4892.0, 4868.0, 4870.0, 4894.0, 4890.0, 4892.0, 4886.0, 4884.0, 4886.0, 4882.0, 4890.0, 4892.0, 4890.0, 4868.0, 4896.0, 4894.0, 4892.0, 4890.0, 4888.0, 4884.0, 4888.0, 4890.0, 4890.0, 4890.0, 4890.0, 4890.0, 4868.0, 4898.0, 4890.0, 4896.0, 4870.0, 4836.0, 4840.0, 4862.0, 4868.0, 4888.0, 4880.0, 4872.0, 4852.0, 4886.0, 4894.0, 4864.0, 4870.0, 4896.0, 4868.0, 4868.0, 4892.0, 4892.0, 4890.0, 4884.0, 4888.0, 4880.0, 4886.0, 4890.0, 4892.0, 4888.0, 4890.0, 4892.0, 4894.0, 4894.0, 4892.0, 4890.0, 4890.0, 4886.0, 4892.0, 4892.0, 4894.0, 4890.0, 4892.0, 4892.0, 4868.0, 4892.0, 4888.0, 4888.0, 4892.0, 4888.0, 4898.0, 4894.0],
      "WindowWidth": [18650.0, 18640.0, 18652.0, 18650.0, 18654.0, 18648.0, 18650.0, 18652.0, 18650.0, 18644.0, 18650.0, 18652.0, 18646.0, 18648.0, 18656.0, 18650.0, 18648.0, 18648.0, 18648.0, 18646.0, 18656.0, 18652.0, 18644.0, 18646.0, 18646.0, 18648.0, 18648.0, 18650.0, 18648.0, 18622.0, 18644.0, 18638.0, 18646.0, 18640.0, 18652.0, 18648.0, 18652.0, 18646.0, 18652.0, 18648.0, 18640.0, 18654.0, 18646.0, 18646.0, 18648.0, 18652.0, 18638.0, 18640.0, 18654.0, 18644.0, 18654.0, 18650.0, 18654.0, 18650.0, 18652.0, 18638.0, 18648.0, 18634.0, 18646.0, 18640.0, 18650.0, 18618.0, 18648.0, 18648.0, 18636.0, 18650.0, 18642.0, 18652.0, 18640.0, 18654.0, 18642.0, 18648.0, 18646.0, 18654.0, 18646.0, 18650.0, 18644.0, 18648.0, 18642.0, 18650.0, 18644.0, 18652.0, 18646.0, 18650.0, 18650.0, 18640.0, 18650.0, 18642.0, 18650.0, 18644.0, 18650.0, 18640.0, 18656.0, 18650.0, 18650.0, 18644.0, 18646.0, 18632.0, 18644.0, 18648.0, 18650.0, 18622.0, 18646.0, 18626.0, 18650.0, 18656.0, 18640.0, 18640.0, 18636.0, 18636.0, 18638.0, 18650.0, 18646.0, 18616.0, 18616.0, 18652.0, 18646.0, 18646.0, 18640.0, 18638.0, 18640.0, 18638.0, 18646.0, 18644.0, 18646.0, 18620.0, 18642.0, 18652.0, 18648.0, 18648.0, 18632.0, 18636.0, 18646.0, 18642.0, 18648.0, 18632.0, 18634.0, 18646.0, 18622.0, 18634.0, 18630.0, 18638.0, 18620.0, 18580.0, 18594.0, 18620.0, 18618.0, 18650.0, 18644.0, 18658.0, 18612.0, 18646.0, 18646.0, 18620.0, 18610.0, 18638.0, 18620.0, 18616.0, 18646.0, 18654.0, 18646.0, 18640.0, 18646.0, 18636.0, 18648.0, 18642.0, 18648.0, 18642.0, 18650.0, 18642.0, 18650.0, 18646.0, 18650.0, 18648.0, 18648.0, 18644.0, 18644.0, 18646.0, 18644.0, 18652.0, 18646.0, 18644.0, 18616.0, 18640.0, 18636.0, 18646.0, 18646.0, 18644.0, 18650.0, 18648.0]
    },
    "slices": {}
  }
}