{
  "AcquisitionMatrixPE": 104,
  "AcquisitionNumber": 1,
  "AcquisitionTime": "11:20:47.855000",
  "BandwidthPerPixelPhaseEncode": 17.17,
  "BaseResolution": 104,
  "BodyPartExamined": "BRAIN",
  "CoilString": "HC1-7;NC1_2",
  "ConsistencyInfo": "N4_VE11C_LATEST_20160120",
  "ConversionSoftware": "dcm2niix",
  "ConversionSoftwareVersion": "v1.0.20190902",
  "DerivedVendorReportedEchoSpacing": 0.000560011,
  "DeviceSerialNumber": "167006",
  "DwellTime": 2.1e-06,
  "EchoTime": 0.037,
  "EchoTrainLength": 104,
  "EffectiveEchoSpacing": 0.000560011,
  "FlipAngle": 52,
  "ImageComments": "Unaliased_MB4_PE3_LB",
  "ImageOrientationPatientDICOM": [0.999356, 0.00200214, 0.0358245, 0.016397, 0.862602, -0.505617],
  "ImageType": [
    "ORIGINAL",
    "PRIMARY",
    "M",
    "MB",
    "ND",
    "MOSAIC"
],
  "ImagingFrequency": 123.259,
  "InPlanePhaseEncodingDirectionDICOM": "COL",
  "InstitutionAddress": "Chemin_Queen-Mary_4565_Montreal_District_CA_H3W_1W5",
  "InstitutionName": "IUGM",
  "InstitutionalDepartmentName": "Department",
  "MRAcquisitionType": "2D",
  "MagneticFieldStrength": 3,
  "Manufacturer": "Siemens",
  "ManufacturersModelName": "Prisma_fit",
  "Modality": "MR",
  "MultibandAccelerationFactor": 4,
  "PartialFourier": 1,
  "PatientPosition": "HFS",
  "PercentPhaseFOV": 100,
  "PhaseEncodingDirection": "j",
  "PhaseEncodingSteps": 104,
  "PhaseResolution": 1,
  "PixelBandwidth": 2290,
  "ProcedureStepDescription": "memory_things",
  "ProtocolName": "func_task-things_run-5",
  "PulseSequenceDetails": "%CustomerSeq%_cmrr_mbep2d_bold",
  "ReceiveCoilActiveElements": "HC1-7;NC1,2",
  "ReceiveCoilName": "HeadNeck_64",
  "ReconMatrixPE": 104,
  "RepetitionTime": 1.49,
  "SAR": 0.0559572,
  "ScanOptions": "FS",
  "ScanningSequence": "EP",
  "SequenceName": "epfid2d1_104",
  "SequenceVariant": "SK_SS",
  "SeriesDescription": "func_task-things_run-5",
  "SeriesNumber": 22,
  "ShimSetting": [611, -7188, -8864, 300, -47, -99, 30, -52],
  "SliceThickness": 2,
  "SliceTiming": [0, 0.785, 0.0975, 0.8825, 0.1975, 0.98, 0.295, 1.0775, 0.3925, 1.175, 0.49, 1.275, 0.5875, 1.3725, 0.685, 0, 0.785, 0.0975, 0.8825, 0.1975, 0.98, 0.295, 1.0775, 0.3925, 1.175, 0.49, 1.275, 0.5875, 1.3725, 0.685, 0, 0.785, 0.0975, 0.8825, 0.1975, 0.98, 0.295, 1.0775, 0.3925, 1.175, 0.49, 1.275, 0.5875, 1.3725, 0.685, 0, 0.785, 0.0975, 0.8825, 0.1975, 0.98, 0.295, 1.0775, 0.3925, 1.175, 0.49, 1.275, 0.5875, 1.3725, 0.685],
  "SoftwareVersions": "syngo_MR_E11",
  "SpacingBetweenSlices": 2,
  "StationName": "MRC35049",
  "TaskName": "things",
  "TotalReadoutTime": 0.0576811,
  "TxRefAmp": 283.496,
  "WipMemBlock": "d217f71c-f985-4d0d-a169-b6ee1bcbfd48||Sequence: R016 ve11c/master r/e634e98; Dec 19 2017 11:00:25 by eja",
  "dcmmeta_affine": [
    [-1.998712182044983, 0.03279399499297142, 0.06382926553487778, 104.20185089111328],
    [-0.004004288464784622, 1.725204348564148, -1.0117578506469727, -51.22603988647461],
    [0.07164905220270157, 1.011234164237976, 1.7240277528762817, -92.75532531738281],
    [0.0, 0.0, 0.0, 1.0]
],
  "dcmmeta_reorient_transform": [
    [0.0, -1.0, 0.0, 103.0],
    [1.0, 0.0, 0.0, 0.0],
    [0.0, 0.0, 1.0, 0.0],
    [0.0, 0.0, 0.0, 1.0]
],
  "dcmmeta_shape": [104, 104, 60, 190],
  "dcmmeta_slice_dim": 2,
  "dcmmeta_version": 0.6,
  "global": {
    "const": {
      "AcquisitionMatrix": [104, 0, 0, 104],
      "AngioFlag": "N",
      "BitsAllocated": 16,
      "BitsStored": 16,
      "BodyPartExamined": "BRAIN",
      "Columns": 832,
      "EchoNumbers": 1,
      "EchoTime": 37.0,
      "EchoTrainLength": 104,
      "FlipAngle": 52.0,
      "HighBit": 15,
      "ImageOrientationPatient": [0.99935609005882, 0.00200214428082, 0.03582452624434, 0.01639699707, 0.86260216340816, -0.5056170944209],
      "ImagePositionPatient": [-847.04787853928, -755.90194290226, 353.41078601613],
      "ImageType": [
        "ORIGINAL",
        "PRIMARY",
        "M",
        "MB",
        "ND",
        "MOSAIC"
],
      "ImagedNucleus": "1H",
      "ImagingFrequency": 123.259181,
      "InPlanePhaseEncodingDirection": "COL",
      "MRAcquisitionType": "2D",
      "MagneticFieldStrength": 3.0,
      "Manufacturer": "SIEMENS",
      "ManufacturerModelName": "Prisma_fit",
      "Modality": "MR",
      "NumberOfAverages": 1.0,
      "NumberOfPhaseEncodingSteps": 104,
      "PercentPhaseFieldOfView": 100.0,
      "PercentSampling": 100.0,
      "PerformedProcedureStepStartTime": "103444.165000",
      "PhotometricInterpretation": "MONOCHROME2",
      "PixelBandwidth": 2290.0,
      "PixelRepresentation": 0,
      "PixelSpacing": [2.0, 2.0],
      "ProtocolName": "func_task-things_run-5",
      "RepetitionTime": 1490.0,
      "Rows": 832,
      "SAR": 0.05595723847466,
      "SamplesPerPixel": 1,
      "ScanOptions": "FS",
      "ScanningSequence": "EP",
      "SequenceName": "epfid2d1_104",
      "SequenceVariant": [
        "SK",
        "SS"
],
      "SeriesDescription": "func_task-things_run-5",
      "SeriesNumber": 22,
      "SeriesTime": "112200.324000",
      "SliceLocation": -50.716641396134,
      "SliceThickness": 2.0,
      "SmallestImagePixelValue": 0,
      "SoftwareVersions": "syngo MR E11",
      "SpacingBetweenSlices": 1.9999999977921,
      "SpecificCharacterSet": "ISO_IR 100",
      "StudyID": "1",
      "StudyTime": "103444.107000",
      "TransmitCoilName": "Body",
      "VariableFlipAngleFlag": "N",
      "WindowCenterWidthExplanation": "Algo1",
      "dBdt": 0.0},
    "slices": {}
  },
  "time": {
    "samples": {
      "AcquisitionNumber": [1, 2, 3, 4, 5, 6, 7, 8, 9, 10, 11, 12, 13, 14, 15, 16, 17, 18, 19, 20, 21, 22, 23, 24, 25, 26, 27, 28, 29, 30, 31, 32, 33, 34, 35, 36, 37, 38, 39, 40, 41, 42, 43, 44, 45, 46, 47, 48, 49, 50, 51, 52, 53, 54, 55, 56, 57, 58, 59, 60, 61, 62, 63, 64, 65, 66, 67, 68, 69, 70, 71, 72, 73, 74, 75, 76, 77, 78, 79, 80, 81, 82, 83, 84, 85, 86, 87, 88, 89, 90, 91, 92, 93, 94, 95, 96, 97, 98, 99, 100, 101, 102, 103, 104, 105, 106, 107, 108, 109, 110, 111, 112, 113, 114, 115, 116, 117, 118, 119, 120, 121, 122, 123, 124, 125, 126, 127, 128, 129, 130, 131, 132, 133, 134, 135, 136, 137, 138, 139, 140, 141, 142, 143, 144, 145, 146, 147, 148, 149, 150, 151, 152, 153, 154, 155, 156, 157, 158, 159, 160, 161, 162, 163, 164, 165, 166, 167, 168, 169, 170, 171, 172, 173, 174, 175, 176, 177, 178, 179, 180, 181, 182, 183, 184, 185, 186, 187, 188, 189, 190],
      "AcquisitionTime": ["112047.855000", "112049.345000", "112050.835000", "112052.325000", "112053.815000", "112055.305000", "112056.795000", "112058.285000", "112059.775000", "112101.265000", "112102.755000", "112104.245000", "112105.735000", "112107.225000", "112108.715000", "112110.205000", "112111.695000", "112113.185000", "112114.675000", "112116.165000", "112117.655000", "112119.145000", "112120.635000", "112122.125000", "112123.615000", "112125.105000", "112126.595000", "112128.085000", "112129.575000", "112131.065000", "112132.555000", "112134.045000", "112135.535000", "112137.025000", "112138.515000", "112140.005000", "112141.495000", "112142.985000", "112144.475000", "112145.965000", "112147.455000", "112148.945000", "112150.435000", "112151.925000", "112153.415000", "112154.905000", "112156.395000", "112157.885000", "112159.375000", "112200.865000", "112202.355000", "112203.845000", "112205.335000", "112206.825000", "112208.315000", "112209.805000", "112211.295000", "112212.785000", "112214.275000", "112215.765000", "112217.255000", "112218.745000", "112220.235000", "112221.725000", "112223.215000", "112224.705000", "112226.195000", "112227.685000", "112229.175000", "112230.665000", "112232.155000", "112233.645000", "112235.135000", "112236.625000", "112238.115000", "112239.605000", "112241.095000", "112242.585000", "112244.075000", "112245.565000", "112247.055000", "112248.545000", "112250.035000", "112251.525000", "112253.015000", "112254.505000", "112255.995000", "112257.485000", "112258.975000", "112300.465000", "112301.955000", "112303.445000", "112304.935000", "112306.425000", "112307.915000", "112309.405000", "112310.895000", "112312.385000", "112313.875000", "112315.365000", "112316.855000", "112318.345000", "112319.835000", "112321.325000", "112322.815000", "112324.305000", "112325.795000", "112327.285000", "112328.775000", "112330.265000", "112331.755000", "112333.245000", "112334.735000", "112336.225000", "112337.715000", "112339.205000", "112340.695000", "112342.185000", "112343.675000", "112345.165000", "112346.655000", "112348.145000", "112349.635000", "112351.125000", "112352.615000", "112354.105000", "112355.595000", "112357.085000", "112358.575000", "112400.065000", "112401.555000", "112403.045000", "112404.535000", "112406.025000", "112407.515000", "112409.005000", "112410.495000", "112411.985000", "112413.475000", "112414.965000", "112416.455000", "112417.945000", "112419.435000", "112420.925000", "112422.415000", "112423.905000", "112425.395000", "112426.885000", "112428.375000", "112429.865000", "112431.355000", "112432.845000", "112434.335000", "112435.825000", "112437.315000", "112438.805000", "112440.295000", "112441.785000", "112443.275000", "112444.765000", "112446.255000", "112447.745000", "112449.235000", "112450.725000", "112452.215000", "112453.705000", "112455.195000", "112456.685000", "112458.175000", "112459.665000", "112501.155000", "112502.645000", "112504.135000", "112505.625000", "112507.115000", "112508.605000", "112510.095000", "112511.585000", "112513.075000", "112514.565000", "112516.055000", "112517.545000", "112519.035000", "112520.525000", "112522.015000", "112523.505000", "112524.995000", "112526.485000", "112527.975000", "112529.465000"],
      "ContentTime": ["112200.328000", "112200.332000", "112200.339000", "112200.343000", "112200.346000", "112200.350000", "112200.353000", "112200.356000", "112200.360000", "112200.363000", "112200.367000", "112200.370000", "112200.373000", "112200.377000", "112200.380000", "112200.384000", "112200.395000", "112200.398000", "112220.291000", "112220.295000", "112220.299000", "112220.302000", "112220.306000", "112220.309000", "112220.312000", "112220.316000", "112220.320000", "112220.325000", "112220.330000", "112220.334000", "112220.338000", "112220.341000", "112220.344000", "112220.348000", "112220.351000", "112220.355000", "112220.358000", "112220.361000", "112240.291000", "112240.295000", "112240.298000", "112240.301000", "112240.305000", "112240.308000", "112240.312000", "112240.315000", "112240.319000", "112240.322000", "112240.326000", "112240.329000", "112240.333000", "112240.336000", "112240.339000", "112240.343000", "112240.346000", "112240.349000", "112240.353000", "112240.356000", "112240.359000", "112300.291000", "112300.295000", "112300.298000", "112300.302000", "112300.305000", "112300.308000", "112300.312000", "112300.315000", "112300.318000", "112300.322000", "112300.325000", "112300.329000", "112300.332000", "112300.336000", "112300.339000", "112300.342000", "112300.346000", "112300.349000", "112300.352000", "112300.356000", "112320.291000", "112320.295000", "112320.298000", "112320.302000", "112320.305000", "112320.309000", "112320.312000", "112320.315000", "112320.319000", "112320.322000", "112320.326000", "112320.329000", "112320.333000", "112320.336000", "112320.339000", "112320.343000", "112320.346000", "112320.349000", "112320.353000", "112320.356000", "112400.290000", "112400.311000", "112400.315000", "112400.318000", "112400.339000", "112400.343000", "112400.346000", "112400.350000", "112400.353000", "112400.356000", "112400.360000", "112400.363000", "112400.366000", "112400.370000", "112400.373000", "112400.377000", "112400.380000", "112400.383000", "112400.387000", "112400.390000", "112400.394000", "112400.397000", "112400.400000", "112400.404000", "112400.407000", "112400.410000", "112400.414000", "112400.417000", "112400.421000", "112440.291000", "112440.295000", "112440.299000", "112440.302000", "112440.305000", "112440.309000", "112440.312000", "112440.316000", "112440.319000", "112440.323000", "112440.326000", "112440.329000", "112440.333000", "112440.336000", "112440.339000", "112440.343000", "112440.346000", "112440.350000", "112440.353000", "112440.356000", "112440.360000", "112440.363000", "112440.366000", "112440.370000", "112440.373000", "112440.377000", "112440.380000", "112520.291000", "112520.295000", "112520.303000", "112520.307000", "112520.310000", "112520.313000", "112520.317000", "112520.320000", "112520.324000", "112520.327000", "112520.330000", "112520.334000", "112520.337000", "112520.341000", "112520.344000", "112520.347000", "112520.351000", "112520.354000", "112520.357000", "112520.361000", "112520.364000", "112520.368000", "112520.371000", "112520.374000", "112520.378000", "112520.381000", "112520.384000", "112531.565000", "112531.568000", "112531.572000", "112531.576000", "112531.579000", "112531.583000", "112531.586000", "112531.590000"],
      "InstanceCreationTime": ["112200.328000", "112200.332000", "112200.339000", "112200.343000", "112200.346000", "112200.350000", "112200.353000", "112200.356000", "112200.360000", "112200.363000", "112200.367000", "112200.370000", "112200.373000", "112200.377000", "112200.380000", "112200.384000", "112200.395000", "112200.398000", "112220.291000", "112220.295000", "112220.299000", "112220.302000", "112220.306000", "112220.309000", "112220.312000", "112220.316000", "112220.320000", "112220.325000", "112220.330000", "112220.334000", "112220.338000", "112220.341000", "112220.344000", "112220.348000", "112220.351000", "112220.355000", "112220.358000", "112220.361000", "112240.291000", "112240.295000", "112240.298000", "112240.301000", "112240.305000", "112240.308000", "112240.312000", "112240.315000", "112240.319000", "112240.322000", "112240.326000", "112240.329000", "112240.333000", "112240.336000", "112240.339000", "112240.343000", "112240.346000", "112240.349000", "112240.353000", "112240.356000", "112240.359000", "112300.291000", "112300.295000", "112300.298000", "112300.302000", "112300.305000", "112300.308000", "112300.312000", "112300.315000", "112300.318000", "112300.322000", "112300.325000", "112300.329000", "112300.332000", "112300.336000", "112300.339000", "112300.342000", "112300.346000", "112300.349000", "112300.352000", "112300.356000", "112320.291000", "112320.295000", "112320.298000", "112320.302000", "112320.305000", "112320.309000", "112320.312000", "112320.315000", "112320.319000", "112320.322000", "112320.326000", "112320.329000", "112320.333000", "112320.336000", "112320.339000", "112320.343000", "112320.346000", "112320.349000", "112320.353000", "112320.356000", "112400.290000", "112400.311000", "112400.315000", "112400.318000", "112400.339000", "112400.343000", "112400.346000", "112400.350000", "112400.353000", "112400.356000", "112400.360000", "112400.363000", "112400.366000", "112400.370000", "112400.373000", "112400.377000", "112400.380000", "112400.383000", "112400.387000", "112400.390000", "112400.394000", "112400.397000", "112400.400000", "112400.404000", "112400.407000", "112400.410000", "112400.414000", "112400.417000", "112400.421000", "112440.291000", "112440.295000", "112440.299000", "112440.302000", "112440.305000", "112440.309000", "112440.312000", "112440.316000", "112440.319000", "112440.323000", "112440.326000", "112440.329000", "112440.333000", "112440.336000", "112440.339000", "112440.343000", "112440.346000", "112440.350000", "112440.353000", "112440.356000", "112440.360000", "112440.363000", "112440.366000", "112440.370000", "112440.373000", "112440.377000", "112440.380000", "112520.291000", "112520.295000", "112520.303000", "112520.307000", "112520.310000", "112520.313000", "112520.317000", "112520.320000", "112520.324000", "112520.327000", "112520.330000", "112520.334000", "112520.337000", "112520.341000", "112520.344000", "112520.347000", "112520.351000", "112520.354000", "112520.357000", "112520.361000", "112520.364000", "112520.368000", "112520.371000", "112520.374000", "112520.378000", "112520.381000", "112520.384000", "112531.565000", "112531.568000", "112531.572000", "112531.576000", "112531.579000", "112531.583000", "112531.586000", "112531.590000"],
      "InstanceNumber": [1, 2, 3, 4, 5, 6, 7, 8, 9, 10, 11, 12, 13, 14, 15, 16, 17, 18, 19, 20, 21, 22, 23, 24, 25, 26, 27, 28, 29, 30, 31, 32, 33, 34, 35, 36, 37, 38, 39, 40, 41, 42, 43, 44, 45, 46, 47, 48, 49, 50, 51, 52, 53, 54, 55, 56, 57, 58, 59, 60, 61, 62, 63, 64, 65, 66, 67, 68, 69, 70, 71, 72, 73, 74, 75, 76, 77, 78, 79, 80, 81, 82, 83, 84, 85, 86, 87, 88, 89, 90, 91, 92, 93, 94, 95, 96, 97, 98, 99, 100, 101, 102, 103, 104, 105, 106, 107, 108, 109, 110, 111, 112, 113, 114, 115, 116, 117, 118, 119, 120, 121, 122, 123, 124, 125, 126, 127, 128, 129, 130, 131, 132, 133, 134, 135, 136, 137, 138, 139, 140, 141, 142, 143, 144, 145, 146, 147, 148, 149, 150, 151, 152, 153, 154, 155, 156, 157, 158, 159, 160, 161, 162, 163, 164, 165, 166, 167, 168, 169, 170, 171, 172, 173, 174, 175, 176, 177, 178, 179, 180, 181, 182, 183, 184, 185, 186, 187, 188, 189, 190],
      "LargestImagePixelValue": [47844, 48131, 46107, 45424, 47719, 45415, 45559, 48941, 46081, 45215, 46220, 48079, 47884, 49746, 48607, 46412, 47502, 47502, 46044, 47463, 46790, 45979, 46575, 47562, 46298, 46807, 46052, 45433, 46483, 46780, 48523, 49544, 47608, 45500, 45427, 46131, 46937, 48465, 48448, 47887, 47614, 46059, 44967, 45971, 46438, 45968, 46266, 47848, 48008, 47704, 48041, 47417, 46734, 45350, 45316, 47662, 45720, 45101, 46954, 47081, 47060, 48694, 47558, 47803, 48196, 45974, 47345, 45688, 47322, 46265, 47757, 46223, 47266, 47591, 46936, 47059, 47405, 45484, 47859, 45684, 46108, 46847, 45165, 47548, 46355, 47182, 46769, 47004, 46714, 45677, 46954, 45900, 47446, 46051, 46635, 46140, 46853, 46850, 47004, 47003, 47037, 46876, 46167, 46755, 47901, 46778, 47395, 46242, 45590, 47479, 46048, 46846, 46108, 47319, 46807, 47604, 46392, 47876, 47244, 47368, 46409, 47778, 46359, 46959, 47289, 46552, 48757, 47133, 48317, 46869, 47969, 46748, 47048, 46694, 46216, 46773, 48145, 46952, 47481, 47911, 46754, 47378, 46751, 47265, 47101, 47470, 46381, 48103, 47325, 48042, 48217, 47864, 45970, 47036, 46427, 47095, 47261, 48658, 47940, 47598, 48801, 47450, 47853, 47432, 46904, 47765, 47971, 47820, 46729, 48194, 46191, 48343, 46932, 46381, 47229, 46437, 47685, 46421, 48831, 45954, 47107, 47239, 45397, 48352, 46998, 46446, 45504, 46288, 46638, 47121],
      "WindowCenter": [11162.0, 11123.0, 11090.0, 11093.0, 11156.0, 11145.0, 11127.0, 11148.0, 11128.0, 11113.0, 11098.0, 11099.0, 11107.0, 11147.0, 11152.0, 11119.0, 11093.0, 11079.0, 11077.0, 11095.0, 11104.0, 11105.0, 11101.0, 11103.0, 11097.0, 11105.0, 11098.0, 11095.0, 11099.0, 11111.0, 11148.0, 11187.0, 11169.0, 11130.0, 11090.0, 11103.0, 11141.0, 11172.0, 11174.0, 11146.0, 11129.0, 11116.0, 11114.0, 11118.0, 11112.0, 11105.0, 11116.0, 11133.0, 11158.0, 11154.0, 11155.0, 11164.0, 11169.0, 11167.0, 11144.0, 11138.0, 11113.0, 11112.0, 11127.0, 11141.0, 11156.0, 11178.0, 11163.0, 11145.0, 11132.0, 11113.0, 11120.0, 11106.0, 11121.0, 11117.0, 11118.0, 11103.0, 11104.0, 11110.0, 11106.0, 11123.0, 11137.0, 11136.0, 11150.0, 11117.0, 11106.0, 11107.0, 11107.0, 11124.0, 11124.0, 11138.0, 11136.0, 11134.0, 11110.0, 11091.0, 11096.0, 11072.0, 11091.0, 11089.0, 11096.0, 11085.0, 11096.0, 11108.0, 11120.0, 11114.0, 11105.0, 11090.0, 11085.0, 11086.0, 11112.0, 11121.0, 11138.0, 11121.0, 11094.0, 11101.0, 11083.0, 11078.0, 11086.0, 11105.0, 11100.0, 11110.0, 11087.0, 11099.0, 11076.0, 11075.0, 11074.0, 11090.0, 11080.0, 11090.0, 11092.0, 11092.0, 11108.0, 11092.0, 11101.0, 11089.0, 11114.0, 11099.0, 11096.0, 11099.0, 11093.0, 11095.0, 11105.0, 11094.0, 11102.0, 11097.0, 11087.0, 11088.0, 11076.0, 11081.0, 11091.0, 11089.0, 11082.0, 11104.0, 11105.0, 11104.0, 11095.0, 11095.0, 11076.0, 11066.0, 11037.0, 11044.0, 11057.0, 11101.0, 11110.0, 11103.0, 11103.0, 11081.0, 11078.0, 11064.0, 11068.0, 11078.0, 11092.0, 11089.0, 11082.0, 11085.0, 11049.0, 11071.0, 11074.0, 11089.0, 11107.0, 11098.0, 11100.0, 11083.0, 11098.0, 11060.0, 11063.0, 11047.0, 11035.0, 11080.0, 11075.0, 11067.0, 11054.0, 11045.0, 11050.0, 11065.0],
      "WindowWidth": [24155.0, 24025.0, 23934.0, 23931.0, 24067.0, 24045.0, 24002.0, 24032.0, 23995.0, 23967.0, 23927.0, 23919.0, 23936.0, 24022.0, 24038.0, 23971.0, 23906.0, 23872.0, 23873.0, 23908.0, 23931.0, 23937.0, 23924.0, 23925.0, 23917.0, 23935.0, 23920.0, 23919.0, 23924.0, 23948.0, 24028.0, 24121.0, 24091.0, 24012.0, 23916.0, 23937.0, 24019.0, 24089.0, 24090.0, 24025.0, 23985.0, 23963.0, 23967.0, 23976.0, 23961.0, 23942.0, 23966.0, 23997.0, 24054.0, 24048.0, 24052.0, 24070.0, 24085.0, 24087.0, 24037.0, 24016.0, 23963.0, 23964.0, 23991.0, 24018.0, 24052.0, 24097.0, 24065.0, 24022.0, 23990.0, 23954.0, 23968.0, 23945.0, 23970.0, 23964.0, 23963.0, 23934.0, 23929.0, 23944.0, 23938.0, 23978.0, 24007.0, 24015.0, 24037.0, 23972.0, 23946.0, 23944.0, 23950.0, 23979.0, 23982.0, 24009.0, 24008.0, 24006.0, 23948.0, 23908.0, 23915.0, 23867.0, 23901.0, 23905.0, 23916.0, 23891.0, 23913.0, 23941.0, 23965.0, 23950.0, 23931.0, 23898.0, 23888.0, 23888.0, 23942.0, 23969.0, 24009.0, 23975.0, 23918.0, 23928.0, 23889.0, 23873.0, 23893.0, 23930.0, 23923.0, 23943.0, 23895.0, 23916.0, 23865.0, 23861.0, 23860.0, 23893.0, 23875.0, 23894.0, 23902.0, 23907.0, 23933.0, 23901.0, 23916.0, 23896.0, 23952.0, 23921.0, 23913.0, 23924.0, 23911.0, 23908.0, 23930.0, 23907.0, 23923.0, 23909.0, 23891.0, 23889.0, 23865.0, 23875.0, 23899.0, 23895.0, 23886.0, 23931.0, 23935.0, 23931.0, 23902.0, 23905.0, 23871.0, 23842.0, 23779.0, 23791.0, 23815.0, 23916.0, 23940.0, 23925.0, 23916.0, 23874.0, 23868.0, 23838.0, 23849.0, 23867.0, 23898.0, 23894.0, 23883.0, 23884.0, 23809.0, 23849.0, 23861.0, 23900.0, 23936.0, 23919.0, 23916.0, 23880.0, 23907.0, 23829.0, 23830.0, 23795.0, 23776.0, 23869.0, 23862.0, 23848.0, 23823.0, 23797.0, 23806.0, 23837.0]
    },
    "slices": {}
  }
}