{
  "AcquisitionMatrixPE": 104,
  "AcquisitionNumber": 1,
  "AcquisitionTime": "11:08:27.707500",
  "BandwidthPerPixelPhaseEncode": 17.17,
  "BaseResolution": 104,
  "BodyPartExamined": "BRAIN",
  "CoilString": "HC1-7;NC1_2",
  "ConsistencyInfo": "N4_VE11C_LATEST_20160120",
  "ConversionSoftware": "dcm2niix",
  "ConversionSoftwareVersion": "v1.0.20190902",
  "DerivedVendorReportedEchoSpacing": 0.000560011,
  "DeviceSerialNumber": "167006",
  "DwellTime": 2.1e-06,
  "EchoTime": 0.037,
  "EchoTrainLength": 104,
  "EffectiveEchoSpacing": 0.000560011,
  "FlipAngle": 52,
  "ImageComments": "Unaliased_MB4_PE3_LB",
  "ImageOrientationPatientDICOM": [0.999356, 0.00200214, 0.0358245, 0.016397, 0.862602, -0.505617],
  "ImageType": [
    "ORIGINAL",
    "PRIMARY",
    "M",
    "MB",
    "ND",
    "MOSAIC"
],
  "ImagingFrequency": 123.259,
  "InPlanePhaseEncodingDirectionDICOM": "COL",
  "InstitutionAddress": "Chemin_Queen-Mary_4565_Montreal_District_CA_H3W_1W5",
  "InstitutionName": "IUGM",
  "InstitutionalDepartmentName": "Department",
  "MRAcquisitionType": "2D",
  "MagneticFieldStrength": 3,
  "Manufacturer": "Siemens",
  "ManufacturersModelName": "Prisma_fit",
  "Modality": "MR",
  "MultibandAccelerationFactor": 4,
  "PartialFourier": 1,
  "PatientPosition": "HFS",
  "PercentPhaseFOV": 100,
  "PhaseEncodingDirection": "j",
  "PhaseEncodingSteps": 104,
  "PhaseResolution": 1,
  "PixelBandwidth": 2290,
  "ProcedureStepDescription": "memory_things",
  "ProtocolName": "func_task-things_run-3",
  "PulseSequenceDetails": "%CustomerSeq%_cmrr_mbep2d_bold",
  "ReceiveCoilActiveElements": "HC1-7;NC1,2",
  "ReceiveCoilName": "HeadNeck_64",
  "ReconMatrixPE": 104,
  "RepetitionTime": 1.49,
  "SAR": 0.0559572,
  "ScanOptions": "FS",
  "ScanningSequence": "EP",
  "SequenceName": "epfid2d1_104",
  "SequenceVariant": "SK_SS",
  "SeriesDescription": "func_task-things_run-3",
  "SeriesNumber": 16,
  "ShimSetting": [611, -7188, -8864, 300, -47, -99, 30, -52],
  "SliceThickness": 2,
  "SliceTiming": [0, 0.785, 0.0975, 0.8825, 0.1975, 0.98, 0.295, 1.0775, 0.3925, 1.1775, 0.49, 1.275, 0.5875, 1.3725, 0.6875, 0, 0.785, 0.0975, 0.8825, 0.1975, 0.98, 0.295, 1.0775, 0.3925, 1.1775, 0.49, 1.275, 0.5875, 1.3725, 0.6875, 0, 0.785, 0.0975, 0.8825, 0.1975, 0.98, 0.295, 1.0775, 0.3925, 1.1775, 0.49, 1.275, 0.5875, 1.3725, 0.6875, 0, 0.785, 0.0975, 0.8825, 0.1975, 0.98, 0.295, 1.0775, 0.3925, 1.1775, 0.49, 1.275, 0.5875, 1.3725, 0.6875],
  "SoftwareVersions": "syngo_MR_E11",
  "SpacingBetweenSlices": 2,
  "StationName": "MRC35049",
  "TaskName": "things",
  "TotalReadoutTime": 0.0576811,
  "TxRefAmp": 283.496,
  "WipMemBlock": "d975fbc0-e209-4b2d-9f03-bc3686f83207||Sequence: R016 ve11c/master r/e634e98; Dec 19 2017 11:00:25 by eja",
  "dcmmeta_affine": [
    [-1.998712182044983, 0.03279399499297142, 0.06382926553487778, 104.20185089111328],
    [-0.004004288464784622, 1.725204348564148, -1.0117578506469727, -51.22603988647461],
    [0.07164905220270157, 1.011234164237976, 1.7240277528762817, -92.75532531738281],
    [0.0, 0.0, 0.0, 1.0]
],
  "dcmmeta_reorient_transform": [
    [0.0, -1.0, 0.0, 103.0],
    [1.0, 0.0, 0.0, 0.0],
    [0.0, 0.0, 1.0, 0.0],
    [0.0, 0.0, 0.0, 1.0]
],
  "dcmmeta_shape": [104, 104, 60, 190],
  "dcmmeta_slice_dim": 2,
  "dcmmeta_version": 0.6,
  "global": {
    "const": {
      "AcquisitionMatrix": [104, 0, 0, 104],
      "AngioFlag": "N",
      "BitsAllocated": 16,
      "BitsStored": 16,
      "BodyPartExamined": "BRAIN",
      "Columns": 832,
      "EchoNumbers": 1,
      "EchoTime": 37.0,
      "EchoTrainLength": 104,
      "FlipAngle": 52.0,
      "HighBit": 15,
      "ImageOrientationPatient": [0.99935609005882, 0.00200214428082, 0.03582452624434, 0.01639699707, 0.86260216340816, -0.5056170944209],
      "ImagePositionPatient": [-847.04787853928, -755.90194290226, 353.41078601613],
      "ImageType": [
        "ORIGINAL",
        "PRIMARY",
        "M",
        "MB",
        "ND",
        "MOSAIC"
],
      "ImagedNucleus": "1H",
      "ImagingFrequency": 123.259176,
      "InPlanePhaseEncodingDirection": "COL",
      "MRAcquisitionType": "2D",
      "MagneticFieldStrength": 3.0,
      "Manufacturer": "SIEMENS",
      "ManufacturerModelName": "Prisma_fit",
      "Modality": "MR",
      "NumberOfAverages": 1.0,
      "NumberOfPhaseEncodingSteps": 104,
      "PercentPhaseFieldOfView": 100.0,
      "PercentSampling": 100.0,
      "PerformedProcedureStepStartTime": "103444.165000",
      "PhotometricInterpretation": "MONOCHROME2",
      "PixelBandwidth": 2290.0,
      "PixelRepresentation": 0,
      "PixelSpacing": [2.0, 2.0],
      "ProtocolName": "func_task-things_run-3",
      "RepetitionTime": 1490.0,
      "Rows": 832,
      "SAR": 0.05595723847466,
      "SamplesPerPixel": 1,
      "ScanOptions": "FS",
      "ScanningSequence": "EP",
      "SequenceName": "epfid2d1_104",
      "SequenceVariant": [
        "SK",
        "SS"
],
      "SeriesDescription": "func_task-things_run-3",
      "SeriesNumber": 16,
      "SeriesTime": "110954.967000",
      "SliceLocation": -50.716641396134,
      "SliceThickness": 2.0,
      "SmallestImagePixelValue": 0,
      "SoftwareVersions": "syngo MR E11",
      "SpacingBetweenSlices": 1.9999999977921,
      "SpecificCharacterSet": "ISO_IR 100",
      "StudyID": "1",
      "StudyTime": "103444.107000",
      "TransmitCoilName": "Body",
      "VariableFlipAngleFlag": "N",
      "WindowCenterWidthExplanation": "Algo1",
      "dBdt": 0.0},
    "slices": {}
  },
  "time": {
    "samples": {
      "AcquisitionNumber": [1, 2, 3, 4, 5, 6, 7, 8, 9, 10, 11, 12, 13, 14, 15, 16, 17, 18, 19, 20, 21, 22, 23, 24, 25, 26, 27, 28, 29, 30, 31, 32, 33, 34, 35, 36, 37, 38, 39, 40, 41, 42, 43, 44, 45, 46, 47, 48, 49, 50, 51, 52, 53, 54, 55, 56, 57, 58, 59, 60, 61, 62, 63, 64, 65, 66, 67, 68, 69, 70, 71, 72, 73, 74, 75, 76, 77, 78, 79, 80, 81, 82, 83, 84, 85, 86, 87, 88, 89, 90, 91, 92, 93, 94, 95, 96, 97, 98, 99, 100, 101, 102, 103, 104, 105, 106, 107, 108, 109, 110, 111, 112, 113, 114, 115, 116, 117, 118, 119, 120, 121, 122, 123, 124, 125, 126, 127, 128, 129, 130, 131, 132, 133, 134, 135, 136, 137, 138, 139, 140, 141, 142, 143, 144, 145, 146, 147, 148, 149, 150, 151, 152, 153, 154, 155, 156, 157, 158, 159, 160, 161, 162, 163, 164, 165, 166, 167, 168, 169, 170, 171, 172, 173, 174, 175, 176, 177, 178, 179, 180, 181, 182, 183, 184, 185, 186, 187, 188, 189, 190],
      "AcquisitionTime": ["110827.707500", "110829.197500", "110830.687500", "110832.177500", "110833.667500", "110835.157500", "110836.647500", "110838.137500", "110839.627500", "110841.117500", "110842.607500", "110844.097500", "110845.587500", "110847.077500", "110848.567500", "110850.057500", "110851.547500", "110853.037500", "110854.527500", "110856.017500", "110857.507500", "110858.997500", "110900.487500", "110901.977500", "110903.467500", "110904.957500", "110906.447500", "110907.937500", "110909.427500", "110910.917500", "110912.407500", "110913.897500", "110915.387500", "110916.877500", "110918.367500", "110919.857500", "110921.347500", "110922.837500", "110924.327500", "110925.817500", "110927.307500", "110928.797500", "110930.287500", "110931.777500", "110933.267500", "110934.757500", "110936.247500", "110937.737500", "110939.227500", "110940.717500", "110942.207500", "110943.697500", "110945.187500", "110946.677500", "110948.167500", "110949.657500", "110951.147500", "110952.637500", "110954.127500", "110955.617500", "110957.107500", "110958.597500", "111000.087500", "111001.577500", "111003.067500", "111004.557500", "111006.047500", "111007.537500", "111009.027500", "111010.517500", "111012.007500", "111013.497500", "111014.987500", "111016.477500", "111017.967500", "111019.457500", "111020.947500", "111022.437500", "111023.927500", "111025.417500", "111026.907500", "111028.397500", "111029.887500", "111031.377500", "111032.867500", "111034.357500", "111035.847500", "111037.337500", "111038.827500", "111040.317500", "111041.807500", "111043.297500", "111044.787500", "111046.277500", "111047.767500", "111049.257500", "111050.747500", "111052.237500", "111053.727500", "111055.217500", "111056.707500", "111058.197500", "111059.687500", "111101.177500", "111102.667500", "111104.157500", "111105.647500", "111107.137500", "111108.627500", "111110.117500", "111111.607500", "111113.097500", "111114.587500", "111116.077500", "111117.567500", "111119.057500", "111120.547500", "111122.037500", "111123.527500", "111125.017500", "111126.507500", "111127.997500", "111129.487500", "111130.977500", "111132.467500", "111133.957500", "111135.447500", "111136.937500", "111138.427500", "111139.917500", "111141.407500", "111142.897500", "111144.387500", "111145.877500", "111147.367500", "111148.857500", "111150.347500", "111151.837500", "111153.327500", "111154.817500", "111156.307500", "111157.797500", "111159.287500", "111200.777500", "111202.267500", "111203.757500", "111205.247500", "111206.737500", "111208.227500", "111209.717500", "111211.207500", "111212.697500", "111214.187500", "111215.677500", "111217.167500", "111218.657500", "111220.147500", "111221.637500", "111223.127500", "111224.617500", "111226.107500", "111227.597500", "111229.087500", "111230.577500", "111232.067500", "111233.557500", "111235.047500", "111236.537500", "111238.027500", "111239.517500", "111241.007500", "111242.497500", "111243.987500", "111245.477500", "111246.967500", "111248.457500", "111249.947500", "111251.437500", "111252.927500", "111254.417500", "111255.907500", "111257.397500", "111258.887500", "111300.377500", "111301.867500", "111303.357500", "111304.847500", "111306.337500", "111307.827500", "111309.317500"],
      "ContentTime": ["110954.970000", "110954.974000", "110954.978000", "110954.985000", "110954.988000", "110954.991000", "110954.995000", "110954.998000", "110955.003000", "110955.006000", "110955.009000", "110955.013000", "110955.016000", "110955.019000", "110955.023000", "110955.026000", "110955.029000", "110955.033000", "110955.036000", "110955.040000", "110955.043000", "110955.046000", "110955.050000", "110955.053000", "110955.056000", "110955.060000", "110955.063000", "110955.074000", "110955.077000", "110955.080000", "110955.084000", "110955.087000", "110955.091000", "110955.094000", "111014.919000", "111014.923000", "111014.926000", "111014.930000", "111014.933000", "111014.937000", "111014.940000", "111014.943000", "111014.947000", "111014.950000", "111014.953000", "111014.957000", "111014.960000", "111014.964000", "111014.967000", "111014.970000", "111014.974000", "111014.977000", "111014.980000", "111014.984000", "111034.919000", "111034.923000", "111034.926000", "111034.930000", "111034.933000", "111034.936000", "111034.940000", "111034.943000", "111034.946000", "111034.950000", "111034.953000", "111034.957000", "111034.960000", "111034.963000", "111034.967000", "111034.970000", "111034.973000", "111034.977000", "111034.980000", "111034.983000", "111054.919000", "111054.923000", "111054.926000", "111054.930000", "111054.933000", "111054.936000", "111054.940000", "111054.943000", "111054.946000", "111054.950000", "111054.953000", "111054.956000", "111054.959000", "111054.963000", "111054.966000", "111054.970000", "111054.973000", "111054.976000", "111054.980000", "111054.983000", "111134.920000", "111134.924000", "111134.928000", "111134.931000", "111134.934000", "111134.947000", "111134.951000", "111134.954000", "111134.958000", "111134.961000", "111134.964000", "111134.968000", "111134.971000", "111134.974000", "111134.978000", "111134.981000", "111134.984000", "111134.988000", "111134.991000", "111134.994000", "111134.998000", "111135.002000", "111135.006000", "111135.009000", "111135.012000", "111135.016000", "111135.019000", "111135.022000", "111135.026000", "111135.029000", "111135.033000", "111214.919000", "111214.923000", "111214.926000", "111214.930000", "111214.933000", "111214.937000", "111214.940000", "111214.943000", "111214.947000", "111214.950000", "111214.954000", "111214.957000", "111214.960000", "111214.964000", "111214.967000", "111214.971000", "111214.974000", "111214.978000", "111214.981000", "111214.985000", "111214.988000", "111214.991000", "111214.995000", "111214.998000", "111215.002000", "111215.005000", "111215.008000", "111254.919000", "111254.923000", "111254.926000", "111254.930000", "111254.933000", "111254.936000", "111254.940000", "111254.943000", "111254.947000", "111254.950000", "111254.953000", "111254.957000", "111254.960000", "111254.963000", "111254.967000", "111254.970000", "111254.974000", "111254.977000", "111254.981000", "111254.984000", "111254.987000", "111254.991000", "111254.994000", "111254.997000", "111255.002000", "111255.011000", "111255.014000", "111311.334000", "111311.338000", "111311.342000", "111311.345000", "111311.348000", "111311.352000", "111311.356000", "111311.359000", "111311.362000", "111311.366000", "111311.369000"],
      "InstanceCreationTime": ["110954.970000", "110954.974000", "110954.978000", "110954.985000", "110954.988000", "110954.991000", "110954.995000", "110954.998000", "110955.003000", "110955.006000", "110955.009000", "110955.013000", "110955.016000", "110955.019000", "110955.023000", "110955.026000", "110955.029000", "110955.033000", "110955.036000", "110955.040000", "110955.043000", "110955.046000", "110955.050000", "110955.053000", "110955.056000", "110955.060000", "110955.063000", "110955.074000", "110955.077000", "110955.080000", "110955.084000", "110955.087000", "110955.091000", "110955.094000", "111014.919000", "111014.923000", "111014.926000", "111014.930000", "111014.933000", "111014.937000", "111014.940000", "111014.943000", "111014.947000", "111014.950000", "111014.953000", "111014.957000", "111014.960000", "111014.964000", "111014.967000", "111014.970000", "111014.974000", "111014.977000", "111014.980000", "111014.984000", "111034.919000", "111034.923000", "111034.926000", "111034.930000", "111034.933000", "111034.936000", "111034.940000", "111034.943000", "111034.946000", "111034.950000", "111034.953000", "111034.957000", "111034.960000", "111034.963000", "111034.967000", "111034.970000", "111034.973000", "111034.977000", "111034.980000", "111034.983000", "111054.919000", "111054.923000", "111054.926000", "111054.930000", "111054.933000", "111054.936000", "111054.940000", "111054.943000", "111054.946000", "111054.950000", "111054.953000", "111054.956000", "111054.959000", "111054.963000", "111054.966000", "111054.970000", "111054.973000", "111054.976000", "111054.980000", "111054.983000", "111134.920000", "111134.924000", "111134.928000", "111134.931000", "111134.934000", "111134.947000", "111134.951000", "111134.954000", "111134.958000", "111134.961000", "111134.964000", "111134.968000", "111134.971000", "111134.974000", "111134.978000", "111134.981000", "111134.984000", "111134.988000", "111134.991000", "111134.994000", "111134.998000", "111135.002000", "111135.006000", "111135.009000", "111135.012000", "111135.016000", "111135.019000", "111135.022000", "111135.026000", "111135.029000", "111135.033000", "111214.919000", "111214.923000", "111214.926000", "111214.930000", "111214.933000", "111214.937000", "111214.940000", "111214.943000", "111214.947000", "111214.950000", "111214.954000", "111214.957000", "111214.960000", "111214.964000", "111214.967000", "111214.971000", "111214.974000", "111214.978000", "111214.981000", "111214.985000", "111214.988000", "111214.991000", "111214.995000", "111214.998000", "111215.002000", "111215.005000", "111215.008000", "111254.919000", "111254.923000", "111254.926000", "111254.930000", "111254.933000", "111254.936000", "111254.940000", "111254.943000", "111254.947000", "111254.950000", "111254.953000", "111254.957000", "111254.960000", "111254.963000", "111254.967000", "111254.970000", "111254.974000", "111254.977000", "111254.981000", "111254.984000", "111254.987000", "111254.991000", "111254.994000", "111254.997000", "111255.002000", "111255.011000", "111255.014000", "111311.334000", "111311.338000", "111311.342000", "111311.345000", "111311.348000", "111311.352000", "111311.356000", "111311.359000", "111311.362000", "111311.366000", "111311.369000"],
      "InstanceNumber": [1, 2, 3, 4, 5, 6, 7, 8, 9, 10, 11, 12, 13, 14, 15, 16, 17, 18, 19, 20, 21, 22, 23, 24, 25, 26, 27, 28, 29, 30, 31, 32, 33, 34, 35, 36, 37, 38, 39, 40, 41, 42, 43, 44, 45, 46, 47, 48, 49, 50, 51, 52, 53, 54, 55, 56, 57, 58, 59, 60, 61, 62, 63, 64, 65, 66, 67, 68, 69, 70, 71, 72, 73, 74, 75, 76, 77, 78, 79, 80, 81, 82, 83, 84, 85, 86, 87, 88, 89, 90, 91, 92, 93, 94, 95, 96, 97, 98, 99, 100, 101, 102, 103, 104, 105, 106, 107, 108, 109, 110, 111, 112, 113, 114, 115, 116, 117, 118, 119, 120, 121, 122, 123, 124, 125, 126, 127, 128, 129, 130, 131, 132, 133, 134, 135, 136, 137, 138, 139, 140, 141, 142, 143, 144, 145, 146, 147, 148, 149, 150, 151, 152, 153, 154, 155, 156, 157, 158, 159, 160, 161, 162, 163, 164, 165, 166, 167, 168, 169, 170, 171, 172, 173, 174, 175, 176, 177, 178, 179, 180, 181, 182, 183, 184, 185, 186, 187, 188, 189, 190],
      "LargestImagePixelValue": [52088, 50571, 50286, 49896, 49844, 49603, 49952, 49687, 49595, 49409, 48887, 49332, 49341, 49377, 49518, 49432, 49032, 49455, 49423, 49062, 49189, 49037, 48920, 49008, 49844, 49151, 49446, 49264, 49729, 49525, 49370, 49116, 49189, 48749, 48887, 49091, 48716, 48797, 48697, 49358, 48185, 49304, 48386, 49226, 49188, 49211, 49361, 49543, 49582, 48561, 49342, 49344, 49273, 48836, 49533, 49081, 49277, 49489, 49510, 49081, 49197, 49254, 49364, 49459, 48647, 49518, 49096, 49368, 49181, 49488, 48971, 49659, 49762, 49284, 48944, 49549, 48967, 49604, 49545, 49160, 49043, 49387, 49635, 49127, 49136, 49436, 48512, 49217, 49237, 48979, 50153, 48865, 49010, 49278, 49179, 48901, 49228, 48900, 49849, 47807, 49833, 49525, 49821, 50403, 49648, 49996, 49851, 49683, 49347, 49246, 49143, 50006, 49314, 49556, 49343, 49425, 49559, 49891, 49669, 50075, 48444, 49271, 47185, 49168, 47476, 49186, 48443, 50157, 48445, 49655, 49350, 49673, 48526, 50195, 48292, 49172, 48705, 49755, 48563, 49184, 48928, 48667, 50329, 48504, 48952, 49648, 48504, 50139, 48459, 49717, 48662, 49497, 48030, 48796, 48175, 49104, 48136, 49285, 47026, 49143, 48078, 48572, 47850, 49398, 46789, 48850, 49378, 49585, 49294, 47660, 49377, 47531, 48983, 47462, 49523, 47053, 49252, 47778, 49161, 47291, 48689, 47704, 48030, 47919, 49654, 48068, 48459, 49211, 49206, 48417],
      "WindowCenter": [11290.0, 11254.0, 11234.0, 11212.0, 11202.0, 11194.0, 11194.0, 11184.0, 11169.0, 11160.0, 11166.0, 11176.0, 11185.0, 11194.0, 11193.0, 11189.0, 11181.0, 11190.0, 11200.0, 11205.0, 11210.0, 11188.0, 11177.0, 11167.0, 11177.0, 11181.0, 11183.0, 11170.0, 11164.0, 11154.0, 11146.0, 11150.0, 11143.0, 11128.0, 11126.0, 11130.0, 11133.0, 11158.0, 11162.0, 11166.0, 11142.0, 11139.0, 11127.0, 11153.0, 11169.0, 11173.0, 11171.0, 11170.0, 11165.0, 11154.0, 11155.0, 11139.0, 11136.0, 11129.0, 11126.0, 11120.0, 11134.0, 11157.0, 11159.0, 11154.0, 11140.0, 11143.0, 11142.0, 11148.0, 11138.0, 11141.0, 11129.0, 11131.0, 11126.0, 11131.0, 11133.0, 11132.0, 11137.0, 11146.0, 11139.0, 11124.0, 11109.0, 11110.0, 11112.0, 11115.0, 11119.0, 11123.0, 11136.0, 11135.0, 11150.0, 11150.0, 11151.0, 11138.0, 11131.0, 11126.0, 11140.0, 11136.0, 11136.0, 11144.0, 11154.0, 11154.0, 11137.0, 11118.0, 11121.0, 11121.0, 11138.0, 11133.0, 11152.0, 11167.0, 11168.0, 11166.0, 11158.0, 11150.0, 11136.0, 11121.0, 11119.0, 11129.0, 11126.0, 11132.0, 11120.0, 11126.0, 11132.0, 11140.0, 11150.0, 11157.0, 11146.0, 11162.0, 11138.0, 11147.0, 11126.0, 11137.0, 11132.0, 11144.0, 11117.0, 11124.0, 11123.0, 11133.0, 11136.0, 11149.0, 11129.0, 11124.0, 11114.0, 11121.0, 11118.0, 11118.0, 11116.0, 11124.0, 11141.0, 11142.0, 11142.0, 11137.0, 11118.0, 11118.0, 11110.0, 11127.0, 11124.0, 11127.0, 11106.0, 11100.0, 11091.0, 11103.0, 11097.0, 11121.0, 11104.0, 11134.0, 11126.0, 11130.0, 11141.0, 11139.0, 11116.0, 11143.0, 11151.0, 11146.0, 11142.0, 11130.0, 11128.0, 11095.0, 11102.0, 11092.0, 11113.0, 11105.0, 11132.0, 11120.0, 11131.0, 11111.0, 11112.0, 11111.0, 11116.0, 11121.0, 11130.0, 11117.0, 11106.0, 11121.0, 11131.0, 11124.0],
      "WindowWidth": [24462.0, 24345.0, 24274.0, 24208.0, 24177.0, 24154.0, 24154.0, 24130.0, 24097.0, 24073.0, 24089.0, 24111.0, 24132.0, 24156.0, 24151.0, 24146.0, 24130.0, 24147.0, 24171.0, 24186.0, 24194.0, 24150.0, 24121.0, 24100.0, 24117.0, 24129.0, 24129.0, 24094.0, 24082.0, 24056.0, 24034.0, 24050.0, 24031.0, 23997.0, 23992.0, 24002.0, 24009.0, 24071.0, 24082.0, 24087.0, 24038.0, 24025.0, 23999.0, 24058.0, 24094.0, 24106.0, 24100.0, 24097.0, 24087.0, 24062.0, 24060.0, 24023.0, 24015.0, 23999.0, 23991.0, 23980.0, 24013.0, 24067.0, 24070.0, 24059.0, 24029.0, 24031.0, 24030.0, 24041.0, 24023.0, 24029.0, 24002.0, 24003.0, 23994.0, 24003.0, 24009.0, 24004.0, 24012.0, 24036.0, 24027.0, 23989.0, 23956.0, 23952.0, 23958.0, 23969.0, 23980.0, 23989.0, 24018.0, 24016.0, 24050.0, 24050.0, 24058.0, 24026.0, 24006.0, 23998.0, 24022.0, 24018.0, 24018.0, 24031.0, 24054.0, 24054.0, 24012.0, 23970.0, 23976.0, 23989.0, 24020.0, 24009.0, 24052.0, 24082.0, 24087.0, 24080.0, 24060.0, 24042.0, 24013.0, 23979.0, 23974.0, 23994.0, 23988.0, 24002.0, 23977.0, 23988.0, 24002.0, 24019.0, 24042.0, 24059.0, 24042.0, 24075.0, 24028.0, 24041.0, 23998.0, 24017.0, 24006.0, 24028.0, 23974.0, 23985.0, 23981.0, 24006.0, 24014.0, 24041.0, 23999.0, 23984.0, 23962.0, 23978.0, 23975.0, 23966.0, 23966.0, 23984.0, 24021.0, 24029.0, 24027.0, 24011.0, 23970.0, 23965.0, 23952.0, 23985.0, 23982.0, 23987.0, 23944.0, 23927.0, 23907.0, 23932.0, 23923.0, 23973.0, 23941.0, 24005.0, 23997.0, 23999.0, 24034.0, 24018.0, 23974.0, 24028.0, 24049.0, 24031.0, 24022.0, 24003.0, 23991.0, 23917.0, 23929.0, 23911.0, 23952.0, 23944.0, 23996.0, 23976.0, 23994.0, 23954.0, 23956.0, 23955.0, 23965.0, 23977.0, 23992.0, 23969.0, 23944.0, 23972.0, 23998.0, 23989.0]
    },
    "slices": {}
  }
}