{
  "AcquisitionMatrixPE": 104,
  "AcquisitionNumber": 1,
  "AcquisitionTime": "15:24:54.172500",
  "BandwidthPerPixelPhaseEncode": 17.17,
  "BaseResolution": 104,
  "BodyPartExamined": "BRAIN",
  "CoilString": "HC1-7;NC1_2",
  "ConsistencyInfo": "N4_VE11C_LATEST_20160120",
  "ConversionSoftware": "dcm2niix",
  "ConversionSoftwareVersion": "v1.0.20190902",
  "DerivedVendorReportedEchoSpacing": 0.000560011,
  "DeviceSerialNumber": "167006",
  "DwellTime": 2.1e-06,
  "EchoTime": 0.037,
  "EchoTrainLength": 104,
  "EffectiveEchoSpacing": 0.000560011,
  "FlipAngle": 52,
  "ImageComments": "Unaliased_MB4_PE3_LB",
  "ImageOrientationPatientDICOM": [0.998678, -0.046967, 0.0209023, 0.0512898, 0.937879, -0.34315],
  "ImageType": [
    "ORIGINAL",
    "PRIMARY",
    "M",
    "MB",
    "ND",
    "MOSAIC"
],
  "ImagingFrequency": 123.259,
  "InPlanePhaseEncodingDirectionDICOM": "COL",
  "InstitutionAddress": "Chemin_Queen-Mary_4565_Montreal_District_CA_H3W_1W5",
  "InstitutionName": "IUGM",
  "InstitutionalDepartmentName": "Department",
  "MRAcquisitionType": "2D",
  "MagneticFieldStrength": 3,
  "Manufacturer": "Siemens",
  "ManufacturersModelName": "Prisma_fit",
  "Modality": "MR",
  "MultibandAccelerationFactor": 4,
  "PartialFourier": 1,
  "PatientPosition": "HFS",
  "PercentPhaseFOV": 100,
  "PhaseEncodingDirection": "j",
  "PhaseEncodingSteps": 104,
  "PhaseResolution": 1,
  "PixelBandwidth": 2290,
  "ProcedureStepDescription": "memory_things",
  "ProtocolName": "func_task-things_run-1",
  "PulseSequenceDetails": "%CustomerSeq%_cmrr_mbep2d_bold",
  "ReceiveCoilActiveElements": "HC1-7;NC1,2",
  "ReceiveCoilName": "HeadNeck_64",
  "ReconMatrixPE": 104,
  "RepetitionTime": 1.49,
  "SAR": 0.0438292,
  "ScanOptions": "FS",
  "ScanningSequence": "EP",
  "SequenceName": "epfid2d1_104",
  "SequenceVariant": "SK_SS",
  "SeriesDescription": "func_task-things_run-1",
  "SeriesNumber": 10,
  "ShimSetting": [627, -7239, -8818, 593, -11, -155, -19, -14],
  "SliceThickness": 2,
  "SliceTiming": [0, 0.785, 0.0975, 0.8825, 0.1975, 0.98, 0.295, 1.0775, 0.3925, 1.1775, 0.49, 1.275, 0.5875, 1.3725, 0.6875, 0, 0.785, 0.0975, 0.8825, 0.1975, 0.98, 0.295, 1.0775, 0.3925, 1.1775, 0.49, 1.275, 0.5875, 1.3725, 0.6875, 0, 0.785, 0.0975, 0.8825, 0.1975, 0.98, 0.295, 1.0775, 0.3925, 1.1775, 0.49, 1.275, 0.5875, 1.3725, 0.6875, 0, 0.785, 0.0975, 0.8825, 0.1975, 0.98, 0.295, 1.0775, 0.3925, 1.1775, 0.49, 1.275, 0.5875, 1.3725, 0.6875],
  "SoftwareVersions": "syngo_MR_E11",
  "SpacingBetweenSlices": 2,
  "StationName": "MRC35049",
  "TaskName": "things",
  "TotalReadoutTime": 0.0576811,
  "TxRefAmp": 246.652,
  "WipMemBlock": "c10f98fa-ebcb-44c3-8efe-67bb8330d4ac||Sequence: R016 ve11c/master r/e634e98; Dec 19 2017 11:00:25 by eja",
  "dcmmeta_affine": [
    [-1.9973554611206055, 0.10257967561483383, 0.006974251475185156, 101.74308013916016],
    [0.09393403679132462, 1.8757586479187012, -0.6875359416007996, -69.26252746582031],
    [0.041804611682891846, 0.6862992644309998, 1.8780962228775024, -67.00836944580078],
    [0.0, 0.0, 0.0, 1.0]
],
  "dcmmeta_reorient_transform": [
    [0.0, -1.0, 0.0, 103.0],
    [1.0, 0.0, 0.0, 0.0],
    [0.0, 0.0, 1.0, 0.0],
    [0.0, 0.0, 0.0, 1.0]
],
  "dcmmeta_shape": [104, 104, 60, 190],
  "dcmmeta_slice_dim": 2,
  "dcmmeta_version": 0.6,
  "global": {
    "const": {
      "AcquisitionMatrix": [104, 0, 0, 104],
      "AngioFlag": "N",
      "BitsAllocated": 16,
      "BitsStored": 16,
      "BodyPartExamined": "BRAIN",
      "Columns": 832,
      "EchoNumbers": 1,
      "EchoTime": 37.0,
      "EchoTrainLength": 104,
      "FlipAngle": 52.0,
      "HighBit": 15,
      "ImageOrientationPatient": [0.99867772212192, -0.0469670195928, 0.02090230628268, 0.05128983613772, 0.93787935253897, -0.3431496361503],
      "ImagePositionPatient": [-876.68516748577, -772.52480090986, 238.27650933055],
      "ImageType": [
        "ORIGINAL",
        "PRIMARY",
        "M",
        "MB",
        "ND",
        "MOSAIC"
],
      "ImagedNucleus": "1H",
      "ImagingFrequency": 123.258909,
      "InPlanePhaseEncodingDirection": "COL",
      "MRAcquisitionType": "2D",
      "MagneticFieldStrength": 3.0,
      "Manufacturer": "SIEMENS",
      "ManufacturerModelName": "Prisma_fit",
      "Modality": "MR",
      "NumberOfAverages": 1.0,
      "NumberOfPhaseEncodingSteps": 104,
      "PercentPhaseFieldOfView": 100.0,
      "PercentSampling": 100.0,
      "PerformedProcedureStepStartTime": "145556.029000",
      "PhotometricInterpretation": "MONOCHROME2",
      "PixelBandwidth": 2290.0,
      "PixelRepresentation": 0,
      "PixelSpacing": [2.0, 2.0],
      "ProtocolName": "func_task-things_run-1",
      "RepetitionTime": 1490.0,
      "Rows": 832,
      "SAR": 0.04382917732161,
      "SamplesPerPixel": 1,
      "ScanOptions": "FS",
      "ScanningSequence": "EP",
      "SequenceName": "epfid2d1_104",
      "SequenceVariant": [
        "SK",
        "SS"
],
      "SeriesDescription": "func_task-things_run-1",
      "SeriesNumber": 10,
      "SeriesTime": "152609.925000",
      "SliceLocation": -38.759058954098,
      "SliceThickness": 2.0,
      "SmallestImagePixelValue": 0,
      "SoftwareVersions": "syngo MR E11",
      "SpacingBetweenSlices": 1.9999999720897,
      "SpecificCharacterSet": "ISO_IR 100",
      "StudyID": "1",
      "StudyTime": "145555.943000",
      "TransmitCoilName": "Body",
      "VariableFlipAngleFlag": "N",
      "WindowCenterWidthExplanation": "Algo1",
      "dBdt": 0.0},
    "slices": {}
  },
  "time": {
    "samples": {
      "AcquisitionNumber": [1, 2, 3, 4, 5, 6, 7, 8, 9, 10, 11, 12, 13, 14, 15, 16, 17, 18, 19, 20, 21, 22, 23, 24, 25, 26, 27, 28, 29, 30, 31, 32, 33, 34, 35, 36, 37, 38, 39, 40, 41, 42, 43, 44, 45, 46, 47, 48, 49, 50, 51, 52, 53, 54, 55, 56, 57, 58, 59, 60, 61, 62, 63, 64, 65, 66, 67, 68, 69, 70, 71, 72, 73, 74, 75, 76, 77, 78, 79, 80, 81, 82, 83, 84, 85, 86, 87, 88, 89, 90, 91, 92, 93, 94, 95, 96, 97, 98, 99, 100, 101, 102, 103, 104, 105, 106, 107, 108, 109, 110, 111, 112, 113, 114, 115, 116, 117, 118, 119, 120, 121, 122, 123, 124, 125, 126, 127, 128, 129, 130, 131, 132, 133, 134, 135, 136, 137, 138, 139, 140, 141, 142, 143, 144, 145, 146, 147, 148, 149, 150, 151, 152, 153, 154, 155, 156, 157, 158, 159, 160, 161, 162, 163, 164, 165, 166, 167, 168, 169, 170, 171, 172, 173, 174, 175, 176, 177, 178, 179, 180, 181, 182, 183, 184, 185, 186, 187, 188, 189, 190],
      "AcquisitionTime": ["152454.172500", "152455.662500", "152457.152500", "152458.642500", "152500.132500", "152501.622500", "152503.112500", "152504.602500", "152506.092500", "152507.582500", "152509.072500", "152510.562500", "152512.052500", "152513.542500", "152515.032500", "152516.522500", "152518.012500", "152519.502500", "152520.992500", "152522.482500", "152523.972500", "152525.462500", "152526.952500", "152528.442500", "152529.932500", "152531.422500", "152532.912500", "152534.402500", "152535.892500", "152537.382500", "152538.872500", "152540.362500", "152541.852500", "152543.342500", "152544.832500", "152546.322500", "152547.812500", "152549.302500", "152550.792500", "152552.282500", "152553.772500", "152555.262500", "152556.752500", "152558.242500", "152559.732500", "152601.222500", "152602.712500", "152604.202500", "152605.692500", "152607.182500", "152608.672500", "152610.162500", "152611.652500", "152613.142500", "152614.632500", "152616.122500", "152617.612500", "152619.102500", "152620.592500", "152622.082500", "152623.572500", "152625.062500", "152626.552500", "152628.042500", "152629.532500", "152631.022500", "152632.512500", "152634.002500", "152635.492500", "152636.982500", "152638.472500", "152639.962500", "152641.452500", "152642.942500", "152644.432500", "152645.922500", "152647.412500", "152648.902500", "152650.392500", "152651.882500", "152653.372500", "152654.862500", "152656.352500", "152657.842500", "152659.332500", "152700.822500", "152702.312500", "152703.802500", "152705.292500", "152706.782500", "152708.272500", "152709.762500", "152711.252500", "152712.742500", "152714.232500", "152715.722500", "152717.212500", "152718.702500", "152720.192500", "152721.682500", "152723.172500", "152724.662500", "152726.152500", "152727.642500", "152729.132500", "152730.622500", "152732.112500", "152733.602500", "152735.092500", "152736.582500", "152738.072500", "152739.562500", "152741.052500", "152742.542500", "152744.032500", "152745.522500", "152747.012500", "152748.502500", "152749.992500", "152751.482500", "152752.972500", "152754.462500", "152755.952500", "152757.442500", "152758.932500", "152800.422500", "152801.912500", "152803.402500", "152804.892500", "152806.382500", "152807.872500", "152809.362500", "152810.852500", "152812.342500", "152813.832500", "152815.322500", "152816.812500", "152818.302500", "152819.792500", "152821.282500", "152822.772500", "152824.262500", "152825.752500", "152827.242500", "152828.732500", "152830.222500", "152831.712500", "152833.202500", "152834.692500", "152836.182500", "152837.672500", "152839.162500", "152840.652500", "152842.142500", "152843.632500", "152845.122500", "152846.612500", "152848.102500", "152849.592500", "152851.082500", "152852.572500", "152854.062500", "152855.552500", "152857.042500", "152858.532500", "152900.022500", "152901.512500", "152903.002500", "152904.492500", "152905.982500", "152907.472500", "152908.962500", "152910.452500", "152911.942500", "152913.432500", "152914.922500", "152916.412500", "152917.902500", "152919.392500", "152920.882500", "152922.372500", "152923.862500", "152925.352500", "152926.842500", "152928.332500", "152929.822500", "152931.312500", "152932.802500", "152934.292500", "152935.782500"],
      "ContentTime": ["152609.929000", "152609.932000", "152609.936000", "152609.940000", "152609.943000", "152609.946000", "152609.950000", "152609.953000", "152609.957000", "152609.960000", "152609.963000", "152609.967000", "152609.970000", "152609.974000", "152609.977000", "152609.981000", "152609.984000", "152609.987000", "152609.991000", "152609.994000", "152610.002000", "152629.891000", "152629.895000", "152629.899000", "152629.902000", "152629.905000", "152629.909000", "152629.912000", "152629.920000", "152629.924000", "152629.928000", "152629.931000", "152629.935000", "152629.945000", "152629.948000", "152629.952000", "152629.956000", "152629.959000", "152629.963000", "152629.966000", "152629.969000", "152649.891000", "152649.895000", "152649.898000", "152649.902000", "152649.905000", "152649.909000", "152649.912000", "152649.916000", "152649.919000", "152649.923000", "152649.926000", "152649.930000", "152649.933000", "152649.936000", "152649.940000", "152649.943000", "152649.947000", "152649.950000", "152649.953000", "152649.957000", "152649.960000", "152709.890000", "152709.894000", "152709.898000", "152709.901000", "152709.904000", "152709.908000", "152709.911000", "152709.915000", "152709.918000", "152709.922000", "152709.925000", "152709.928000", "152709.932000", "152709.935000", "152709.939000", "152709.942000", "152709.945000", "152709.949000", "152709.952000", "152709.956000", "152729.890000", "152729.894000", "152729.897000", "152729.901000", "152729.904000", "152729.908000", "152729.911000", "152729.915000", "152729.918000", "152729.921000", "152729.925000", "152729.928000", "152729.932000", "152729.935000", "152729.939000", "152729.942000", "152729.945000", "152729.949000", "152729.952000", "152729.956000", "152809.891000", "152809.895000", "152809.899000", "152809.902000", "152809.906000", "152809.909000", "152809.912000", "152809.916000", "152809.919000", "152809.923000", "152809.926000", "152809.929000", "152809.933000", "152809.936000", "152809.940000", "152809.943000", "152809.946000", "152809.950000", "152809.953000", "152809.957000", "152809.960000", "152809.964000", "152809.967000", "152809.970000", "152809.974000", "152809.977000", "152809.981000", "152809.984000", "152849.891000", "152849.895000", "152849.911000", "152849.914000", "152849.917000", "152849.921000", "152849.924000", "152849.927000", "152849.931000", "152849.934000", "152849.938000", "152849.941000", "152849.945000", "152849.948000", "152849.951000", "152849.955000", "152849.958000", "152849.962000", "152849.965000", "152849.969000", "152849.972000", "152849.975000", "152849.979000", "152849.983000", "152849.987000", "152849.990000", "152849.994000", "152929.890000", "152929.894000", "152929.898000", "152929.901000", "152929.904000", "152929.908000", "152929.911000", "152929.914000", "152929.918000", "152929.921000", "152929.925000", "152929.928000", "152929.932000", "152929.935000", "152929.938000", "152929.942000", "152929.945000", "152929.949000", "152929.952000", "152929.955000", "152929.959000", "152929.962000", "152929.966000", "152929.969000", "152929.972000", "152929.976000", "152929.979000", "152937.854000", "152937.857000", "152937.861000", "152937.864000", "152937.868000", "152937.871000"],
      "InstanceCreationTime": ["152609.929000", "152609.932000", "152609.936000", "152609.940000", "152609.943000", "152609.946000", "152609.950000", "152609.953000", "152609.957000", "152609.960000", "152609.963000", "152609.967000", "152609.970000", "152609.974000", "152609.977000", "152609.981000", "152609.984000", "152609.987000", "152609.991000", "152609.994000", "152610.002000", "152629.891000", "152629.895000", "152629.899000", "152629.902000", "152629.905000", "152629.909000", "152629.912000", "152629.920000", "152629.924000", "152629.928000", "152629.931000", "152629.935000", "152629.945000", "152629.948000", "152629.952000", "152629.956000", "152629.959000", "152629.963000", "152629.966000", "152629.969000", "152649.891000", "152649.895000", "152649.898000", "152649.902000", "152649.905000", "152649.909000", "152649.912000", "152649.916000", "152649.919000", "152649.923000", "152649.926000", "152649.930000", "152649.933000", "152649.936000", "152649.940000", "152649.943000", "152649.947000", "152649.950000", "152649.953000", "152649.957000", "152649.960000", "152709.890000", "152709.894000", "152709.898000", "152709.901000", "152709.904000", "152709.908000", "152709.911000", "152709.915000", "152709.918000", "152709.922000", "152709.925000", "152709.928000", "152709.932000", "152709.935000", "152709.939000", "152709.942000", "152709.945000", "152709.949000", "152709.952000", "152709.956000", "152729.890000", "152729.894000", "152729.897000", "152729.901000", "152729.904000", "152729.908000", "152729.911000", "152729.915000", "152729.918000", "152729.921000", "152729.925000", "152729.928000", "152729.932000", "152729.935000", "152729.939000", "152729.942000", "152729.945000", "152729.949000", "152729.952000", "152729.956000", "152809.891000", "152809.895000", "152809.899000", "152809.902000", "152809.906000", "152809.909000", "152809.912000", "152809.916000", "152809.919000", "152809.923000", "152809.926000", "152809.929000", "152809.933000", "152809.936000", "152809.940000", "152809.943000", "152809.946000", "152809.950000", "152809.953000", "152809.957000", "152809.960000", "152809.964000", "152809.967000", "152809.970000", "152809.974000", "152809.977000", "152809.981000", "152809.984000", "152849.891000", "152849.895000", "152849.911000", "152849.914000", "152849.917000", "152849.921000", "152849.924000", "152849.927000", "152849.931000", "152849.934000", "152849.938000", "152849.941000", "152849.945000", "152849.948000", "152849.951000", "152849.955000", "152849.958000", "152849.962000", "152849.965000", "152849.969000", "152849.972000", "152849.975000", "152849.979000", "152849.983000", "152849.987000", "152849.990000", "152849.994000", "152929.890000", "152929.894000", "152929.898000", "152929.901000", "152929.904000", "152929.908000", "152929.911000", "152929.914000", "152929.918000", "152929.921000", "152929.925000", "152929.928000", "152929.932000", "152929.935000", "152929.938000", "152929.942000", "152929.945000", "152929.949000", "152929.952000", "152929.955000", "152929.959000", "152929.962000", "152929.966000", "152929.969000", "152929.972000", "152929.976000", "152929.979000", "152937.854000", "152937.857000", "152937.861000", "152937.864000", "152937.868000", "152937.871000"],
      "InstanceNumber": [1, 2, 3, 4, 5, 6, 7, 8, 9, 10, 11, 12, 13, 14, 15, 16, 17, 18, 19, 20, 21, 22, 23, 24, 25, 26, 27, 28, 29, 30, 31, 32, 33, 34, 35, 36, 37, 38, 39, 40, 41, 42, 43, 44, 45, 46, 47, 48, 49, 50, 51, 52, 53, 54, 55, 56, 57, 58, 59, 60, 61, 62, 63, 64, 65, 66, 67, 68, 69, 70, 71, 72, 73, 74, 75, 76, 77, 78, 79, 80, 81, 82, 83, 84, 85, 86, 87, 88, 89, 90, 91, 92, 93, 94, 95, 96, 97, 98, 99, 100, 101, 102, 103, 104, 105, 106, 107, 108, 109, 110, 111, 112, 113, 114, 115, 116, 117, 118, 119, 120, 121, 122, 123, 124, 125, 126, 127, 128, 129, 130, 131, 132, 133, 134, 135, 136, 137, 138, 139, 140, 141, 142, 143, 144, 145, 146, 147, 148, 149, 150, 151, 152, 153, 154, 155, 156, 157, 158, 159, 160, 161, 162, 163, 164, 165, 166, 167, 168, 169, 170, 171, 172, 173, 174, 175, 176, 177, 178, 179, 180, 181, 182, 183, 184, 185, 186, 187, 188, 189, 190],
      "LargestImagePixelValue": [45896, 44393, 43873, 41171, 42144, 41859, 41553, 40888, 41425, 40840, 41435, 41666, 41181, 41437, 42181, 42296, 41721, 42511, 42001, 41231, 42326, 42026, 43735, 42090, 42642, 43643, 42983, 42698, 42995, 43118, 42843, 42859, 42419, 42593, 42483, 42773, 42833, 43306, 42633, 42123, 42455, 40141, 40156, 41182, 41038, 43270, 42426, 42456, 42282, 42664, 42387, 42407, 41830, 42566, 43083, 41833, 41648, 42231, 42321, 42432, 42249, 42602, 41719, 42115, 42717, 42420, 42325, 42439, 42191, 42574, 41803, 42705, 42139, 42422, 42360, 42715, 41999, 41994, 42519, 42687, 42579, 42275, 42842, 42043, 42932, 42724, 42458, 42920, 42713, 43036, 42947, 43259, 43075, 42197, 42320, 42631, 42721, 42625, 42334, 42318, 42098, 42368, 42893, 42908, 41962, 43078, 42928, 43155, 42735, 42956, 43081, 42949, 42753, 42989, 42949, 42916, 42364, 42784, 42882, 42407, 42876, 42579, 43097, 43325, 42673, 42645, 42680, 42491, 42523, 42695, 42160, 41550, 41170, 40687, 40632, 41225, 41233, 42499, 42093, 41594, 42104, 41879, 41961, 41807, 41833, 41987, 41581, 41728, 41825, 41766, 41355, 41495, 41827, 41875, 41680, 41705, 41674, 41837, 41556, 42168, 42148, 41987, 41921, 41548, 41687, 41617, 41939, 41568, 41689, 41716, 41738, 42054, 41781, 41750, 41565, 41877, 42051, 41625, 41630, 42050, 41496, 41552, 42309, 41554, 42064, 42039, 41639, 41462, 42012, 41598],
      "WindowCenter": [10462.0, 10394.0, 10380.0, 10405.0, 10433.0, 10399.0, 10376.0, 10361.0, 10360.0, 10376.0, 10380.0, 10369.0, 10368.0, 10370.0, 10365.0, 10370.0, 10366.0, 10366.0, 10370.0, 10366.0, 10374.0, 10397.0, 10426.0, 10392.0, 10381.0, 10396.0, 10392.0, 10396.0, 10400.0, 10394.0, 10408.0, 10432.0, 10405.0, 10380.0, 10363.0, 10358.0, 10374.0, 10396.0, 10391.0, 10385.0, 10365.0, 10332.0, 10338.0, 10363.0, 10361.0, 10378.0, 10359.0, 10358.0, 10353.0, 10367.0, 10380.0, 10390.0, 10364.0, 10374.0, 10380.0, 10362.0, 10340.0, 10328.0, 10341.0, 10355.0, 10369.0, 10381.0, 10362.0, 10361.0, 10367.0, 10375.0, 10406.0, 10390.0, 10361.0, 10350.0, 10352.0, 10365.0, 10358.0, 10359.0, 10351.0, 10363.0, 10376.0, 10379.0, 10367.0, 10358.0, 10358.0, 10360.0, 10367.0, 10353.0, 10365.0, 10379.0, 10389.0, 10387.0, 10376.0, 10364.0, 10370.0, 10392.0, 10387.0, 10354.0, 10336.0, 10339.0, 10359.0, 10372.0, 10359.0, 10343.0, 10343.0, 10364.0, 10392.0, 10388.0, 10370.0, 10369.0, 10370.0, 10370.0, 10363.0, 10367.0, 10380.0, 10357.0, 10333.0, 10331.0, 10350.0, 10361.0, 10351.0, 10346.0, 10352.0, 10364.0, 10372.0, 10370.0, 10372.0, 10361.0, 10359.0, 10357.0, 10350.0, 10353.0, 10349.0, 10346.0, 10342.0, 10345.0, 10361.0, 10357.0, 10342.0, 10324.0, 10312.0, 10316.0, 10332.0, 10323.0, 10326.0, 10316.0, 10320.0, 10327.0, 10337.0, 10345.0, 10348.0, 10337.0, 10337.0, 10329.0, 10330.0, 10352.0, 10361.0, 10353.0, 10347.0, 10341.0, 10338.0, 10346.0, 10342.0, 10351.0, 10373.0, 10364.0, 10333.0, 10308.0, 10313.0, 10321.0, 10337.0, 10344.0, 10337.0, 10338.0, 10339.0, 10342.0, 10344.0, 10337.0, 10336.0, 10347.0, 10345.0, 10339.0, 10332.0, 10331.0, 10328.0, 10330.0, 10332.0, 10336.0, 10336.0, 10328.0, 10323.0, 10331.0, 10344.0, 10339.0],
      "WindowWidth": [22672.0, 22473.0, 22416.0, 22464.0, 22523.0, 22439.0, 22379.0, 22345.0, 22341.0, 22375.0, 22388.0, 22358.0, 22357.0, 22365.0, 22352.0, 22360.0, 22354.0, 22348.0, 22361.0, 22352.0, 22372.0, 22422.0, 22498.0, 22422.0, 22389.0, 22419.0, 22412.0, 22422.0, 22429.0, 22415.0, 22447.0, 22505.0, 22446.0, 22386.0, 22347.0, 22331.0, 22370.0, 22418.0, 22411.0, 22396.0, 22352.0, 22276.0, 22289.0, 22344.0, 22352.0, 22378.0, 22338.0, 22332.0, 22324.0, 22360.0, 22385.0, 22406.0, 22351.0, 22367.0, 22380.0, 22343.0, 22296.0, 22266.0, 22296.0, 22325.0, 22360.0, 22384.0, 22343.0, 22340.0, 22355.0, 22371.0, 22445.0, 22415.0, 22346.0, 22317.0, 22323.0, 22353.0, 22335.0, 22337.0, 22320.0, 22345.0, 22377.0, 22385.0, 22356.0, 22333.0, 22333.0, 22341.0, 22359.0, 22332.0, 22353.0, 22385.0, 22412.0, 22401.0, 22380.0, 22348.0, 22362.0, 22413.0, 22403.0, 22330.0, 22286.0, 22293.0, 22339.0, 22369.0, 22339.0, 22303.0, 22305.0, 22353.0, 22414.0, 22411.0, 22373.0, 22361.0, 22363.0, 22363.0, 22350.0, 22354.0, 22384.0, 22333.0, 22278.0, 22274.0, 22316.0, 22342.0, 22322.0, 22306.0, 22317.0, 22348.0, 22366.0, 22363.0, 22367.0, 22341.0, 22338.0, 22334.0, 22318.0, 22323.0, 22318.0, 22308.0, 22297.0, 22301.0, 22341.0, 22334.0, 22299.0, 22258.0, 22233.0, 22241.0, 22275.0, 22259.0, 22263.0, 22239.0, 22253.0, 22270.0, 22290.0, 22309.0, 22318.0, 22292.0, 22289.0, 22273.0, 22275.0, 22323.0, 22344.0, 22327.0, 22314.0, 22303.0, 22297.0, 22313.0, 22306.0, 22324.0, 22369.0, 22352.0, 22284.0, 22228.0, 22237.0, 22255.0, 22291.0, 22306.0, 22291.0, 22293.0, 22296.0, 22300.0, 22307.0, 22293.0, 22288.0, 22318.0, 22312.0, 22297.0, 22283.0, 22278.0, 22270.0, 22274.0, 22275.0, 22289.0, 22288.0, 22273.0, 22261.0, 22282.0, 22309.0, 22299.0]
    },
    "slices": {}
  }
}