{
  "AcquisitionMatrixPE": 104,
  "AcquisitionNumber": 1,
  "AcquisitionTime": "15:49:46.515000",
  "BandwidthPerPixelPhaseEncode": 17.17,
  "BaseResolution": 104,
  "BodyPartExamined": "BRAIN",
  "CoilString": "HC1-7;NC1_2",
  "ConsistencyInfo": "N4_VE11C_LATEST_20160120",
  "ConversionSoftware": "dcm2niix",
  "ConversionSoftwareVersion": "v1.0.20190902",
  "DerivedVendorReportedEchoSpacing": 0.000560011,
  "DeviceSerialNumber": "167006",
  "DwellTime": 2.1e-06,
  "EchoTime": 0.037,
  "EchoTrainLength": 104,
  "EffectiveEchoSpacing": 0.000560011,
  "FlipAngle": 52,
  "ImageComments": "Unaliased_MB4_PE3_LB",
  "ImageOrientationPatientDICOM": [0.998678, -0.046967, 0.0209023, 0.0512898, 0.937879, -0.34315],
  "ImageType": [
    "ORIGINAL",
    "PRIMARY",
    "M",
    "MB",
    "ND",
    "MOSAIC"
],
  "ImagingFrequency": 123.259,
  "InPlanePhaseEncodingDirectionDICOM": "COL",
  "InstitutionAddress": "Chemin_Queen-Mary_4565_Montreal_District_CA_H3W_1W5",
  "InstitutionName": "IUGM",
  "InstitutionalDepartmentName": "Department",
  "MRAcquisitionType": "2D",
  "MagneticFieldStrength": 3,
  "Manufacturer": "Siemens",
  "ManufacturersModelName": "Prisma_fit",
  "Modality": "MR",
  "MultibandAccelerationFactor": 4,
  "PartialFourier": 1,
  "PatientPosition": "HFS",
  "PercentPhaseFOV": 100,
  "PhaseEncodingDirection": "j",
  "PhaseEncodingSteps": 104,
  "PhaseResolution": 1,
  "PixelBandwidth": 2290,
  "ProcedureStepDescription": "memory_things",
  "ProtocolName": "func_task-things_run-5",
  "PulseSequenceDetails": "%CustomerSeq%_cmrr_mbep2d_bold",
  "ReceiveCoilActiveElements": "HC1-7;NC1,2",
  "ReceiveCoilName": "HeadNeck_64",
  "ReconMatrixPE": 104,
  "RepetitionTime": 1.49,
  "SAR": 0.0438292,
  "ScanOptions": "FS",
  "ScanningSequence": "EP",
  "SequenceName": "epfid2d1_104",
  "SequenceVariant": "SK_SS",
  "SeriesDescription": "func_task-things_run-5",
  "SeriesNumber": 22,
  "ShimSetting": [627, -7239, -8818, 593, -11, -155, -19, -14],
  "SliceThickness": 2,
  "SliceTiming": [0, 0.785, 0.0975, 0.8825, 0.195, 0.98, 0.295, 1.0775, 0.3925, 1.175, 0.49, 1.275, 0.5875, 1.3725, 0.685, 0, 0.785, 0.0975, 0.8825, 0.195, 0.98, 0.295, 1.0775, 0.3925, 1.175, 0.49, 1.275, 0.5875, 1.3725, 0.685, 0, 0.785, 0.0975, 0.8825, 0.195, 0.98, 0.295, 1.0775, 0.3925, 1.175, 0.49, 1.275, 0.5875, 1.3725, 0.685, 0, 0.785, 0.0975, 0.8825, 0.195, 0.98, 0.295, 1.0775, 0.3925, 1.175, 0.49, 1.275, 0.5875, 1.3725, 0.685],
  "SoftwareVersions": "syngo_MR_E11",
  "SpacingBetweenSlices": 2,
  "StationName": "MRC35049",
  "TaskName": "things",
  "TotalReadoutTime": 0.0576811,
  "TxRefAmp": 246.652,
  "WipMemBlock": "3daffd6b-443c-4851-847b-7d521d3372df||Sequence: R016 ve11c/master r/e634e98; Dec 19 2017 11:00:25 by eja",
  "dcmmeta_affine": [
    [-1.9973554611206055, 0.10257967561483383, 0.006974251475185156, 101.74308013916016],
    [0.09393403679132462, 1.8757586479187012, -0.6875359416007996, -69.26252746582031],
    [0.041804611682891846, 0.6862992644309998, 1.8780962228775024, -67.00836944580078],
    [0.0, 0.0, 0.0, 1.0]
],
  "dcmmeta_reorient_transform": [
    [0.0, -1.0, 0.0, 103.0],
    [1.0, 0.0, 0.0, 0.0],
    [0.0, 0.0, 1.0, 0.0],
    [0.0, 0.0, 0.0, 1.0]
],
  "dcmmeta_shape": [104, 104, 60, 190],
  "dcmmeta_slice_dim": 2,
  "dcmmeta_version": 0.6,
  "global": {
    "const": {
      "AcquisitionMatrix": [104, 0, 0, 104],
      "AngioFlag": "N",
      "BitsAllocated": 16,
      "BitsStored": 16,
      "BodyPartExamined": "BRAIN",
      "Columns": 832,
      "EchoNumbers": 1,
      "EchoTime": 37.0,
      "EchoTrainLength": 104,
      "FlipAngle": 52.0,
      "HighBit": 15,
      "ImageOrientationPatient": [0.99867772212192, -0.0469670195928, 0.02090230628268, 0.05128983613772, 0.93787935253897, -0.3431496361503],
      "ImagePositionPatient": [-876.68516748577, -772.52480090986, 238.27650933055],
      "ImageType": [
        "ORIGINAL",
        "PRIMARY",
        "M",
        "MB",
        "ND",
        "MOSAIC"
],
      "ImagedNucleus": "1H",
      "ImagingFrequency": 123.258924,
      "InPlanePhaseEncodingDirection": "COL",
      "MRAcquisitionType": "2D",
      "MagneticFieldStrength": 3.0,
      "Manufacturer": "SIEMENS",
      "ManufacturerModelName": "Prisma_fit",
      "Modality": "MR",
      "NumberOfAverages": 1.0,
      "NumberOfPhaseEncodingSteps": 104,
      "PercentPhaseFieldOfView": 100.0,
      "PercentSampling": 100.0,
      "PerformedProcedureStepStartTime": "145556.029000",
      "PhotometricInterpretation": "MONOCHROME2",
      "PixelBandwidth": 2290.0,
      "PixelRepresentation": 0,
      "PixelSpacing": [2.0, 2.0],
      "ProtocolName": "func_task-things_run-5",
      "RepetitionTime": 1490.0,
      "Rows": 832,
      "SAR": 0.04382917732161,
      "SamplesPerPixel": 1,
      "ScanOptions": "FS",
      "ScanningSequence": "EP",
      "SequenceName": "epfid2d1_104",
      "SequenceVariant": [
        "SK",
        "SS"
],
      "SeriesDescription": "func_task-things_run-5",
      "SeriesNumber": 22,
      "SeriesTime": "155111.026000",
      "SliceLocation": -38.759058954098,
      "SliceThickness": 2.0,
      "SmallestImagePixelValue": 0,
      "SoftwareVersions": "syngo MR E11",
      "SpacingBetweenSlices": 1.9999999720897,
      "SpecificCharacterSet": "ISO_IR 100",
      "StudyID": "1",
      "StudyTime": "145555.943000",
      "TransmitCoilName": "Body",
      "VariableFlipAngleFlag": "N",
      "WindowCenterWidthExplanation": "Algo1",
      "dBdt": 0.0},
    "slices": {}
  },
  "time": {
    "samples": {
      "AcquisitionNumber": [1, 2, 3, 4, 5, 6, 7, 8, 9, 10, 11, 12, 13, 14, 15, 16, 17, 18, 19, 20, 21, 22, 23, 24, 25, 26, 27, 28, 29, 30, 31, 32, 33, 34, 35, 36, 37, 38, 39, 40, 41, 42, 43, 44, 45, 46, 47, 48, 49, 50, 51, 52, 53, 54, 55, 56, 57, 58, 59, 60, 61, 62, 63, 64, 65, 66, 67, 68, 69, 70, 71, 72, 73, 74, 75, 76, 77, 78, 79, 80, 81, 82, 83, 84, 85, 86, 87, 88, 89, 90, 91, 92, 93, 94, 95, 96, 97, 98, 99, 100, 101, 102, 103, 104, 105, 106, 107, 108, 109, 110, 111, 112, 113, 114, 115, 116, 117, 118, 119, 120, 121, 122, 123, 124, 125, 126, 127, 128, 129, 130, 131, 132, 133, 134, 135, 136, 137, 138, 139, 140, 141, 142, 143, 144, 145, 146, 147, 148, 149, 150, 151, 152, 153, 154, 155, 156, 157, 158, 159, 160, 161, 162, 163, 164, 165, 166, 167, 168, 169, 170, 171, 172, 173, 174, 175, 176, 177, 178, 179, 180, 181, 182, 183, 184, 185, 186, 187, 188, 189, 190],
      "AcquisitionTime": ["154946.515000", "154948.005000", "154949.495000", "154950.985000", "154952.475000", "154953.965000", "154955.455000", "154956.945000", "154958.435000", "154959.925000", "155001.415000", "155002.905000", "155004.395000", "155005.885000", "155007.375000", "155008.865000", "155010.355000", "155011.845000", "155013.335000", "155014.825000", "155016.315000", "155017.805000", "155019.295000", "155020.785000", "155022.275000", "155023.765000", "155025.255000", "155026.745000", "155028.235000", "155029.725000", "155031.215000", "155032.705000", "155034.195000", "155035.685000", "155037.175000", "155038.665000", "155040.155000", "155041.645000", "155043.135000", "155044.625000", "155046.115000", "155047.605000", "155049.095000", "155050.585000", "155052.075000", "155053.565000", "155055.055000", "155056.545000", "155058.035000", "155059.525000", "155101.015000", "155102.505000", "155103.995000", "155105.485000", "155106.975000", "155108.465000", "155109.955000", "155111.445000", "155112.935000", "155114.425000", "155115.915000", "155117.405000", "155118.895000", "155120.385000", "155121.875000", "155123.365000", "155124.855000", "155126.345000", "155127.835000", "155129.325000", "155130.815000", "155132.305000", "155133.795000", "155135.285000", "155136.775000", "155138.265000", "155139.755000", "155141.245000", "155142.735000", "155144.225000", "155145.715000", "155147.205000", "155148.695000", "155150.185000", "155151.675000", "155153.165000", "155154.655000", "155156.145000", "155157.635000", "155159.125000", "155200.615000", "155202.105000", "155203.595000", "155205.085000", "155206.575000", "155208.065000", "155209.555000", "155211.045000", "155212.535000", "155214.025000", "155215.515000", "155217.005000", "155218.495000", "155219.985000", "155221.475000", "155222.965000", "155224.455000", "155225.945000", "155227.435000", "155228.925000", "155230.415000", "155231.905000", "155233.395000", "155234.885000", "155236.375000", "155237.865000", "155239.355000", "155240.845000", "155242.335000", "155243.825000", "155245.315000", "155246.805000", "155248.295000", "155249.785000", "155251.275000", "155252.765000", "155254.255000", "155255.745000", "155257.235000", "155258.725000", "155300.215000", "155301.705000", "155303.195000", "155304.685000", "155306.175000", "155307.665000", "155309.155000", "155310.645000", "155312.135000", "155313.625000", "155315.115000", "155316.605000", "155318.095000", "155319.585000", "155321.075000", "155322.565000", "155324.055000", "155325.545000", "155327.035000", "155328.525000", "155330.015000", "155331.505000", "155332.995000", "155334.485000", "155335.975000", "155337.465000", "155338.955000", "155340.445000", "155341.935000", "155343.425000", "155344.915000", "155346.405000", "155347.895000", "155349.385000", "155350.875000", "155352.365000", "155353.855000", "155355.345000", "155356.835000", "155358.325000", "155359.815000", "155401.305000", "155402.795000", "155404.285000", "155405.775000", "155407.265000", "155408.755000", "155410.245000", "155411.735000", "155413.225000", "155414.715000", "155416.205000", "155417.695000", "155419.185000", "155420.675000", "155422.165000", "155423.655000", "155425.145000", "155426.635000", "155428.125000"],
      "ContentTime": ["155111.029000", "155111.033000", "155111.037000", "155111.040000", "155111.044000", "155111.047000", "155111.051000", "155111.054000", "155111.057000", "155111.061000", "155111.064000", "155111.068000", "155111.071000", "155111.075000", "155111.078000", "155111.082000", "155111.085000", "155111.088000", "155111.092000", "155111.095000", "155111.099000", "155111.102000", "155111.117000", "155111.121000", "155111.124000", "155111.128000", "155111.133000", "155111.136000", "155111.141000", "155111.144000", "155111.148000", "155130.989000", "155130.993000", "155130.996000", "155131.001000", "155131.004000", "155131.008000", "155131.011000", "155131.014000", "155131.018000", "155131.021000", "155131.024000", "155131.028000", "155131.031000", "155131.034000", "155131.038000", "155131.041000", "155131.045000", "155131.048000", "155131.051000", "155131.055000", "155131.058000", "155150.989000", "155150.993000", "155150.996000", "155151.000000", "155151.003000", "155151.007000", "155151.010000", "155151.034000", "155151.038000", "155151.041000", "155151.044000", "155151.048000", "155151.051000", "155151.055000", "155151.058000", "155151.061000", "155151.065000", "155151.068000", "155151.071000", "155151.075000", "155210.989000", "155210.993000", "155210.997000", "155211.002000", "155211.005000", "155211.008000", "155211.012000", "155211.015000", "155211.019000", "155211.022000", "155211.025000", "155211.029000", "155211.032000", "155211.035000", "155211.039000", "155211.042000", "155211.046000", "155211.049000", "155211.052000", "155211.056000", "155250.990000", "155250.994000", "155250.997000", "155251.002000", "155251.005000", "155251.008000", "155251.012000", "155251.015000", "155251.019000", "155251.022000", "155251.026000", "155251.029000", "155251.032000", "155251.036000", "155251.039000", "155251.043000", "155251.046000", "155251.049000", "155251.053000", "155251.056000", "155251.059000", "155251.063000", "155251.066000", "155251.070000", "155251.073000", "155251.077000", "155251.080000", "155251.083000", "155251.087000", "155251.090000", "155251.094000", "155330.990000", "155330.993000", "155330.997000", "155331.000000", "155331.004000", "155331.007000", "155331.011000", "155331.014000", "155331.017000", "155331.021000", "155331.024000", "155331.028000", "155331.031000", "155331.035000", "155331.038000", "155331.041000", "155331.045000", "155331.048000", "155331.052000", "155331.055000", "155331.059000", "155331.062000", "155331.066000", "155331.069000", "155331.072000", "155331.076000", "155331.079000", "155410.989000", "155410.993000", "155410.996000", "155411.001000", "155411.004000", "155411.008000", "155411.011000", "155411.015000", "155411.018000", "155411.021000", "155411.039000", "155411.042000", "155411.046000", "155411.049000", "155411.052000", "155411.056000", "155411.059000", "155411.063000", "155411.066000", "155411.069000", "155411.073000", "155411.076000", "155411.080000", "155411.083000", "155411.086000", "155411.090000", "155411.093000", "155430.193000", "155430.196000", "155430.200000", "155430.203000", "155430.207000", "155430.210000", "155430.213000", "155430.217000", "155430.220000", "155430.224000", "155430.227000", "155430.230000", "155430.234000"],
      "InstanceCreationTime": ["155111.029000", "155111.033000", "155111.037000", "155111.040000", "155111.044000", "155111.047000", "155111.051000", "155111.054000", "155111.057000", "155111.061000", "155111.064000", "155111.068000", "155111.071000", "155111.075000", "155111.078000", "155111.082000", "155111.085000", "155111.088000", "155111.092000", "155111.095000", "155111.099000", "155111.102000", "155111.117000", "155111.121000", "155111.124000", "155111.128000", "155111.133000", "155111.136000", "155111.141000", "155111.144000", "155111.148000", "155130.989000", "155130.993000", "155130.996000", "155131.001000", "155131.004000", "155131.008000", "155131.011000", "155131.014000", "155131.018000", "155131.021000", "155131.024000", "155131.028000", "155131.031000", "155131.034000", "155131.038000", "155131.041000", "155131.045000", "155131.048000", "155131.051000", "155131.055000", "155131.058000", "155150.989000", "155150.993000", "155150.996000", "155151.000000", "155151.003000", "155151.007000", "155151.010000", "155151.034000", "155151.038000", "155151.041000", "155151.044000", "155151.048000", "155151.051000", "155151.055000", "155151.058000", "155151.061000", "155151.065000", "155151.068000", "155151.071000", "155151.075000", "155210.989000", "155210.993000", "155210.997000", "155211.002000", "155211.005000", "155211.008000", "155211.012000", "155211.015000", "155211.019000", "155211.022000", "155211.025000", "155211.029000", "155211.032000", "155211.035000", "155211.039000", "155211.042000", "155211.046000", "155211.049000", "155211.052000", "155211.056000", "155250.990000", "155250.994000", "155250.997000", "155251.002000", "155251.005000", "155251.008000", "155251.012000", "155251.015000", "155251.019000", "155251.022000", "155251.026000", "155251.029000", "155251.032000", "155251.036000", "155251.039000", "155251.043000", "155251.046000", "155251.049000", "155251.053000", "155251.056000", "155251.059000", "155251.063000", "155251.066000", "155251.070000", "155251.073000", "155251.077000", "155251.080000", "155251.083000", "155251.087000", "155251.090000", "155251.094000", "155330.990000", "155330.993000", "155330.997000", "155331.000000", "155331.004000", "155331.007000", "155331.011000", "155331.014000", "155331.017000", "155331.021000", "155331.024000", "155331.028000", "155331.031000", "155331.035000", "155331.038000", "155331.041000", "155331.045000", "155331.048000", "155331.052000", "155331.055000", "155331.059000", "155331.062000", "155331.066000", "155331.069000", "155331.072000", "155331.076000", "155331.079000", "155410.989000", "155410.993000", "155410.996000", "155411.001000", "155411.004000", "155411.008000", "155411.011000", "155411.015000", "155411.018000", "155411.021000", "155411.039000", "155411.042000", "155411.046000", "155411.049000", "155411.052000", "155411.056000", "155411.059000", "155411.063000", "155411.066000", "155411.069000", "155411.073000", "155411.076000", "155411.080000", "155411.083000", "155411.086000", "155411.090000", "155411.093000", "155430.193000", "155430.196000", "155430.200000", "155430.203000", "155430.207000", "155430.210000", "155430.213000", "155430.217000", "155430.220000", "155430.224000", "155430.227000", "155430.230000", "155430.234000"],
      "InstanceNumber": [1, 2, 3, 4, 5, 6, 7, 8, 9, 10, 11, 12, 13, 14, 15, 16, 17, 18, 19, 20, 21, 22, 23, 24, 25, 26, 27, 28, 29, 30, 31, 32, 33, 34, 35, 36, 37, 38, 39, 40, 41, 42, 43, 44, 45, 46, 47, 48, 49, 50, 51, 52, 53, 54, 55, 56, 57, 58, 59, 60, 61, 62, 63, 64, 65, 66, 67, 68, 69, 70, 71, 72, 73, 74, 75, 76, 77, 78, 79, 80, 81, 82, 83, 84, 85, 86, 87, 88, 89, 90, 91, 92, 93, 94, 95, 96, 97, 98, 99, 100, 101, 102, 103, 104, 105, 106, 107, 108, 109, 110, 111, 112, 113, 114, 115, 116, 117, 118, 119, 120, 121, 122, 123, 124, 125, 126, 127, 128, 129, 130, 131, 132, 133, 134, 135, 136, 137, 138, 139, 140, 141, 142, 143, 144, 145, 146, 147, 148, 149, 150, 151, 152, 153, 154, 155, 156, 157, 158, 159, 160, 161, 162, 163, 164, 165, 166, 167, 168, 169, 170, 171, 172, 173, 174, 175, 176, 177, 178, 179, 180, 181, 182, 183, 184, 185, 186, 187, 188, 189, 190],
      "LargestImagePixelValue": [45624, 44123, 43712, 43674, 42986, 43056, 42393, 43030, 43086, 43656, 44030, 44035, 43493, 43308, 42790, 42817, 43019, 42705, 43474, 43554, 43747, 44103, 43754, 43548, 43738, 42731, 42870, 42772, 41949, 42723, 43088, 42706, 42788, 42231, 43178, 43034, 43012, 42745, 42868, 42577, 42613, 42915, 42927, 42668, 43192, 42611, 42677, 42688, 42318, 42099, 43102, 43527, 42715, 42335, 41973, 42673, 42171, 42557, 42309, 42218, 42537, 42176, 42285, 42560, 42069, 42566, 42162, 42787, 42245, 43217, 43413, 43720, 44138, 43258, 43229, 43253, 44001, 43646, 43066, 42444, 42138, 42575, 42415, 42629, 42746, 43278, 43837, 43661, 43392, 43319, 43372, 42823, 42569, 42728, 42523, 42267, 42978, 43083, 42774, 43287, 42941, 43883, 43302, 42719, 44040, 43652, 43687, 44292, 44235, 43869, 43354, 43695, 44514, 44023, 43699, 43706, 42976, 43016, 43455, 43546, 43012, 42682, 42591, 43404, 43353, 43020, 42227, 42745, 43744, 44165, 43580, 42810, 42768, 42797, 43341, 43311, 43008, 42920, 42642, 42786, 43299, 43043, 42557, 42923, 42826, 44027, 43175, 42342, 42489, 41912, 42277, 42433, 42373, 43245, 42412, 42286, 42642, 42837, 42233, 42596, 42091, 43008, 43594, 43838, 44081, 42899, 42290, 42548, 42127, 42103, 41870, 42489, 41793, 42510, 44398, 44056, 44338, 43059, 42819, 42917, 42517, 42835, 41857, 42782, 42422, 42785, 43126, 42166, 41809, 42047],
      "WindowCenter": [10421.0, 10369.0, 10337.0, 10300.0, 10260.0, 10256.0, 10243.0, 10285.0, 10327.0, 10345.0, 10321.0, 10288.0, 10270.0, 10269.0, 10265.0, 10265.0, 10266.0, 10267.0, 10276.0, 10284.0, 10300.0, 10314.0, 10315.0, 10314.0, 10326.0, 10317.0, 10314.0, 10306.0, 10299.0, 10299.0, 10295.0, 10291.0, 10289.0, 10284.0, 10292.0, 10302.0, 10298.0, 10281.0, 10270.0, 10267.0, 10286.0, 10293.0, 10296.0, 10280.0, 10281.0, 10279.0, 10276.0, 10277.0, 10272.0, 10288.0, 10298.0, 10299.0, 10279.0, 10264.0, 10257.0, 10265.0, 10279.0, 10286.0, 10282.0, 10273.0, 10262.0, 10260.0, 10261.0, 10275.0, 10279.0, 10283.0, 10283.0, 10280.0, 10284.0, 10320.0, 10340.0, 10326.0, 10290.0, 10259.0, 10257.0, 10273.0, 10296.0, 10287.0, 10276.0, 10246.0, 10236.0, 10243.0, 10249.0, 10259.0, 10266.0, 10275.0, 10295.0, 10289.0, 10289.0, 10286.0, 10305.0, 10314.0, 10304.0, 10294.0, 10287.0, 10280.0, 10275.0, 10283.0, 10283.0, 10275.0, 10290.0, 10311.0, 10309.0, 10303.0, 10297.0, 10304.0, 10331.0, 10321.0, 10292.0, 10267.0, 10256.0, 10278.0, 10308.0, 10310.0, 10289.0, 10289.0, 10284.0, 10295.0, 10292.0, 10268.0, 10235.0, 10229.0, 10243.0, 10261.0, 10273.0, 10263.0, 10247.0, 10259.0, 10286.0, 10311.0, 10299.0, 10271.0, 10261.0, 10264.0, 10280.0, 10290.0, 10277.0, 10261.0, 10255.0, 10259.0, 10272.0, 10284.0, 10278.0, 10271.0, 10285.0, 10307.0, 10308.0, 10274.0, 10255.0, 10241.0, 10244.0, 10257.0, 10272.0, 10298.0, 10280.0, 10257.0, 10244.0, 10250.0, 10259.0, 10273.0, 10271.0, 10278.0, 10309.0, 10325.0, 10293.0, 10250.0, 10235.0, 10231.0, 10221.0, 10219.0, 10213.0, 10211.0, 10220.0, 10243.0, 10282.0, 10292.0, 10308.0, 10285.0, 10282.0, 10277.0, 10285.0, 10301.0, 10285.0, 10281.0, 10267.0, 10264.0, 10268.0, 10265.0, 10251.0, 10250.0],
      "WindowWidth": [22585.0, 22422.0, 22321.0, 22225.0, 22128.0, 22109.0, 22079.0, 22168.0, 22263.0, 22310.0, 22248.0, 22170.0, 22130.0, 22128.0, 22124.0, 22125.0, 22126.0, 22129.0, 22144.0, 22167.0, 22206.0, 22237.0, 22238.0, 22238.0, 22267.0, 22249.0, 22242.0, 22220.0, 22205.0, 22205.0, 22196.0, 22191.0, 22185.0, 22177.0, 22189.0, 22212.0, 22207.0, 22167.0, 22138.0, 22129.0, 22177.0, 22194.0, 22200.0, 22165.0, 22162.0, 22166.0, 22156.0, 22160.0, 22150.0, 22186.0, 22207.0, 22210.0, 22167.0, 22131.0, 22119.0, 22131.0, 22164.0, 22178.0, 22172.0, 22153.0, 22127.0, 22123.0, 22125.0, 22155.0, 22168.0, 22173.0, 22179.0, 22172.0, 22178.0, 22258.0, 22306.0, 22277.0, 22191.0, 22124.0, 22116.0, 22156.0, 22201.0, 22184.0, 22161.0, 22095.0, 22069.0, 22084.0, 22097.0, 22123.0, 22139.0, 22161.0, 22202.0, 22191.0, 22191.0, 22184.0, 22227.0, 22248.0, 22225.0, 22200.0, 22185.0, 22171.0, 22158.0, 22176.0, 22177.0, 22160.0, 22194.0, 22238.0, 22237.0, 22224.0, 22208.0, 22219.0, 22282.0, 22262.0, 22197.0, 22139.0, 22114.0, 22165.0, 22231.0, 22236.0, 22187.0, 22185.0, 22179.0, 22202.0, 22193.0, 22139.0, 22066.0, 22058.0, 22086.0, 22125.0, 22154.0, 22134.0, 22097.0, 22120.0, 22178.0, 22237.0, 22214.0, 22151.0, 22127.0, 22138.0, 22167.0, 22191.0, 22163.0, 22124.0, 22115.0, 22122.0, 22150.0, 22180.0, 22165.0, 22150.0, 22179.0, 22223.0, 22233.0, 22158.0, 22115.0, 22083.0, 22088.0, 22118.0, 22157.0, 22210.0, 22174.0, 22122.0, 22089.0, 22105.0, 22126.0, 22154.0, 22155.0, 22166.0, 22239.0, 22271.0, 22197.0, 22102.0, 22067.0, 22056.0, 22037.0, 22031.0, 22021.0, 22015.0, 22036.0, 22089.0, 22180.0, 22203.0, 22235.0, 22188.0, 22177.0, 22166.0, 22185.0, 22220.0, 22188.0, 22175.0, 22147.0, 22138.0, 22144.0, 22143.0, 22112.0, 22109.0]
    },
    "slices": {}
  }
}