{
  "AcquisitionMatrixPE": 104,
  "AcquisitionNumber": 1,
  "AcquisitionTime": "15:24:54.172500",
  "BandwidthPerPixelPhaseEncode": 17.17,
  "BaseResolution": 104,
  "BodyPartExamined": "BRAIN",
  "CoilString": "HC1-7;NC1_2",
  "ConsistencyInfo": "N4_VE11C_LATEST_20160120",
  "ConversionSoftware": "dcm2niix",
  "ConversionSoftwareVersion": "v1.0.20190902",
  "DerivedVendorReportedEchoSpacing": 0.000560011,
  "DeviceSerialNumber": "167006",
  "DwellTime": 2.1e-06,
  "EchoTime": 0.037,
  "EchoTrainLength": 104,
  "EffectiveEchoSpacing": 0.000560011,
  "FlipAngle": 52,
  "ImageComments": "Unaliased_MB4_PE3_LB",
  "ImageOrientationPatientDICOM": [0.998678, -0.046967, 0.0209023, 0.0512898, 0.937879, -0.34315],
  "ImageType": [
    "ORIGINAL",
    "PRIMARY",
    "P",
    "MB",
    "ND",
    "MOSAIC"
],
  "ImagingFrequency": 123.259,
  "InPlanePhaseEncodingDirectionDICOM": "COL",
  "InstitutionAddress": "Chemin_Queen-Mary_4565_Montreal_District_CA_H3W_1W5",
  "InstitutionName": "IUGM",
  "InstitutionalDepartmentName": "Department",
  "MRAcquisitionType": "2D",
  "MagneticFieldStrength": 3,
  "Manufacturer": "Siemens",
  "ManufacturersModelName": "Prisma_fit",
  "Modality": "MR",
  "MultibandAccelerationFactor": 4,
  "PartialFourier": 1,
  "PatientPosition": "HFS",
  "PercentPhaseFOV": 100,
  "PhaseEncodingDirection": "j",
  "PhaseEncodingSteps": 104,
  "PhaseResolution": 1,
  "PixelBandwidth": 2290,
  "ProcedureStepDescription": "memory_things",
  "ProtocolName": "func_task-things_run-1",
  "PulseSequenceDetails": "%CustomerSeq%_cmrr_mbep2d_bold",
  "ReceiveCoilActiveElements": "HC1-7;NC1,2",
  "ReceiveCoilName": "HeadNeck_64",
  "ReconMatrixPE": 104,
  "RepetitionTime": 1.49,
  "SAR": 0.0438292,
  "ScanOptions": "FS",
  "ScanningSequence": "EP",
  "SequenceName": "epfid2d1_104",
  "SequenceVariant": "SK_SS",
  "SeriesDescription": "func_task-things_run-1",
  "SeriesNumber": 11,
  "ShimSetting": [627, -7239, -8818, 593, -11, -155, -19, -14],
  "SliceThickness": 2,
  "SliceTiming": [0, 0.785, 0.0975, 0.8825, 0.1975, 0.98, 0.295, 1.0775, 0.3925, 1.1775, 0.49, 1.275, 0.5875, 1.3725, 0.6875, 0, 0.785, 0.0975, 0.8825, 0.1975, 0.98, 0.295, 1.0775, 0.3925, 1.1775, 0.49, 1.275, 0.5875, 1.3725, 0.6875, 0, 0.785, 0.0975, 0.8825, 0.1975, 0.98, 0.295, 1.0775, 0.3925, 1.1775, 0.49, 1.275, 0.5875, 1.3725, 0.6875, 0, 0.785, 0.0975, 0.8825, 0.1975, 0.98, 0.295, 1.0775, 0.3925, 1.1775, 0.49, 1.275, 0.5875, 1.3725, 0.6875],
  "SoftwareVersions": "syngo_MR_E11",
  "SpacingBetweenSlices": 2,
  "StationName": "MRC35049",
  "TaskName": "things",
  "TotalReadoutTime": 0.0576811,
  "TxRefAmp": 246.652,
  "WipMemBlock": "c10f98fa-ebcb-44c3-8efe-67bb8330d4ac||Sequence: R016 ve11c/master r/e634e98; Dec 19 2017 11:00:25 by eja",
  "dcmmeta_affine": [
    [-1.9973554611206055, 0.10257967561483383, 0.006974251475185156, 101.74308013916016],
    [0.09393403679132462, 1.8757586479187012, -0.6875359416007996, -69.26252746582031],
    [0.041804611682891846, 0.6862992644309998, 1.8780962228775024, -67.00836944580078],
    [0.0, 0.0, 0.0, 1.0]
],
  "dcmmeta_reorient_transform": [
    [0.0, -1.0, 0.0, 103.0],
    [1.0, 0.0, 0.0, 0.0],
    [0.0, 0.0, 1.0, 0.0],
    [0.0, 0.0, 0.0, 1.0]
],
  "dcmmeta_shape": [104, 104, 60, 190],
  "dcmmeta_slice_dim": 2,
  "dcmmeta_version": 0.6,
  "global": {
    "const": {
      "AcquisitionMatrix": [104, 0, 0, 104],
      "AngioFlag": "N",
      "BitsAllocated": 16,
      "BitsStored": 16,
      "BodyPartExamined": "BRAIN",
      "Columns": 832,
      "EchoNumbers": 1,
      "EchoTime": 37.0,
      "EchoTrainLength": 104,
      "FlipAngle": 52.0,
      "HighBit": 15,
      "ImageOrientationPatient": [0.99867772212192, -0.0469670195928, 0.02090230628268, 0.05128983613772, 0.93787935253897, -0.3431496361503],
      "ImagePositionPatient": [-876.68516748577, -772.52480090986, 238.27650933055],
      "ImageType": [
        "ORIGINAL",
        "PRIMARY",
        "P",
        "MB",
        "ND",
        "MOSAIC"
],
      "ImagedNucleus": "1H",
      "ImagingFrequency": 123.258909,
      "InPlanePhaseEncodingDirection": "COL",
      "LargestImagePixelValue": 4095,
      "MRAcquisitionType": "2D",
      "MagneticFieldStrength": 3.0,
      "Manufacturer": "SIEMENS",
      "ManufacturerModelName": "Prisma_fit",
      "Modality": "MR",
      "NumberOfAverages": 1.0,
      "NumberOfPhaseEncodingSteps": 104,
      "PercentPhaseFieldOfView": 100.0,
      "PercentSampling": 100.0,
      "PerformedProcedureStepStartTime": "145556.029000",
      "PhotometricInterpretation": "MONOCHROME2",
      "PixelBandwidth": 2290.0,
      "PixelRepresentation": 0,
      "PixelSpacing": [2.0, 2.0],
      "ProtocolName": "func_task-things_run-1",
      "RepetitionTime": 1490.0,
      "RescaleIntercept": -4096.0,
      "RescaleSlope": 2.0,
      "RescaleType": "US",
      "Rows": 832,
      "SAR": 0.04382917732161,
      "SamplesPerPixel": 1,
      "ScanOptions": "FS",
      "ScanningSequence": "EP",
      "SequenceName": "epfid2d1_104",
      "SequenceVariant": [
        "SK",
        "SS"
],
      "SeriesDescription": "func_task-things_run-1",
      "SeriesNumber": 11,
      "SeriesTime": "152610.043000",
      "SliceLocation": -38.759058954098,
      "SliceThickness": 2.0,
      "SmallestImagePixelValue": 0,
      "SoftwareVersions": "syngo MR E11",
      "SpacingBetweenSlices": 1.9999999720897,
      "SpecificCharacterSet": "ISO_IR 100",
      "StudyID": "1",
      "StudyTime": "145555.943000",
      "TransmitCoilName": "Body",
      "VariableFlipAngleFlag": "N",
      "WindowCenterWidthExplanation": "Algo1",
      "dBdt": 0.0},
    "slices": {}
  },
  "time": {
    "samples": {
      "AcquisitionNumber": [1, 2, 3, 4, 5, 6, 7, 8, 9, 10, 11, 12, 13, 14, 15, 16, 17, 18, 19, 20, 21, 22, 23, 24, 25, 26, 27, 28, 29, 30, 31, 32, 33, 34, 35, 36, 37, 38, 39, 40, 41, 42, 43, 44, 45, 46, 47, 48, 49, 50, 51, 52, 53, 54, 55, 56, 57, 58, 59, 60, 61, 62, 63, 64, 65, 66, 67, 68, 69, 70, 71, 72, 73, 74, 75, 76, 77, 78, 79, 80, 81, 82, 83, 84, 85, 86, 87, 88, 89, 90, 91, 92, 93, 94, 95, 96, 97, 98, 99, 100, 101, 102, 103, 104, 105, 106, 107, 108, 109, 110, 111, 112, 113, 114, 115, 116, 117, 118, 119, 120, 121, 122, 123, 124, 125, 126, 127, 128, 129, 130, 131, 132, 133, 134, 135, 136, 137, 138, 139, 140, 141, 142, 143, 144, 145, 146, 147, 148, 149, 150, 151, 152, 153, 154, 155, 156, 157, 158, 159, 160, 161, 162, 163, 164, 165, 166, 167, 168, 169, 170, 171, 172, 173, 174, 175, 176, 177, 178, 179, 180, 181, 182, 183, 184, 185, 186, 187, 188, 189, 190],
      "AcquisitionTime": ["152454.172500", "152455.662500", "152457.152500", "152458.642500", "152500.132500", "152501.622500", "152503.112500", "152504.602500", "152506.092500", "152507.582500", "152509.072500", "152510.562500", "152512.052500", "152513.542500", "152515.032500", "152516.522500", "152518.012500", "152519.502500", "152520.992500", "152522.482500", "152523.972500", "152525.462500", "152526.952500", "152528.442500", "152529.932500", "152531.422500", "152532.912500", "152534.402500", "152535.892500", "152537.382500", "152538.872500", "152540.362500", "152541.852500", "152543.342500", "152544.832500", "152546.322500", "152547.812500", "152549.302500", "152550.792500", "152552.282500", "152553.772500", "152555.262500", "152556.752500", "152558.242500", "152559.732500", "152601.222500", "152602.712500", "152604.202500", "152605.692500", "152607.182500", "152608.672500", "152610.162500", "152611.652500", "152613.142500", "152614.632500", "152616.122500", "152617.612500", "152619.102500", "152620.592500", "152622.082500", "152623.572500", "152625.062500", "152626.552500", "152628.042500", "152629.532500", "152631.022500", "152632.512500", "152634.002500", "152635.492500", "152636.982500", "152638.472500", "152639.962500", "152641.452500", "152642.942500", "152644.432500", "152645.922500", "152647.412500", "152648.902500", "152650.392500", "152651.882500", "152653.372500", "152654.862500", "152656.352500", "152657.842500", "152659.332500", "152700.822500", "152702.312500", "152703.802500", "152705.292500", "152706.782500", "152708.272500", "152709.762500", "152711.252500", "152712.742500", "152714.232500", "152715.722500", "152717.212500", "152718.702500", "152720.192500", "152721.682500", "152723.172500", "152724.662500", "152726.152500", "152727.642500", "152729.132500", "152730.622500", "152732.112500", "152733.602500", "152735.092500", "152736.582500", "152738.072500", "152739.562500", "152741.052500", "152742.542500", "152744.032500", "152745.522500", "152747.012500", "152748.502500", "152749.992500", "152751.482500", "152752.972500", "152754.462500", "152755.952500", "152757.442500", "152758.932500", "152800.422500", "152801.912500", "152803.402500", "152804.892500", "152806.382500", "152807.872500", "152809.362500", "152810.852500", "152812.342500", "152813.832500", "152815.322500", "152816.812500", "152818.302500", "152819.792500", "152821.282500", "152822.772500", "152824.262500", "152825.752500", "152827.242500", "152828.732500", "152830.222500", "152831.712500", "152833.202500", "152834.692500", "152836.182500", "152837.672500", "152839.162500", "152840.652500", "152842.142500", "152843.632500", "152845.122500", "152846.612500", "152848.102500", "152849.592500", "152851.082500", "152852.572500", "152854.062500", "152855.552500", "152857.042500", "152858.532500", "152900.022500", "152901.512500", "152903.002500", "152904.492500", "152905.982500", "152907.472500", "152908.962500", "152910.452500", "152911.942500", "152913.432500", "152914.922500", "152916.412500", "152917.902500", "152919.392500", "152920.882500", "152922.372500", "152923.862500", "152925.352500", "152926.842500", "152928.332500", "152929.822500", "152931.312500", "152932.802500", "152934.292500", "152935.782500"],
      "ContentTime": ["152610.045000", "152610.048000", "152610.050000", "152610.053000", "152610.055000", "152610.058000", "152610.061000", "152610.063000", "152610.066000", "152610.068000", "152610.071000", "152610.073000", "152610.076000", "152610.078000", "152610.081000", "152610.083000", "152610.086000", "152610.088000", "152610.091000", "152610.093000", "152610.096000", "152630.019000", "152630.022000", "152630.024000", "152630.027000", "152630.030000", "152630.032000", "152630.035000", "152630.037000", "152630.040000", "152630.042000", "152630.045000", "152630.047000", "152630.050000", "152630.052000", "152630.054000", "152630.057000", "152630.060000", "152630.062000", "152630.065000", "152630.067000", "152650.013000", "152650.015000", "152650.018000", "152650.021000", "152650.023000", "152650.026000", "152650.028000", "152650.031000", "152650.033000", "152650.036000", "152650.039000", "152650.041000", "152650.043000", "152650.046000", "152650.049000", "152650.051000", "152650.054000", "152650.056000", "152650.059000", "152650.061000", "152650.064000", "152710.006000", "152710.008000", "152710.011000", "152710.013000", "152710.016000", "152710.019000", "152710.021000", "152710.024000", "152710.026000", "152710.029000", "152710.032000", "152710.034000", "152710.037000", "152710.039000", "152710.042000", "152710.044000", "152710.047000", "152710.050000", "152710.052000", "152710.055000", "152730.011000", "152730.013000", "152730.016000", "152730.018000", "152730.021000", "152730.023000", "152730.026000", "152730.028000", "152730.031000", "152730.033000", "152730.036000", "152730.038000", "152730.041000", "152730.044000", "152730.046000", "152730.049000", "152730.051000", "152730.054000", "152730.056000", "152730.059000", "152810.042000", "152810.045000", "152810.047000", "152810.050000", "152810.052000", "152810.055000", "152810.057000", "152810.060000", "152810.062000", "152810.065000", "152810.067000", "152810.070000", "152810.073000", "152810.075000", "152810.078000", "152810.080000", "152810.083000", "152810.085000", "152810.088000", "152810.095000", "152810.098000", "152810.100000", "152810.103000", "152810.106000", "152810.108000", "152810.111000", "152810.113000", "152810.116000", "152850.049000", "152850.052000", "152850.055000", "152850.057000", "152850.060000", "152850.062000", "152850.065000", "152850.067000", "152850.070000", "152850.072000", "152850.075000", "152850.078000", "152850.080000", "152850.083000", "152850.085000", "152850.088000", "152850.090000", "152850.093000", "152850.095000", "152850.098000", "152850.101000", "152850.103000", "152850.106000", "152850.108000", "152850.111000", "152850.114000", "152850.116000", "152930.028000", "152930.031000", "152930.033000", "152930.036000", "152930.039000", "152930.041000", "152930.044000", "152930.046000", "152930.049000", "152930.051000", "152930.054000", "152930.056000", "152930.059000", "152930.061000", "152930.064000", "152930.066000", "152930.069000", "152930.071000", "152930.074000", "152930.076000", "152930.079000", "152930.082000", "152930.084000", "152930.087000", "152930.089000", "152930.092000", "152930.094000", "152937.905000", "152937.908000", "152937.910000", "152937.913000", "152937.915000", "152937.918000"],
      "InstanceCreationTime": ["152610.045000", "152610.048000", "152610.050000", "152610.053000", "152610.055000", "152610.058000", "152610.061000", "152610.063000", "152610.066000", "152610.068000", "152610.071000", "152610.073000", "152610.076000", "152610.078000", "152610.081000", "152610.083000", "152610.086000", "152610.088000", "152610.091000", "152610.093000", "152610.096000", "152630.019000", "152630.022000", "152630.024000", "152630.027000", "152630.030000", "152630.032000", "152630.035000", "152630.037000", "152630.040000", "152630.042000", "152630.045000", "152630.047000", "152630.050000", "152630.052000", "152630.054000", "152630.057000", "152630.060000", "152630.062000", "152630.065000", "152630.067000", "152650.013000", "152650.015000", "152650.018000", "152650.021000", "152650.023000", "152650.026000", "152650.028000", "152650.031000", "152650.033000", "152650.036000", "152650.039000", "152650.041000", "152650.043000", "152650.046000", "152650.049000", "152650.051000", "152650.054000", "152650.056000", "152650.059000", "152650.061000", "152650.064000", "152710.006000", "152710.008000", "152710.011000", "152710.013000", "152710.016000", "152710.019000", "152710.021000", "152710.024000", "152710.026000", "152710.029000", "152710.032000", "152710.034000", "152710.037000", "152710.039000", "152710.042000", "152710.044000", "152710.047000", "152710.050000", "152710.052000", "152710.055000", "152730.011000", "152730.013000", "152730.016000", "152730.018000", "152730.021000", "152730.023000", "152730.026000", "152730.028000", "152730.031000", "152730.033000", "152730.036000", "152730.038000", "152730.041000", "152730.044000", "152730.046000", "152730.049000", "152730.051000", "152730.054000", "152730.056000", "152730.059000", "152810.042000", "152810.045000", "152810.047000", "152810.050000", "152810.052000", "152810.055000", "152810.057000", "152810.060000", "152810.062000", "152810.065000", "152810.067000", "152810.070000", "152810.073000", "152810.075000", "152810.078000", "152810.080000", "152810.083000", "152810.085000", "152810.088000", "152810.095000", "152810.098000", "152810.100000", "152810.103000", "152810.106000", "152810.108000", "152810.111000", "152810.113000", "152810.116000", "152850.049000", "152850.052000", "152850.055000", "152850.057000", "152850.060000", "152850.062000", "152850.065000", "152850.067000", "152850.070000", "152850.072000", "152850.075000", "152850.078000", "152850.080000", "152850.083000", "152850.085000", "152850.088000", "152850.090000", "152850.093000", "152850.095000", "152850.098000", "152850.101000", "152850.103000", "152850.106000", "152850.108000", "152850.111000", "152850.114000", "152850.116000", "152930.028000", "152930.031000", "152930.033000", "152930.036000", "152930.039000", "152930.041000", "152930.044000", "152930.046000", "152930.049000", "152930.051000", "152930.054000", "152930.056000", "152930.059000", "152930.061000", "152930.064000", "152930.066000", "152930.069000", "152930.071000", "152930.074000", "152930.076000", "152930.079000", "152930.082000", "152930.084000", "152930.087000", "152930.089000", "152930.092000", "152930.094000", "152937.905000", "152937.908000", "152937.910000", "152937.913000", "152937.915000", "152937.918000"],
      "InstanceNumber": [1, 2, 3, 4, 5, 6, 7, 8, 9, 10, 11, 12, 13, 14, 15, 16, 17, 18, 19, 20, 21, 22, 23, 24, 25, 26, 27, 28, 29, 30, 31, 32, 33, 34, 35, 36, 37, 38, 39, 40, 41, 42, 43, 44, 45, 46, 47, 48, 49, 50, 51, 52, 53, 54, 55, 56, 57, 58, 59, 60, 61, 62, 63, 64, 65, 66, 67, 68, 69, 70, 71, 72, 73, 74, 75, 76, 77, 78, 79, 80, 81, 82, 83, 84, 85, 86, 87, 88, 89, 90, 91, 92, 93, 94, 95, 96, 97, 98, 99, 100, 101, 102, 103, 104, 105, 106, 107, 108, 109, 110, 111, 112, 113, 114, 115, 116, 117, 118, 119, 120, 121, 122, 123, 124, 125, 126, 127, 128, 129, 130, 131, 132, 133, 134, 135, 136, 137, 138, 139, 140, 141, 142, 143, 144, 145, 146, 147, 148, 149, 150, 151, 152, 153, 154, 155, 156, 157, 158, 159, 160, 161, 162, 163, 164, 165, 166, 167, 168, 169, 170, 171, 172, 173, 174, 175, 176, 177, 178, 179, 180, 181, 182, 183, 184, 185, 186, 187, 188, 189, 190],
      "WindowCenter": [4866.0, 4870.0, 4800.0, 4800.0, 4804.0, 4874.0, 4878.0, 4878.0, 4876.0, 4844.0, 4832.0, 4838.0, 4830.0, 4830.0, 4842.0, 4868.0, 4868.0, 4878.0, 4878.0, 4874.0, 4870.0, 4834.0, 4826.0, 4838.0, 4834.0, 4830.0, 4866.0, 4868.0, 4840.0, 4868.0, 4836.0, 4798.0, 4840.0, 4872.0, 4806.0, 4866.0, 4836.0, 4798.0, 4834.0, 4868.0, 4870.0, 4838.0, 4868.0, 4868.0, 4802.0, 4802.0, 4866.0, 4876.0, 4872.0, 4802.0, 4836.0, 4868.0, 4870.0, 4836.0, 4802.0, 4830.0, 4864.0, 4864.0, 4804.0, 4834.0, 4840.0, 4804.0, 4840.0, 4864.0, 4826.0, 4838.0, 4838.0, 4864.0, 4806.0, 4834.0, 4836.0, 4822.0, 4864.0, 4870.0, 4838.0, 4802.0, 4838.0, 4862.0, 4804.0, 4832.0, 4866.0, 4866.0, 4830.0, 4834.0, 4840.0, 4796.0, 4804.0, 4836.0, 4864.0, 4840.0, 4800.0, 4800.0, 4832.0, 4866.0, 4864.0, 4798.0, 4806.0, 4838.0, 4840.0, 4866.0, 4804.0, 4794.0, 4830.0, 4862.0, 4832.0, 4796.0, 4836.0, 4828.0, 4802.0, 4798.0, 4832.0, 4838.0, 4836.0, 4798.0, 4802.0, 4838.0, 4838.0, 4832.0, 4836.0, 4800.0, 4832.0, 4806.0, 4800.0, 4832.0, 4834.0, 4798.0, 4838.0, 4840.0, 4800.0, 4832.0, 4838.0, 4778.0, 4806.0, 4834.0, 4872.0, 4876.0, 4874.0, 4832.0, 4836.0, 4828.0, 4798.0, 4804.0, 4802.0, 4802.0, 4804.0, 4864.0, 4836.0, 4864.0, 4868.0, 4808.0, 4802.0, 4832.0, 4798.0, 4802.0, 4832.0, 4802.0, 4836.0, 4842.0, 4804.0, 4862.0, 4826.0, 4800.0, 4830.0, 4832.0, 4802.0, 4832.0, 4838.0, 4804.0, 4832.0, 4832.0, 4802.0, 4836.0, 4834.0, 4804.0, 4838.0, 4800.0, 4806.0, 4838.0, 4830.0, 4834.0, 4834.0, 4804.0, 4830.0, 4830.0, 4804.0, 4832.0, 4830.0, 4802.0, 4832.0, 4866.0],
      "WindowWidth": [18674.0, 18680.0, 18598.0, 18604.0, 18602.0, 18680.0, 18670.0, 18688.0, 18682.0, 18646.0, 18634.0, 18636.0, 18632.0, 18626.0, 18642.0, 18680.0, 18678.0, 18682.0, 18676.0, 18684.0, 18678.0, 18640.0, 18638.0, 18640.0, 18640.0, 18636.0, 18678.0, 18676.0, 18644.0, 18676.0, 18638.0, 18602.0, 18642.0, 18680.0, 18604.0, 18680.0, 18644.0, 18594.0, 18638.0, 18680.0, 18680.0, 18644.0, 18678.0, 18682.0, 18602.0, 18596.0, 18678.0, 18680.0, 18680.0, 18602.0, 18642.0, 18680.0, 18680.0, 18644.0, 18602.0, 18634.0, 18678.0, 18680.0, 18606.0, 18644.0, 18644.0, 18606.0, 18644.0, 18678.0, 18630.0, 18646.0, 18642.0, 18678.0, 18610.0, 18640.0, 18640.0, 18628.0, 18678.0, 18680.0, 18646.0, 18606.0, 18644.0, 18674.0, 18604.0, 18634.0, 18680.0, 18676.0, 18636.0, 18640.0, 18648.0, 18602.0, 18606.0, 18642.0, 18678.0, 18648.0, 18602.0, 18604.0, 18636.0, 18676.0, 18676.0, 18602.0, 18604.0, 18644.0, 18648.0, 18678.0, 18602.0, 18596.0, 18634.0, 18674.0, 18644.0, 18600.0, 18642.0, 18634.0, 18604.0, 18600.0, 18636.0, 18644.0, 18648.0, 18602.0, 18604.0, 18642.0, 18646.0, 18638.0, 18648.0, 18604.0, 18636.0, 18604.0, 18600.0, 18640.0, 18642.0, 18596.0, 18642.0, 18644.0, 18596.0, 18636.0, 18644.0, 18574.0, 18610.0, 18640.0, 18680.0, 18678.0, 18678.0, 18640.0, 18644.0, 18632.0, 18598.0, 18604.0, 18600.0, 18600.0, 18602.0, 18678.0, 18642.0, 18678.0, 18680.0, 18606.0, 18602.0, 18642.0, 18602.0, 18598.0, 18638.0, 18606.0, 18638.0, 18648.0, 18600.0, 18676.0, 18634.0, 18600.0, 18638.0, 18638.0, 18602.0, 18634.0, 18644.0, 18600.0, 18638.0, 18638.0, 18594.0, 18642.0, 18642.0, 18602.0, 18642.0, 18598.0, 18604.0, 18648.0, 18632.0, 18640.0, 18638.0, 18602.0, 18638.0, 18636.0, 18600.0, 18638.0, 18640.0, 18596.0, 18640.0, 18678.0]
    },
    "slices": {}
  }
}