{
  "AcquisitionMatrixPE": 104,
  "AcquisitionNumber": 1,
  "AcquisitionTime": "15:49:46.515000",
  "BandwidthPerPixelPhaseEncode": 17.17,
  "BaseResolution": 104,
  "BodyPartExamined": "BRAIN",
  "CoilString": "HC1-7;NC1_2",
  "ConsistencyInfo": "N4_VE11C_LATEST_20160120",
  "ConversionSoftware": "dcm2niix",
  "ConversionSoftwareVersion": "v1.0.20190902",
  "DerivedVendorReportedEchoSpacing": 0.000560011,
  "DeviceSerialNumber": "167006",
  "DwellTime": 2.1e-06,
  "EchoTime": 0.037,
  "EchoTrainLength": 104,
  "EffectiveEchoSpacing": 0.000560011,
  "FlipAngle": 52,
  "ImageComments": "Unaliased_MB4_PE3_LB",
  "ImageOrientationPatientDICOM": [0.998678, -0.046967, 0.0209023, 0.0512898, 0.937879, -0.34315],
  "ImageType": [
    "ORIGINAL",
    "PRIMARY",
    "P",
    "MB",
    "ND",
    "MOSAIC"
],
  "ImagingFrequency": 123.259,
  "InPlanePhaseEncodingDirectionDICOM": "COL",
  "InstitutionAddress": "Chemin_Queen-Mary_4565_Montreal_District_CA_H3W_1W5",
  "InstitutionName": "IUGM",
  "InstitutionalDepartmentName": "Department",
  "MRAcquisitionType": "2D",
  "MagneticFieldStrength": 3,
  "Manufacturer": "Siemens",
  "ManufacturersModelName": "Prisma_fit",
  "Modality": "MR",
  "MultibandAccelerationFactor": 4,
  "PartialFourier": 1,
  "PatientPosition": "HFS",
  "PercentPhaseFOV": 100,
  "PhaseEncodingDirection": "j",
  "PhaseEncodingSteps": 104,
  "PhaseResolution": 1,
  "PixelBandwidth": 2290,
  "ProcedureStepDescription": "memory_things",
  "ProtocolName": "func_task-things_run-5",
  "PulseSequenceDetails": "%CustomerSeq%_cmrr_mbep2d_bold",
  "ReceiveCoilActiveElements": "HC1-7;NC1,2",
  "ReceiveCoilName": "HeadNeck_64",
  "ReconMatrixPE": 104,
  "RepetitionTime": 1.49,
  "SAR": 0.0438292,
  "ScanOptions": "FS",
  "ScanningSequence": "EP",
  "SequenceName": "epfid2d1_104",
  "SequenceVariant": "SK_SS",
  "SeriesDescription": "func_task-things_run-5",
  "SeriesNumber": 23,
  "ShimSetting": [627, -7239, -8818, 593, -11, -155, -19, -14],
  "SliceThickness": 2,
  "SliceTiming": [0, 0.785, 0.0975, 0.8825, 0.195, 0.98, 0.295, 1.0775, 0.3925, 1.175, 0.49, 1.275, 0.5875, 1.3725, 0.685, 0, 0.785, 0.0975, 0.8825, 0.195, 0.98, 0.295, 1.0775, 0.3925, 1.175, 0.49, 1.275, 0.5875, 1.3725, 0.685, 0, 0.785, 0.0975, 0.8825, 0.195, 0.98, 0.295, 1.0775, 0.3925, 1.175, 0.49, 1.275, 0.5875, 1.3725, 0.685, 0, 0.785, 0.0975, 0.8825, 0.195, 0.98, 0.295, 1.0775, 0.3925, 1.175, 0.49, 1.275, 0.5875, 1.3725, 0.685],
  "SoftwareVersions": "syngo_MR_E11",
  "SpacingBetweenSlices": 2,
  "StationName": "MRC35049",
  "TaskName": "things",
  "TotalReadoutTime": 0.0576811,
  "TxRefAmp": 246.652,
  "WipMemBlock": "3daffd6b-443c-4851-847b-7d521d3372df||Sequence: R016 ve11c/master r/e634e98; Dec 19 2017 11:00:25 by eja",
  "dcmmeta_affine": [
    [-1.9973554611206055, 0.10257967561483383, 0.006974251475185156, 101.74308013916016],
    [0.09393403679132462, 1.8757586479187012, -0.6875359416007996, -69.26252746582031],
    [0.041804611682891846, 0.6862992644309998, 1.8780962228775024, -67.00836944580078],
    [0.0, 0.0, 0.0, 1.0]
],
  "dcmmeta_reorient_transform": [
    [0.0, -1.0, 0.0, 103.0],
    [1.0, 0.0, 0.0, 0.0],
    [0.0, 0.0, 1.0, 0.0],
    [0.0, 0.0, 0.0, 1.0]
],
  "dcmmeta_shape": [104, 104, 60, 190],
  "dcmmeta_slice_dim": 2,
  "dcmmeta_version": 0.6,
  "global": {
    "const": {
      "AcquisitionMatrix": [104, 0, 0, 104],
      "AngioFlag": "N",
      "BitsAllocated": 16,
      "BitsStored": 16,
      "BodyPartExamined": "BRAIN",
      "Columns": 832,
      "EchoNumbers": 1,
      "EchoTime": 37.0,
      "EchoTrainLength": 104,
      "FlipAngle": 52.0,
      "HighBit": 15,
      "ImageOrientationPatient": [0.99867772212192, -0.0469670195928, 0.02090230628268, 0.05128983613772, 0.93787935253897, -0.3431496361503],
      "ImagePositionPatient": [-876.68516748577, -772.52480090986, 238.27650933055],
      "ImageType": [
        "ORIGINAL",
        "PRIMARY",
        "P",
        "MB",
        "ND",
        "MOSAIC"
],
      "ImagedNucleus": "1H",
      "ImagingFrequency": 123.258924,
      "InPlanePhaseEncodingDirection": "COL",
      "LargestImagePixelValue": 4095,
      "MRAcquisitionType": "2D",
      "MagneticFieldStrength": 3.0,
      "Manufacturer": "SIEMENS",
      "ManufacturerModelName": "Prisma_fit",
      "Modality": "MR",
      "NumberOfAverages": 1.0,
      "NumberOfPhaseEncodingSteps": 104,
      "PercentPhaseFieldOfView": 100.0,
      "PercentSampling": 100.0,
      "PerformedProcedureStepStartTime": "145556.029000",
      "PhotometricInterpretation": "MONOCHROME2",
      "PixelBandwidth": 2290.0,
      "PixelRepresentation": 0,
      "PixelSpacing": [2.0, 2.0],
      "ProtocolName": "func_task-things_run-5",
      "RepetitionTime": 1490.0,
      "RescaleIntercept": -4096.0,
      "RescaleSlope": 2.0,
      "RescaleType": "US",
      "Rows": 832,
      "SAR": 0.04382917732161,
      "SamplesPerPixel": 1,
      "ScanOptions": "FS",
      "ScanningSequence": "EP",
      "SequenceName": "epfid2d1_104",
      "SequenceVariant": [
        "SK",
        "SS"
],
      "SeriesDescription": "func_task-things_run-5",
      "SeriesNumber": 23,
      "SeriesTime": "155111.196000",
      "SliceLocation": -38.759058954098,
      "SliceThickness": 2.0,
      "SmallestImagePixelValue": 0,
      "SoftwareVersions": "syngo MR E11",
      "SpacingBetweenSlices": 1.9999999720897,
      "SpecificCharacterSet": "ISO_IR 100",
      "StudyID": "1",
      "StudyTime": "145555.943000",
      "TransmitCoilName": "Body",
      "VariableFlipAngleFlag": "N",
      "WindowCenterWidthExplanation": "Algo1",
      "dBdt": 0.0},
    "slices": {}
  },
  "time": {
    "samples": {
      "AcquisitionNumber": [1, 2, 3, 4, 5, 6, 7, 8, 9, 10, 11, 12, 13, 14, 15, 16, 17, 18, 19, 20, 21, 22, 23, 24, 25, 26, 27, 28, 29, 30, 31, 32, 33, 34, 35, 36, 37, 38, 39, 40, 41, 42, 43, 44, 45, 46, 47, 48, 49, 50, 51, 52, 53, 54, 55, 56, 57, 58, 59, 60, 61, 62, 63, 64, 65, 66, 67, 68, 69, 70, 71, 72, 73, 74, 75, 76, 77, 78, 79, 80, 81, 82, 83, 84, 85, 86, 87, 88, 89, 90, 91, 92, 93, 94, 95, 96, 97, 98, 99, 100, 101, 102, 103, 104, 105, 106, 107, 108, 109, 110, 111, 112, 113, 114, 115, 116, 117, 118, 119, 120, 121, 122, 123, 124, 125, 126, 127, 128, 129, 130, 131, 132, 133, 134, 135, 136, 137, 138, 139, 140, 141, 142, 143, 144, 145, 146, 147, 148, 149, 150, 151, 152, 153, 154, 155, 156, 157, 158, 159, 160, 161, 162, 163, 164, 165, 166, 167, 168, 169, 170, 171, 172, 173, 174, 175, 176, 177, 178, 179, 180, 181, 182, 183, 184, 185, 186, 187, 188, 189, 190],
      "AcquisitionTime": ["154946.515000", "154948.005000", "154949.495000", "154950.985000", "154952.475000", "154953.965000", "154955.455000", "154956.945000", "154958.435000", "154959.925000", "155001.415000", "155002.905000", "155004.395000", "155005.885000", "155007.375000", "155008.865000", "155010.355000", "155011.845000", "155013.335000", "155014.825000", "155016.315000", "155017.805000", "155019.295000", "155020.785000", "155022.275000", "155023.765000", "155025.255000", "155026.745000", "155028.235000", "155029.725000", "155031.215000", "155032.705000", "155034.195000", "155035.685000", "155037.175000", "155038.665000", "155040.155000", "155041.645000", "155043.135000", "155044.625000", "155046.115000", "155047.605000", "155049.095000", "155050.585000", "155052.075000", "155053.565000", "155055.055000", "155056.545000", "155058.035000", "155059.525000", "155101.015000", "155102.505000", "155103.995000", "155105.485000", "155106.975000", "155108.465000", "155109.955000", "155111.445000", "155112.935000", "155114.425000", "155115.915000", "155117.405000", "155118.895000", "155120.385000", "155121.875000", "155123.365000", "155124.855000", "155126.345000", "155127.835000", "155129.325000", "155130.815000", "155132.305000", "155133.795000", "155135.285000", "155136.775000", "155138.265000", "155139.755000", "155141.245000", "155142.735000", "155144.225000", "155145.715000", "155147.205000", "155148.695000", "155150.185000", "155151.675000", "155153.165000", "155154.655000", "155156.145000", "155157.635000", "155159.125000", "155200.615000", "155202.105000", "155203.595000", "155205.085000", "155206.575000", "155208.065000", "155209.555000", "155211.045000", "155212.535000", "155214.025000", "155215.515000", "155217.005000", "155218.495000", "155219.985000", "155221.475000", "155222.965000", "155224.455000", "155225.945000", "155227.435000", "155228.925000", "155230.415000", "155231.905000", "155233.395000", "155234.885000", "155236.375000", "155237.865000", "155239.355000", "155240.845000", "155242.335000", "155243.825000", "155245.315000", "155246.805000", "155248.295000", "155249.785000", "155251.275000", "155252.765000", "155254.255000", "155255.745000", "155257.235000", "155258.725000", "155300.215000", "155301.705000", "155303.195000", "155304.685000", "155306.175000", "155307.665000", "155309.155000", "155310.645000", "155312.135000", "155313.625000", "155315.115000", "155316.605000", "155318.095000", "155319.585000", "155321.075000", "155322.565000", "155324.055000", "155325.545000", "155327.035000", "155328.525000", "155330.015000", "155331.505000", "155332.995000", "155334.485000", "155335.975000", "155337.465000", "155338.955000", "155340.445000", "155341.935000", "155343.425000", "155344.915000", "155346.405000", "155347.895000", "155349.385000", "155350.875000", "155352.365000", "155353.855000", "155355.345000", "155356.835000", "155358.325000", "155359.815000", "155401.305000", "155402.795000", "155404.285000", "155405.775000", "155407.265000", "155408.755000", "155410.245000", "155411.735000", "155413.225000", "155414.715000", "155416.205000", "155417.695000", "155419.185000", "155420.675000", "155422.165000", "155423.655000", "155425.145000", "155426.635000", "155428.125000"],
      "ContentTime": ["155111.198000", "155111.201000", "155111.204000", "155111.206000", "155111.209000", "155111.211000", "155111.214000", "155111.217000", "155111.219000", "155111.222000", "155111.230000", "155111.233000", "155111.235000", "155111.238000", "155111.241000", "155111.243000", "155111.246000", "155111.248000", "155111.251000", "155111.253000", "155111.256000", "155111.258000", "155111.261000", "155111.264000", "155111.266000", "155111.269000", "155111.271000", "155111.274000", "155111.276000", "155111.279000", "155111.281000", "155131.104000", "155131.107000", "155131.109000", "155131.112000", "155131.114000", "155131.117000", "155131.120000", "155131.122000", "155131.125000", "155131.127000", "155131.130000", "155131.132000", "155131.135000", "155131.137000", "155131.140000", "155131.142000", "155131.145000", "155131.147000", "155131.150000", "155131.152000", "155131.155000", "155151.137000", "155151.140000", "155151.143000", "155151.145000", "155151.148000", "155151.150000", "155151.153000", "155151.155000", "155151.158000", "155151.160000", "155151.163000", "155151.165000", "155151.168000", "155151.170000", "155151.173000", "155151.175000", "155151.178000", "155151.180000", "155151.183000", "155151.185000", "155211.108000", "155211.110000", "155211.113000", "155211.115000", "155211.118000", "155211.121000", "155211.123000", "155211.126000", "155211.128000", "155211.131000", "155211.134000", "155211.150000", "155211.153000", "155211.155000", "155211.158000", "155211.160000", "155211.163000", "155211.165000", "155211.168000", "155211.171000", "155251.173000", "155251.176000", "155251.178000", "155251.181000", "155251.183000", "155251.186000", "155251.188000", "155251.191000", "155251.193000", "155251.196000", "155251.198000", "155251.201000", "155251.203000", "155251.206000", "155251.209000", "155251.211000", "155251.214000", "155251.216000", "155251.219000", "155251.221000", "155251.224000", "155251.227000", "155251.229000", "155251.232000", "155251.234000", "155251.237000", "155251.239000", "155251.242000", "155251.244000", "155251.247000", "155251.249000", "155331.136000", "155331.138000", "155331.141000", "155331.144000", "155331.146000", "155331.149000", "155331.151000", "155331.154000", "155331.157000", "155331.159000", "155331.162000", "155331.164000", "155331.167000", "155331.169000", "155331.172000", "155331.175000", "155331.177000", "155331.180000", "155331.182000", "155331.185000", "155331.187000", "155331.190000", "155331.192000", "155331.195000", "155331.198000", "155331.200000", "155331.203000", "155411.149000", "155411.151000", "155411.154000", "155411.157000", "155411.159000", "155411.162000", "155411.164000", "155411.167000", "155411.170000", "155411.172000", "155411.175000", "155411.177000", "155411.180000", "155411.182000", "155411.185000", "155411.187000", "155411.190000", "155411.192000", "155411.195000", "155411.197000", "155411.200000", "155411.203000", "155411.205000", "155411.208000", "155411.210000", "155411.213000", "155411.215000", "155430.285000", "155430.288000", "155430.291000", "155430.293000", "155430.296000", "155430.299000", "155430.301000", "155430.304000", "155430.306000", "155430.309000", "155430.312000", "155430.314000", "155430.317000"],
      "InstanceCreationTime": ["155111.198000", "155111.201000", "155111.204000", "155111.206000", "155111.209000", "155111.211000", "155111.214000", "155111.217000", "155111.219000", "155111.222000", "155111.230000", "155111.233000", "155111.235000", "155111.238000", "155111.241000", "155111.243000", "155111.246000", "155111.248000", "155111.251000", "155111.253000", "155111.256000", "155111.258000", "155111.261000", "155111.264000", "155111.266000", "155111.269000", "155111.271000", "155111.274000", "155111.276000", "155111.279000", "155111.281000", "155131.104000", "155131.107000", "155131.109000", "155131.112000", "155131.114000", "155131.117000", "155131.120000", "155131.122000", "155131.125000", "155131.127000", "155131.130000", "155131.132000", "155131.135000", "155131.137000", "155131.140000", "155131.142000", "155131.145000", "155131.147000", "155131.150000", "155131.152000", "155131.155000", "155151.137000", "155151.140000", "155151.143000", "155151.145000", "155151.148000", "155151.150000", "155151.153000", "155151.155000", "155151.158000", "155151.160000", "155151.163000", "155151.165000", "155151.168000", "155151.170000", "155151.173000", "155151.175000", "155151.178000", "155151.180000", "155151.183000", "155151.185000", "155211.108000", "155211.110000", "155211.113000", "155211.115000", "155211.118000", "155211.121000", "155211.123000", "155211.126000", "155211.128000", "155211.131000", "155211.134000", "155211.150000", "155211.153000", "155211.155000", "155211.158000", "155211.160000", "155211.163000", "155211.165000", "155211.168000", "155211.171000", "155251.173000", "155251.176000", "155251.178000", "155251.181000", "155251.183000", "155251.186000", "155251.188000", "155251.191000", "155251.193000", "155251.196000", "155251.198000", "155251.201000", "155251.203000", "155251.206000", "155251.209000", "155251.211000", "155251.214000", "155251.216000", "155251.219000", "155251.221000", "155251.224000", "155251.227000", "155251.229000", "155251.232000", "155251.234000", "155251.237000", "155251.239000", "155251.242000", "155251.244000", "155251.247000", "155251.249000", "155331.136000", "155331.138000", "155331.141000", "155331.144000", "155331.146000", "155331.149000", "155331.151000", "155331.154000", "155331.157000", "155331.159000", "155331.162000", "155331.164000", "155331.167000", "155331.169000", "155331.172000", "155331.175000", "155331.177000", "155331.180000", "155331.182000", "155331.185000", "155331.187000", "155331.190000", "155331.192000", "155331.195000", "155331.198000", "155331.200000", "155331.203000", "155411.149000", "155411.151000", "155411.154000", "155411.157000", "155411.159000", "155411.162000", "155411.164000", "155411.167000", "155411.170000", "155411.172000", "155411.175000", "155411.177000", "155411.180000", "155411.182000", "155411.185000", "155411.187000", "155411.190000", "155411.192000", "155411.195000", "155411.197000", "155411.200000", "155411.203000", "155411.205000", "155411.208000", "155411.210000", "155411.213000", "155411.215000", "155430.285000", "155430.288000", "155430.291000", "155430.293000", "155430.296000", "155430.299000", "155430.301000", "155430.304000", "155430.306000", "155430.309000", "155430.312000", "155430.314000", "155430.317000"],
      "InstanceNumber": [1, 2, 3, 4, 5, 6, 7, 8, 9, 10, 11, 12, 13, 14, 15, 16, 17, 18, 19, 20, 21, 22, 23, 24, 25, 26, 27, 28, 29, 30, 31, 32, 33, 34, 35, 36, 37, 38, 39, 40, 41, 42, 43, 44, 45, 46, 47, 48, 49, 50, 51, 52, 53, 54, 55, 56, 57, 58, 59, 60, 61, 62, 63, 64, 65, 66, 67, 68, 69, 70, 71, 72, 73, 74, 75, 76, 77, 78, 79, 80, 81, 82, 83, 84, 85, 86, 87, 88, 89, 90, 91, 92, 93, 94, 95, 96, 97, 98, 99, 100, 101, 102, 103, 104, 105, 106, 107, 108, 109, 110, 111, 112, 113, 114, 115, 116, 117, 118, 119, 120, 121, 122, 123, 124, 125, 126, 127, 128, 129, 130, 131, 132, 133, 134, 135, 136, 137, 138, 139, 140, 141, 142, 143, 144, 145, 146, 147, 148, 149, 150, 151, 152, 153, 154, 155, 156, 157, 158, 159, 160, 161, 162, 163, 164, 165, 166, 167, 168, 169, 170, 171, 172, 173, 174, 175, 176, 177, 178, 179, 180, 181, 182, 183, 184, 185, 186, 187, 188, 189, 190],
      "WindowCenter": [4906.0, 4882.0, 4868.0, 4874.0, 4874.0, 4900.0, 4902.0, 4878.0, 4826.0, 4804.0, 4870.0, 4886.0, 4882.0, 4878.0, 4880.0, 4882.0, 4878.0, 4872.0, 4834.0, 4808.0, 4868.0, 4878.0, 4900.0, 4882.0, 4880.0, 4880.0, 4902.0, 4880.0, 4864.0, 4838.0, 4874.0, 4878.0, 4882.0, 4872.0, 4870.0, 4882.0, 4880.0, 4880.0, 4882.0, 4876.0, 4874.0, 4900.0, 4874.0, 4868.0, 4878.0, 4880.0, 4878.0, 4904.0, 4880.0, 4840.0, 4834.0, 4904.0, 4882.0, 4878.0, 4880.0, 4878.0, 4866.0, 4874.0, 4902.0, 4876.0, 4878.0, 4878.0, 4876.0, 4880.0, 4878.0, 4902.0, 4878.0, 4872.0, 4804.0, 4878.0, 4902.0, 4876.0, 4872.0, 4902.0, 4874.0, 4802.0, 4860.0, 4880.0, 4882.0, 4878.0, 4880.0, 4880.0, 4878.0, 4874.0, 4836.0, 4832.0, 4872.0, 4880.0, 4878.0, 4880.0, 4880.0, 4880.0, 4874.0, 4878.0, 4880.0, 4864.0, 4868.0, 4878.0, 4880.0, 4874.0, 4870.0, 4882.0, 4878.0, 4878.0, 4878.0, 4876.0, 4830.0, 4838.0, 4902.0, 4882.0, 4874.0, 4806.0, 4832.0, 4902.0, 4878.0, 4876.0, 4880.0, 4866.0, 4864.0, 4900.0, 4904.0, 4876.0, 4834.0, 4870.0, 4880.0, 4882.0, 4880.0, 4866.0, 4830.0, 4896.0, 4880.0, 4878.0, 4878.0, 4840.0, 4836.0, 4902.0, 4882.0, 4882.0, 4882.0, 4860.0, 4866.0, 4902.0, 4878.0, 4872.0, 4800.0, 4842.0, 4880.0, 4878.0, 4876.0, 4882.0, 4878.0, 4840.0, 4806.0, 4864.0, 4878.0, 4874.0, 4880.0, 4878.0, 4876.0, 4880.0, 4878.0, 4836.0, 4800.0, 4804.0, 4880.0, 4878.0, 4854.0, 4880.0, 4878.0, 4874.0, 4868.0, 4840.0, 4836.0, 4868.0, 4834.0, 4830.0, 4902.0, 4878.0, 4876.0, 4882.0, 4876.0, 4870.0, 4836.0, 4868.0, 4868.0, 4840.0, 4874.0, 4878.0, 4876.0, 4882.0],
      "WindowWidth": [18708.0, 18668.0, 18678.0, 18680.0, 18678.0, 18708.0, 18702.0, 18678.0, 18636.0, 18606.0, 18680.0, 18672.0, 18662.0, 18660.0, 18666.0, 18676.0, 18678.0, 18680.0, 18638.0, 18606.0, 18678.0, 18670.0, 18716.0, 18680.0, 18656.0, 18678.0, 18712.0, 18676.0, 18678.0, 18638.0, 18678.0, 18676.0, 18678.0, 18674.0, 18678.0, 18672.0, 18678.0, 18682.0, 18676.0, 18674.0, 18686.0, 18710.0, 18680.0, 18676.0, 18676.0, 18674.0, 18680.0, 18710.0, 18680.0, 18644.0, 18638.0, 18712.0, 18670.0, 18674.0, 18678.0, 18676.0, 18678.0, 18678.0, 18712.0, 18684.0, 18682.0, 18682.0, 18678.0, 18668.0, 18682.0, 18704.0, 18670.0, 18680.0, 18598.0, 18680.0, 18710.0, 18676.0, 18684.0, 18702.0, 18680.0, 18602.0, 18670.0, 18670.0, 18660.0, 18666.0, 18666.0, 18676.0, 18680.0, 18680.0, 18640.0, 18630.0, 18678.0, 18680.0, 18678.0, 18678.0, 18664.0, 18674.0, 18680.0, 18678.0, 18680.0, 18674.0, 18676.0, 18678.0, 18678.0, 18678.0, 18680.0, 18682.0, 18674.0, 18682.0, 18682.0, 18682.0, 18636.0, 18644.0, 18710.0, 18674.0, 18682.0, 18602.0, 18634.0, 18706.0, 18672.0, 18676.0, 18672.0, 18674.0, 18668.0, 18712.0, 18712.0, 18686.0, 18632.0, 18678.0, 18684.0, 18674.0, 18670.0, 18672.0, 18630.0, 18708.0, 18684.0, 18670.0, 18672.0, 18642.0, 18638.0, 18714.0, 18680.0, 18676.0, 18674.0, 18670.0, 18674.0, 18708.0, 18676.0, 18678.0, 18604.0, 18640.0, 18676.0, 18666.0, 18662.0, 18670.0, 18674.0, 18642.0, 18606.0, 18672.0, 18678.0, 18682.0, 18676.0, 18674.0, 18678.0, 18676.0, 18678.0, 18638.0, 18606.0, 18602.0, 18674.0, 18658.0, 18618.0, 18660.0, 18668.0, 18678.0, 18674.0, 18634.0, 18640.0, 18678.0, 18638.0, 18632.0, 18708.0, 18660.0, 18668.0, 18678.0, 18672.0, 18680.0, 18642.0, 18674.0, 18678.0, 18638.0, 18684.0, 18684.0, 18680.0, 18670.0]
    },
    "slices": {}
  }
}