{
  "AcquisitionMatrixPE": 104,
  "AcquisitionNumber": 1,
  "AcquisitionTime": "17:50:52.405000",
  "BandwidthPerPixelPhaseEncode": 17.17,
  "BaseResolution": 104,
  "BodyPartExamined": "BRAIN",
  "CoilString": "HC1-7;NC1_2",
  "ConsistencyInfo": "N4_VE11C_LATEST_20160120",
  "ConversionSoftware": "dcm2niix",
  "ConversionSoftwareVersion": "v1.0.20190902",
  "DerivedVendorReportedEchoSpacing": 0.000560011,
  "DeviceSerialNumber": "167006",
  "DwellTime": 2.1e-06,
  "EchoTime": 0.037,
  "EchoTrainLength": 104,
  "EffectiveEchoSpacing": 0.000560011,
  "FlipAngle": 52,
  "ImageComments": "Unaliased_MB4_PE3_LB",
  "ImageOrientationPatientDICOM": [0.996138, 0.0838985, 0.0258735, -0.0701809, 0.937975, -0.339526],
  "ImageType": [
    "ORIGINAL",
    "PRIMARY",
    "P",
    "MB",
    "ND",
    "MOSAIC"
],
  "ImagingFrequency": 123.259,
  "InPlanePhaseEncodingDirectionDICOM": "COL",
  "InstitutionAddress": "Chemin_Queen-Mary_4565_Montreal_District_CA_H3W_1W5",
  "InstitutionName": "IUGM",
  "InstitutionalDepartmentName": "Department",
  "MRAcquisitionType": "2D",
  "MagneticFieldStrength": 3,
  "Manufacturer": "Siemens",
  "ManufacturersModelName": "Prisma_fit",
  "Modality": "MR",
  "MultibandAccelerationFactor": 4,
  "PartialFourier": 1,
  "PatientPosition": "HFS",
  "PercentPhaseFOV": 100,
  "PhaseEncodingDirection": "j",
  "PhaseEncodingSteps": 104,
  "PhaseResolution": 1,
  "PixelBandwidth": 2290,
  "ProcedureStepDescription": "memory_things",
  "ProtocolName": "func_task-things_run-4",
  "PulseSequenceDetails": "%CustomerSeq%_cmrr_mbep2d_bold",
  "ReceiveCoilActiveElements": "HC1-7;NC1,2",
  "ReceiveCoilName": "HeadNeck_64",
  "ReconMatrixPE": 104,
  "RepetitionTime": 1.49,
  "SAR": 0.0364619,
  "ScanOptions": "FS",
  "ScanningSequence": "EP",
  "SequenceName": "epfid2d1_104",
  "SequenceVariant": "SK_SS",
  "SeriesDescription": "func_task-things_run-4",
  "SeriesNumber": 20,
  "ShimSetting": [631, -7174, -8820, 671, 84, 77, -28, -7],
  "SliceThickness": 2,
  "SliceTiming": [0, 0.7825, 0.0975, 0.88, 0.195, 0.98, 0.2925, 1.0775, 0.39, 1.175, 0.49, 1.2725, 0.5875, 1.37, 0.685, 0, 0.7825, 0.0975, 0.88, 0.195, 0.98, 0.2925, 1.0775, 0.39, 1.175, 0.49, 1.2725, 0.5875, 1.37, 0.685, 0, 0.7825, 0.0975, 0.88, 0.195, 0.98, 0.2925, 1.0775, 0.39, 1.175, 0.49, 1.2725, 0.5875, 1.37, 0.685, 0, 0.7825, 0.0975, 0.88, 0.195, 0.98, 0.2925, 1.0775, 0.39, 1.175, 0.49, 1.2725, 0.5875, 1.37, 0.685],
  "SoftwareVersions": "syngo_MR_E11",
  "SpacingBetweenSlices": 2,
  "StationName": "MRC35049",
  "TaskName": "things",
  "TotalReadoutTime": 0.0576811,
  "TxRefAmp": 245.024,
  "WipMemBlock": "7f06687e-bf14-4bd1-abe2-12825e56bfe2||Sequence: R016 ve11c/master r/e634e98; Dec 19 2017 11:00:25 by eja",
  "dcmmeta_affine": [
    [-1.992276668548584, -0.14036180078983307, 0.10550888627767563, 110.7086410522461],
    [-0.16779690980911255, 1.875949501991272, -0.6727985143661499, -52.04668426513672],
    [0.05174706131219864, 0.679052472114563, 1.880481243133545, -65.30233764648438],
    [0.0, 0.0, 0.0, 1.0]
],
  "dcmmeta_reorient_transform": [
    [0.0, -1.0, 0.0, 103.0],
    [1.0, 0.0, 0.0, 0.0],
    [0.0, 0.0, 1.0, 0.0],
    [0.0, 0.0, 0.0, 1.0]
],
  "dcmmeta_shape": [104, 104, 60, 190],
  "dcmmeta_slice_dim": 2,
  "dcmmeta_version": 0.6,
  "global": {
    "const": {
      "AcquisitionMatrix": [104, 0, 0, 104],
      "AngioFlag": "N",
      "BitsAllocated": 16,
      "BitsStored": 16,
      "BodyPartExamined": "BRAIN",
      "Columns": 832,
      "EchoNumbers": 1,
      "EchoTime": 37.0,
      "EchoTrainLength": 104,
      "FlipAngle": 52.0,
      "HighBit": 15,
      "ImageOrientationPatient": [0.99613834862322, 0.0838984553895, 0.0258735305952, -0.0701809021085, 0.93797472135176, -0.3395262332786],
      "ImagePositionPatient": [-770.34839595842, -885.09978157168, 232.9792360105],
      "ImageType": [
        "ORIGINAL",
        "PRIMARY",
        "P",
        "MB",
        "ND",
        "MOSAIC"
],
      "ImagedNucleus": "1H",
      "ImagingFrequency": 123.258911,
      "InPlanePhaseEncodingDirection": "COL",
      "LargestImagePixelValue": 4095,
      "MRAcquisitionType": "2D",
      "MagneticFieldStrength": 3.0,
      "Manufacturer": "SIEMENS",
      "ManufacturerModelName": "Prisma_fit",
      "Modality": "MR",
      "NumberOfAverages": 1.0,
      "NumberOfPhaseEncodingSteps": 104,
      "PercentPhaseFieldOfView": 100.0,
      "PercentSampling": 100.0,
      "PerformedProcedureStepStartTime": "165727.973000",
      "PhotometricInterpretation": "MONOCHROME2",
      "PixelBandwidth": 2290.0,
      "PixelRepresentation": 0,
      "PixelSpacing": [2.0, 2.0],
      "ProtocolName": "func_task-things_run-4",
      "RepetitionTime": 1490.0,
      "RescaleIntercept": -4096.0,
      "RescaleSlope": 2.0,
      "RescaleType": "US",
      "Rows": 832,
      "SAR": 0.03646192366462,
      "SamplesPerPixel": 1,
      "ScanOptions": "FS",
      "ScanningSequence": "EP",
      "SequenceName": "epfid2d1_104",
      "SequenceVariant": [
        "SK",
        "SS"
],
      "SeriesDescription": "func_task-things_run-4",
      "SeriesNumber": 20,
      "SeriesTime": "175211.353000",
      "SliceLocation": -38.051071677177,
      "SliceThickness": 2.0,
      "SmallestImagePixelValue": 0,
      "SoftwareVersions": "syngo MR E11",
      "SpacingBetweenSlices": 1.9999999480623,
      "SpecificCharacterSet": "ISO_IR 100",
      "StudyID": "1",
      "StudyTime": "165727.886000",
      "TransmitCoilName": "Body",
      "VariableFlipAngleFlag": "N",
      "WindowCenterWidthExplanation": "Algo1",
      "dBdt": 0.0},
    "slices": {}
  },
  "time": {
    "samples": {
      "AcquisitionNumber": [1, 2, 3, 4, 5, 6, 7, 8, 9, 10, 11, 12, 13, 14, 15, 16, 17, 18, 19, 20, 21, 22, 23, 24, 25, 26, 27, 28, 29, 30, 31, 32, 33, 34, 35, 36, 37, 38, 39, 40, 41, 42, 43, 44, 45, 46, 47, 48, 49, 50, 51, 52, 53, 54, 55, 56, 57, 58, 59, 60, 61, 62, 63, 64, 65, 66, 67, 68, 69, 70, 71, 72, 73, 74, 75, 76, 77, 78, 79, 80, 81, 82, 83, 84, 85, 86, 87, 88, 89, 90, 91, 92, 93, 94, 95, 96, 97, 98, 99, 100, 101, 102, 103, 104, 105, 106, 107, 108, 109, 110, 111, 112, 113, 114, 115, 116, 117, 118, 119, 120, 121, 122, 123, 124, 125, 126, 127, 128, 129, 130, 131, 132, 133, 134, 135, 136, 137, 138, 139, 140, 141, 142, 143, 144, 145, 146, 147, 148, 149, 150, 151, 152, 153, 154, 155, 156, 157, 158, 159, 160, 161, 162, 163, 164, 165, 166, 167, 168, 169, 170, 171, 172, 173, 174, 175, 176, 177, 178, 179, 180, 181, 182, 183, 184, 185, 186, 187, 188, 189, 190],
      "AcquisitionTime": ["175052.405000", "175053.895000", "175055.385000", "175056.875000", "175058.365000", "175059.855000", "175101.345000", "175102.835000", "175104.325000", "175105.815000", "175107.305000", "175108.795000", "175110.285000", "175111.775000", "175113.265000", "175114.755000", "175116.245000", "175117.735000", "175119.225000", "175120.715000", "175122.205000", "175123.695000", "175125.185000", "175126.675000", "175128.165000", "175129.655000", "175131.145000", "175132.635000", "175134.125000", "175135.615000", "175137.105000", "175138.595000", "175140.085000", "175141.575000", "175143.065000", "175144.555000", "175146.045000", "175147.535000", "175149.025000", "175150.515000", "175152.005000", "175153.495000", "175154.985000", "175156.475000", "175157.965000", "175159.455000", "175200.945000", "175202.435000", "175203.925000", "175205.415000", "175206.905000", "175208.395000", "175209.885000", "175211.375000", "175212.865000", "175214.355000", "175215.845000", "175217.335000", "175218.825000", "175220.315000", "175221.805000", "175223.295000", "175224.785000", "175226.275000", "175227.765000", "175229.255000", "175230.745000", "175232.235000", "175233.725000", "175235.215000", "175236.705000", "175238.195000", "175239.685000", "175241.175000", "175242.665000", "175244.155000", "175245.645000", "175247.135000", "175248.625000", "175250.115000", "175251.605000", "175253.095000", "175254.585000", "175256.075000", "175257.565000", "175259.055000", "175300.545000", "175302.035000", "175303.525000", "175305.015000", "175306.505000", "175307.995000", "175309.485000", "175310.975000", "175312.465000", "175313.955000", "175315.445000", "175316.935000", "175318.425000", "175319.915000", "175321.405000", "175322.895000", "175324.385000", "175325.875000", "175327.365000", "175328.855000", "175330.345000", "175331.835000", "175333.325000", "175334.815000", "175336.305000", "175337.795000", "175339.285000", "175340.775000", "175342.265000", "175343.755000", "175345.245000", "175346.735000", "175348.225000", "175349.715000", "175351.205000", "175352.695000", "175354.185000", "175355.675000", "175357.165000", "175358.655000", "175400.145000", "175401.635000", "175403.125000", "175404.615000", "175406.105000", "175407.595000", "175409.085000", "175410.575000", "175412.065000", "175413.555000", "175415.045000", "175416.535000", "175418.025000", "175419.515000", "175421.005000", "175422.495000", "175423.985000", "175425.475000", "175426.965000", "175428.455000", "175429.945000", "175431.435000", "175432.925000", "175434.415000", "175435.905000", "175437.395000", "175438.885000", "175440.375000", "175441.865000", "175443.355000", "175444.845000", "175446.335000", "175447.825000", "175449.315000", "175450.805000", "175452.295000", "175453.785000", "175455.275000", "175456.765000", "175458.255000", "175459.745000", "175501.235000", "175502.725000", "175504.215000", "175505.705000", "175507.195000", "175508.685000", "175510.175000", "175511.665000", "175513.155000", "175514.645000", "175516.135000", "175517.625000", "175519.115000", "175520.605000", "175522.095000", "175523.585000", "175525.075000", "175526.565000", "175528.055000", "175529.545000", "175531.035000", "175532.525000", "175534.015000"],
      "ContentTime": ["175211.355000", "175211.358000", "175211.360000", "175211.374000", "175211.377000", "175211.379000", "175211.382000", "175211.384000", "175211.386000", "175211.389000", "175211.391000", "175211.394000", "175211.396000", "175211.399000", "175211.401000", "175211.404000", "175211.406000", "175211.409000", "175211.411000", "175211.413000", "175211.416000", "175211.418000", "175211.421000", "175211.423000", "175231.307000", "175231.309000", "175231.312000", "175231.314000", "175231.317000", "175231.319000", "175231.322000", "175231.324000", "175231.326000", "175231.329000", "175231.331000", "175231.334000", "175231.336000", "175231.339000", "175231.341000", "175231.344000", "175231.350000", "175231.352000", "175231.355000", "175231.357000", "175251.796000", "175251.799000", "175251.801000", "175251.804000", "175251.806000", "175251.809000", "175251.822000", "175251.824000", "175251.827000", "175251.829000", "175251.832000", "175251.834000", "175251.837000", "175251.839000", "175251.842000", "175251.844000", "175251.846000", "175251.849000", "175251.851000", "175251.854000", "175311.310000", "175311.313000", "175311.315000", "175311.318000", "175311.320000", "175311.323000", "175311.325000", "175311.328000", "175311.330000", "175311.333000", "175311.335000", "175311.338000", "175311.340000", "175311.343000", "175311.345000", "175311.348000", "175311.350000", "175311.353000", "175311.355000", "175311.358000", "175311.360000", "175331.309000", "175331.312000", "175331.314000", "175331.317000", "175331.319000", "175331.322000", "175331.324000", "175331.326000", "175331.329000", "175331.331000", "175331.334000", "175331.336000", "175331.339000", "175331.341000", "175331.344000", "175331.346000", "175331.349000", "175331.351000", "175331.354000", "175331.356000", "175411.346000", "175411.359000", "175411.361000", "175411.364000", "175411.366000", "175411.369000", "175411.371000", "175411.374000", "175411.376000", "175411.378000", "175411.381000", "175411.383000", "175411.386000", "175411.388000", "175411.391000", "175411.393000", "175411.396000", "175411.398000", "175411.401000", "175411.403000", "175411.406000", "175411.408000", "175411.411000", "175411.413000", "175411.416000", "175411.418000", "175411.421000", "175411.423000", "175451.331000", "175451.333000", "175451.336000", "175451.338000", "175451.341000", "175451.343000", "175451.346000", "175451.348000", "175451.351000", "175451.353000", "175451.356000", "175451.358000", "175451.361000", "175451.363000", "175451.366000", "175451.368000", "175451.371000", "175451.373000", "175451.376000", "175451.378000", "175451.381000", "175451.383000", "175451.386000", "175451.388000", "175451.391000", "175451.393000", "175451.396000", "175531.344000", "175531.347000", "175531.349000", "175531.352000", "175531.354000", "175531.357000", "175531.359000", "175531.362000", "175531.364000", "175531.367000", "175531.369000", "175531.372000", "175531.374000", "175531.377000", "175531.379000", "175531.382000", "175531.385000", "175531.387000", "175531.390000", "175531.393000", "175531.395000", "175531.398000", "175531.400000", "175531.403000", "175531.405000", "175531.408000", "175535.961000", "175535.964000", "175535.966000", "175535.969000"],
      "InstanceCreationTime": ["175211.355000", "175211.358000", "175211.360000", "175211.374000", "175211.377000", "175211.379000", "175211.382000", "175211.384000", "175211.386000", "175211.389000", "175211.391000", "175211.394000", "175211.396000", "175211.399000", "175211.401000", "175211.404000", "175211.406000", "175211.409000", "175211.411000", "175211.413000", "175211.416000", "175211.418000", "175211.421000", "175211.423000", "175231.307000", "175231.309000", "175231.312000", "175231.314000", "175231.317000", "175231.319000", "175231.322000", "175231.324000", "175231.326000", "175231.329000", "175231.331000", "175231.334000", "175231.336000", "175231.339000", "175231.341000", "175231.344000", "175231.350000", "175231.352000", "175231.355000", "175231.357000", "175251.796000", "175251.799000", "175251.801000", "175251.804000", "175251.806000", "175251.809000", "175251.822000", "175251.824000", "175251.827000", "175251.829000", "175251.832000", "175251.834000", "175251.837000", "175251.839000", "175251.842000", "175251.844000", "175251.846000", "175251.849000", "175251.851000", "175251.854000", "175311.310000", "175311.313000", "175311.315000", "175311.318000", "175311.320000", "175311.323000", "175311.325000", "175311.328000", "175311.330000", "175311.333000", "175311.335000", "175311.338000", "175311.340000", "175311.343000", "175311.345000", "175311.348000", "175311.350000", "175311.353000", "175311.355000", "175311.358000", "175311.360000", "175331.309000", "175331.312000", "175331.314000", "175331.317000", "175331.319000", "175331.322000", "175331.324000", "175331.326000", "175331.329000", "175331.331000", "175331.334000", "175331.336000", "175331.339000", "175331.341000", "175331.344000", "175331.346000", "175331.349000", "175331.351000", "175331.354000", "175331.356000", "175411.346000", "175411.359000", "175411.361000", "175411.364000", "175411.366000", "175411.369000", "175411.371000", "175411.374000", "175411.376000", "175411.378000", "175411.381000", "175411.383000", "175411.386000", "175411.388000", "175411.391000", "175411.393000", "175411.396000", "175411.398000", "175411.401000", "175411.403000", "175411.406000", "175411.408000", "175411.411000", "175411.413000", "175411.416000", "175411.418000", "175411.421000", "175411.423000", "175451.331000", "175451.333000", "175451.336000", "175451.338000", "175451.341000", "175451.343000", "175451.346000", "175451.348000", "175451.351000", "175451.353000", "175451.356000", "175451.358000", "175451.361000", "175451.363000", "175451.366000", "175451.368000", "175451.371000", "175451.373000", "175451.376000", "175451.378000", "175451.381000", "175451.383000", "175451.386000", "175451.388000", "175451.391000", "175451.393000", "175451.396000", "175531.344000", "175531.347000", "175531.349000", "175531.352000", "175531.354000", "175531.357000", "175531.359000", "175531.362000", "175531.364000", "175531.367000", "175531.369000", "175531.372000", "175531.374000", "175531.377000", "175531.379000", "175531.382000", "175531.385000", "175531.387000", "175531.390000", "175531.393000", "175531.395000", "175531.398000", "175531.400000", "175531.403000", "175531.405000", "175531.408000", "175535.961000", "175535.964000", "175535.966000", "175535.969000"],
      "InstanceNumber": [1, 2, 3, 4, 5, 6, 7, 8, 9, 10, 11, 12, 13, 14, 15, 16, 17, 18, 19, 20, 21, 22, 23, 24, 25, 26, 27, 28, 29, 30, 31, 32, 33, 34, 35, 36, 37, 38, 39, 40, 41, 42, 43, 44, 45, 46, 47, 48, 49, 50, 51, 52, 53, 54, 55, 56, 57, 58, 59, 60, 61, 62, 63, 64, 65, 66, 67, 68, 69, 70, 71, 72, 73, 74, 75, 76, 77, 78, 79, 80, 81, 82, 83, 84, 85, 86, 87, 88, 89, 90, 91, 92, 93, 94, 95, 96, 97, 98, 99, 100, 101, 102, 103, 104, 105, 106, 107, 108, 109, 110, 111, 112, 113, 114, 115, 116, 117, 118, 119, 120, 121, 122, 123, 124, 125, 126, 127, 128, 129, 130, 131, 132, 133, 134, 135, 136, 137, 138, 139, 140, 141, 142, 143, 144, 145, 146, 147, 148, 149, 150, 151, 152, 153, 154, 155, 156, 157, 158, 159, 160, 161, 162, 163, 164, 165, 166, 167, 168, 169, 170, 171, 172, 173, 174, 175, 176, 177, 178, 179, 180, 181, 182, 183, 184, 185, 186, 187, 188, 189, 190],
      "WindowCenter": [4852.0, 4826.0, 4824.0, 4828.0, 4830.0, 4882.0, 4878.0, 4858.0, 4854.0, 4824.0, 4826.0, 4852.0, 4856.0, 4854.0, 4824.0, 4822.0, 4828.0, 4856.0, 4858.0, 4856.0, 4828.0, 4828.0, 4852.0, 4854.0, 4854.0, 4824.0, 4826.0, 4828.0, 4852.0, 4854.0, 4850.0, 4852.0, 4856.0, 4856.0, 4854.0, 4828.0, 4822.0, 4826.0, 4852.0, 4860.0, 4854.0, 4852.0, 4854.0, 4850.0, 4880.0, 4854.0, 4824.0, 4822.0, 4822.0, 4848.0, 4852.0, 4850.0, 4850.0, 4826.0, 4820.0, 4824.0, 4850.0, 4850.0, 4874.0, 4852.0, 4794.0, 4794.0, 4794.0, 4824.0, 4856.0, 4856.0, 4880.0, 4860.0, 4856.0, 4854.0, 4826.0, 4828.0, 4850.0, 4854.0, 4824.0, 4828.0, 4826.0, 4858.0, 4874.0, 4872.0, 4874.0, 4850.0, 4822.0, 4796.0, 4786.0, 4788.0, 4826.0, 4852.0, 4876.0, 4876.0, 4858.0, 4856.0, 4828.0, 4850.0, 4830.0, 4826.0, 4824.0, 4826.0, 4854.0, 4848.0, 4842.0, 4850.0, 4824.0, 4790.0, 4788.0, 4794.0, 4818.0, 4852.0, 4856.0, 4874.0, 4874.0, 4880.0, 4856.0, 4830.0, 4822.0, 4826.0, 4828.0, 4822.0, 4830.0, 4854.0, 4854.0, 4860.0, 4830.0, 4830.0, 4854.0, 4860.0, 4858.0, 4830.0, 4828.0, 4852.0, 4852.0, 4828.0, 4852.0, 4856.0, 4856.0, 4854.0, 4830.0, 4832.0, 4856.0, 4854.0, 4854.0, 4854.0, 4856.0, 4878.0, 4854.0, 4828.0, 4826.0, 4826.0, 4850.0, 4854.0, 4852.0, 4856.0, 4878.0, 4856.0, 4852.0, 4856.0, 4854.0, 4854.0, 4824.0, 4820.0, 4826.0, 4852.0, 4858.0, 4856.0, 4856.0, 4856.0, 4854.0, 4858.0, 4850.0, 4830.0, 4830.0, 4830.0, 4854.0, 4856.0, 4856.0, 4854.0, 4858.0, 4860.0, 4854.0, 4832.0, 4830.0, 4852.0, 4856.0, 4854.0, 4850.0, 4826.0, 4826.0, 4852.0, 4858.0, 4852.0],
      "WindowWidth": [18630.0, 18588.0, 18588.0, 18590.0, 18594.0, 18668.0, 18672.0, 18626.0, 18620.0, 18578.0, 18586.0, 18624.0, 18632.0, 18630.0, 18582.0, 18586.0, 18588.0, 18636.0, 18638.0, 18626.0, 18592.0, 18588.0, 18624.0, 18632.0, 18624.0, 18584.0, 18582.0, 18590.0, 18628.0, 18628.0, 18618.0, 18624.0, 18636.0, 18634.0, 18624.0, 18584.0, 18584.0, 18584.0, 18626.0, 18640.0, 18632.0, 18624.0, 18624.0, 18628.0, 18672.0, 18632.0, 18588.0, 18584.0, 18586.0, 18624.0, 18644.0, 18638.0, 18622.0, 18590.0, 18584.0, 18592.0, 18632.0, 18650.0, 18680.0, 18626.0, 18546.0, 18550.0, 18550.0, 18584.0, 18636.0, 18638.0, 18670.0, 18636.0, 18628.0, 18624.0, 18588.0, 18596.0, 18624.0, 18624.0, 18584.0, 18586.0, 18590.0, 18634.0, 18670.0, 18678.0, 18678.0, 18632.0, 18584.0, 18552.0, 18550.0, 18544.0, 18588.0, 18642.0, 18676.0, 18674.0, 18632.0, 18628.0, 18590.0, 18624.0, 18592.0, 18590.0, 18582.0, 18588.0, 18630.0, 18652.0, 18648.0, 18638.0, 18588.0, 18550.0, 18556.0, 18554.0, 18578.0, 18624.0, 18636.0, 18672.0, 18674.0, 18672.0, 18630.0, 18592.0, 18584.0, 18592.0, 18590.0, 18588.0, 18590.0, 18630.0, 18636.0, 18638.0, 18582.0, 18588.0, 18622.0, 18634.0, 18630.0, 18590.0, 18588.0, 18626.0, 18624.0, 18590.0, 18620.0, 18628.0, 18634.0, 18624.0, 18596.0, 18598.0, 18624.0, 18628.0, 18630.0, 18626.0, 18636.0, 18666.0, 18626.0, 18592.0, 18586.0, 18588.0, 18622.0, 18626.0, 18626.0, 18630.0, 18670.0, 18634.0, 18624.0, 18634.0, 18630.0, 18626.0, 18588.0, 18580.0, 18588.0, 18624.0, 18638.0, 18632.0, 18626.0, 18628.0, 18624.0, 18632.0, 18624.0, 18594.0, 18594.0, 18596.0, 18626.0, 18630.0, 18626.0, 18624.0, 18634.0, 18638.0, 18626.0, 18594.0, 18592.0, 18630.0, 18642.0, 18628.0, 18622.0, 18590.0, 18590.0, 18626.0, 18638.0, 18638.0]
    },
    "slices": {}
  }
}