{
  "AcquisitionMatrixPE": 104,
  "AcquisitionNumber": 1,
  "AcquisitionTime": "17:50:52.405000",
  "BandwidthPerPixelPhaseEncode": 17.17,
  "BaseResolution": 104,
  "BodyPartExamined": "BRAIN",
  "CoilString": "HC1-7;NC1_2",
  "ConsistencyInfo": "N4_VE11C_LATEST_20160120",
  "ConversionSoftware": "dcm2niix",
  "ConversionSoftwareVersion": "v1.0.20190902",
  "DerivedVendorReportedEchoSpacing": 0.000560011,
  "DeviceSerialNumber": "167006",
  "DwellTime": 2.1e-06,
  "EchoTime": 0.037,
  "EchoTrainLength": 104,
  "EffectiveEchoSpacing": 0.000560011,
  "FlipAngle": 52,
  "ImageComments": "Unaliased_MB4_PE3_LB",
  "ImageOrientationPatientDICOM": [0.996138, 0.0838985, 0.0258735, -0.0701809, 0.937975, -0.339526],
  "ImageType": [
    "ORIGINAL",
    "PRIMARY",
    "M",
    "MB",
    "ND",
    "MOSAIC"
],
  "ImagingFrequency": 123.259,
  "InPlanePhaseEncodingDirectionDICOM": "COL",
  "InstitutionAddress": "Chemin_Queen-Mary_4565_Montreal_District_CA_H3W_1W5",
  "InstitutionName": "IUGM",
  "InstitutionalDepartmentName": "Department",
  "MRAcquisitionType": "2D",
  "MagneticFieldStrength": 3,
  "Manufacturer": "Siemens",
  "ManufacturersModelName": "Prisma_fit",
  "Modality": "MR",
  "MultibandAccelerationFactor": 4,
  "PartialFourier": 1,
  "PatientPosition": "HFS",
  "PercentPhaseFOV": 100,
  "PhaseEncodingDirection": "j",
  "PhaseEncodingSteps": 104,
  "PhaseResolution": 1,
  "PixelBandwidth": 2290,
  "ProcedureStepDescription": "memory_things",
  "ProtocolName": "func_task-things_run-4",
  "PulseSequenceDetails": "%CustomerSeq%_cmrr_mbep2d_bold",
  "ReceiveCoilActiveElements": "HC1-7;NC1,2",
  "ReceiveCoilName": "HeadNeck_64",
  "ReconMatrixPE": 104,
  "RepetitionTime": 1.49,
  "SAR": 0.0364619,
  "ScanOptions": "FS",
  "ScanningSequence": "EP",
  "SequenceName": "epfid2d1_104",
  "SequenceVariant": "SK_SS",
  "SeriesDescription": "func_task-things_run-4",
  "SeriesNumber": 19,
  "ShimSetting": [631, -7174, -8820, 671, 84, 77, -28, -7],
  "SliceThickness": 2,
  "SliceTiming": [0, 0.7825, 0.0975, 0.88, 0.195, 0.98, 0.2925, 1.0775, 0.39, 1.175, 0.49, 1.2725, 0.5875, 1.37, 0.685, 0, 0.7825, 0.0975, 0.88, 0.195, 0.98, 0.2925, 1.0775, 0.39, 1.175, 0.49, 1.2725, 0.5875, 1.37, 0.685, 0, 0.7825, 0.0975, 0.88, 0.195, 0.98, 0.2925, 1.0775, 0.39, 1.175, 0.49, 1.2725, 0.5875, 1.37, 0.685, 0, 0.7825, 0.0975, 0.88, 0.195, 0.98, 0.2925, 1.0775, 0.39, 1.175, 0.49, 1.2725, 0.5875, 1.37, 0.685],
  "SoftwareVersions": "syngo_MR_E11",
  "SpacingBetweenSlices": 2,
  "StationName": "MRC35049",
  "TaskName": "things",
  "TotalReadoutTime": 0.0576811,
  "TxRefAmp": 245.024,
  "WipMemBlock": "7f06687e-bf14-4bd1-abe2-12825e56bfe2||Sequence: R016 ve11c/master r/e634e98; Dec 19 2017 11:00:25 by eja",
  "dcmmeta_affine": [
    [-1.992276668548584, -0.14036180078983307, 0.10550888627767563, 110.7086410522461],
    [-0.16779690980911255, 1.875949501991272, -0.6727985143661499, -52.04668426513672],
    [0.05174706131219864, 0.679052472114563, 1.880481243133545, -65.30233764648438],
    [0.0, 0.0, 0.0, 1.0]
],
  "dcmmeta_reorient_transform": [
    [0.0, -1.0, 0.0, 103.0],
    [1.0, 0.0, 0.0, 0.0],
    [0.0, 0.0, 1.0, 0.0],
    [0.0, 0.0, 0.0, 1.0]
],
  "dcmmeta_shape": [104, 104, 60, 190],
  "dcmmeta_slice_dim": 2,
  "dcmmeta_version": 0.6,
  "global": {
    "const": {
      "AcquisitionMatrix": [104, 0, 0, 104],
      "AngioFlag": "N",
      "BitsAllocated": 16,
      "BitsStored": 16,
      "BodyPartExamined": "BRAIN",
      "Columns": 832,
      "EchoNumbers": 1,
      "EchoTime": 37.0,
      "EchoTrainLength": 104,
      "FlipAngle": 52.0,
      "HighBit": 15,
      "ImageOrientationPatient": [0.99613834862322, 0.0838984553895, 0.0258735305952, -0.0701809021085, 0.93797472135176, -0.3395262332786],
      "ImagePositionPatient": [-770.34839595842, -885.09978157168, 232.9792360105],
      "ImageType": [
        "ORIGINAL",
        "PRIMARY",
        "M",
        "MB",
        "ND",
        "MOSAIC"
],
      "ImagedNucleus": "1H",
      "ImagingFrequency": 123.258911,
      "InPlanePhaseEncodingDirection": "COL",
      "MRAcquisitionType": "2D",
      "MagneticFieldStrength": 3.0,
      "Manufacturer": "SIEMENS",
      "ManufacturerModelName": "Prisma_fit",
      "Modality": "MR",
      "NumberOfAverages": 1.0,
      "NumberOfPhaseEncodingSteps": 104,
      "PercentPhaseFieldOfView": 100.0,
      "PercentSampling": 100.0,
      "PerformedProcedureStepStartTime": "165727.973000",
      "PhotometricInterpretation": "MONOCHROME2",
      "PixelBandwidth": 2290.0,
      "PixelRepresentation": 0,
      "PixelSpacing": [2.0, 2.0],
      "ProtocolName": "func_task-things_run-4",
      "RepetitionTime": 1490.0,
      "Rows": 832,
      "SAR": 0.03646192366462,
      "SamplesPerPixel": 1,
      "ScanOptions": "FS",
      "ScanningSequence": "EP",
      "SequenceName": "epfid2d1_104",
      "SequenceVariant": [
        "SK",
        "SS"
],
      "SeriesDescription": "func_task-things_run-4",
      "SeriesNumber": 19,
      "SeriesTime": "175211.230000",
      "SliceLocation": -38.051071677177,
      "SliceThickness": 2.0,
      "SmallestImagePixelValue": 0,
      "SoftwareVersions": "syngo MR E11",
      "SpacingBetweenSlices": 1.9999999480623,
      "SpecificCharacterSet": "ISO_IR 100",
      "StudyID": "1",
      "StudyTime": "165727.886000",
      "TransmitCoilName": "Body",
      "VariableFlipAngleFlag": "N",
      "WindowCenterWidthExplanation": "Algo1",
      "dBdt": 0.0},
    "slices": {}
  },
  "time": {
    "samples": {
      "AcquisitionNumber": [1, 2, 3, 4, 5, 6, 7, 8, 9, 10, 11, 12, 13, 14, 15, 16, 17, 18, 19, 20, 21, 22, 23, 24, 25, 26, 27, 28, 29, 30, 31, 32, 33, 34, 35, 36, 37, 38, 39, 40, 41, 42, 43, 44, 45, 46, 47, 48, 49, 50, 51, 52, 53, 54, 55, 56, 57, 58, 59, 60, 61, 62, 63, 64, 65, 66, 67, 68, 69, 70, 71, 72, 73, 74, 75, 76, 77, 78, 79, 80, 81, 82, 83, 84, 85, 86, 87, 88, 89, 90, 91, 92, 93, 94, 95, 96, 97, 98, 99, 100, 101, 102, 103, 104, 105, 106, 107, 108, 109, 110, 111, 112, 113, 114, 115, 116, 117, 118, 119, 120, 121, 122, 123, 124, 125, 126, 127, 128, 129, 130, 131, 132, 133, 134, 135, 136, 137, 138, 139, 140, 141, 142, 143, 144, 145, 146, 147, 148, 149, 150, 151, 152, 153, 154, 155, 156, 157, 158, 159, 160, 161, 162, 163, 164, 165, 166, 167, 168, 169, 170, 171, 172, 173, 174, 175, 176, 177, 178, 179, 180, 181, 182, 183, 184, 185, 186, 187, 188, 189, 190],
      "AcquisitionTime": ["175052.405000", "175053.895000", "175055.385000", "175056.875000", "175058.365000", "175059.855000", "175101.345000", "175102.835000", "175104.325000", "175105.815000", "175107.305000", "175108.795000", "175110.285000", "175111.775000", "175113.265000", "175114.755000", "175116.245000", "175117.735000", "175119.225000", "175120.715000", "175122.205000", "175123.695000", "175125.185000", "175126.675000", "175128.165000", "175129.655000", "175131.145000", "175132.635000", "175134.125000", "175135.615000", "175137.105000", "175138.595000", "175140.085000", "175141.575000", "175143.065000", "175144.555000", "175146.045000", "175147.535000", "175149.025000", "175150.515000", "175152.005000", "175153.495000", "175154.985000", "175156.475000", "175157.965000", "175159.455000", "175200.945000", "175202.435000", "175203.925000", "175205.415000", "175206.905000", "175208.395000", "175209.885000", "175211.375000", "175212.865000", "175214.355000", "175215.845000", "175217.335000", "175218.825000", "175220.315000", "175221.805000", "175223.295000", "175224.785000", "175226.275000", "175227.765000", "175229.255000", "175230.745000", "175232.235000", "175233.725000", "175235.215000", "175236.705000", "175238.195000", "175239.685000", "175241.175000", "175242.665000", "175244.155000", "175245.645000", "175247.135000", "175248.625000", "175250.115000", "175251.605000", "175253.095000", "175254.585000", "175256.075000", "175257.565000", "175259.055000", "175300.545000", "175302.035000", "175303.525000", "175305.015000", "175306.505000", "175307.995000", "175309.485000", "175310.975000", "175312.465000", "175313.955000", "175315.445000", "175316.935000", "175318.425000", "175319.915000", "175321.405000", "175322.895000", "175324.385000", "175325.875000", "175327.365000", "175328.855000", "175330.345000", "175331.835000", "175333.325000", "175334.815000", "175336.305000", "175337.795000", "175339.285000", "175340.775000", "175342.265000", "175343.755000", "175345.245000", "175346.735000", "175348.225000", "175349.715000", "175351.205000", "175352.695000", "175354.185000", "175355.675000", "175357.165000", "175358.655000", "175400.145000", "175401.635000", "175403.125000", "175404.615000", "175406.105000", "175407.595000", "175409.085000", "175410.575000", "175412.065000", "175413.555000", "175415.045000", "175416.535000", "175418.025000", "175419.515000", "175421.005000", "175422.495000", "175423.985000", "175425.475000", "175426.965000", "175428.455000", "175429.945000", "175431.435000", "175432.925000", "175434.415000", "175435.905000", "175437.395000", "175438.885000", "175440.375000", "175441.865000", "175443.355000", "175444.845000", "175446.335000", "175447.825000", "175449.315000", "175450.805000", "175452.295000", "175453.785000", "175455.275000", "175456.765000", "175458.255000", "175459.745000", "175501.235000", "175502.725000", "175504.215000", "175505.705000", "175507.195000", "175508.685000", "175510.175000", "175511.665000", "175513.155000", "175514.645000", "175516.135000", "175517.625000", "175519.115000", "175520.605000", "175522.095000", "175523.585000", "175525.075000", "175526.565000", "175528.055000", "175529.545000", "175531.035000", "175532.525000", "175534.015000"],
      "ContentTime": ["175211.234000", "175211.237000", "175211.241000", "175211.244000", "175211.247000", "175211.250000", "175211.254000", "175211.257000", "175211.260000", "175211.264000", "175211.267000", "175211.270000", "175211.273000", "175211.277000", "175211.280000", "175211.283000", "175211.286000", "175211.289000", "175211.293000", "175211.296000", "175211.299000", "175211.302000", "175211.306000", "175211.309000", "175231.197000", "175231.201000", "175231.204000", "175231.207000", "175231.210000", "175231.214000", "175231.217000", "175231.220000", "175231.223000", "175231.226000", "175231.230000", "175231.233000", "175231.236000", "175231.239000", "175231.243000", "175231.246000", "175231.249000", "175231.252000", "175231.255000", "175231.259000", "175251.197000", "175251.201000", "175251.204000", "175251.207000", "175251.211000", "175251.214000", "175251.217000", "175251.220000", "175251.224000", "175251.227000", "175251.230000", "175251.234000", "175251.237000", "175251.240000", "175251.243000", "175251.247000", "175251.250000", "175251.253000", "175251.257000", "175251.260000", "175311.196000", "175311.200000", "175311.203000", "175311.206000", "175311.210000", "175311.213000", "175311.216000", "175311.219000", "175311.223000", "175311.226000", "175311.229000", "175311.232000", "175311.236000", "175311.239000", "175311.242000", "175311.245000", "175311.249000", "175311.252000", "175311.255000", "175311.258000", "175311.262000", "175331.212000", "175331.215000", "175331.219000", "175331.222000", "175331.225000", "175331.228000", "175331.232000", "175331.235000", "175331.238000", "175331.241000", "175331.245000", "175331.248000", "175331.251000", "175331.254000", "175331.258000", "175331.261000", "175331.264000", "175331.268000", "175331.271000", "175331.274000", "175411.197000", "175411.201000", "175411.204000", "175411.207000", "175411.211000", "175411.214000", "175411.217000", "175411.220000", "175411.224000", "175411.227000", "175411.230000", "175411.233000", "175411.237000", "175411.240000", "175411.243000", "175411.246000", "175411.250000", "175411.253000", "175411.256000", "175411.259000", "175411.263000", "175411.266000", "175411.269000", "175411.273000", "175411.276000", "175411.279000", "175411.282000", "175411.286000", "175451.197000", "175451.201000", "175451.204000", "175451.207000", "175451.210000", "175451.214000", "175451.217000", "175451.220000", "175451.224000", "175451.227000", "175451.230000", "175451.233000", "175451.237000", "175451.240000", "175451.243000", "175451.246000", "175451.250000", "175451.253000", "175451.256000", "175451.259000", "175451.263000", "175451.266000", "175451.269000", "175451.273000", "175451.276000", "175451.279000", "175451.282000", "175531.196000", "175531.200000", "175531.203000", "175531.206000", "175531.210000", "175531.213000", "175531.216000", "175531.220000", "175531.223000", "175531.226000", "175531.229000", "175531.233000", "175531.236000", "175531.239000", "175531.244000", "175531.247000", "175531.250000", "175531.254000", "175531.257000", "175531.260000", "175531.263000", "175531.267000", "175531.270000", "175531.273000", "175531.277000", "175531.280000", "175535.919000", "175535.922000", "175535.925000", "175535.929000"],
      "InstanceCreationTime": ["175211.234000", "175211.237000", "175211.241000", "175211.244000", "175211.247000", "175211.250000", "175211.254000", "175211.257000", "175211.260000", "175211.264000", "175211.267000", "175211.270000", "175211.273000", "175211.277000", "175211.280000", "175211.283000", "175211.286000", "175211.289000", "175211.293000", "175211.296000", "175211.299000", "175211.302000", "175211.306000", "175211.309000", "175231.197000", "175231.201000", "175231.204000", "175231.207000", "175231.210000", "175231.214000", "175231.217000", "175231.220000", "175231.223000", "175231.226000", "175231.230000", "175231.233000", "175231.236000", "175231.239000", "175231.243000", "175231.246000", "175231.249000", "175231.252000", "175231.255000", "175231.259000", "175251.197000", "175251.201000", "175251.204000", "175251.207000", "175251.211000", "175251.214000", "175251.217000", "175251.220000", "175251.224000", "175251.227000", "175251.230000", "175251.234000", "175251.237000", "175251.240000", "175251.243000", "175251.247000", "175251.250000", "175251.253000", "175251.257000", "175251.260000", "175311.196000", "175311.200000", "175311.203000", "175311.206000", "175311.210000", "175311.213000", "175311.216000", "175311.219000", "175311.223000", "175311.226000", "175311.229000", "175311.232000", "175311.236000", "175311.239000", "175311.242000", "175311.245000", "175311.249000", "175311.252000", "175311.255000", "175311.258000", "175311.262000", "175331.212000", "175331.215000", "175331.219000", "175331.222000", "175331.225000", "175331.228000", "175331.232000", "175331.235000", "175331.238000", "175331.241000", "175331.245000", "175331.248000", "175331.251000", "175331.254000", "175331.258000", "175331.261000", "175331.264000", "175331.268000", "175331.271000", "175331.274000", "175411.197000", "175411.201000", "175411.204000", "175411.207000", "175411.211000", "175411.214000", "175411.217000", "175411.220000", "175411.224000", "175411.227000", "175411.230000", "175411.233000", "175411.237000", "175411.240000", "175411.243000", "175411.246000", "175411.250000", "175411.253000", "175411.256000", "175411.259000", "175411.263000", "175411.266000", "175411.269000", "175411.273000", "175411.276000", "175411.279000", "175411.282000", "175411.286000", "175451.197000", "175451.201000", "175451.204000", "175451.207000", "175451.210000", "175451.214000", "175451.217000", "175451.220000", "175451.224000", "175451.227000", "175451.230000", "175451.233000", "175451.237000", "175451.240000", "175451.243000", "175451.246000", "175451.250000", "175451.253000", "175451.256000", "175451.259000", "175451.263000", "175451.266000", "175451.269000", "175451.273000", "175451.276000", "175451.279000", "175451.282000", "175531.196000", "175531.200000", "175531.203000", "175531.206000", "175531.210000", "175531.213000", "175531.216000", "175531.220000", "175531.223000", "175531.226000", "175531.229000", "175531.233000", "175531.236000", "175531.239000", "175531.244000", "175531.247000", "175531.250000", "175531.254000", "175531.257000", "175531.260000", "175531.263000", "175531.267000", "175531.270000", "175531.273000", "175531.277000", "175531.280000", "175535.919000", "175535.922000", "175535.925000", "175535.929000"],
      "InstanceNumber": [1, 2, 3, 4, 5, 6, 7, 8, 9, 10, 11, 12, 13, 14, 15, 16, 17, 18, 19, 20, 21, 22, 23, 24, 25, 26, 27, 28, 29, 30, 31, 32, 33, 34, 35, 36, 37, 38, 39, 40, 41, 42, 43, 44, 45, 46, 47, 48, 49, 50, 51, 52, 53, 54, 55, 56, 57, 58, 59, 60, 61, 62, 63, 64, 65, 66, 67, 68, 69, 70, 71, 72, 73, 74, 75, 76, 77, 78, 79, 80, 81, 82, 83, 84, 85, 86, 87, 88, 89, 90, 91, 92, 93, 94, 95, 96, 97, 98, 99, 100, 101, 102, 103, 104, 105, 106, 107, 108, 109, 110, 111, 112, 113, 114, 115, 116, 117, 118, 119, 120, 121, 122, 123, 124, 125, 126, 127, 128, 129, 130, 131, 132, 133, 134, 135, 136, 137, 138, 139, 140, 141, 142, 143, 144, 145, 146, 147, 148, 149, 150, 151, 152, 153, 154, 155, 156, 157, 158, 159, 160, 161, 162, 163, 164, 165, 166, 167, 168, 169, 170, 171, 172, 173, 174, 175, 176, 177, 178, 179, 180, 181, 182, 183, 184, 185, 186, 187, 188, 189, 190],
      "LargestImagePixelValue": [42753, 41954, 40963, 40449, 40530, 40244, 41084, 42723, 42080, 42348, 41966, 41570, 41930, 41597, 42153, 41725, 42250, 41606, 41958, 42099, 42015, 42025, 41846, 41573, 42621, 41986, 42195, 41843, 41987, 43073, 42622, 42203, 41645, 42806, 43090, 43821, 42944, 43309, 42549, 42404, 44072, 42796, 42913, 42906, 42755, 43049, 42595, 42706, 43279, 41688, 41427, 42662, 43003, 43732, 44328, 43783, 41826, 42408, 41899, 43859, 44506, 42599, 42096, 40512, 40666, 44182, 44113, 43205, 44252, 43929, 43600, 43203, 43133, 44484, 44170, 43186, 44396, 43026, 42803, 43494, 45243, 45066, 44091, 44040, 44826, 42285, 40888, 40487, 43407, 45432, 45495, 45307, 45353, 44631, 44990, 45486, 44522, 44871, 42376, 41272, 43556, 43659, 43368, 44810, 43868, 42617, 41399, 41311, 41904, 41269, 45747, 46265, 46230, 45273, 45106, 43692, 44918, 44707, 42811, 41309, 41975, 44873, 45256, 43356, 42782, 42379, 44518, 44806, 42703, 41668, 44161, 42915, 41875, 41064, 42672, 44510, 43150, 42494, 41388, 42966, 44015, 41973, 41495, 43683, 44850, 45306, 43934, 43456, 42286, 44162, 44640, 43149, 43235, 46014, 44907, 43975, 45390, 45915, 44942, 43911, 43764, 42440, 41941, 44043, 44118, 44274, 43627, 42811, 44565, 44764, 43783, 43116, 43095, 44855, 44686, 44192, 43525, 44924, 46338, 45110, 44127, 43019, 44230, 46826, 44966, 44158, 43900, 42607, 43841, 44080],
      "WindowCenter": [10610.0, 10573.0, 10542.0, 10509.0, 10506.0, 10494.0, 10516.0, 10567.0, 10554.0, 10528.0, 10501.0, 10481.0, 10509.0, 10545.0, 10560.0, 10529.0, 10516.0, 10490.0, 10489.0, 10521.0, 10543.0, 10522.0, 10508.0, 10481.0, 10500.0, 10523.0, 10537.0, 10522.0, 10498.0, 10522.0, 10528.0, 10522.0, 10508.0, 10517.0, 10530.0, 10529.0, 10506.0, 10501.0, 10498.0, 10509.0, 10536.0, 10532.0, 10517.0, 10515.0, 10527.0, 10561.0, 10553.0, 10527.0, 10513.0, 10503.0, 10517.0, 10547.0, 10556.0, 10533.0, 10519.0, 10509.0, 10495.0, 10527.0, 10551.0, 10565.0, 10531.0, 10474.0, 10468.0, 10459.0, 10454.0, 10500.0, 10526.0, 10511.0, 10513.0, 10496.0, 10494.0, 10503.0, 10506.0, 10523.0, 10525.0, 10509.0, 10516.0, 10510.0, 10533.0, 10577.0, 10600.0, 10577.0, 10547.0, 10534.0, 10535.0, 10502.0, 10510.0, 10515.0, 10544.0, 10561.0, 10549.0, 10536.0, 10536.0, 10549.0, 10573.0, 10588.0, 10548.0, 10524.0, 10503.0, 10510.0, 10567.0, 10582.0, 10575.0, 10548.0, 10512.0, 10492.0, 10494.0, 10522.0, 10529.0, 10502.0, 10530.0, 10541.0, 10542.0, 10530.0, 10530.0, 10530.0, 10559.0, 10582.0, 10560.0, 10527.0, 10523.0, 10552.0, 10576.0, 10559.0, 10559.0, 10548.0, 10559.0, 10555.0, 10525.0, 10515.0, 10539.0, 10550.0, 10559.0, 10555.0, 10565.0, 10584.0, 10568.0, 10552.0, 10534.0, 10549.0, 10574.0, 10558.0, 10560.0, 10595.0, 10612.0, 10614.0, 10582.0, 10571.0, 10547.0, 10568.0, 10590.0, 10569.0, 10568.0, 10591.0, 10596.0, 10587.0, 10596.0, 10603.0, 10581.0, 10551.0, 10541.0, 10539.0, 10547.0, 10585.0, 10596.0, 10583.0, 10560.0, 10542.0, 10557.0, 10590.0, 10589.0, 10560.0, 10548.0, 10547.0, 10559.0, 10557.0, 10553.0, 10562.0, 10586.0, 10579.0, 10559.0, 10538.0, 10549.0, 10595.0, 10589.0, 10566.0, 10544.0, 10513.0, 10511.0, 10546.0],
      "WindowWidth": [22570.0, 22472.0, 22394.0, 22314.0, 22297.0, 22270.0, 22318.0, 22427.0, 22398.0, 22336.0, 22278.0, 22228.0, 22289.0, 22383.0, 22416.0, 22340.0, 22307.0, 22250.0, 22248.0, 22326.0, 22379.0, 22333.0, 22292.0, 22231.0, 22272.0, 22334.0, 22361.0, 22327.0, 22271.0, 22319.0, 22341.0, 22327.0, 22295.0, 22309.0, 22341.0, 22338.0, 22287.0, 22270.0, 22265.0, 22293.0, 22352.0, 22345.0, 22312.0, 22306.0, 22340.0, 22423.0, 22400.0, 22339.0, 22301.0, 22283.0, 22319.0, 22389.0, 22413.0, 22352.0, 22318.0, 22295.0, 22270.0, 22341.0, 22400.0, 22424.0, 22341.0, 22212.0, 22202.0, 22190.0, 22177.0, 22266.0, 22327.0, 22299.0, 22298.0, 22261.0, 22254.0, 22278.0, 22290.0, 22322.0, 22328.0, 22300.0, 22309.0, 22302.0, 22354.0, 22456.0, 22507.0, 22451.0, 22381.0, 22355.0, 22353.0, 22285.0, 22306.0, 22316.0, 22374.0, 22409.0, 22377.0, 22347.0, 22351.0, 22387.0, 22444.0, 22475.0, 22385.0, 22323.0, 22285.0, 22306.0, 22442.0, 22474.0, 22452.0, 22378.0, 22295.0, 22256.0, 22269.0, 22330.0, 22345.0, 22282.0, 22325.0, 22354.0, 22362.0, 22337.0, 22338.0, 22345.0, 22407.0, 22469.0, 22416.0, 22340.0, 22332.0, 22387.0, 22445.0, 22414.0, 22416.0, 22392.0, 22407.0, 22394.0, 22333.0, 22319.0, 22362.0, 22394.0, 22421.0, 22412.0, 22428.0, 22466.0, 22431.0, 22394.0, 22359.0, 22389.0, 22439.0, 22416.0, 22420.0, 22491.0, 22535.0, 22534.0, 22466.0, 22436.0, 22388.0, 22425.0, 22478.0, 22434.0, 22432.0, 22472.0, 22490.0, 22472.0, 22487.0, 22507.0, 22454.0, 22387.0, 22362.0, 22363.0, 22383.0, 22463.0, 22491.0, 22464.0, 22414.0, 22372.0, 22400.0, 22478.0, 22478.0, 22413.0, 22381.0, 22372.0, 22401.0, 22398.0, 22390.0, 22404.0, 22456.0, 22447.0, 22402.0, 22356.0, 22378.0, 22480.0, 22478.0, 22421.0, 22368.0, 22302.0, 22291.0, 22371.0]
    },
    "slices": {}
  }
}