{
  "AcquisitionMatrixPE": 104,
  "AcquisitionNumber": 1,
  "AcquisitionTime": "17:32:34.595000",
  "BandwidthPerPixelPhaseEncode": 17.17,
  "BaseResolution": 104,
  "BodyPartExamined": "BRAIN",
  "CoilString": "HC1-7;NC1_2",
  "ConsistencyInfo": "N4_VE11C_LATEST_20160120",
  "ConversionSoftware": "dcm2niix",
  "ConversionSoftwareVersion": "v1.0.20190902",
  "DerivedVendorReportedEchoSpacing": 0.000560011,
  "DeviceSerialNumber": "167006",
  "DwellTime": 2.1e-06,
  "EchoTime": 0.037,
  "EchoTrainLength": 104,
  "EffectiveEchoSpacing": 0.000560011,
  "FlipAngle": 52,
  "ImageComments": "Unaliased_MB4_PE3_LB",
  "ImageOrientationPatientDICOM": [0.996138, 0.0838985, 0.0258735, -0.0701809, 0.937975, -0.339526],
  "ImageType": [
    "ORIGINAL",
    "PRIMARY",
    "P",
    "MB",
    "ND",
    "MOSAIC"
],
  "ImagingFrequency": 123.259,
  "InPlanePhaseEncodingDirectionDICOM": "COL",
  "InstitutionAddress": "Chemin_Queen-Mary_4565_Montreal_District_CA_H3W_1W5",
  "InstitutionName": "IUGM",
  "InstitutionalDepartmentName": "Department",
  "MRAcquisitionType": "2D",
  "MagneticFieldStrength": 3,
  "Manufacturer": "Siemens",
  "ManufacturersModelName": "Prisma_fit",
  "Modality": "MR",
  "MultibandAccelerationFactor": 4,
  "PartialFourier": 1,
  "PatientPosition": "HFS",
  "PercentPhaseFOV": 100,
  "PhaseEncodingDirection": "j",
  "PhaseEncodingSteps": 104,
  "PhaseResolution": 1,
  "PixelBandwidth": 2290,
  "ProcedureStepDescription": "memory_things",
  "ProtocolName": "func_task-things_run-1",
  "PulseSequenceDetails": "%CustomerSeq%_cmrr_mbep2d_bold",
  "ReceiveCoilActiveElements": "HC1-7;NC1,2",
  "ReceiveCoilName": "HeadNeck_64",
  "ReconMatrixPE": 104,
  "RepetitionTime": 1.49,
  "SAR": 0.0364619,
  "ScanOptions": "FS",
  "ScanningSequence": "EP",
  "SequenceName": "epfid2d1_104",
  "SequenceVariant": "SK_SS",
  "SeriesDescription": "func_task-things_run-1",
  "SeriesNumber": 11,
  "ShimSetting": [631, -7174, -8820, 671, 84, 77, -28, -7],
  "SliceThickness": 2,
  "SliceTiming": [0, 0.785, 0.1, 0.8825, 0.1975, 0.98, 0.295, 1.08, 0.3925, 1.1775, 0.49, 1.275, 0.59, 1.3725, 0.6875, 0, 0.785, 0.1, 0.8825, 0.1975, 0.98, 0.295, 1.08, 0.3925, 1.1775, 0.49, 1.275, 0.59, 1.3725, 0.6875, 0, 0.785, 0.1, 0.8825, 0.1975, 0.98, 0.295, 1.08, 0.3925, 1.1775, 0.49, 1.275, 0.59, 1.3725, 0.6875, 0, 0.785, 0.1, 0.8825, 0.1975, 0.98, 0.295, 1.08, 0.3925, 1.1775, 0.49, 1.275, 0.59, 1.3725, 0.6875],
  "SoftwareVersions": "syngo_MR_E11",
  "SpacingBetweenSlices": 2,
  "StationName": "MRC35049",
  "TaskName": "things",
  "TotalReadoutTime": 0.0576811,
  "TxRefAmp": 245.024,
  "WipMemBlock": "771a1d5d-f7c7-49df-b356-35263395bb14||Sequence: R016 ve11c/master r/e634e98; Dec 19 2017 11:00:25 by eja",
  "dcmmeta_affine": [
    [-1.992276668548584, -0.14036180078983307, 0.10550888627767563, 110.7086410522461],
    [-0.16779690980911255, 1.875949501991272, -0.6727985143661499, -52.04668426513672],
    [0.05174706131219864, 0.679052472114563, 1.880481243133545, -65.30233764648438],
    [0.0, 0.0, 0.0, 1.0]
],
  "dcmmeta_reorient_transform": [
    [0.0, -1.0, 0.0, 103.0],
    [1.0, 0.0, 0.0, 0.0],
    [0.0, 0.0, 1.0, 0.0],
    [0.0, 0.0, 0.0, 1.0]
],
  "dcmmeta_shape": [104, 104, 60, 190],
  "dcmmeta_slice_dim": 2,
  "dcmmeta_version": 0.6,
  "global": {
    "const": {
      "AcquisitionMatrix": [104, 0, 0, 104],
      "AngioFlag": "N",
      "BitsAllocated": 16,
      "BitsStored": 16,
      "BodyPartExamined": "BRAIN",
      "Columns": 832,
      "EchoNumbers": 1,
      "EchoTime": 37.0,
      "EchoTrainLength": 104,
      "FlipAngle": 52.0,
      "HighBit": 15,
      "ImageOrientationPatient": [0.99613834862322, 0.0838984553895, 0.0258735305952, -0.0701809021085, 0.93797472135176, -0.3395262332786],
      "ImagePositionPatient": [-770.34839595842, -885.09978157168, 232.9792360105],
      "ImageType": [
        "ORIGINAL",
        "PRIMARY",
        "P",
        "MB",
        "ND",
        "MOSAIC"
],
      "ImagedNucleus": "1H",
      "ImagingFrequency": 123.2589,
      "InPlanePhaseEncodingDirection": "COL",
      "LargestImagePixelValue": 4095,
      "MRAcquisitionType": "2D",
      "MagneticFieldStrength": 3.0,
      "Manufacturer": "SIEMENS",
      "ManufacturerModelName": "Prisma_fit",
      "Modality": "MR",
      "NumberOfAverages": 1.0,
      "NumberOfPhaseEncodingSteps": 104,
      "PercentPhaseFieldOfView": 100.0,
      "PercentSampling": 100.0,
      "PerformedProcedureStepStartTime": "165727.973000",
      "PhotometricInterpretation": "MONOCHROME2",
      "PixelBandwidth": 2290.0,
      "PixelRepresentation": 0,
      "PixelSpacing": [2.0, 2.0],
      "ProtocolName": "func_task-things_run-1",
      "RepetitionTime": 1490.0,
      "RescaleIntercept": -4096.0,
      "RescaleSlope": 2.0,
      "RescaleType": "US",
      "Rows": 832,
      "SAR": 0.03646192366462,
      "SamplesPerPixel": 1,
      "ScanOptions": "FS",
      "ScanningSequence": "EP",
      "SequenceName": "epfid2d1_104",
      "SequenceVariant": [
        "SK",
        "SS"
],
      "SeriesDescription": "func_task-things_run-1",
      "SeriesNumber": 11,
      "SeriesTime": "173351.368000",
      "SliceLocation": -38.051071677177,
      "SliceThickness": 2.0,
      "SmallestImagePixelValue": 0,
      "SoftwareVersions": "syngo MR E11",
      "SpacingBetweenSlices": 1.9999999480623,
      "SpecificCharacterSet": "ISO_IR 100",
      "StudyID": "1",
      "StudyTime": "165727.886000",
      "TransmitCoilName": "Body",
      "VariableFlipAngleFlag": "N",
      "WindowCenterWidthExplanation": "Algo1",
      "dBdt": 0.0},
    "slices": {}
  },
  "time": {
    "samples": {
      "AcquisitionNumber": [1, 2, 3, 4, 5, 6, 7, 8, 9, 10, 11, 12, 13, 14, 15, 16, 17, 18, 19, 20, 21, 22, 23, 24, 25, 26, 27, 28, 29, 30, 31, 32, 33, 34, 35, 36, 37, 38, 39, 40, 41, 42, 43, 44, 45, 46, 47, 48, 49, 50, 51, 52, 53, 54, 55, 56, 57, 58, 59, 60, 61, 62, 63, 64, 65, 66, 67, 68, 69, 70, 71, 72, 73, 74, 75, 76, 77, 78, 79, 80, 81, 82, 83, 84, 85, 86, 87, 88, 89, 90, 91, 92, 93, 94, 95, 96, 97, 98, 99, 100, 101, 102, 103, 104, 105, 106, 107, 108, 109, 110, 111, 112, 113, 114, 115, 116, 117, 118, 119, 120, 121, 122, 123, 124, 125, 126, 127, 128, 129, 130, 131, 132, 133, 134, 135, 136, 137, 138, 139, 140, 141, 142, 143, 144, 145, 146, 147, 148, 149, 150, 151, 152, 153, 154, 155, 156, 157, 158, 159, 160, 161, 162, 163, 164, 165, 166, 167, 168, 169, 170, 171, 172, 173, 174, 175, 176, 177, 178, 179, 180, 181, 182, 183, 184, 185, 186, 187, 188, 189, 190],
      "AcquisitionTime": ["173234.595000", "173236.085000", "173237.575000", "173239.065000", "173240.555000", "173242.045000", "173243.535000", "173245.025000", "173246.515000", "173248.005000", "173249.495000", "173250.985000", "173252.475000", "173253.965000", "173255.455000", "173256.945000", "173258.435000", "173259.925000", "173301.415000", "173302.905000", "173304.395000", "173305.885000", "173307.375000", "173308.865000", "173310.355000", "173311.845000", "173313.335000", "173314.825000", "173316.315000", "173317.805000", "173319.295000", "173320.785000", "173322.275000", "173323.765000", "173325.255000", "173326.745000", "173328.235000", "173329.725000", "173331.215000", "173332.705000", "173334.195000", "173335.685000", "173337.175000", "173338.665000", "173340.155000", "173341.645000", "173343.135000", "173344.625000", "173346.115000", "173347.605000", "173349.095000", "173350.585000", "173352.075000", "173353.565000", "173355.055000", "173356.545000", "173358.035000", "173359.525000", "173401.015000", "173402.505000", "173403.995000", "173405.485000", "173406.975000", "173408.465000", "173409.955000", "173411.445000", "173412.935000", "173414.425000", "173415.915000", "173417.405000", "173418.895000", "173420.385000", "173421.875000", "173423.365000", "173424.855000", "173426.345000", "173427.835000", "173429.325000", "173430.815000", "173432.305000", "173433.795000", "173435.285000", "173436.775000", "173438.265000", "173439.755000", "173441.245000", "173442.735000", "173444.225000", "173445.715000", "173447.205000", "173448.695000", "173450.185000", "173451.675000", "173453.165000", "173454.655000", "173456.145000", "173457.635000", "173459.125000", "173500.615000", "173502.105000", "173503.595000", "173505.085000", "173506.575000", "173508.065000", "173509.555000", "173511.045000", "173512.535000", "173514.025000", "173515.515000", "173517.005000", "173518.495000", "173519.985000", "173521.475000", "173522.965000", "173524.455000", "173525.945000", "173527.435000", "173528.925000", "173530.415000", "173531.905000", "173533.395000", "173534.885000", "173536.375000", "173537.865000", "173539.355000", "173540.845000", "173542.335000", "173543.825000", "173545.315000", "173546.805000", "173548.295000", "173549.785000", "173551.275000", "173552.765000", "173554.255000", "173555.745000", "173557.235000", "173558.725000", "173600.215000", "173601.705000", "173603.195000", "173604.685000", "173606.175000", "173607.665000", "173609.155000", "173610.645000", "173612.135000", "173613.625000", "173615.115000", "173616.605000", "173618.095000", "173619.585000", "173621.075000", "173622.565000", "173624.055000", "173625.545000", "173627.035000", "173628.525000", "173630.015000", "173631.505000", "173632.995000", "173634.485000", "173635.975000", "173637.465000", "173638.955000", "173640.445000", "173641.935000", "173643.425000", "173644.915000", "173646.405000", "173647.895000", "173649.385000", "173650.875000", "173652.365000", "173653.855000", "173655.345000", "173656.835000", "173658.325000", "173659.815000", "173701.305000", "173702.795000", "173704.285000", "173705.775000", "173707.265000", "173708.755000", "173710.245000", "173711.735000", "173713.225000", "173714.715000", "173716.205000"],
      "ContentTime": ["173351.370000", "173351.372000", "173351.375000", "173351.377000", "173351.380000", "173351.382000", "173351.385000", "173351.387000", "173351.390000", "173351.392000", "173351.395000", "173351.397000", "173351.400000", "173351.402000", "173351.405000", "173351.407000", "173351.410000", "173351.412000", "173351.415000", "173351.417000", "173351.420000", "173411.306000", "173411.309000", "173411.312000", "173411.314000", "173411.317000", "173411.319000", "173411.322000", "173411.324000", "173411.327000", "173411.329000", "173411.331000", "173411.334000", "173411.336000", "173411.339000", "173411.341000", "173411.344000", "173411.346000", "173411.348000", "173411.351000", "173411.353000", "173431.306000", "173431.308000", "173431.311000", "173431.313000", "173431.316000", "173431.318000", "173431.321000", "173431.323000", "173431.326000", "173431.328000", "173431.331000", "173431.333000", "173431.336000", "173431.338000", "173431.341000", "173431.343000", "173431.349000", "173431.352000", "173431.354000", "173431.357000", "173451.321000", "173451.324000", "173451.327000", "173451.329000", "173451.332000", "173451.334000", "173451.337000", "173451.339000", "173451.342000", "173451.344000", "173451.346000", "173451.349000", "173451.351000", "173451.354000", "173451.356000", "173451.359000", "173451.361000", "173451.363000", "173451.366000", "173451.368000", "173451.371000", "173511.304000", "173511.307000", "173511.310000", "173511.312000", "173511.315000", "173511.317000", "173511.319000", "173511.322000", "173511.324000", "173511.327000", "173511.329000", "173511.332000", "173511.334000", "173511.337000", "173511.339000", "173511.342000", "173511.344000", "173511.347000", "173511.349000", "173511.352000", "173551.341000", "173551.343000", "173551.346000", "173551.348000", "173551.351000", "173551.353000", "173551.356000", "173551.358000", "173551.361000", "173551.363000", "173551.366000", "173551.368000", "173551.371000", "173551.373000", "173551.376000", "173551.378000", "173551.380000", "173551.383000", "173551.385000", "173551.388000", "173551.390000", "173551.393000", "173551.395000", "173551.398000", "173551.400000", "173551.403000", "173551.405000", "173551.408000", "173551.410000", "173631.337000", "173631.339000", "173631.342000", "173631.344000", "173631.347000", "173631.349000", "173631.352000", "173631.354000", "173631.357000", "173631.359000", "173631.362000", "173631.364000", "173631.367000", "173631.369000", "173631.372000", "173631.374000", "173631.377000", "173631.379000", "173631.382000", "173631.384000", "173631.387000", "173631.389000", "173631.392000", "173631.394000", "173631.397000", "173631.399000", "173631.402000", "173712.034000", "173712.037000", "173712.040000", "173712.042000", "173712.044000", "173712.047000", "173712.049000", "173712.052000", "173712.054000", "173712.057000", "173712.059000", "173712.062000", "173712.064000", "173712.067000", "173712.069000", "173712.071000", "173712.074000", "173712.076000", "173712.079000", "173712.081000", "173712.084000", "173712.086000", "173712.089000", "173712.091000", "173712.094000", "173712.096000", "173712.099000", "173718.429000", "173718.432000", "173718.434000", "173718.437000", "173718.440000"],
      "InstanceCreationTime": ["173351.370000", "173351.372000", "173351.375000", "173351.377000", "173351.380000", "173351.382000", "173351.385000", "173351.387000", "173351.390000", "173351.392000", "173351.395000", "173351.397000", "173351.400000", "173351.402000", "173351.405000", "173351.407000", "173351.410000", "173351.412000", "173351.415000", "173351.417000", "173351.420000", "173411.306000", "173411.309000", "173411.312000", "173411.314000", "173411.317000", "173411.319000", "173411.322000", "173411.324000", "173411.327000", "173411.329000", "173411.331000", "173411.334000", "173411.336000", "173411.339000", "173411.341000", "173411.344000", "173411.346000", "173411.348000", "173411.351000", "173411.353000", "173431.306000", "173431.308000", "173431.311000", "173431.313000", "173431.316000", "173431.318000", "173431.321000", "173431.323000", "173431.326000", "173431.328000", "173431.331000", "173431.333000", "173431.336000", "173431.338000", "173431.341000", "173431.343000", "173431.349000", "173431.352000", "173431.354000", "173431.357000", "173451.321000", "173451.324000", "173451.327000", "173451.329000", "173451.332000", "173451.334000", "173451.337000", "173451.339000", "173451.342000", "173451.344000", "173451.346000", "173451.349000", "173451.351000", "173451.354000", "173451.356000", "173451.359000", "173451.361000", "173451.363000", "173451.366000", "173451.368000", "173451.371000", "173511.304000", "173511.307000", "173511.310000", "173511.312000", "173511.315000", "173511.317000", "173511.319000", "173511.322000", "173511.324000", "173511.327000", "173511.329000", "173511.332000", "173511.334000", "173511.337000", "173511.339000", "173511.342000", "173511.344000", "173511.347000", "173511.349000", "173511.352000", "173551.341000", "173551.343000", "173551.346000", "173551.348000", "173551.351000", "173551.353000", "173551.356000", "173551.358000", "173551.361000", "173551.363000", "173551.366000", "173551.368000", "173551.371000", "173551.373000", "173551.376000", "173551.378000", "173551.380000", "173551.383000", "173551.385000", "173551.388000", "173551.390000", "173551.393000", "173551.395000", "173551.398000", "173551.400000", "173551.403000", "173551.405000", "173551.408000", "173551.410000", "173631.337000", "173631.339000", "173631.342000", "173631.344000", "173631.347000", "173631.349000", "173631.352000", "173631.354000", "173631.357000", "173631.359000", "173631.362000", "173631.364000", "173631.367000", "173631.369000", "173631.372000", "173631.374000", "173631.377000", "173631.379000", "173631.382000", "173631.384000", "173631.387000", "173631.389000", "173631.392000", "173631.394000", "173631.397000", "173631.399000", "173631.402000", "173712.034000", "173712.037000", "173712.040000", "173712.042000", "173712.044000", "173712.047000", "173712.049000", "173712.052000", "173712.054000", "173712.057000", "173712.059000", "173712.062000", "173712.064000", "173712.067000", "173712.069000", "173712.071000", "173712.074000", "173712.076000", "173712.079000", "173712.081000", "173712.084000", "173712.086000", "173712.089000", "173712.091000", "173712.094000", "173712.096000", "173712.099000", "173718.429000", "173718.432000", "173718.434000", "173718.437000", "173718.440000"],
      "InstanceNumber": [1, 2, 3, 4, 5, 6, 7, 8, 9, 10, 11, 12, 13, 14, 15, 16, 17, 18, 19, 20, 21, 22, 23, 24, 25, 26, 27, 28, 29, 30, 31, 32, 33, 34, 35, 36, 37, 38, 39, 40, 41, 42, 43, 44, 45, 46, 47, 48, 49, 50, 51, 52, 53, 54, 55, 56, 57, 58, 59, 60, 61, 62, 63, 64, 65, 66, 67, 68, 69, 70, 71, 72, 73, 74, 75, 76, 77, 78, 79, 80, 81, 82, 83, 84, 85, 86, 87, 88, 89, 90, 91, 92, 93, 94, 95, 96, 97, 98, 99, 100, 101, 102, 103, 104, 105, 106, 107, 108, 109, 110, 111, 112, 113, 114, 115, 116, 117, 118, 119, 120, 121, 122, 123, 124, 125, 126, 127, 128, 129, 130, 131, 132, 133, 134, 135, 136, 137, 138, 139, 140, 141, 142, 143, 144, 145, 146, 147, 148, 149, 150, 151, 152, 153, 154, 155, 156, 157, 158, 159, 160, 161, 162, 163, 164, 165, 166, 167, 168, 169, 170, 171, 172, 173, 174, 175, 176, 177, 178, 179, 180, 181, 182, 183, 184, 185, 186, 187, 188, 189, 190],
      "WindowCenter": [4794.0, 4796.0, 4820.0, 4796.0, 4794.0, 4820.0, 4824.0, 4794.0, 4790.0, 4792.0, 4792.0, 4798.0, 4802.0, 4798.0, 4796.0, 4822.0, 4796.0, 4790.0, 4798.0, 4796.0, 4792.0, 4792.0, 4796.0, 4796.0, 4794.0, 4796.0, 4800.0, 4824.0, 4796.0, 4794.0, 4792.0, 4796.0, 4794.0, 4796.0, 4792.0, 4796.0, 4824.0, 4798.0, 4794.0, 4796.0, 4800.0, 4798.0, 4794.0, 4794.0, 4796.0, 4826.0, 4822.0, 4798.0, 4794.0, 4796.0, 4796.0, 4792.0, 4798.0, 4802.0, 4802.0, 4798.0, 4796.0, 4798.0, 4794.0, 4794.0, 4790.0, 4792.0, 4800.0, 4800.0, 4798.0, 4800.0, 4822.0, 4796.0, 4794.0, 4794.0, 4798.0, 4798.0, 4796.0, 4796.0, 4798.0, 4798.0, 4798.0, 4802.0, 4796.0, 4798.0, 4802.0, 4796.0, 4796.0, 4794.0, 4800.0, 4822.0, 4796.0, 4794.0, 4798.0, 4826.0, 4798.0, 4798.0, 4796.0, 4802.0, 4822.0, 4800.0, 4794.0, 4798.0, 4826.0, 4834.0, 4802.0, 4792.0, 4794.0, 4796.0, 4796.0, 4794.0, 4796.0, 4798.0, 4828.0, 4826.0, 4796.0, 4796.0, 4798.0, 4798.0, 4792.0, 4794.0, 4800.0, 4798.0, 4798.0, 4800.0, 4828.0, 4824.0, 4796.0, 4798.0, 4800.0, 4798.0, 4794.0, 4800.0, 4828.0, 4822.0, 4798.0, 4796.0, 4824.0, 4800.0, 4794.0, 4794.0, 4798.0, 4824.0, 4824.0, 4798.0, 4796.0, 4798.0, 4796.0, 4796.0, 4796.0, 4802.0, 4824.0, 4794.0, 4796.0, 4798.0, 4822.0, 4800.0, 4798.0, 4796.0, 4824.0, 4826.0, 4802.0, 4802.0, 4828.0, 4822.0, 4796.0, 4796.0, 4798.0, 4796.0, 4798.0, 4824.0, 4802.0, 4802.0, 4794.0, 4824.0, 4824.0, 4794.0, 4796.0, 4798.0, 4798.0, 4796.0, 4826.0, 4824.0, 4800.0, 4798.0, 4802.0, 4794.0, 4800.0, 4824.0, 4798.0, 4800.0, 4802.0, 4798.0, 4820.0, 4826.0],
      "WindowWidth": [18546.0, 18544.0, 18580.0, 18546.0, 18546.0, 18574.0, 18582.0, 18548.0, 18550.0, 18552.0, 18548.0, 18548.0, 18548.0, 18550.0, 18550.0, 18582.0, 18550.0, 18546.0, 18550.0, 18548.0, 18550.0, 18546.0, 18548.0, 18544.0, 18546.0, 18546.0, 18548.0, 18582.0, 18550.0, 18550.0, 18548.0, 18542.0, 18546.0, 18548.0, 18544.0, 18546.0, 18582.0, 18548.0, 18544.0, 18544.0, 18548.0, 18548.0, 18548.0, 18550.0, 18548.0, 18584.0, 18580.0, 18550.0, 18548.0, 18548.0, 18552.0, 18550.0, 18554.0, 18554.0, 18544.0, 18546.0, 18548.0, 18550.0, 18548.0, 18546.0, 18550.0, 18548.0, 18550.0, 18546.0, 18552.0, 18550.0, 18580.0, 18548.0, 18550.0, 18544.0, 18546.0, 18546.0, 18548.0, 18548.0, 18544.0, 18550.0, 18546.0, 18546.0, 18548.0, 18548.0, 18548.0, 18544.0, 18552.0, 18546.0, 18546.0, 18572.0, 18552.0, 18550.0, 18548.0, 18586.0, 18550.0, 18550.0, 18546.0, 18550.0, 18580.0, 18552.0, 18548.0, 18552.0, 18582.0, 18588.0, 18550.0, 18546.0, 18550.0, 18544.0, 18546.0, 18550.0, 18548.0, 18550.0, 18586.0, 18584.0, 18546.0, 18550.0, 18544.0, 18552.0, 18546.0, 18550.0, 18550.0, 18552.0, 18550.0, 18552.0, 18578.0, 18580.0, 18546.0, 18552.0, 18552.0, 18546.0, 18544.0, 18546.0, 18582.0, 18574.0, 18546.0, 18546.0, 18578.0, 18540.0, 18544.0, 18548.0, 18550.0, 18580.0, 18578.0, 18544.0, 18550.0, 18546.0, 18542.0, 18550.0, 18546.0, 18550.0, 18580.0, 18544.0, 18542.0, 18546.0, 18578.0, 18550.0, 18544.0, 18548.0, 18580.0, 18584.0, 18552.0, 18550.0, 18584.0, 18584.0, 18550.0, 18552.0, 18542.0, 18546.0, 18544.0, 18584.0, 18550.0, 18550.0, 18544.0, 18578.0, 18580.0, 18546.0, 18546.0, 18552.0, 18546.0, 18542.0, 18582.0, 18578.0, 18546.0, 18546.0, 18548.0, 18546.0, 18548.0, 18580.0, 18548.0, 18552.0, 18548.0, 18546.0, 18578.0, 18580.0]
    },
    "slices": {}
  }
}