{
  "AcquisitionMatrixPE": 104,
  "AcquisitionNumber": 1,
  "AcquisitionTime": "17:44:51.435000",
  "BandwidthPerPixelPhaseEncode": 17.17,
  "BaseResolution": 104,
  "BodyPartExamined": "BRAIN",
  "CoilString": "HC1-7;NC1_2",
  "ConsistencyInfo": "N4_VE11C_LATEST_20160120",
  "ConversionSoftware": "dcm2niix",
  "ConversionSoftwareVersion": "v1.0.20190902",
  "DerivedVendorReportedEchoSpacing": 0.000560011,
  "DeviceSerialNumber": "167006",
  "DwellTime": 2.1e-06,
  "EchoTime": 0.037,
  "EchoTrainLength": 104,
  "EffectiveEchoSpacing": 0.000560011,
  "FlipAngle": 52,
  "ImageComments": "Unaliased_MB4_PE3_LB",
  "ImageOrientationPatientDICOM": [0.996138, 0.0838985, 0.0258735, -0.0701809, 0.937975, -0.339526],
  "ImageType": [
    "ORIGINAL",
    "PRIMARY",
    "M",
    "MB",
    "ND",
    "MOSAIC"
],
  "ImagingFrequency": 123.259,
  "InPlanePhaseEncodingDirectionDICOM": "COL",
  "InstitutionAddress": "Chemin_Queen-Mary_4565_Montreal_District_CA_H3W_1W5",
  "InstitutionName": "IUGM",
  "InstitutionalDepartmentName": "Department",
  "MRAcquisitionType": "2D",
  "MagneticFieldStrength": 3,
  "Manufacturer": "Siemens",
  "ManufacturersModelName": "Prisma_fit",
  "Modality": "MR",
  "MultibandAccelerationFactor": 4,
  "PartialFourier": 1,
  "PatientPosition": "HFS",
  "PercentPhaseFOV": 100,
  "PhaseEncodingDirection": "j",
  "PhaseEncodingSteps": 104,
  "PhaseResolution": 1,
  "PixelBandwidth": 2290,
  "ProcedureStepDescription": "memory_things",
  "ProtocolName": "func_task-things_run-3",
  "PulseSequenceDetails": "%CustomerSeq%_cmrr_mbep2d_bold",
  "ReceiveCoilActiveElements": "HC1-7;NC1,2",
  "ReceiveCoilName": "HeadNeck_64",
  "ReconMatrixPE": 104,
  "RepetitionTime": 1.49,
  "SAR": 0.0364619,
  "ScanOptions": "FS",
  "ScanningSequence": "EP",
  "SequenceName": "epfid2d1_104",
  "SequenceVariant": "SK_SS",
  "SeriesDescription": "func_task-things_run-3",
  "SeriesNumber": 16,
  "ShimSetting": [631, -7174, -8820, 671, 84, 77, -28, -7],
  "SliceThickness": 2,
  "SliceTiming": [0, 0.7825, 0.0975, 0.8825, 0.195, 0.98, 0.2925, 1.0775, 0.3925, 1.175, 0.49, 1.2725, 0.5875, 1.3725, 0.685, 0, 0.7825, 0.0975, 0.8825, 0.195, 0.98, 0.2925, 1.0775, 0.3925, 1.175, 0.49, 1.2725, 0.5875, 1.3725, 0.685, 0, 0.7825, 0.0975, 0.8825, 0.195, 0.98, 0.2925, 1.0775, 0.3925, 1.175, 0.49, 1.2725, 0.5875, 1.3725, 0.685, 0, 0.7825, 0.0975, 0.8825, 0.195, 0.98, 0.2925, 1.0775, 0.3925, 1.175, 0.49, 1.2725, 0.5875, 1.3725, 0.685],
  "SoftwareVersions": "syngo_MR_E11",
  "SpacingBetweenSlices": 2,
  "StationName": "MRC35049",
  "TaskName": "things",
  "TotalReadoutTime": 0.0576811,
  "TxRefAmp": 245.024,
  "WipMemBlock": "78bc55f0-ce82-434c-8007-4130c56bb931||Sequence: R016 ve11c/master r/e634e98; Dec 19 2017 11:00:25 by eja",
  "dcmmeta_affine": [
    [-1.992276668548584, -0.14036180078983307, 0.10550888627767563, 110.7086410522461],
    [-0.16779690980911255, 1.875949501991272, -0.6727985143661499, -52.04668426513672],
    [0.05174706131219864, 0.679052472114563, 1.880481243133545, -65.30233764648438],
    [0.0, 0.0, 0.0, 1.0]
],
  "dcmmeta_reorient_transform": [
    [0.0, -1.0, 0.0, 103.0],
    [1.0, 0.0, 0.0, 0.0],
    [0.0, 0.0, 1.0, 0.0],
    [0.0, 0.0, 0.0, 1.0]
],
  "dcmmeta_shape": [104, 104, 60, 190],
  "dcmmeta_slice_dim": 2,
  "dcmmeta_version": 0.6,
  "global": {
    "const": {
      "AcquisitionMatrix": [104, 0, 0, 104],
      "AngioFlag": "N",
      "BitsAllocated": 16,
      "BitsStored": 16,
      "BodyPartExamined": "BRAIN",
      "Columns": 832,
      "EchoNumbers": 1,
      "EchoTime": 37.0,
      "EchoTrainLength": 104,
      "FlipAngle": 52.0,
      "HighBit": 15,
      "ImageOrientationPatient": [0.99613834862322, 0.0838984553895, 0.0258735305952, -0.0701809021085, 0.93797472135176, -0.3395262332786],
      "ImagePositionPatient": [-770.34839595842, -885.09978157168, 232.9792360105],
      "ImageType": [
        "ORIGINAL",
        "PRIMARY",
        "M",
        "MB",
        "ND",
        "MOSAIC"
],
      "ImagedNucleus": "1H",
      "ImagingFrequency": 123.258911,
      "InPlanePhaseEncodingDirection": "COL",
      "MRAcquisitionType": "2D",
      "MagneticFieldStrength": 3.0,
      "Manufacturer": "SIEMENS",
      "ManufacturerModelName": "Prisma_fit",
      "Modality": "MR",
      "NumberOfAverages": 1.0,
      "NumberOfPhaseEncodingSteps": 104,
      "PercentPhaseFieldOfView": 100.0,
      "PercentSampling": 100.0,
      "PerformedProcedureStepStartTime": "165727.973000",
      "PhotometricInterpretation": "MONOCHROME2",
      "PixelBandwidth": 2290.0,
      "PixelRepresentation": 0,
      "PixelSpacing": [2.0, 2.0],
      "ProtocolName": "func_task-things_run-3",
      "RepetitionTime": 1490.0,
      "Rows": 832,
      "SAR": 0.03646192366462,
      "SamplesPerPixel": 1,
      "ScanOptions": "FS",
      "ScanningSequence": "EP",
      "SequenceName": "epfid2d1_104",
      "SequenceVariant": [
        "SK",
        "SS"
],
      "SeriesDescription": "func_task-things_run-3",
      "SeriesNumber": 16,
      "SeriesTime": "174618.898000",
      "SliceLocation": -38.051071677177,
      "SliceThickness": 2.0,
      "SmallestImagePixelValue": 0,
      "SoftwareVersions": "syngo MR E11",
      "SpacingBetweenSlices": 1.9999999480623,
      "SpecificCharacterSet": "ISO_IR 100",
      "StudyID": "1",
      "StudyTime": "165727.886000",
      "TransmitCoilName": "Body",
      "VariableFlipAngleFlag": "N",
      "WindowCenterWidthExplanation": "Algo1",
      "dBdt": 0.0},
    "slices": {}
  },
  "time": {
    "samples": {
      "AcquisitionNumber": [1, 2, 3, 4, 5, 6, 7, 8, 9, 10, 11, 12, 13, 14, 15, 16, 17, 18, 19, 20, 21, 22, 23, 24, 25, 26, 27, 28, 29, 30, 31, 32, 33, 34, 35, 36, 37, 38, 39, 40, 41, 42, 43, 44, 45, 46, 47, 48, 49, 50, 51, 52, 53, 54, 55, 56, 57, 58, 59, 60, 61, 62, 63, 64, 65, 66, 67, 68, 69, 70, 71, 72, 73, 74, 75, 76, 77, 78, 79, 80, 81, 82, 83, 84, 85, 86, 87, 88, 89, 90, 91, 92, 93, 94, 95, 96, 97, 98, 99, 100, 101, 102, 103, 104, 105, 106, 107, 108, 109, 110, 111, 112, 113, 114, 115, 116, 117, 118, 119, 120, 121, 122, 123, 124, 125, 126, 127, 128, 129, 130, 131, 132, 133, 134, 135, 136, 137, 138, 139, 140, 141, 142, 143, 144, 145, 146, 147, 148, 149, 150, 151, 152, 153, 154, 155, 156, 157, 158, 159, 160, 161, 162, 163, 164, 165, 166, 167, 168, 169, 170, 171, 172, 173, 174, 175, 176, 177, 178, 179, 180, 181, 182, 183, 184, 185, 186, 187, 188, 189, 190],
      "AcquisitionTime": ["174451.435000", "174452.925000", "174454.415000", "174455.905000", "174457.395000", "174458.885000", "174500.375000", "174501.865000", "174503.355000", "174504.845000", "174506.335000", "174507.825000", "174509.315000", "174510.805000", "174512.295000", "174513.785000", "174515.275000", "174516.765000", "174518.255000", "174519.745000", "174521.235000", "174522.725000", "174524.215000", "174525.705000", "174527.195000", "174528.685000", "174530.175000", "174531.665000", "174533.155000", "174534.645000", "174536.135000", "174537.625000", "174539.115000", "174540.605000", "174542.095000", "174543.585000", "174545.075000", "174546.565000", "174548.055000", "174549.545000", "174551.035000", "174552.525000", "174554.015000", "174555.505000", "174556.995000", "174558.485000", "174559.975000", "174601.465000", "174602.955000", "174604.445000", "174605.935000", "174607.425000", "174608.915000", "174610.405000", "174611.895000", "174613.385000", "174614.875000", "174616.365000", "174617.855000", "174619.345000", "174620.835000", "174622.325000", "174623.815000", "174625.305000", "174626.795000", "174628.285000", "174629.775000", "174631.265000", "174632.755000", "174634.245000", "174635.735000", "174637.225000", "174638.715000", "174640.205000", "174641.695000", "174643.185000", "174644.675000", "174646.165000", "174647.655000", "174649.145000", "174650.635000", "174652.125000", "174653.615000", "174655.105000", "174656.595000", "174658.085000", "174659.575000", "174701.065000", "174702.555000", "174704.045000", "174705.535000", "174707.025000", "174708.515000", "174710.005000", "174711.495000", "174712.985000", "174714.475000", "174715.965000", "174717.455000", "174718.945000", "174720.435000", "174721.925000", "174723.415000", "174724.905000", "174726.395000", "174727.885000", "174729.375000", "174730.865000", "174732.355000", "174733.845000", "174735.335000", "174736.825000", "174738.315000", "174739.805000", "174741.295000", "174742.785000", "174744.275000", "174745.765000", "174747.255000", "174748.745000", "174750.235000", "174751.725000", "174753.215000", "174754.705000", "174756.195000", "174757.685000", "174759.175000", "174800.665000", "174802.155000", "174803.645000", "174805.135000", "174806.625000", "174808.115000", "174809.605000", "174811.095000", "174812.585000", "174814.075000", "174815.565000", "174817.055000", "174818.545000", "174820.035000", "174821.525000", "174823.015000", "174824.505000", "174825.995000", "174827.485000", "174828.975000", "174830.465000", "174831.955000", "174833.445000", "174834.935000", "174836.425000", "174837.915000", "174839.405000", "174840.895000", "174842.385000", "174843.875000", "174845.365000", "174846.855000", "174848.345000", "174849.835000", "174851.325000", "174852.815000", "174854.305000", "174855.795000", "174857.285000", "174858.775000", "174900.265000", "174901.755000", "174903.245000", "174904.735000", "174906.225000", "174907.715000", "174909.205000", "174910.695000", "174912.185000", "174913.675000", "174915.165000", "174916.655000", "174918.145000", "174919.635000", "174921.125000", "174922.615000", "174924.105000", "174925.595000", "174927.085000", "174928.575000", "174930.065000", "174931.555000", "174933.045000"],
      "ContentTime": ["174618.900000", "174618.904000", "174618.908000", "174618.911000", "174618.914000", "174618.918000", "174618.921000", "174618.924000", "174618.927000", "174618.931000", "174618.934000", "174618.937000", "174618.940000", "174618.944000", "174618.947000", "174618.950000", "174618.953000", "174618.957000", "174618.960000", "174618.963000", "174618.966000", "174618.970000", "174618.973000", "174618.976000", "174618.979000", "174618.983000", "174618.986000", "174618.989000", "174618.992000", "174618.996000", "174619.000000", "174619.003000", "174619.006000", "174638.863000", "174638.867000", "174638.870000", "174638.873000", "174638.876000", "174638.880000", "174638.883000", "174638.886000", "174638.889000", "174638.893000", "174638.896000", "174638.899000", "174638.902000", "174638.906000", "174638.909000", "174638.912000", "174638.915000", "174638.919000", "174638.922000", "174638.925000", "174658.864000", "174658.868000", "174658.871000", "174658.874000", "174658.877000", "174658.880000", "174658.884000", "174658.887000", "174658.890000", "174658.894000", "174658.897000", "174658.900000", "174658.903000", "174658.907000", "174658.910000", "174658.913000", "174658.916000", "174658.920000", "174658.923000", "174658.926000", "174718.863000", "174718.867000", "174718.870000", "174718.873000", "174718.876000", "174718.879000", "174718.887000", "174718.898000", "174718.901000", "174718.905000", "174718.908000", "174718.911000", "174718.915000", "174718.918000", "174718.921000", "174718.925000", "174718.929000", "174718.933000", "174718.936000", "174718.940000", "174758.863000", "174758.867000", "174758.870000", "174758.873000", "174758.876000", "174758.880000", "174758.883000", "174758.886000", "174758.890000", "174758.893000", "174758.896000", "174758.899000", "174758.903000", "174758.906000", "174758.909000", "174758.912000", "174758.916000", "174758.919000", "174758.922000", "174758.925000", "174758.929000", "174758.932000", "174758.935000", "174758.939000", "174758.942000", "174758.945000", "174758.948000", "174758.952000", "174758.955000", "174758.958000", "174758.962000", "174758.965000", "174818.864000", "174818.977000", "174818.981000", "174818.984000", "174818.998000", "174819.002000", "174819.005000", "174819.009000", "174819.012000", "174819.015000", "174819.019000", "174819.022000", "174819.025000", "174858.863000", "174858.867000", "174858.870000", "174858.873000", "174858.877000", "174858.880000", "174858.883000", "174858.887000", "174858.890000", "174858.893000", "174858.896000", "174858.900000", "174858.903000", "174858.906000", "174858.909000", "174858.913000", "174858.916000", "174858.919000", "174858.922000", "174858.926000", "174858.929000", "174858.932000", "174858.936000", "174858.939000", "174858.942000", "174858.945000", "174858.949000", "174935.672000", "174935.676000", "174935.679000", "174935.682000", "174935.685000", "174935.689000", "174935.692000", "174935.695000", "174935.699000", "174935.702000", "174935.705000", "174935.708000", "174935.712000", "174935.715000", "174935.718000", "174935.721000", "174935.739000", "174935.742000", "174935.745000", "174935.748000", "174935.752000", "174935.755000", "174935.758000", "174935.761000", "174935.765000"],
      "InstanceCreationTime": ["174618.900000", "174618.904000", "174618.908000", "174618.911000", "174618.914000", "174618.918000", "174618.921000", "174618.924000", "174618.927000", "174618.931000", "174618.934000", "174618.937000", "174618.940000", "174618.944000", "174618.947000", "174618.950000", "174618.953000", "174618.957000", "174618.960000", "174618.963000", "174618.966000", "174618.970000", "174618.973000", "174618.976000", "174618.979000", "174618.983000", "174618.986000", "174618.989000", "174618.992000", "174618.996000", "174619.000000", "174619.003000", "174619.006000", "174638.863000", "174638.867000", "174638.870000", "174638.873000", "174638.876000", "174638.880000", "174638.883000", "174638.886000", "174638.889000", "174638.893000", "174638.896000", "174638.899000", "174638.902000", "174638.906000", "174638.909000", "174638.912000", "174638.915000", "174638.919000", "174638.922000", "174638.925000", "174658.864000", "174658.868000", "174658.871000", "174658.874000", "174658.877000", "174658.880000", "174658.884000", "174658.887000", "174658.890000", "174658.894000", "174658.897000", "174658.900000", "174658.903000", "174658.907000", "174658.910000", "174658.913000", "174658.916000", "174658.920000", "174658.923000", "174658.926000", "174718.863000", "174718.867000", "174718.870000", "174718.873000", "174718.876000", "174718.879000", "174718.887000", "174718.898000", "174718.901000", "174718.905000", "174718.908000", "174718.911000", "174718.915000", "174718.918000", "174718.921000", "174718.925000", "174718.929000", "174718.933000", "174718.936000", "174718.940000", "174758.863000", "174758.867000", "174758.870000", "174758.873000", "174758.876000", "174758.880000", "174758.883000", "174758.886000", "174758.890000", "174758.893000", "174758.896000", "174758.899000", "174758.903000", "174758.906000", "174758.909000", "174758.912000", "174758.916000", "174758.919000", "174758.922000", "174758.925000", "174758.929000", "174758.932000", "174758.935000", "174758.939000", "174758.942000", "174758.945000", "174758.948000", "174758.952000", "174758.955000", "174758.958000", "174758.962000", "174758.965000", "174818.864000", "174818.977000", "174818.981000", "174818.984000", "174818.998000", "174819.002000", "174819.005000", "174819.009000", "174819.012000", "174819.015000", "174819.019000", "174819.022000", "174819.025000", "174858.863000", "174858.867000", "174858.870000", "174858.873000", "174858.877000", "174858.880000", "174858.883000", "174858.887000", "174858.890000", "174858.893000", "174858.896000", "174858.900000", "174858.903000", "174858.906000", "174858.909000", "174858.913000", "174858.916000", "174858.919000", "174858.922000", "174858.926000", "174858.929000", "174858.932000", "174858.936000", "174858.939000", "174858.942000", "174858.945000", "174858.949000", "174935.672000", "174935.676000", "174935.679000", "174935.682000", "174935.685000", "174935.689000", "174935.692000", "174935.695000", "174935.699000", "174935.702000", "174935.705000", "174935.708000", "174935.712000", "174935.715000", "174935.718000", "174935.721000", "174935.739000", "174935.742000", "174935.745000", "174935.748000", "174935.752000", "174935.755000", "174935.758000", "174935.761000", "174935.765000"],
      "InstanceNumber": [1, 2, 3, 4, 5, 6, 7, 8, 9, 10, 11, 12, 13, 14, 15, 16, 17, 18, 19, 20, 21, 22, 23, 24, 25, 26, 27, 28, 29, 30, 31, 32, 33, 34, 35, 36, 37, 38, 39, 40, 41, 42, 43, 44, 45, 46, 47, 48, 49, 50, 51, 52, 53, 54, 55, 56, 57, 58, 59, 60, 61, 62, 63, 64, 65, 66, 67, 68, 69, 70, 71, 72, 73, 74, 75, 76, 77, 78, 79, 80, 81, 82, 83, 84, 85, 86, 87, 88, 89, 90, 91, 92, 93, 94, 95, 96, 97, 98, 99, 100, 101, 102, 103, 104, 105, 106, 107, 108, 109, 110, 111, 112, 113, 114, 115, 116, 117, 118, 119, 120, 121, 122, 123, 124, 125, 126, 127, 128, 129, 130, 131, 132, 133, 134, 135, 136, 137, 138, 139, 140, 141, 142, 143, 144, 145, 146, 147, 148, 149, 150, 151, 152, 153, 154, 155, 156, 157, 158, 159, 160, 161, 162, 163, 164, 165, 166, 167, 168, 169, 170, 171, 172, 173, 174, 175, 176, 177, 178, 179, 180, 181, 182, 183, 184, 185, 186, 187, 188, 189, 190],
      "LargestImagePixelValue": [41861, 41504, 40217, 39696, 39938, 39420, 39708, 39628, 39832, 39875, 39979, 39473, 39760, 39973, 40115, 39251, 39820, 40614, 40039, 39639, 40013, 40209, 39644, 39491, 39870, 39693, 39596, 39991, 40017, 39818, 39372, 39679, 39313, 39291, 39509, 39508, 39236, 39495, 39455, 39554, 39667, 39496, 39628, 39316, 39573, 39477, 39796, 39227, 40005, 39052, 39221, 39680, 39009, 39302, 38787, 39222, 39223, 39316, 39374, 38786, 39374, 39755, 39497, 38987, 39145, 39277, 38944, 38863, 39566, 39583, 39351, 39270, 39333, 39351, 39295, 39127, 39390, 39490, 39711, 39454, 39621, 39752, 38885, 39084, 39853, 39416, 39358, 39674, 40049, 39502, 39062, 39389, 39345, 39578, 39393, 40255, 40602, 40743, 40433, 40733, 40542, 40418, 40389, 40056, 40032, 40053, 39361, 39796, 40088, 40304, 40478, 40141, 39711, 39910, 39908, 39842, 39847, 39901, 40396, 40224, 39780, 40110, 40055, 40031, 39772, 40034, 39843, 39433, 39842, 39564, 39995, 40336, 40026, 40106, 40013, 39833, 39927, 39754, 39586, 39492, 40081, 39391, 39330, 39424, 39523, 39913, 39785, 40297, 39644, 39652, 49053, 39540, 39644, 39896, 39458, 39428, 39881, 39800, 39580, 40134, 40209, 39703, 39778, 40163, 40118, 39994, 40065, 40054, 40587, 39844, 39262, 39555, 39578, 39723, 39617, 39519, 39887, 39971, 39773, 40088, 40434, 40007, 40163, 40226, 40348, 40151, 40645, 40042, 40026, 40128],
      "WindowCenter": [10603.0, 10590.0, 10555.0, 10521.0, 10515.0, 10503.0, 10501.0, 10521.0, 10518.0, 10514.0, 10507.0, 10501.0, 10511.0, 10515.0, 10507.0, 10499.0, 10509.0, 10526.0, 10518.0, 10507.0, 10505.0, 10513.0, 10516.0, 10510.0, 10521.0, 10541.0, 10544.0, 10533.0, 10518.0, 10508.0, 10496.0, 10496.0, 10504.0, 10533.0, 10536.0, 10521.0, 10509.0, 10514.0, 10516.0, 10514.0, 10522.0, 10521.0, 10514.0, 10504.0, 10509.0, 10506.0, 10505.0, 10503.0, 10517.0, 10507.0, 10504.0, 10509.0, 10514.0, 10521.0, 10510.0, 10516.0, 10523.0, 10516.0, 10523.0, 10505.0, 10500.0, 10528.0, 10552.0, 10531.0, 10495.0, 10480.0, 10470.0, 10473.0, 10492.0, 10494.0, 10498.0, 10524.0, 10520.0, 10483.0, 10469.0, 10465.0, 10488.0, 10488.0, 10480.0, 10481.0, 10489.0, 10487.0, 10492.0, 10503.0, 10506.0, 10494.0, 10499.0, 10500.0, 10498.0, 10507.0, 10531.0, 10547.0, 10530.0, 10518.0, 10518.0, 10516.0, 10516.0, 10557.0, 10563.0, 10564.0, 10540.0, 10515.0, 10509.0, 10503.0, 10494.0, 10485.0, 10485.0, 10518.0, 10529.0, 10520.0, 10510.0, 10513.0, 10512.0, 10499.0, 10484.0, 10506.0, 10548.0, 10536.0, 10505.0, 10481.0, 10472.0, 10503.0, 10531.0, 10519.0, 10512.0, 10499.0, 10480.0, 10463.0, 10481.0, 10529.0, 10545.0, 10519.0, 10494.0, 10479.0, 10468.0, 10459.0, 10489.0, 10506.0, 10505.0, 10498.0, 10494.0, 10479.0, 10496.0, 10501.0, 10490.0, 10485.0, 10471.0, 10473.0, 10480.0, 10505.0, 10583.0, 10487.0, 10472.0, 10473.0, 10489.0, 10494.0, 10497.0, 10499.0, 10506.0, 10506.0, 10506.0, 10517.0, 10519.0, 10516.0, 10514.0, 10506.0, 10514.0, 10533.0, 10538.0, 10524.0, 10528.0, 10520.0, 10503.0, 10492.0, 10512.0, 10514.0, 10517.0, 10507.0, 10508.0, 10500.0, 10496.0, 10505.0, 10523.0, 10524.0, 10517.0, 10510.0, 10513.0, 10502.0, 10508.0, 10536.0],
      "WindowWidth": [22569.0, 22521.0, 22434.0, 22351.0, 22330.0, 22303.0, 22300.0, 22343.0, 22338.0, 22326.0, 22307.0, 22299.0, 22328.0, 22329.0, 22310.0, 22289.0, 22311.0, 22350.0, 22342.0, 22309.0, 22303.0, 22326.0, 22336.0, 22322.0, 22343.0, 22392.0, 22401.0, 22367.0, 22338.0, 22313.0, 22285.0, 22284.0, 22305.0, 22375.0, 22382.0, 22346.0, 22315.0, 22327.0, 22331.0, 22326.0, 22345.0, 22341.0, 22325.0, 22299.0, 22310.0, 22306.0, 22305.0, 22297.0, 22329.0, 22310.0, 22299.0, 22313.0, 22330.0, 22344.0, 22320.0, 22333.0, 22348.0, 22332.0, 22348.0, 22310.0, 22293.0, 22355.0, 22416.0, 22366.0, 22279.0, 22239.0, 22221.0, 22230.0, 22270.0, 22278.0, 22284.0, 22347.0, 22343.0, 22251.0, 22213.0, 22211.0, 22264.0, 22265.0, 22245.0, 22249.0, 22265.0, 22259.0, 22275.0, 22302.0, 22301.0, 22281.0, 22290.0, 22295.0, 22287.0, 22309.0, 22371.0, 22404.0, 22360.0, 22328.0, 22332.0, 22320.0, 22319.0, 22418.0, 22432.0, 22432.0, 22376.0, 22317.0, 22302.0, 22293.0, 22270.0, 22249.0, 22249.0, 22329.0, 22354.0, 22327.0, 22303.0, 22314.0, 22312.0, 22278.0, 22246.0, 22296.0, 22396.0, 22366.0, 22287.0, 22232.0, 22218.0, 22289.0, 22357.0, 22329.0, 22315.0, 22281.0, 22242.0, 22196.0, 22237.0, 22355.0, 22396.0, 22328.0, 22279.0, 22236.0, 22210.0, 22190.0, 22261.0, 22303.0, 22299.0, 22283.0, 22267.0, 22238.0, 22275.0, 22294.0, 22265.0, 22246.0, 22218.0, 22220.0, 22242.0, 22301.0, 22460.0, 22254.0, 22222.0, 22231.0, 22272.0, 22282.0, 22282.0, 22286.0, 22301.0, 22301.0, 22301.0, 22330.0, 22335.0, 22324.0, 22319.0, 22299.0, 22323.0, 22370.0, 22372.0, 22342.0, 22352.0, 22336.0, 22296.0, 22269.0, 22316.0, 22325.0, 22325.0, 22305.0, 22306.0, 22288.0, 22276.0, 22299.0, 22341.0, 22341.0, 22327.0, 22312.0, 22314.0, 22297.0, 22310.0, 22375.0]
    },
    "slices": {}
  }
}