{
  "AcquisitionMatrixPE": 104,
  "AcquisitionNumber": 1,
  "AcquisitionTime": "17:44:51.435000",
  "BandwidthPerPixelPhaseEncode": 17.17,
  "BaseResolution": 104,
  "BodyPartExamined": "BRAIN",
  "CoilString": "HC1-7;NC1_2",
  "ConsistencyInfo": "N4_VE11C_LATEST_20160120",
  "ConversionSoftware": "dcm2niix",
  "ConversionSoftwareVersion": "v1.0.20190902",
  "DerivedVendorReportedEchoSpacing": 0.000560011,
  "DeviceSerialNumber": "167006",
  "DwellTime": 2.1e-06,
  "EchoTime": 0.037,
  "EchoTrainLength": 104,
  "EffectiveEchoSpacing": 0.000560011,
  "FlipAngle": 52,
  "ImageComments": "Unaliased_MB4_PE3_LB",
  "ImageOrientationPatientDICOM": [0.996138, 0.0838985, 0.0258735, -0.0701809, 0.937975, -0.339526],
  "ImageType": [
    "ORIGINAL",
    "PRIMARY",
    "P",
    "MB",
    "ND",
    "MOSAIC"
],
  "ImagingFrequency": 123.259,
  "InPlanePhaseEncodingDirectionDICOM": "COL",
  "InstitutionAddress": "Chemin_Queen-Mary_4565_Montreal_District_CA_H3W_1W5",
  "InstitutionName": "IUGM",
  "InstitutionalDepartmentName": "Department",
  "MRAcquisitionType": "2D",
  "MagneticFieldStrength": 3,
  "Manufacturer": "Siemens",
  "ManufacturersModelName": "Prisma_fit",
  "Modality": "MR",
  "MultibandAccelerationFactor": 4,
  "PartialFourier": 1,
  "PatientPosition": "HFS",
  "PercentPhaseFOV": 100,
  "PhaseEncodingDirection": "j",
  "PhaseEncodingSteps": 104,
  "PhaseResolution": 1,
  "PixelBandwidth": 2290,
  "ProcedureStepDescription": "memory_things",
  "ProtocolName": "func_task-things_run-3",
  "PulseSequenceDetails": "%CustomerSeq%_cmrr_mbep2d_bold",
  "ReceiveCoilActiveElements": "HC1-7;NC1,2",
  "ReceiveCoilName": "HeadNeck_64",
  "ReconMatrixPE": 104,
  "RepetitionTime": 1.49,
  "SAR": 0.0364619,
  "ScanOptions": "FS",
  "ScanningSequence": "EP",
  "SequenceName": "epfid2d1_104",
  "SequenceVariant": "SK_SS",
  "SeriesDescription": "func_task-things_run-3",
  "SeriesNumber": 17,
  "ShimSetting": [631, -7174, -8820, 671, 84, 77, -28, -7],
  "SliceThickness": 2,
  "SliceTiming": [0, 0.7825, 0.0975, 0.8825, 0.195, 0.98, 0.2925, 1.0775, 0.3925, 1.175, 0.49, 1.2725, 0.5875, 1.3725, 0.685, 0, 0.7825, 0.0975, 0.8825, 0.195, 0.98, 0.2925, 1.0775, 0.3925, 1.175, 0.49, 1.2725, 0.5875, 1.3725, 0.685, 0, 0.7825, 0.0975, 0.8825, 0.195, 0.98, 0.2925, 1.0775, 0.3925, 1.175, 0.49, 1.2725, 0.5875, 1.3725, 0.685, 0, 0.7825, 0.0975, 0.8825, 0.195, 0.98, 0.2925, 1.0775, 0.3925, 1.175, 0.49, 1.2725, 0.5875, 1.3725, 0.685],
  "SoftwareVersions": "syngo_MR_E11",
  "SpacingBetweenSlices": 2,
  "StationName": "MRC35049",
  "TaskName": "things",
  "TotalReadoutTime": 0.0576811,
  "TxRefAmp": 245.024,
  "WipMemBlock": "78bc55f0-ce82-434c-8007-4130c56bb931||Sequence: R016 ve11c/master r/e634e98; Dec 19 2017 11:00:25 by eja",
  "dcmmeta_affine": [
    [-1.992276668548584, -0.14036180078983307, 0.10550888627767563, 110.7086410522461],
    [-0.16779690980911255, 1.875949501991272, -0.6727985143661499, -52.04668426513672],
    [0.05174706131219864, 0.679052472114563, 1.880481243133545, -65.30233764648438],
    [0.0, 0.0, 0.0, 1.0]
],
  "dcmmeta_reorient_transform": [
    [0.0, -1.0, 0.0, 103.0],
    [1.0, 0.0, 0.0, 0.0],
    [0.0, 0.0, 1.0, 0.0],
    [0.0, 0.0, 0.0, 1.0]
],
  "dcmmeta_shape": [104, 104, 60, 190],
  "dcmmeta_slice_dim": 2,
  "dcmmeta_version": 0.6,
  "global": {
    "const": {
      "AcquisitionMatrix": [104, 0, 0, 104],
      "AngioFlag": "N",
      "BitsAllocated": 16,
      "BitsStored": 16,
      "BodyPartExamined": "BRAIN",
      "Columns": 832,
      "EchoNumbers": 1,
      "EchoTime": 37.0,
      "EchoTrainLength": 104,
      "FlipAngle": 52.0,
      "HighBit": 15,
      "ImageOrientationPatient": [0.99613834862322, 0.0838984553895, 0.0258735305952, -0.0701809021085, 0.93797472135176, -0.3395262332786],
      "ImagePositionPatient": [-770.34839595842, -885.09978157168, 232.9792360105],
      "ImageType": [
        "ORIGINAL",
        "PRIMARY",
        "P",
        "MB",
        "ND",
        "MOSAIC"
],
      "ImagedNucleus": "1H",
      "ImagingFrequency": 123.258911,
      "InPlanePhaseEncodingDirection": "COL",
      "LargestImagePixelValue": 4095,
      "MRAcquisitionType": "2D",
      "MagneticFieldStrength": 3.0,
      "Manufacturer": "SIEMENS",
      "ManufacturerModelName": "Prisma_fit",
      "Modality": "MR",
      "NumberOfAverages": 1.0,
      "NumberOfPhaseEncodingSteps": 104,
      "PercentPhaseFieldOfView": 100.0,
      "PercentSampling": 100.0,
      "PerformedProcedureStepStartTime": "165727.973000",
      "PhotometricInterpretation": "MONOCHROME2",
      "PixelBandwidth": 2290.0,
      "PixelRepresentation": 0,
      "PixelSpacing": [2.0, 2.0],
      "ProtocolName": "func_task-things_run-3",
      "RepetitionTime": 1490.0,
      "RescaleIntercept": -4096.0,
      "RescaleSlope": 2.0,
      "RescaleType": "US",
      "Rows": 832,
      "SAR": 0.03646192366462,
      "SamplesPerPixel": 1,
      "ScanOptions": "FS",
      "ScanningSequence": "EP",
      "SequenceName": "epfid2d1_104",
      "SequenceVariant": [
        "SK",
        "SS"
],
      "SeriesDescription": "func_task-things_run-3",
      "SeriesNumber": 17,
      "SeriesTime": "174619.079000",
      "SliceLocation": -38.051071677177,
      "SliceThickness": 2.0,
      "SmallestImagePixelValue": 0,
      "SoftwareVersions": "syngo MR E11",
      "SpacingBetweenSlices": 1.9999999480623,
      "SpecificCharacterSet": "ISO_IR 100",
      "StudyID": "1",
      "StudyTime": "165727.886000",
      "TransmitCoilName": "Body",
      "VariableFlipAngleFlag": "N",
      "WindowCenterWidthExplanation": "Algo1",
      "dBdt": 0.0},
    "slices": {}
  },
  "time": {
    "samples": {
      "AcquisitionNumber": [1, 2, 3, 4, 5, 6, 7, 8, 9, 10, 11, 12, 13, 14, 15, 16, 17, 18, 19, 20, 21, 22, 23, 24, 25, 26, 27, 28, 29, 30, 31, 32, 33, 34, 35, 36, 37, 38, 39, 40, 41, 42, 43, 44, 45, 46, 47, 48, 49, 50, 51, 52, 53, 54, 55, 56, 57, 58, 59, 60, 61, 62, 63, 64, 65, 66, 67, 68, 69, 70, 71, 72, 73, 74, 75, 76, 77, 78, 79, 80, 81, 82, 83, 84, 85, 86, 87, 88, 89, 90, 91, 92, 93, 94, 95, 96, 97, 98, 99, 100, 101, 102, 103, 104, 105, 106, 107, 108, 109, 110, 111, 112, 113, 114, 115, 116, 117, 118, 119, 120, 121, 122, 123, 124, 125, 126, 127, 128, 129, 130, 131, 132, 133, 134, 135, 136, 137, 138, 139, 140, 141, 142, 143, 144, 145, 146, 147, 148, 149, 150, 151, 152, 153, 154, 155, 156, 157, 158, 159, 160, 161, 162, 163, 164, 165, 166, 167, 168, 169, 170, 171, 172, 173, 174, 175, 176, 177, 178, 179, 180, 181, 182, 183, 184, 185, 186, 187, 188, 189, 190],
      "AcquisitionTime": ["174451.435000", "174452.925000", "174454.415000", "174455.905000", "174457.395000", "174458.885000", "174500.375000", "174501.865000", "174503.355000", "174504.845000", "174506.335000", "174507.825000", "174509.315000", "174510.805000", "174512.295000", "174513.785000", "174515.275000", "174516.765000", "174518.255000", "174519.745000", "174521.235000", "174522.725000", "174524.215000", "174525.705000", "174527.195000", "174528.685000", "174530.175000", "174531.665000", "174533.155000", "174534.645000", "174536.135000", "174537.625000", "174539.115000", "174540.605000", "174542.095000", "174543.585000", "174545.075000", "174546.565000", "174548.055000", "174549.545000", "174551.035000", "174552.525000", "174554.015000", "174555.505000", "174556.995000", "174558.485000", "174559.975000", "174601.465000", "174602.955000", "174604.445000", "174605.935000", "174607.425000", "174608.915000", "174610.405000", "174611.895000", "174613.385000", "174614.875000", "174616.365000", "174617.855000", "174619.345000", "174620.835000", "174622.325000", "174623.815000", "174625.305000", "174626.795000", "174628.285000", "174629.775000", "174631.265000", "174632.755000", "174634.245000", "174635.735000", "174637.225000", "174638.715000", "174640.205000", "174641.695000", "174643.185000", "174644.675000", "174646.165000", "174647.655000", "174649.145000", "174650.635000", "174652.125000", "174653.615000", "174655.105000", "174656.595000", "174658.085000", "174659.575000", "174701.065000", "174702.555000", "174704.045000", "174705.535000", "174707.025000", "174708.515000", "174710.005000", "174711.495000", "174712.985000", "174714.475000", "174715.965000", "174717.455000", "174718.945000", "174720.435000", "174721.925000", "174723.415000", "174724.905000", "174726.395000", "174727.885000", "174729.375000", "174730.865000", "174732.355000", "174733.845000", "174735.335000", "174736.825000", "174738.315000", "174739.805000", "174741.295000", "174742.785000", "174744.275000", "174745.765000", "174747.255000", "174748.745000", "174750.235000", "174751.725000", "174753.215000", "174754.705000", "174756.195000", "174757.685000", "174759.175000", "174800.665000", "174802.155000", "174803.645000", "174805.135000", "174806.625000", "174808.115000", "174809.605000", "174811.095000", "174812.585000", "174814.075000", "174815.565000", "174817.055000", "174818.545000", "174820.035000", "174821.525000", "174823.015000", "174824.505000", "174825.995000", "174827.485000", "174828.975000", "174830.465000", "174831.955000", "174833.445000", "174834.935000", "174836.425000", "174837.915000", "174839.405000", "174840.895000", "174842.385000", "174843.875000", "174845.365000", "174846.855000", "174848.345000", "174849.835000", "174851.325000", "174852.815000", "174854.305000", "174855.795000", "174857.285000", "174858.775000", "174900.265000", "174901.755000", "174903.245000", "174904.735000", "174906.225000", "174907.715000", "174909.205000", "174910.695000", "174912.185000", "174913.675000", "174915.165000", "174916.655000", "174918.145000", "174919.635000", "174921.125000", "174922.615000", "174924.105000", "174925.595000", "174927.085000", "174928.575000", "174930.065000", "174931.555000", "174933.045000"],
      "ContentTime": ["174619.081000", "174619.084000", "174619.087000", "174619.089000", "174619.092000", "174619.094000", "174619.097000", "174619.099000", "174619.101000", "174619.109000", "174619.112000", "174619.114000", "174619.116000", "174619.119000", "174619.122000", "174619.124000", "174619.126000", "174619.129000", "174619.132000", "174619.134000", "174619.137000", "174619.139000", "174619.142000", "174619.144000", "174619.147000", "174619.149000", "174619.152000", "174619.154000", "174619.157000", "174619.159000", "174619.162000", "174619.164000", "174619.167000", "174638.976000", "174638.978000", "174638.981000", "174638.983000", "174638.986000", "174638.988000", "174638.991000", "174638.993000", "174638.996000", "174639.006000", "174639.008000", "174639.011000", "174639.013000", "174639.016000", "174639.018000", "174639.021000", "174639.023000", "174639.026000", "174639.028000", "174639.031000", "174658.968000", "174658.971000", "174658.974000", "174658.976000", "174658.979000", "174658.981000", "174658.983000", "174658.986000", "174658.988000", "174658.991000", "174658.993000", "174658.996000", "174658.998000", "174659.002000", "174659.004000", "174659.007000", "174659.009000", "174659.012000", "174659.014000", "174659.017000", "174719.003000", "174719.005000", "174719.008000", "174719.010000", "174719.013000", "174719.015000", "174719.018000", "174719.020000", "174719.023000", "174719.025000", "174719.028000", "174719.030000", "174719.033000", "174719.035000", "174719.038000", "174719.040000", "174719.042000", "174719.045000", "174719.047000", "174719.050000", "174759.022000", "174759.024000", "174759.027000", "174759.029000", "174759.032000", "174759.034000", "174759.037000", "174759.039000", "174759.042000", "174759.044000", "174759.047000", "174759.049000", "174759.052000", "174759.054000", "174759.057000", "174759.059000", "174759.062000", "174759.064000", "174759.067000", "174759.069000", "174759.072000", "174759.074000", "174759.077000", "174759.079000", "174759.082000", "174759.084000", "174759.087000", "174759.089000", "174759.092000", "174759.094000", "174759.097000", "174759.099000", "174819.072000", "174819.074000", "174819.077000", "174819.079000", "174819.082000", "174819.084000", "174819.087000", "174819.089000", "174819.092000", "174819.094000", "174819.097000", "174819.099000", "174819.102000", "174859.011000", "174859.014000", "174859.016000", "174859.019000", "174859.021000", "174859.024000", "174859.026000", "174859.029000", "174859.031000", "174859.033000", "174859.036000", "174859.038000", "174859.041000", "174859.043000", "174859.046000", "174859.048000", "174859.051000", "174859.053000", "174859.056000", "174859.058000", "174859.061000", "174859.063000", "174859.066000", "174859.068000", "174859.071000", "174859.073000", "174859.075000", "174935.830000", "174935.833000", "174935.835000", "174935.838000", "174935.841000", "174935.843000", "174935.846000", "174935.849000", "174935.851000", "174935.854000", "174935.856000", "174935.859000", "174935.861000", "174935.864000", "174935.866000", "174935.869000", "174935.871000", "174935.874000", "174935.876000", "174935.879000", "174935.881000", "174935.884000", "174935.886000", "174935.889000", "174935.891000"],
      "InstanceCreationTime": ["174619.081000", "174619.084000", "174619.087000", "174619.089000", "174619.092000", "174619.094000", "174619.097000", "174619.099000", "174619.101000", "174619.109000", "174619.112000", "174619.114000", "174619.116000", "174619.119000", "174619.122000", "174619.124000", "174619.126000", "174619.129000", "174619.132000", "174619.134000", "174619.137000", "174619.139000", "174619.142000", "174619.144000", "174619.147000", "174619.149000", "174619.152000", "174619.154000", "174619.157000", "174619.159000", "174619.162000", "174619.164000", "174619.167000", "174638.976000", "174638.978000", "174638.981000", "174638.983000", "174638.986000", "174638.988000", "174638.991000", "174638.993000", "174638.996000", "174639.006000", "174639.008000", "174639.011000", "174639.013000", "174639.016000", "174639.018000", "174639.021000", "174639.023000", "174639.026000", "174639.028000", "174639.031000", "174658.968000", "174658.971000", "174658.974000", "174658.976000", "174658.979000", "174658.981000", "174658.983000", "174658.986000", "174658.988000", "174658.991000", "174658.993000", "174658.996000", "174658.998000", "174659.002000", "174659.004000", "174659.007000", "174659.009000", "174659.012000", "174659.014000", "174659.017000", "174719.003000", "174719.005000", "174719.008000", "174719.010000", "174719.013000", "174719.015000", "174719.018000", "174719.020000", "174719.023000", "174719.025000", "174719.028000", "174719.030000", "174719.033000", "174719.035000", "174719.038000", "174719.040000", "174719.042000", "174719.045000", "174719.047000", "174719.050000", "174759.022000", "174759.024000", "174759.027000", "174759.029000", "174759.032000", "174759.034000", "174759.037000", "174759.039000", "174759.042000", "174759.044000", "174759.047000", "174759.049000", "174759.052000", "174759.054000", "174759.057000", "174759.059000", "174759.062000", "174759.064000", "174759.067000", "174759.069000", "174759.072000", "174759.074000", "174759.077000", "174759.079000", "174759.082000", "174759.084000", "174759.087000", "174759.089000", "174759.092000", "174759.094000", "174759.097000", "174759.099000", "174819.072000", "174819.074000", "174819.077000", "174819.079000", "174819.082000", "174819.084000", "174819.087000", "174819.089000", "174819.092000", "174819.094000", "174819.097000", "174819.099000", "174819.102000", "174859.011000", "174859.014000", "174859.016000", "174859.019000", "174859.021000", "174859.024000", "174859.026000", "174859.029000", "174859.031000", "174859.033000", "174859.036000", "174859.038000", "174859.041000", "174859.043000", "174859.046000", "174859.048000", "174859.051000", "174859.053000", "174859.056000", "174859.058000", "174859.061000", "174859.063000", "174859.066000", "174859.068000", "174859.071000", "174859.073000", "174859.075000", "174935.830000", "174935.833000", "174935.835000", "174935.838000", "174935.841000", "174935.843000", "174935.846000", "174935.849000", "174935.851000", "174935.854000", "174935.856000", "174935.859000", "174935.861000", "174935.864000", "174935.866000", "174935.869000", "174935.871000", "174935.874000", "174935.876000", "174935.879000", "174935.881000", "174935.884000", "174935.886000", "174935.889000", "174935.891000"],
      "InstanceNumber": [1, 2, 3, 4, 5, 6, 7, 8, 9, 10, 11, 12, 13, 14, 15, 16, 17, 18, 19, 20, 21, 22, 23, 24, 25, 26, 27, 28, 29, 30, 31, 32, 33, 34, 35, 36, 37, 38, 39, 40, 41, 42, 43, 44, 45, 46, 47, 48, 49, 50, 51, 52, 53, 54, 55, 56, 57, 58, 59, 60, 61, 62, 63, 64, 65, 66, 67, 68, 69, 70, 71, 72, 73, 74, 75, 76, 77, 78, 79, 80, 81, 82, 83, 84, 85, 86, 87, 88, 89, 90, 91, 92, 93, 94, 95, 96, 97, 98, 99, 100, 101, 102, 103, 104, 105, 106, 107, 108, 109, 110, 111, 112, 113, 114, 115, 116, 117, 118, 119, 120, 121, 122, 123, 124, 125, 126, 127, 128, 129, 130, 131, 132, 133, 134, 135, 136, 137, 138, 139, 140, 141, 142, 143, 144, 145, 146, 147, 148, 149, 150, 151, 152, 153, 154, 155, 156, 157, 158, 159, 160, 161, 162, 163, 164, 165, 166, 167, 168, 169, 170, 171, 172, 173, 174, 175, 176, 177, 178, 179, 180, 181, 182, 183, 184, 185, 186, 187, 188, 189, 190],
      "WindowCenter": [4792.0, 4788.0, 4788.0, 4788.0, 4790.0, 4798.0, 4822.0, 4794.0, 4792.0, 4790.0, 4792.0, 4792.0, 4790.0, 4790.0, 4790.0, 4792.0, 4794.0, 4792.0, 4794.0, 4794.0, 4796.0, 4790.0, 4790.0, 4796.0, 4794.0, 4790.0, 4790.0, 4794.0, 4796.0, 4790.0, 4790.0, 4794.0, 4794.0, 4794.0, 4790.0, 4792.0, 4792.0, 4788.0, 4790.0, 4796.0, 4788.0, 4792.0, 4798.0, 4794.0, 4790.0, 4790.0, 4794.0, 4792.0, 4790.0, 4792.0, 4792.0, 4794.0, 4790.0, 4796.0, 4794.0, 4794.0, 4794.0, 4794.0, 4792.0, 4792.0, 4822.0, 4822.0, 4790.0, 4790.0, 4792.0, 4794.0, 4790.0, 4792.0, 4790.0, 4798.0, 4822.0, 4794.0, 4790.0, 4790.0, 4790.0, 4792.0, 4788.0, 4792.0, 4790.0, 4792.0, 4794.0, 4796.0, 4792.0, 4792.0, 4794.0, 4788.0, 4788.0, 4790.0, 4796.0, 4796.0, 4790.0, 4794.0, 4798.0, 4796.0, 4790.0, 4798.0, 4822.0, 4790.0, 4786.0, 4786.0, 4790.0, 4796.0, 4794.0, 4794.0, 4790.0, 4796.0, 4796.0, 4792.0, 4788.0, 4792.0, 4796.0, 4790.0, 4786.0, 4790.0, 4796.0, 4796.0, 4790.0, 4788.0, 4788.0, 4796.0, 4794.0, 4790.0, 4794.0, 4794.0, 4792.0, 4792.0, 4790.0, 4798.0, 4792.0, 4792.0, 4790.0, 4790.0, 4790.0, 4790.0, 4796.0, 4796.0, 4792.0, 4794.0, 4794.0, 4792.0, 4796.0, 4820.0, 4796.0, 4790.0, 4786.0, 4786.0, 4790.0, 4796.0, 4796.0, 4792.0, 4790.0, 4788.0, 4792.0, 4794.0, 4794.0, 4792.0, 4796.0, 4790.0, 4792.0, 4796.0, 4798.0, 4790.0, 4792.0, 4792.0, 4792.0, 4796.0, 4792.0, 4792.0, 4798.0, 4798.0, 4792.0, 4762.0, 4792.0, 4796.0, 4788.0, 4788.0, 4798.0, 4796.0, 4790.0, 4794.0, 4794.0, 4790.0, 4792.0, 4794.0, 4796.0, 4794.0, 4792.0, 4794.0, 4796.0, 4790.0],
      "WindowWidth": [18556.0, 18550.0, 18550.0, 18548.0, 18548.0, 18552.0, 18580.0, 18550.0, 18552.0, 18554.0, 18546.0, 18548.0, 18552.0, 18550.0, 18548.0, 18548.0, 18552.0, 18552.0, 18552.0, 18554.0, 18552.0, 18548.0, 18550.0, 18548.0, 18552.0, 18550.0, 18548.0, 18552.0, 18550.0, 18550.0, 18548.0, 18550.0, 18552.0, 18552.0, 18550.0, 18550.0, 18550.0, 18554.0, 18548.0, 18552.0, 18552.0, 18548.0, 18552.0, 18550.0, 18548.0, 18548.0, 18550.0, 18550.0, 18550.0, 18554.0, 18546.0, 18548.0, 18552.0, 18552.0, 18550.0, 18550.0, 18550.0, 18552.0, 18552.0, 18546.0, 18582.0, 18584.0, 18546.0, 18550.0, 18552.0, 18554.0, 18552.0, 18556.0, 18552.0, 18548.0, 18580.0, 18554.0, 18552.0, 18550.0, 18550.0, 18548.0, 18550.0, 18544.0, 18548.0, 18550.0, 18546.0, 18548.0, 18550.0, 18548.0, 18550.0, 18548.0, 18546.0, 18554.0, 18548.0, 18550.0, 18550.0, 18550.0, 18552.0, 18550.0, 18548.0, 18552.0, 18588.0, 18550.0, 18548.0, 18546.0, 18552.0, 18550.0, 18550.0, 18550.0, 18550.0, 18552.0, 18554.0, 18548.0, 18550.0, 18552.0, 18552.0, 18548.0, 18548.0, 18548.0, 18550.0, 18554.0, 18552.0, 18554.0, 18550.0, 18554.0, 18546.0, 18548.0, 18556.0, 18548.0, 18550.0, 18554.0, 18548.0, 18550.0, 18544.0, 18552.0, 18550.0, 18550.0, 18550.0, 18550.0, 18548.0, 18554.0, 18548.0, 18552.0, 18552.0, 18552.0, 18550.0, 18584.0, 18552.0, 18552.0, 18550.0, 18550.0, 18550.0, 18552.0, 18552.0, 18550.0, 18548.0, 18548.0, 18548.0, 18554.0, 18552.0, 18550.0, 18552.0, 18552.0, 18550.0, 18554.0, 18556.0, 18548.0, 18550.0, 18558.0, 18552.0, 18554.0, 18552.0, 18552.0, 18554.0, 18552.0, 18550.0, 18518.0, 18548.0, 18554.0, 18550.0, 18548.0, 18550.0, 18548.0, 18548.0, 18556.0, 18552.0, 18548.0, 18548.0, 18552.0, 18550.0, 18548.0, 18554.0, 18552.0, 18554.0, 18550.0]
    },
    "slices": {}
  }
}