{
  "AcquisitionMatrixPE": 104,
  "AcquisitionNumber": 1,
  "AcquisitionTime": "17:57:11.787500",
  "BandwidthPerPixelPhaseEncode": 17.17,
  "BaseResolution": 104,
  "BodyPartExamined": "BRAIN",
  "CoilString": "HC1-7;NC1_2",
  "ConsistencyInfo": "N4_VE11C_LATEST_20160120",
  "ConversionSoftware": "dcm2niix",
  "ConversionSoftwareVersion": "v1.0.20190902",
  "DerivedVendorReportedEchoSpacing": 0.000560011,
  "DeviceSerialNumber": "167006",
  "DwellTime": 2.1e-06,
  "EchoTime": 0.037,
  "EchoTrainLength": 104,
  "EffectiveEchoSpacing": 0.000560011,
  "FlipAngle": 52,
  "ImageComments": "Unaliased_MB4_PE3_LB",
  "ImageOrientationPatientDICOM": [0.996138, 0.0838985, 0.0258735, -0.0701809, 0.937975, -0.339526],
  "ImageType": [
    "ORIGINAL",
    "PRIMARY",
    "M",
    "MB",
    "ND",
    "MOSAIC"
],
  "ImagingFrequency": 123.259,
  "InPlanePhaseEncodingDirectionDICOM": "COL",
  "InstitutionAddress": "Chemin_Queen-Mary_4565_Montreal_District_CA_H3W_1W5",
  "InstitutionName": "IUGM",
  "InstitutionalDepartmentName": "Department",
  "MRAcquisitionType": "2D",
  "MagneticFieldStrength": 3,
  "Manufacturer": "Siemens",
  "ManufacturersModelName": "Prisma_fit",
  "Modality": "MR",
  "MultibandAccelerationFactor": 4,
  "PartialFourier": 1,
  "PatientPosition": "HFS",
  "PercentPhaseFOV": 100,
  "PhaseEncodingDirection": "j",
  "PhaseEncodingSteps": 104,
  "PhaseResolution": 1,
  "PixelBandwidth": 2290,
  "ProcedureStepDescription": "memory_things",
  "ProtocolName": "func_task-things_run-5",
  "PulseSequenceDetails": "%CustomerSeq%_cmrr_mbep2d_bold",
  "ReceiveCoilActiveElements": "HC1-7;NC1,2",
  "ReceiveCoilName": "HeadNeck_64",
  "ReconMatrixPE": 104,
  "RepetitionTime": 1.49,
  "SAR": 0.0364619,
  "ScanOptions": "FS",
  "ScanningSequence": "EP",
  "SequenceName": "epfid2d1_104",
  "SequenceVariant": "SK_SS",
  "SeriesDescription": "func_task-things_run-5",
  "SeriesNumber": 22,
  "ShimSetting": [631, -7174, -8820, 671, 84, 77, -28, -7],
  "SliceThickness": 2,
  "SliceTiming": [0, 0.785, 0.1, 0.8825, 0.1975, 0.98, 0.295, 1.0775, 0.3925, 1.1775, 0.49, 1.275, 0.5875, 1.3725, 0.6875, 0, 0.785, 0.1, 0.8825, 0.1975, 0.98, 0.295, 1.0775, 0.3925, 1.1775, 0.49, 1.275, 0.5875, 1.3725, 0.6875, 0, 0.785, 0.1, 0.8825, 0.1975, 0.98, 0.295, 1.0775, 0.3925, 1.1775, 0.49, 1.275, 0.5875, 1.3725, 0.6875, 0, 0.785, 0.1, 0.8825, 0.1975, 0.98, 0.295, 1.0775, 0.3925, 1.1775, 0.49, 1.275, 0.5875, 1.3725, 0.6875],
  "SoftwareVersions": "syngo_MR_E11",
  "SpacingBetweenSlices": 2,
  "StationName": "MRC35049",
  "TaskName": "things",
  "TotalReadoutTime": 0.0576811,
  "TxRefAmp": 245.024,
  "WipMemBlock": "b35f4efa-0e8f-4133-9f0c-cc95e52c8427||Sequence: R016 ve11c/master r/e634e98; Dec 19 2017 11:00:25 by eja",
  "dcmmeta_affine": [
    [-1.992276668548584, -0.14036180078983307, 0.10550888627767563, 110.7086410522461],
    [-0.16779690980911255, 1.875949501991272, -0.6727985143661499, -52.04668426513672],
    [0.05174706131219864, 0.679052472114563, 1.880481243133545, -65.30233764648438],
    [0.0, 0.0, 0.0, 1.0]
],
  "dcmmeta_reorient_transform": [
    [0.0, -1.0, 0.0, 103.0],
    [1.0, 0.0, 0.0, 0.0],
    [0.0, 0.0, 1.0, 0.0],
    [0.0, 0.0, 0.0, 1.0]
],
  "dcmmeta_shape": [104, 104, 60, 190],
  "dcmmeta_slice_dim": 2,
  "dcmmeta_version": 0.6,
  "global": {
    "const": {
      "AcquisitionMatrix": [104, 0, 0, 104],
      "AngioFlag": "N",
      "BitsAllocated": 16,
      "BitsStored": 16,
      "BodyPartExamined": "BRAIN",
      "Columns": 832,
      "EchoNumbers": 1,
      "EchoTime": 37.0,
      "EchoTrainLength": 104,
      "FlipAngle": 52.0,
      "HighBit": 15,
      "ImageOrientationPatient": [0.99613834862322, 0.0838984553895, 0.0258735305952, -0.0701809021085, 0.93797472135176, -0.3395262332786],
      "ImagePositionPatient": [-770.34839595842, -885.09978157168, 232.9792360105],
      "ImageType": [
        "ORIGINAL",
        "PRIMARY",
        "M",
        "MB",
        "ND",
        "MOSAIC"
],
      "ImagedNucleus": "1H",
      "ImagingFrequency": 123.258917,
      "InPlanePhaseEncodingDirection": "COL",
      "MRAcquisitionType": "2D",
      "MagneticFieldStrength": 3.0,
      "Manufacturer": "SIEMENS",
      "ManufacturerModelName": "Prisma_fit",
      "Modality": "MR",
      "NumberOfAverages": 1.0,
      "NumberOfPhaseEncodingSteps": 104,
      "PercentPhaseFieldOfView": 100.0,
      "PercentSampling": 100.0,
      "PerformedProcedureStepStartTime": "165727.973000",
      "PhotometricInterpretation": "MONOCHROME2",
      "PixelBandwidth": 2290.0,
      "PixelRepresentation": 0,
      "PixelSpacing": [2.0, 2.0],
      "ProtocolName": "func_task-things_run-5",
      "RepetitionTime": 1490.0,
      "Rows": 832,
      "SAR": 0.03646192366462,
      "SamplesPerPixel": 1,
      "ScanOptions": "FS",
      "ScanningSequence": "EP",
      "SequenceName": "epfid2d1_104",
      "SequenceVariant": [
        "SK",
        "SS"
],
      "SeriesDescription": "func_task-things_run-5",
      "SeriesNumber": 22,
      "SeriesTime": "175822.743000",
      "SliceLocation": -38.051071677177,
      "SliceThickness": 2.0,
      "SmallestImagePixelValue": 0,
      "SoftwareVersions": "syngo MR E11",
      "SpacingBetweenSlices": 1.9999999480623,
      "SpecificCharacterSet": "ISO_IR 100",
      "StudyID": "1",
      "StudyTime": "165727.886000",
      "TransmitCoilName": "Body",
      "VariableFlipAngleFlag": "N",
      "WindowCenterWidthExplanation": "Algo1",
      "dBdt": 0.0},
    "slices": {}
  },
  "time": {
    "samples": {
      "AcquisitionNumber": [1, 2, 3, 4, 5, 6, 7, 8, 9, 10, 11, 12, 13, 14, 15, 16, 17, 18, 19, 20, 21, 22, 23, 24, 25, 26, 27, 28, 29, 30, 31, 32, 33, 34, 35, 36, 37, 38, 39, 40, 41, 42, 43, 44, 45, 46, 47, 48, 49, 50, 51, 52, 53, 54, 55, 56, 57, 58, 59, 60, 61, 62, 63, 64, 65, 66, 67, 68, 69, 70, 71, 72, 73, 74, 75, 76, 77, 78, 79, 80, 81, 82, 83, 84, 85, 86, 87, 88, 89, 90, 91, 92, 93, 94, 95, 96, 97, 98, 99, 100, 101, 102, 103, 104, 105, 106, 107, 108, 109, 110, 111, 112, 113, 114, 115, 116, 117, 118, 119, 120, 121, 122, 123, 124, 125, 126, 127, 128, 129, 130, 131, 132, 133, 134, 135, 136, 137, 138, 139, 140, 141, 142, 143, 144, 145, 146, 147, 148, 149, 150, 151, 152, 153, 154, 155, 156, 157, 158, 159, 160, 161, 162, 163, 164, 165, 166, 167, 168, 169, 170, 171, 172, 173, 174, 175, 176, 177, 178, 179, 180, 181, 182, 183, 184, 185, 186, 187, 188, 189, 190],
      "AcquisitionTime": ["175711.787500", "175713.277500", "175714.767500", "175716.257500", "175717.747500", "175719.237500", "175720.727500", "175722.217500", "175723.707500", "175725.197500", "175726.687500", "175728.177500", "175729.667500", "175731.157500", "175732.647500", "175734.137500", "175735.627500", "175737.117500", "175738.607500", "175740.097500", "175741.587500", "175743.077500", "175744.567500", "175746.057500", "175747.547500", "175749.037500", "175750.527500", "175752.017500", "175753.507500", "175754.997500", "175756.487500", "175757.977500", "175759.467500", "175800.957500", "175802.447500", "175803.937500", "175805.427500", "175806.917500", "175808.407500", "175809.897500", "175811.387500", "175812.877500", "175814.367500", "175815.857500", "175817.347500", "175818.837500", "175820.327500", "175821.817500", "175823.307500", "175824.797500", "175826.287500", "175827.777500", "175829.267500", "175830.757500", "175832.247500", "175833.737500", "175835.227500", "175836.717500", "175838.207500", "175839.697500", "175841.187500", "175842.677500", "175844.167500", "175845.657500", "175847.147500", "175848.637500", "175850.127500", "175851.617500", "175853.107500", "175854.597500", "175856.087500", "175857.577500", "175859.067500", "175900.557500", "175902.047500", "175903.537500", "175905.027500", "175906.517500", "175908.007500", "175909.497500", "175910.987500", "175912.477500", "175913.967500", "175915.457500", "175916.947500", "175918.437500", "175919.927500", "175921.417500", "175922.907500", "175924.397500", "175925.887500", "175927.377500", "175928.867500", "175930.357500", "175931.847500", "175933.337500", "175934.827500", "175936.317500", "175937.807500", "175939.297500", "175940.787500", "175942.277500", "175943.767500", "175945.257500", "175946.747500", "175948.237500", "175949.727500", "175951.217500", "175952.707500", "175954.197500", "175955.687500", "175957.177500", "175958.667500", "180000.157500", "180001.647500", "180003.137500", "180004.627500", "180006.117500", "180007.607500", "180009.097500", "180010.587500", "180012.077500", "180013.567500", "180015.057500", "180016.547500", "180018.037500", "180019.527500", "180021.017500", "180022.507500", "180023.997500", "180025.487500", "180026.977500", "180028.467500", "180029.957500", "180031.447500", "180032.937500", "180034.427500", "180035.917500", "180037.407500", "180038.897500", "180040.387500", "180041.877500", "180043.367500", "180044.857500", "180046.347500", "180047.837500", "180049.327500", "180050.817500", "180052.307500", "180053.797500", "180055.287500", "180056.777500", "180058.267500", "180059.757500", "180101.247500", "180102.737500", "180104.227500", "180105.717500", "180107.207500", "180108.697500", "180110.187500", "180111.677500", "180113.167500", "180114.657500", "180116.147500", "180117.637500", "180119.127500", "180120.617500", "180122.107500", "180123.597500", "180125.087500", "180126.577500", "180128.067500", "180129.557500", "180131.047500", "180132.537500", "180134.027500", "180135.517500", "180137.007500", "180138.497500", "180139.987500", "180141.477500", "180142.967500", "180144.457500", "180145.947500", "180147.437500", "180148.927500", "180150.417500", "180151.907500", "180153.397500"],
      "ContentTime": ["175822.746000", "175822.750000", "175822.753000", "175822.756000", "175822.759000", "175822.763000", "175822.766000", "175822.769000", "175822.773000", "175822.776000", "175822.780000", "175822.783000", "175822.786000", "175822.790000", "175822.793000", "175842.696000", "175842.700000", "175842.703000", "175842.706000", "175842.709000", "175842.713000", "175842.716000", "175842.719000", "175842.722000", "175842.725000", "175842.729000", "175842.732000", "175842.735000", "175842.738000", "175842.742000", "175842.745000", "175842.752000", "175842.756000", "175842.759000", "175842.762000", "175902.696000", "175902.700000", "175902.703000", "175902.706000", "175902.709000", "175902.713000", "175902.716000", "175902.719000", "175902.722000", "175902.726000", "175902.729000", "175902.732000", "175902.735000", "175902.739000", "175902.742000", "175902.745000", "175902.748000", "175902.751000", "175902.755000", "175902.758000", "175902.761000", "175922.697000", "175922.701000", "175922.704000", "175922.707000", "175922.710000", "175922.714000", "175922.717000", "175922.720000", "175922.723000", "175922.727000", "175922.730000", "175922.733000", "175922.737000", "175922.740000", "175922.743000", "175922.746000", "175922.750000", "175922.753000", "175922.756000", "175922.760000", "175942.697000", "175942.701000", "175942.704000", "175942.707000", "175942.711000", "175942.714000", "175942.717000", "175942.720000", "175942.724000", "175942.727000", "175942.730000", "175942.733000", "175942.737000", "175942.740000", "175942.743000", "175942.746000", "175942.750000", "175942.753000", "175942.768000", "175942.772000", "180022.697000", "180022.701000", "180022.704000", "180022.707000", "180022.711000", "180022.714000", "180022.717000", "180022.720000", "180022.724000", "180022.727000", "180022.730000", "180022.733000", "180022.737000", "180022.740000", "180022.743000", "180022.746000", "180022.750000", "180022.753000", "180022.756000", "180022.760000", "180022.763000", "180022.766000", "180022.770000", "180022.773000", "180022.776000", "180022.779000", "180022.783000", "180022.786000", "180022.789000", "180022.793000", "180022.797000", "180102.696000", "180102.700000", "180102.703000", "180102.706000", "180102.710000", "180102.713000", "180102.716000", "180102.719000", "180102.723000", "180102.726000", "180102.729000", "180102.733000", "180102.736000", "180102.739000", "180102.742000", "180102.746000", "180102.749000", "180102.752000", "180102.755000", "180102.759000", "180102.762000", "180102.765000", "180102.769000", "180102.772000", "180102.775000", "180102.778000", "180102.782000", "180142.697000", "180142.701000", "180142.704000", "180142.707000", "180142.711000", "180142.714000", "180142.717000", "180142.720000", "180142.724000", "180142.727000", "180142.730000", "180142.733000", "180142.737000", "180142.740000", "180142.743000", "180142.747000", "180142.750000", "180142.753000", "180142.757000", "180142.760000", "180142.763000", "180142.766000", "180142.817000", "180142.821000", "180142.824000", "180142.827000", "180142.830000", "180155.373000", "180155.377000", "180155.380000", "180155.384000", "180155.387000", "180155.390000", "180155.394000", "180155.397000", "180155.400000"],
      "InstanceCreationTime": ["175822.746000", "175822.750000", "175822.753000", "175822.756000", "175822.759000", "175822.763000", "175822.766000", "175822.769000", "175822.773000", "175822.776000", "175822.780000", "175822.783000", "175822.786000", "175822.790000", "175822.793000", "175842.696000", "175842.700000", "175842.703000", "175842.706000", "175842.709000", "175842.713000", "175842.716000", "175842.719000", "175842.722000", "175842.725000", "175842.729000", "175842.732000", "175842.735000", "175842.738000", "175842.742000", "175842.745000", "175842.752000", "175842.756000", "175842.759000", "175842.762000", "175902.696000", "175902.700000", "175902.703000", "175902.706000", "175902.709000", "175902.713000", "175902.716000", "175902.719000", "175902.722000", "175902.726000", "175902.729000", "175902.732000", "175902.735000", "175902.739000", "175902.742000", "175902.745000", "175902.748000", "175902.751000", "175902.755000", "175902.758000", "175902.761000", "175922.697000", "175922.701000", "175922.704000", "175922.707000", "175922.710000", "175922.714000", "175922.717000", "175922.720000", "175922.723000", "175922.727000", "175922.730000", "175922.733000", "175922.737000", "175922.740000", "175922.743000", "175922.746000", "175922.750000", "175922.753000", "175922.756000", "175922.760000", "175942.697000", "175942.701000", "175942.704000", "175942.707000", "175942.711000", "175942.714000", "175942.717000", "175942.720000", "175942.724000", "175942.727000", "175942.730000", "175942.733000", "175942.737000", "175942.740000", "175942.743000", "175942.746000", "175942.750000", "175942.753000", "175942.768000", "175942.772000", "180022.697000", "180022.701000", "180022.704000", "180022.707000", "180022.711000", "180022.714000", "180022.717000", "180022.720000", "180022.724000", "180022.727000", "180022.730000", "180022.733000", "180022.737000", "180022.740000", "180022.743000", "180022.746000", "180022.750000", "180022.753000", "180022.756000", "180022.760000", "180022.763000", "180022.766000", "180022.770000", "180022.773000", "180022.776000", "180022.779000", "180022.783000", "180022.786000", "180022.789000", "180022.793000", "180022.797000", "180102.696000", "180102.700000", "180102.703000", "180102.706000", "180102.710000", "180102.713000", "180102.716000", "180102.719000", "180102.723000", "180102.726000", "180102.729000", "180102.733000", "180102.736000", "180102.739000", "180102.742000", "180102.746000", "180102.749000", "180102.752000", "180102.755000", "180102.759000", "180102.762000", "180102.765000", "180102.769000", "180102.772000", "180102.775000", "180102.778000", "180102.782000", "180142.697000", "180142.701000", "180142.704000", "180142.707000", "180142.711000", "180142.714000", "180142.717000", "180142.720000", "180142.724000", "180142.727000", "180142.730000", "180142.733000", "180142.737000", "180142.740000", "180142.743000", "180142.747000", "180142.750000", "180142.753000", "180142.757000", "180142.760000", "180142.763000", "180142.766000", "180142.817000", "180142.821000", "180142.824000", "180142.827000", "180142.830000", "180155.373000", "180155.377000", "180155.380000", "180155.384000", "180155.387000", "180155.390000", "180155.394000", "180155.397000", "180155.400000"],
      "InstanceNumber": [1, 2, 3, 4, 5, 6, 7, 8, 9, 10, 11, 12, 13, 14, 15, 16, 17, 18, 19, 20, 21, 22, 23, 24, 25, 26, 27, 28, 29, 30, 31, 32, 33, 34, 35, 36, 37, 38, 39, 40, 41, 42, 43, 44, 45, 46, 47, 48, 49, 50, 51, 52, 53, 54, 55, 56, 57, 58, 59, 60, 61, 62, 63, 64, 65, 66, 67, 68, 69, 70, 71, 72, 73, 74, 75, 76, 77, 78, 79, 80, 81, 82, 83, 84, 85, 86, 87, 88, 89, 90, 91, 92, 93, 94, 95, 96, 97, 98, 99, 100, 101, 102, 103, 104, 105, 106, 107, 108, 109, 110, 111, 112, 113, 114, 115, 116, 117, 118, 119, 120, 121, 122, 123, 124, 125, 126, 127, 128, 129, 130, 131, 132, 133, 134, 135, 136, 137, 138, 139, 140, 141, 142, 143, 144, 145, 146, 147, 148, 149, 150, 151, 152, 153, 154, 155, 156, 157, 158, 159, 160, 161, 162, 163, 164, 165, 166, 167, 168, 169, 170, 171, 172, 173, 174, 175, 176, 177, 178, 179, 180, 181, 182, 183, 184, 185, 186, 187, 188, 189, 190],
      "LargestImagePixelValue": [50160, 48305, 47458, 46785, 47325, 47034, 46337, 46070, 45451, 45829, 46248, 46427, 45971, 45437, 45238, 45969, 46078, 45549, 45016, 45612, 46193, 44440, 43185, 44798, 45152, 46962, 47281, 46903, 47569, 46673, 45671, 46301, 46145, 45606, 45101, 46343, 46402, 45843, 46088, 46497, 45897, 45726, 45327, 46269, 46127, 43545, 43879, 45524, 45510, 45914, 45543, 45299, 45997, 46047, 45720, 45844, 44911, 44355, 45698, 46205, 45958, 46974, 45882, 45825, 47139, 46079, 43664, 42715, 42868, 44034, 43672, 43441, 43051, 42263, 43059, 43016, 42463, 43154, 41669, 42765, 44223, 46475, 46887, 44256, 44397, 46380, 45342, 44225, 43355, 42366, 44978, 46336, 46316, 46130, 44712, 46336, 45835, 45635, 45333, 45090, 44305, 44508, 45722, 46741, 46345, 45938, 46822, 45996, 45662, 45982, 46376, 46597, 46840, 45661, 45208, 45628, 46570, 45620, 45555, 44259, 44909, 43540, 46010, 46717, 44888, 44589, 45631, 45303, 42619, 43797, 43434, 43292, 43454, 43041, 43000, 43526, 43944, 43427, 42256, 42039, 40496, 40917, 41568, 40770, 41244, 42142, 42027, 41710, 41610, 42302, 41866, 41442, 41688, 41786, 42658, 40647, 41493, 41473, 42439, 42197, 43466, 42502, 41624, 43342, 47569, 46382, 45568, 46253, 45243, 43651, 40312, 41745, 41801, 41169, 42133, 42355, 41838, 42723, 43546, 43377, 42823, 42408, 42704, 43472, 42689, 42228, 41982, 41374, 42492, 42835],
      "WindowCenter": [10609.0, 10584.0, 10582.0, 10567.0, 10553.0, 10527.0, 10519.0, 10518.0, 10534.0, 10543.0, 10546.0, 10545.0, 10546.0, 10559.0, 10578.0, 10586.0, 10575.0, 10584.0, 10601.0, 10606.0, 10593.0, 10573.0, 10542.0, 10521.0, 10518.0, 10523.0, 10535.0, 10549.0, 10557.0, 10555.0, 10521.0, 10505.0, 10500.0, 10502.0, 10514.0, 10561.0, 10558.0, 10528.0, 10508.0, 10510.0, 10512.0, 10520.0, 10513.0, 10527.0, 10540.0, 10540.0, 10530.0, 10518.0, 10500.0, 10504.0, 10509.0, 10528.0, 10542.0, 10553.0, 10546.0, 10535.0, 10524.0, 10536.0, 10554.0, 10550.0, 10552.0, 10578.0, 10582.0, 10564.0, 10535.0, 10499.0, 10463.0, 10467.0, 10493.0, 10549.0, 10555.0, 10524.0, 10488.0, 10463.0, 10472.0, 10481.0, 10516.0, 10534.0, 10502.0, 10494.0, 10505.0, 10551.0, 10568.0, 10542.0, 10511.0, 10492.0, 10488.0, 10481.0, 10471.0, 10462.0, 10494.0, 10522.0, 10523.0, 10501.0, 10479.0, 10503.0, 10522.0, 10542.0, 10538.0, 10513.0, 10489.0, 10488.0, 10524.0, 10566.0, 10557.0, 10524.0, 10506.0, 10489.0, 10495.0, 10514.0, 10540.0, 10533.0, 10512.0, 10496.0, 10489.0, 10498.0, 10551.0, 10566.0, 10542.0, 10505.0, 10488.0, 10462.0, 10504.0, 10536.0, 10542.0, 10540.0, 10516.0, 10473.0, 10424.0, 10431.0, 10456.0, 10503.0, 10521.0, 10507.0, 10490.0, 10492.0, 10516.0, 10509.0, 10481.0, 10466.0, 10455.0, 10470.0, 10477.0, 10467.0, 10465.0, 10472.0, 10465.0, 10473.0, 10492.0, 10503.0, 10496.0, 10486.0, 10480.0, 10490.0, 10515.0, 10505.0, 10501.0, 10496.0, 10499.0, 10508.0, 10527.0, 10516.0, 10509.0, 10532.0, 10585.0, 10587.0, 10567.0, 10540.0, 10483.0, 10455.0, 10442.0, 10482.0, 10511.0, 10519.0, 10530.0, 10507.0, 10471.0, 10470.0, 10490.0, 10509.0, 10487.0, 10489.0, 10492.0, 10506.0, 10492.0, 10477.0, 10468.0, 10468.0, 10492.0, 10515.0],
      "WindowWidth": [22544.0, 22473.0, 22464.0, 22423.0, 22380.0, 22319.0, 22300.0, 22303.0, 22346.0, 22367.0, 22368.0, 22363.0, 22367.0, 22405.0, 22449.0, 22472.0, 22439.0, 22462.0, 22511.0, 22517.0, 22478.0, 22440.0, 22370.0, 22315.0, 22314.0, 22307.0, 22332.0, 22368.0, 22381.0, 22382.0, 22309.0, 22266.0, 22256.0, 22265.0, 22298.0, 22400.0, 22392.0, 22320.0, 22272.0, 22279.0, 22289.0, 22305.0, 22290.0, 22319.0, 22353.0, 22364.0, 22340.0, 22297.0, 22250.0, 22259.0, 22276.0, 22323.0, 22355.0, 22382.0, 22365.0, 22338.0, 22319.0, 22355.0, 22389.0, 22374.0, 22373.0, 22432.0, 22450.0, 22407.0, 22333.0, 22248.0, 22181.0, 22195.0, 22253.0, 22383.0, 22399.0, 22325.0, 22238.0, 22186.0, 22203.0, 22229.0, 22311.0, 22348.0, 22279.0, 22253.0, 22278.0, 22377.0, 22421.0, 22368.0, 22296.0, 22242.0, 22231.0, 22222.0, 22199.0, 22183.0, 22242.0, 22307.0, 22307.0, 22259.0, 22212.0, 22262.0, 22309.0, 22360.0, 22350.0, 22286.0, 22233.0, 22229.0, 22312.0, 22411.0, 22394.0, 22316.0, 22267.0, 22229.0, 22243.0, 22286.0, 22349.0, 22331.0, 22277.0, 22243.0, 22248.0, 22252.0, 22374.0, 22420.0, 22360.0, 22277.0, 22239.0, 22182.0, 22272.0, 22350.0, 22373.0, 22364.0, 22299.0, 22198.0, 22090.0, 22101.0, 22165.0, 22281.0, 22318.0, 22282.0, 22241.0, 22245.0, 22307.0, 22290.0, 22227.0, 22192.0, 22172.0, 22205.0, 22222.0, 22205.0, 22196.0, 22207.0, 22194.0, 22217.0, 22263.0, 22287.0, 22272.0, 22247.0, 22232.0, 22253.0, 22313.0, 22303.0, 22286.0, 22272.0, 22276.0, 22302.0, 22338.0, 22314.0, 22305.0, 22350.0, 22459.0, 22479.0, 22422.0, 22353.0, 22222.0, 22164.0, 22151.0, 22241.0, 22303.0, 22324.0, 22357.0, 22292.0, 22208.0, 22202.0, 22250.0, 22293.0, 22243.0, 22248.0, 22255.0, 22293.0, 22256.0, 22224.0, 22206.0, 22204.0, 22260.0, 22312.0]
    },
    "slices": {}
  }
}