{
  "AcquisitionMatrixPE": 104,
  "AcquisitionNumber": 1,
  "AcquisitionTime": "18:03:18.835000",
  "BandwidthPerPixelPhaseEncode": 17.17,
  "BaseResolution": 104,
  "BodyPartExamined": "BRAIN",
  "CoilString": "HC1-7;NC1_2",
  "ConsistencyInfo": "N4_VE11C_LATEST_20160120",
  "ConversionSoftware": "dcm2niix",
  "ConversionSoftwareVersion": "v1.0.20190902",
  "DerivedVendorReportedEchoSpacing": 0.000560011,
  "DeviceSerialNumber": "167006",
  "DwellTime": 2.1e-06,
  "EchoTime": 0.037,
  "EchoTrainLength": 104,
  "EffectiveEchoSpacing": 0.000560011,
  "FlipAngle": 52,
  "ImageComments": "Unaliased_MB4_PE3_LB",
  "ImageOrientationPatientDICOM": [0.996138, 0.0838985, 0.0258735, -0.0701809, 0.937975, -0.339526],
  "ImageType": [
    "ORIGINAL",
    "PRIMARY",
    "P",
    "MB",
    "ND",
    "MOSAIC"
],
  "ImagingFrequency": 123.259,
  "InPlanePhaseEncodingDirectionDICOM": "COL",
  "InstitutionAddress": "Chemin_Queen-Mary_4565_Montreal_District_CA_H3W_1W5",
  "InstitutionName": "IUGM",
  "InstitutionalDepartmentName": "Department",
  "MRAcquisitionType": "2D",
  "MagneticFieldStrength": 3,
  "Manufacturer": "Siemens",
  "ManufacturersModelName": "Prisma_fit",
  "Modality": "MR",
  "MultibandAccelerationFactor": 4,
  "PartialFourier": 1,
  "PatientPosition": "HFS",
  "PercentPhaseFOV": 100,
  "PhaseEncodingDirection": "j",
  "PhaseEncodingSteps": 104,
  "PhaseResolution": 1,
  "PixelBandwidth": 2290,
  "ProcedureStepDescription": "memory_things",
  "ProtocolName": "func_task-things_run-6",
  "PulseSequenceDetails": "%CustomerSeq%_cmrr_mbep2d_bold",
  "ReceiveCoilActiveElements": "HC1-7;NC1,2",
  "ReceiveCoilName": "HeadNeck_64",
  "ReconMatrixPE": 104,
  "RepetitionTime": 1.49,
  "SAR": 0.0364619,
  "ScanOptions": "FS",
  "ScanningSequence": "EP",
  "SequenceName": "epfid2d1_104",
  "SequenceVariant": "SK_SS",
  "SeriesDescription": "func_task-things_run-6",
  "SeriesNumber": 26,
  "ShimSetting": [631, -7174, -8820, 671, 84, 77, -28, -7],
  "SliceThickness": 2,
  "SliceTiming": [0, 0.7825, 0.0975, 0.8825, 0.195, 0.98, 0.2925, 1.0775, 0.3925, 1.175, 0.49, 1.2725, 0.5875, 1.3725, 0.685, 0, 0.7825, 0.0975, 0.8825, 0.195, 0.98, 0.2925, 1.0775, 0.3925, 1.175, 0.49, 1.2725, 0.5875, 1.3725, 0.685, 0, 0.7825, 0.0975, 0.8825, 0.195, 0.98, 0.2925, 1.0775, 0.3925, 1.175, 0.49, 1.2725, 0.5875, 1.3725, 0.685, 0, 0.7825, 0.0975, 0.8825, 0.195, 0.98, 0.2925, 1.0775, 0.3925, 1.175, 0.49, 1.2725, 0.5875, 1.3725, 0.685],
  "SoftwareVersions": "syngo_MR_E11",
  "SpacingBetweenSlices": 2,
  "StationName": "MRC35049",
  "TaskName": "things",
  "TotalReadoutTime": 0.0576811,
  "TxRefAmp": 245.024,
  "WipMemBlock": "ff44dd2a-1c52-48c5-beb9-e8a103d3e68d||Sequence: R016 ve11c/master r/e634e98; Dec 19 2017 11:00:25 by eja",
  "dcmmeta_affine": [
    [-1.992276668548584, -0.14036180078983307, 0.10550888627767563, 110.7086410522461],
    [-0.16779690980911255, 1.875949501991272, -0.6727985143661499, -52.04668426513672],
    [0.05174706131219864, 0.679052472114563, 1.880481243133545, -65.30233764648438],
    [0.0, 0.0, 0.0, 1.0]
],
  "dcmmeta_reorient_transform": [
    [0.0, -1.0, 0.0, 103.0],
    [1.0, 0.0, 0.0, 0.0],
    [0.0, 0.0, 1.0, 0.0],
    [0.0, 0.0, 0.0, 1.0]
],
  "dcmmeta_shape": [104, 104, 60, 190],
  "dcmmeta_slice_dim": 2,
  "dcmmeta_version": 0.6,
  "global": {
    "const": {
      "AcquisitionMatrix": [104, 0, 0, 104],
      "AngioFlag": "N",
      "BitsAllocated": 16,
      "BitsStored": 16,
      "BodyPartExamined": "BRAIN",
      "Columns": 832,
      "EchoNumbers": 1,
      "EchoTime": 37.0,
      "EchoTrainLength": 104,
      "FlipAngle": 52.0,
      "HighBit": 15,
      "ImageOrientationPatient": [0.99613834862322, 0.0838984553895, 0.0258735305952, -0.0701809021085, 0.93797472135176, -0.3395262332786],
      "ImagePositionPatient": [-770.34839595842, -885.09978157168, 232.9792360105],
      "ImageType": [
        "ORIGINAL",
        "PRIMARY",
        "P",
        "MB",
        "ND",
        "MOSAIC"
],
      "ImagedNucleus": "1H",
      "ImagingFrequency": 123.258917,
      "InPlanePhaseEncodingDirection": "COL",
      "LargestImagePixelValue": 4095,
      "MRAcquisitionType": "2D",
      "MagneticFieldStrength": 3.0,
      "Manufacturer": "SIEMENS",
      "ManufacturerModelName": "Prisma_fit",
      "Modality": "MR",
      "NumberOfAverages": 1.0,
      "NumberOfPhaseEncodingSteps": 104,
      "PercentPhaseFieldOfView": 100.0,
      "PercentSampling": 100.0,
      "PerformedProcedureStepStartTime": "165727.973000",
      "PhotometricInterpretation": "MONOCHROME2",
      "PixelBandwidth": 2290.0,
      "PixelRepresentation": 0,
      "PixelSpacing": [2.0, 2.0],
      "ProtocolName": "func_task-things_run-6",
      "RepetitionTime": 1490.0,
      "RescaleIntercept": -4096.0,
      "RescaleSlope": 2.0,
      "RescaleType": "US",
      "Rows": 832,
      "SAR": 0.03646192366462,
      "SamplesPerPixel": 1,
      "ScanOptions": "FS",
      "ScanningSequence": "EP",
      "SequenceName": "epfid2d1_104",
      "SequenceVariant": [
        "SK",
        "SS"
],
      "SeriesDescription": "func_task-things_run-6",
      "SeriesNumber": 26,
      "SeriesTime": "180439.055000",
      "SliceLocation": -38.051071677177,
      "SliceThickness": 2.0,
      "SmallestImagePixelValue": 0,
      "SoftwareVersions": "syngo MR E11",
      "SpacingBetweenSlices": 1.9999999480623,
      "SpecificCharacterSet": "ISO_IR 100",
      "StudyID": "1",
      "StudyTime": "165727.886000",
      "TransmitCoilName": "Body",
      "VariableFlipAngleFlag": "N",
      "WindowCenterWidthExplanation": "Algo1",
      "dBdt": 0.0},
    "slices": {}
  },
  "time": {
    "samples": {
      "AcquisitionNumber": [1, 2, 3, 4, 5, 6, 7, 8, 9, 10, 11, 12, 13, 14, 15, 16, 17, 18, 19, 20, 21, 22, 23, 24, 25, 26, 27, 28, 29, 30, 31, 32, 33, 34, 35, 36, 37, 38, 39, 40, 41, 42, 43, 44, 45, 46, 47, 48, 49, 50, 51, 52, 53, 54, 55, 56, 57, 58, 59, 60, 61, 62, 63, 64, 65, 66, 67, 68, 69, 70, 71, 72, 73, 74, 75, 76, 77, 78, 79, 80, 81, 82, 83, 84, 85, 86, 87, 88, 89, 90, 91, 92, 93, 94, 95, 96, 97, 98, 99, 100, 101, 102, 103, 104, 105, 106, 107, 108, 109, 110, 111, 112, 113, 114, 115, 116, 117, 118, 119, 120, 121, 122, 123, 124, 125, 126, 127, 128, 129, 130, 131, 132, 133, 134, 135, 136, 137, 138, 139, 140, 141, 142, 143, 144, 145, 146, 147, 148, 149, 150, 151, 152, 153, 154, 155, 156, 157, 158, 159, 160, 161, 162, 163, 164, 165, 166, 167, 168, 169, 170, 171, 172, 173, 174, 175, 176, 177, 178, 179, 180, 181, 182, 183, 184, 185, 186, 187, 188, 189, 190],
      "AcquisitionTime": ["180318.835000", "180320.325000", "180321.815000", "180323.305000", "180324.795000", "180326.285000", "180327.775000", "180329.265000", "180330.755000", "180332.245000", "180333.735000", "180335.225000", "180336.715000", "180338.205000", "180339.695000", "180341.185000", "180342.675000", "180344.165000", "180345.655000", "180347.145000", "180348.635000", "180350.125000", "180351.615000", "180353.105000", "180354.595000", "180356.085000", "180357.575000", "180359.065000", "180400.555000", "180402.045000", "180403.535000", "180405.025000", "180406.515000", "180408.005000", "180409.495000", "180410.985000", "180412.475000", "180413.965000", "180415.455000", "180416.945000", "180418.435000", "180419.925000", "180421.415000", "180422.905000", "180424.395000", "180425.885000", "180427.375000", "180428.865000", "180430.355000", "180431.845000", "180433.335000", "180434.825000", "180436.315000", "180437.805000", "180439.295000", "180440.785000", "180442.275000", "180443.765000", "180445.255000", "180446.745000", "180448.235000", "180449.725000", "180451.215000", "180452.705000", "180454.195000", "180455.685000", "180457.175000", "180458.665000", "180500.155000", "180501.645000", "180503.135000", "180504.625000", "180506.115000", "180507.605000", "180509.095000", "180510.585000", "180512.075000", "180513.565000", "180515.055000", "180516.545000", "180518.035000", "180519.525000", "180521.015000", "180522.505000", "180523.995000", "180525.485000", "180526.975000", "180528.465000", "180529.955000", "180531.445000", "180532.935000", "180534.425000", "180535.915000", "180537.405000", "180538.895000", "180540.385000", "180541.875000", "180543.365000", "180544.855000", "180546.345000", "180547.835000", "180549.325000", "180550.815000", "180552.305000", "180553.795000", "180555.285000", "180556.775000", "180558.265000", "180559.755000", "180601.245000", "180602.735000", "180604.225000", "180605.715000", "180607.205000", "180608.695000", "180610.185000", "180611.675000", "180613.165000", "180614.655000", "180616.145000", "180617.635000", "180619.125000", "180620.615000", "180622.105000", "180623.595000", "180625.085000", "180626.575000", "180628.065000", "180629.555000", "180631.045000", "180632.535000", "180634.025000", "180635.515000", "180637.005000", "180638.495000", "180639.985000", "180641.475000", "180642.965000", "180644.455000", "180645.945000", "180647.435000", "180648.925000", "180650.415000", "180651.905000", "180653.395000", "180654.885000", "180656.375000", "180657.865000", "180659.355000", "180700.845000", "180702.335000", "180703.825000", "180705.315000", "180706.805000", "180708.295000", "180709.785000", "180711.275000", "180712.765000", "180714.255000", "180715.745000", "180717.235000", "180718.725000", "180720.215000", "180721.705000", "180723.195000", "180724.685000", "180726.175000", "180727.665000", "180729.155000", "180730.645000", "180732.135000", "180733.625000", "180735.115000", "180736.605000", "180738.095000", "180739.585000", "180741.075000", "180742.565000", "180744.055000", "180745.545000", "180747.035000", "180748.525000", "180750.015000", "180751.505000", "180752.995000", "180754.485000", "180755.975000", "180757.465000", "180758.955000", "180800.445000"],
      "ContentTime": ["180439.057000", "180439.060000", "180439.062000", "180439.065000", "180439.067000", "180439.070000", "180439.072000", "180439.074000", "180439.077000", "180439.079000", "180439.082000", "180439.084000", "180439.087000", "180439.089000", "180439.092000", "180439.094000", "180439.097000", "180439.099000", "180439.102000", "180439.104000", "180439.107000", "180439.109000", "180439.111000", "180439.114000", "180439.116000", "180439.119000", "180439.121000", "180458.997000", "180459.001000", "180459.003000", "180459.006000", "180459.008000", "180459.011000", "180459.013000", "180459.015000", "180459.018000", "180459.020000", "180459.023000", "180459.025000", "180459.028000", "180459.030000", "180459.033000", "180459.035000", "180459.038000", "180459.040000", "180459.042000", "180459.045000", "180459.047000", "180518.979000", "180518.982000", "180518.984000", "180518.986000", "180518.989000", "180518.991000", "180518.994000", "180518.996000", "180519.000000", "180519.002000", "180519.005000", "180519.007000", "180519.010000", "180519.012000", "180519.015000", "180519.017000", "180519.020000", "180519.022000", "180519.025000", "180519.027000", "180538.973000", "180538.976000", "180538.978000", "180538.981000", "180538.983000", "180538.987000", "180538.990000", "180538.992000", "180538.995000", "180538.998000", "180539.000000", "180539.003000", "180539.005000", "180539.007000", "180539.010000", "180539.012000", "180539.015000", "180539.031000", "180539.034000", "180539.036000", "180619.026000", "180619.029000", "180619.031000", "180619.034000", "180619.036000", "180619.039000", "180619.041000", "180619.044000", "180619.046000", "180619.049000", "180619.051000", "180619.054000", "180619.056000", "180619.059000", "180619.061000", "180619.064000", "180619.070000", "180619.072000", "180619.075000", "180619.077000", "180619.080000", "180619.082000", "180619.085000", "180619.087000", "180619.090000", "180619.092000", "180619.095000", "180619.097000", "180619.100000", "180619.102000", "180619.105000", "180619.107000", "180659.428000", "180659.431000", "180659.433000", "180659.436000", "180659.438000", "180659.441000", "180659.443000", "180659.446000", "180659.448000", "180659.451000", "180659.453000", "180659.456000", "180659.458000", "180659.461000", "180659.463000", "180659.466000", "180659.468000", "180659.471000", "180659.473000", "180659.476000", "180659.478000", "180659.481000", "180659.483000", "180659.485000", "180659.488000", "180659.490000", "180659.493000", "180738.995000", "180738.998000", "180739.002000", "180739.004000", "180739.007000", "180739.009000", "180739.012000", "180739.014000", "180739.016000", "180739.019000", "180739.021000", "180739.024000", "180739.026000", "180739.029000", "180739.031000", "180739.042000", "180739.046000", "180739.048000", "180739.051000", "180739.054000", "180739.056000", "180739.059000", "180739.061000", "180739.064000", "180739.067000", "180739.069000", "180803.049000", "180803.052000", "180803.055000", "180803.057000", "180803.060000", "180803.062000", "180803.065000", "180803.067000", "180803.070000", "180803.072000", "180803.075000", "180803.077000", "180803.080000", "180803.082000", "180803.085000", "180803.087000", "180803.090000"],
      "InstanceCreationTime": ["180439.057000", "180439.060000", "180439.062000", "180439.065000", "180439.067000", "180439.070000", "180439.072000", "180439.074000", "180439.077000", "180439.079000", "180439.082000", "180439.084000", "180439.087000", "180439.089000", "180439.092000", "180439.094000", "180439.097000", "180439.099000", "180439.102000", "180439.104000", "180439.107000", "180439.109000", "180439.111000", "180439.114000", "180439.116000", "180439.119000", "180439.121000", "180458.997000", "180459.001000", "180459.003000", "180459.006000", "180459.008000", "180459.011000", "180459.013000", "180459.015000", "180459.018000", "180459.020000", "180459.023000", "180459.025000", "180459.028000", "180459.030000", "180459.033000", "180459.035000", "180459.038000", "180459.040000", "180459.042000", "180459.045000", "180459.047000", "180518.979000", "180518.982000", "180518.984000", "180518.986000", "180518.989000", "180518.991000", "180518.994000", "180518.996000", "180519.000000", "180519.002000", "180519.005000", "180519.007000", "180519.010000", "180519.012000", "180519.015000", "180519.017000", "180519.020000", "180519.022000", "180519.025000", "180519.027000", "180538.973000", "180538.976000", "180538.978000", "180538.981000", "180538.983000", "180538.987000", "180538.990000", "180538.992000", "180538.995000", "180538.998000", "180539.000000", "180539.003000", "180539.005000", "180539.007000", "180539.010000", "180539.012000", "180539.015000", "180539.031000", "180539.034000", "180539.036000", "180619.026000", "180619.029000", "180619.031000", "180619.034000", "180619.036000", "180619.039000", "180619.041000", "180619.044000", "180619.046000", "180619.049000", "180619.051000", "180619.054000", "180619.056000", "180619.059000", "180619.061000", "180619.064000", "180619.070000", "180619.072000", "180619.075000", "180619.077000", "180619.080000", "180619.082000", "180619.085000", "180619.087000", "180619.090000", "180619.092000", "180619.095000", "180619.097000", "180619.100000", "180619.102000", "180619.105000", "180619.107000", "180659.428000", "180659.431000", "180659.433000", "180659.436000", "180659.438000", "180659.441000", "180659.443000", "180659.446000", "180659.448000", "180659.451000", "180659.453000", "180659.456000", "180659.458000", "180659.461000", "180659.463000", "180659.466000", "180659.468000", "180659.471000", "180659.473000", "180659.476000", "180659.478000", "180659.481000", "180659.483000", "180659.485000", "180659.488000", "180659.490000", "180659.493000", "180738.995000", "180738.998000", "180739.002000", "180739.004000", "180739.007000", "180739.009000", "180739.012000", "180739.014000", "180739.016000", "180739.019000", "180739.021000", "180739.024000", "180739.026000", "180739.029000", "180739.031000", "180739.042000", "180739.046000", "180739.048000", "180739.051000", "180739.054000", "180739.056000", "180739.059000", "180739.061000", "180739.064000", "180739.067000", "180739.069000", "180803.049000", "180803.052000", "180803.055000", "180803.057000", "180803.060000", "180803.062000", "180803.065000", "180803.067000", "180803.070000", "180803.072000", "180803.075000", "180803.077000", "180803.080000", "180803.082000", "180803.085000", "180803.087000", "180803.090000"],
      "InstanceNumber": [1, 2, 3, 4, 5, 6, 7, 8, 9, 10, 11, 12, 13, 14, 15, 16, 17, 18, 19, 20, 21, 22, 23, 24, 25, 26, 27, 28, 29, 30, 31, 32, 33, 34, 35, 36, 37, 38, 39, 40, 41, 42, 43, 44, 45, 46, 47, 48, 49, 50, 51, 52, 53, 54, 55, 56, 57, 58, 59, 60, 61, 62, 63, 64, 65, 66, 67, 68, 69, 70, 71, 72, 73, 74, 75, 76, 77, 78, 79, 80, 81, 82, 83, 84, 85, 86, 87, 88, 89, 90, 91, 92, 93, 94, 95, 96, 97, 98, 99, 100, 101, 102, 103, 104, 105, 106, 107, 108, 109, 110, 111, 112, 113, 114, 115, 116, 117, 118, 119, 120, 121, 122, 123, 124, 125, 126, 127, 128, 129, 130, 131, 132, 133, 134, 135, 136, 137, 138, 139, 140, 141, 142, 143, 144, 145, 146, 147, 148, 149, 150, 151, 152, 153, 154, 155, 156, 157, 158, 159, 160, 161, 162, 163, 164, 165, 166, 167, 168, 169, 170, 171, 172, 173, 174, 175, 176, 177, 178, 179, 180, 181, 182, 183, 184, 185, 186, 187, 188, 189, 190],
      "WindowCenter": [4878.0, 4854.0, 4854.0, 4852.0, 4850.0, 4878.0, 4876.0, 4876.0, 4856.0, 4854.0, 4852.0, 4852.0, 4876.0, 4878.0, 4880.0, 4856.0, 4856.0, 4876.0, 4876.0, 4854.0, 4850.0, 4848.0, 4852.0, 4876.0, 4852.0, 4854.0, 4850.0, 4854.0, 4876.0, 4876.0, 4874.0, 4852.0, 4852.0, 4854.0, 4854.0, 4874.0, 4878.0, 4854.0, 4854.0, 4878.0, 4874.0, 4874.0, 4854.0, 4852.0, 4852.0, 4854.0, 4878.0, 4878.0, 4878.0, 4854.0, 4856.0, 4878.0, 4874.0, 4880.0, 4852.0, 4828.0, 4856.0, 4854.0, 4854.0, 4856.0, 4854.0, 4858.0, 4854.0, 4874.0, 4872.0, 4854.0, 4854.0, 4854.0, 4854.0, 4856.0, 4856.0, 4848.0, 4824.0, 4856.0, 4878.0, 4882.0, 4876.0, 4878.0, 4854.0, 4852.0, 4852.0, 4856.0, 4852.0, 4854.0, 4852.0, 4872.0, 4872.0, 4876.0, 4820.0, 4816.0, 4796.0, 4818.0, 4828.0, 4876.0, 4864.0, 4866.0, 4872.0, 4878.0, 4858.0, 4854.0, 4828.0, 4818.0, 4824.0, 4850.0, 4878.0, 4874.0, 4876.0, 4874.0, 4878.0, 4878.0, 4852.0, 4854.0, 4828.0, 4848.0, 4852.0, 4870.0, 4840.0, 4840.0, 4852.0, 4824.0, 4820.0, 4794.0, 4796.0, 4824.0, 4874.0, 4842.0, 4870.0, 4876.0, 4882.0, 4856.0, 4852.0, 4850.0, 4822.0, 4820.0, 4824.0, 4856.0, 4874.0, 4866.0, 4874.0, 4854.0, 4850.0, 4826.0, 4826.0, 4850.0, 4846.0, 4826.0, 4848.0, 4852.0, 4854.0, 4878.0, 4848.0, 4874.0, 4850.0, 4828.0, 4824.0, 4824.0, 4848.0, 4876.0, 4854.0, 4858.0, 4878.0, 4858.0, 4856.0, 4876.0, 4852.0, 4854.0, 4850.0, 4852.0, 4852.0, 4852.0, 4856.0, 4856.0, 4854.0, 4874.0, 4874.0, 4854.0, 4852.0, 4852.0, 4854.0, 4852.0, 4876.0, 4872.0, 4880.0, 4850.0, 4826.0, 4826.0, 4850.0, 4854.0, 4872.0, 4876.0],
      "WindowWidth": [18666.0, 18636.0, 18624.0, 18622.0, 18622.0, 18662.0, 18680.0, 18674.0, 18636.0, 18628.0, 18620.0, 18624.0, 18666.0, 18672.0, 18670.0, 18634.0, 18636.0, 18668.0, 18676.0, 18628.0, 18624.0, 18624.0, 18634.0, 18670.0, 18634.0, 18630.0, 18628.0, 18628.0, 18670.0, 18668.0, 18674.0, 18632.0, 18622.0, 18624.0, 18628.0, 18670.0, 18672.0, 18634.0, 18632.0, 18674.0, 18674.0, 18666.0, 18624.0, 18622.0, 18622.0, 18636.0, 18670.0, 18664.0, 18666.0, 18630.0, 18632.0, 18674.0, 18674.0, 18670.0, 18620.0, 18588.0, 18630.0, 18636.0, 18630.0, 18624.0, 18628.0, 18634.0, 18632.0, 18672.0, 18670.0, 18632.0, 18628.0, 18626.0, 18638.0, 18640.0, 18630.0, 18618.0, 18580.0, 18632.0, 18676.0, 18678.0, 18668.0, 18666.0, 18630.0, 18626.0, 18632.0, 18636.0, 18628.0, 18626.0, 18642.0, 18678.0, 18680.0, 18668.0, 18582.0, 18582.0, 18560.0, 18580.0, 18588.0, 18678.0, 18678.0, 18676.0, 18672.0, 18668.0, 18634.0, 18630.0, 18586.0, 18580.0, 18584.0, 18618.0, 18672.0, 18674.0, 18674.0, 18670.0, 18666.0, 18666.0, 18636.0, 18634.0, 18590.0, 18618.0, 18630.0, 18682.0, 18652.0, 18650.0, 18642.0, 18584.0, 18586.0, 18560.0, 18550.0, 18582.0, 18676.0, 18642.0, 18674.0, 18676.0, 18674.0, 18634.0, 18632.0, 18626.0, 18582.0, 18580.0, 18588.0, 18634.0, 18678.0, 18678.0, 18678.0, 18634.0, 18620.0, 18594.0, 18592.0, 18638.0, 18624.0, 18596.0, 18624.0, 18624.0, 18630.0, 18678.0, 18650.0, 18676.0, 18626.0, 18590.0, 18582.0, 18592.0, 18624.0, 18664.0, 18632.0, 18636.0, 18668.0, 18638.0, 18632.0, 18668.0, 18636.0, 18630.0, 18616.0, 18622.0, 18630.0, 18636.0, 18634.0, 18630.0, 18638.0, 18672.0, 18672.0, 18632.0, 18620.0, 18620.0, 18620.0, 18638.0, 18676.0, 18676.0, 18662.0, 18622.0, 18588.0, 18588.0, 18628.0, 18636.0, 18676.0, 18666.0]
    },
    "slices": {}
  }
}