{
  "AcquisitionMatrixPE": 104,
  "AcquisitionNumber": 1,
  "AcquisitionTime": "15:21:19.927500",
  "BandwidthPerPixelPhaseEncode": 17.17,
  "BaseResolution": 104,
  "BodyPartExamined": "BRAIN",
  "CoilString": "HC1-7;NC1_2",
  "ConsistencyInfo": "N4_VE11C_LATEST_20160120",
  "ConversionSoftware": "dcm2niix",
  "ConversionSoftwareVersion": "v1.0.20190902",
  "DerivedVendorReportedEchoSpacing": 0.000560011,
  "DeviceSerialNumber": "167006",
  "DwellTime": 2.1e-06,
  "EchoTime": 0.037,
  "EchoTrainLength": 104,
  "EffectiveEchoSpacing": 0.000560011,
  "FlipAngle": 52,
  "ImageComments": "Unaliased_MB4_PE3_LB",
  "ImageOrientationPatientDICOM": [0.999776, -0.0197496, 0.0075496, 0.0211168, 0.950581, -0.309757],
  "ImageType": [
    "ORIGINAL",
    "PRIMARY",
    "P",
    "MB",
    "ND",
    "MOSAIC"
],
  "ImagingFrequency": 123.259,
  "InPlanePhaseEncodingDirectionDICOM": "COL",
  "InstitutionAddress": "Chemin_Queen-Mary_4565_Montreal_District_CA_H3W_1W5",
  "InstitutionName": "IUGM",
  "InstitutionalDepartmentName": "Department",
  "MRAcquisitionType": "2D",
  "MagneticFieldStrength": 3,
  "Manufacturer": "Siemens",
  "ManufacturersModelName": "Prisma_fit",
  "Modality": "MR",
  "MultibandAccelerationFactor": 4,
  "PartialFourier": 1,
  "PatientPosition": "HFS",
  "PercentPhaseFOV": 100,
  "PhaseEncodingDirection": "j",
  "PhaseEncodingSteps": 104,
  "PhaseResolution": 1,
  "PixelBandwidth": 2290,
  "ProcedureStepDescription": "memory_things",
  "ProtocolName": "func_task-things_run-1",
  "PulseSequenceDetails": "%CustomerSeq%_cmrr_mbep2d_bold",
  "ReceiveCoilActiveElements": "HC1-7;NC1,2",
  "ReceiveCoilName": "HeadNeck_64",
  "ReconMatrixPE": 104,
  "RepetitionTime": 1.49,
  "SAR": 0.0383603,
  "ScanOptions": "FS",
  "ScanningSequence": "EP",
  "SequenceName": "epfid2d1_104",
  "SequenceVariant": "SK_SS",
  "SeriesDescription": "func_task-things_run-1",
  "SeriesNumber": 11,
  "ShimSetting": [622, -7251, -8816, 630, 7, -226, -48, -10],
  "SliceThickness": 2,
  "SliceTiming": [0, 0.7825, 0.0975, 0.88, 0.195, 0.98, 0.2925, 1.0775, 0.39, 1.175, 0.49, 1.2725, 0.5875, 1.37, 0.685, 0, 0.7825, 0.0975, 0.88, 0.195, 0.98, 0.2925, 1.0775, 0.39, 1.175, 0.49, 1.2725, 0.5875, 1.37, 0.685, 0, 0.7825, 0.0975, 0.88, 0.195, 0.98, 0.2925, 1.0775, 0.39, 1.175, 0.49, 1.2725, 0.5875, 1.37, 0.685, 0, 0.7825, 0.0975, 0.88, 0.195, 0.98, 0.2925, 1.0775, 0.39, 1.175, 0.49, 1.2725, 0.5875, 1.37, 0.685],
  "SoftwareVersions": "syngo_MR_E11",
  "SpacingBetweenSlices": 2,
  "StationName": "MRC35049",
  "TaskName": "things",
  "TotalReadoutTime": 0.0576811,
  "TxRefAmp": 240.738,
  "WipMemBlock": "18dfa888-7179-47bb-9bdc-c478ad4c9bf2||Sequence: R016 ve11c/master r/e634e98; Dec 19 2017 11:00:25 by eja",
  "dcmmeta_affine": [
    [-1.9995529651641846, 0.0422336719930172, 0.0021178622264415026, 105.13571166992188],
    [0.03949914872646332, 1.9011623859405518, -0.619694709777832, -68.45989227294922],
    [0.015099192038178444, 0.6195144057273865, 1.9015713930130005, -61.848480224609375],
    [0.0, 0.0, 0.0, 1.0]
],
  "dcmmeta_reorient_transform": [
    [0.0, -1.0, 0.0, 103.0],
    [1.0, 0.0, 0.0, 0.0],
    [0.0, 0.0, 1.0, 0.0],
    [0.0, 0.0, 0.0, 1.0]
],
  "dcmmeta_shape": [104, 104, 60, 190],
  "dcmmeta_slice_dim": 2,
  "dcmmeta_version": 0.6,
  "global": {
    "const": {
      "AcquisitionMatrix": [104, 0, 0, 104],
      "AngioFlag": "N",
      "BitsAllocated": 16,
      "BitsStored": 16,
      "BodyPartExamined": "BRAIN",
      "Columns": 832,
      "EchoNumbers": 1,
      "EchoTime": 37.0,
      "EchoTrainLength": 104,
      "FlipAngle": 52.0,
      "HighBit": 15,
      "ImageOrientationPatient": [0.99977645398003, -0.0197495738841, 0.00754959591685, 0.02111683527288, 0.95058116986847, -0.3097571932329],
      "ImagePositionPatient": [-852.69609145243, -805.00523067821, 221.96863281696],
      "ImageType": [
        "ORIGINAL",
        "PRIMARY",
        "P",
        "MB",
        "ND",
        "MOSAIC"
],
      "ImagedNucleus": "1H",
      "ImagingFrequency": 123.258868,
      "InPlanePhaseEncodingDirection": "COL",
      "LargestImagePixelValue": 4095,
      "MRAcquisitionType": "2D",
      "MagneticFieldStrength": 3.0,
      "Manufacturer": "SIEMENS",
      "ManufacturerModelName": "Prisma_fit",
      "Modality": "MR",
      "NumberOfAverages": 1.0,
      "NumberOfPhaseEncodingSteps": 104,
      "PercentPhaseFieldOfView": 100.0,
      "PercentSampling": 100.0,
      "PerformedProcedureStepStartTime": "151303.672000",
      "PhotometricInterpretation": "MONOCHROME2",
      "PixelBandwidth": 2290.0,
      "PixelRepresentation": 0,
      "PixelSpacing": [2.0, 2.0],
      "ProtocolName": "func_task-things_run-1",
      "RepetitionTime": 1490.0,
      "RescaleIntercept": -4096.0,
      "RescaleSlope": 2.0,
      "RescaleType": "US",
      "Rows": 832,
      "SAR": 0.03836031773644,
      "SamplesPerPixel": 1,
      "ScanOptions": "FS",
      "ScanningSequence": "EP",
      "SequenceName": "epfid2d1_104",
      "SequenceVariant": [
        "SK",
        "SS"
],
      "SeriesDescription": "func_task-things_run-1",
      "SeriesNumber": 11,
      "SeriesTime": "152238.965000",
      "SliceLocation": -37.481202267287,
      "SliceThickness": 2.0,
      "SmallestImagePixelValue": 0,
      "SoftwareVersions": "syngo MR E11",
      "SpacingBetweenSlices": 1.9999999624466,
      "SpecificCharacterSet": "ISO_IR 100",
      "StudyID": "1",
      "StudyTime": "151303.588000",
      "TransmitCoilName": "Body",
      "VariableFlipAngleFlag": "N",
      "WindowCenterWidthExplanation": "Algo1",
      "dBdt": 0.0},
    "slices": {}
  },
  "time": {
    "samples": {
      "AcquisitionNumber": [1, 2, 3, 4, 5, 6, 7, 8, 9, 10, 11, 12, 13, 14, 15, 16, 17, 18, 19, 20, 21, 22, 23, 24, 25, 26, 27, 28, 29, 30, 31, 32, 33, 34, 35, 36, 37, 38, 39, 40, 41, 42, 43, 44, 45, 46, 47, 48, 49, 50, 51, 52, 53, 54, 55, 56, 57, 58, 59, 60, 61, 62, 63, 64, 65, 66, 67, 68, 69, 70, 71, 72, 73, 74, 75, 76, 77, 78, 79, 80, 81, 82, 83, 84, 85, 86, 87, 88, 89, 90, 91, 92, 93, 94, 95, 96, 97, 98, 99, 100, 101, 102, 103, 104, 105, 106, 107, 108, 109, 110, 111, 112, 113, 114, 115, 116, 117, 118, 119, 120, 121, 122, 123, 124, 125, 126, 127, 128, 129, 130, 131, 132, 133, 134, 135, 136, 137, 138, 139, 140, 141, 142, 143, 144, 145, 146, 147, 148, 149, 150, 151, 152, 153, 154, 155, 156, 157, 158, 159, 160, 161, 162, 163, 164, 165, 166, 167, 168, 169, 170, 171, 172, 173, 174, 175, 176, 177, 178, 179, 180, 181, 182, 183, 184, 185, 186, 187, 188, 189, 190],
      "AcquisitionTime": ["152119.927500", "152121.417500", "152122.907500", "152124.397500", "152125.887500", "152127.377500", "152128.867500", "152130.357500", "152131.847500", "152133.337500", "152134.827500", "152136.317500", "152137.807500", "152139.297500", "152140.787500", "152142.277500", "152143.767500", "152145.257500", "152146.747500", "152148.237500", "152149.727500", "152151.217500", "152152.707500", "152154.197500", "152155.687500", "152157.177500", "152158.667500", "152200.157500", "152201.647500", "152203.137500", "152204.627500", "152206.117500", "152207.607500", "152209.097500", "152210.587500", "152212.077500", "152213.567500", "152215.057500", "152216.547500", "152218.037500", "152219.527500", "152221.017500", "152222.507500", "152223.997500", "152225.487500", "152226.977500", "152228.467500", "152229.957500", "152231.447500", "152232.937500", "152234.427500", "152235.917500", "152237.407500", "152238.897500", "152240.387500", "152241.877500", "152243.367500", "152244.857500", "152246.347500", "152247.837500", "152249.327500", "152250.817500", "152252.307500", "152253.797500", "152255.287500", "152256.777500", "152258.267500", "152259.757500", "152301.247500", "152302.737500", "152304.227500", "152305.717500", "152307.207500", "152308.697500", "152310.187500", "152311.677500", "152313.167500", "152314.657500", "152316.147500", "152317.637500", "152319.127500", "152320.617500", "152322.107500", "152323.597500", "152325.087500", "152326.577500", "152328.067500", "152329.557500", "152331.047500", "152332.537500", "152334.027500", "152335.517500", "152337.007500", "152338.497500", "152339.987500", "152341.477500", "152342.967500", "152344.457500", "152345.947500", "152347.437500", "152348.927500", "152350.417500", "152351.907500", "152353.397500", "152354.887500", "152356.377500", "152357.867500", "152359.357500", "152400.847500", "152402.337500", "152403.827500", "152405.317500", "152406.807500", "152408.297500", "152409.787500", "152411.277500", "152412.767500", "152414.257500", "152415.747500", "152417.237500", "152418.727500", "152420.217500", "152421.707500", "152423.197500", "152424.687500", "152426.177500", "152427.667500", "152429.157500", "152430.647500", "152432.137500", "152433.627500", "152435.117500", "152436.607500", "152438.097500", "152439.587500", "152441.077500", "152442.567500", "152444.057500", "152445.547500", "152447.037500", "152448.527500", "152450.017500", "152451.507500", "152452.997500", "152454.487500", "152455.977500", "152457.467500", "152458.957500", "152500.447500", "152501.937500", "152503.427500", "152504.917500", "152506.407500", "152507.897500", "152509.387500", "152510.877500", "152512.367500", "152513.857500", "152515.347500", "152516.837500", "152518.327500", "152519.817500", "152521.307500", "152522.797500", "152524.287500", "152525.777500", "152527.267500", "152528.757500", "152530.247500", "152531.737500", "152533.227500", "152534.717500", "152536.207500", "152537.697500", "152539.187500", "152540.677500", "152542.167500", "152543.657500", "152545.147500", "152546.637500", "152548.127500", "152549.617500", "152551.107500", "152552.597500", "152554.087500", "152555.577500", "152557.067500", "152558.557500", "152600.047500", "152601.537500"],
      "ContentTime": ["152238.967000", "152238.969000", "152238.972000", "152238.974000", "152238.977000", "152238.979000", "152238.982000", "152238.984000", "152238.987000", "152238.989000", "152238.992000", "152239.002000", "152239.004000", "152239.007000", "152239.010000", "152239.014000", "152239.017000", "152239.020000", "152239.023000", "152239.025000", "152239.027000", "152239.030000", "152239.032000", "152239.035000", "152239.037000", "152258.861000", "152258.864000", "152258.867000", "152258.869000", "152258.872000", "152258.874000", "152258.876000", "152258.879000", "152258.885000", "152258.887000", "152258.890000", "152258.892000", "152258.895000", "152258.897000", "152258.900000", "152258.902000", "152258.905000", "152258.907000", "152258.910000", "152258.912000", "152318.889000", "152318.892000", "152318.894000", "152318.897000", "152318.899000", "152318.902000", "152318.904000", "152318.907000", "152318.909000", "152318.912000", "152318.914000", "152318.916000", "152318.919000", "152318.921000", "152318.924000", "152318.926000", "152318.929000", "152318.931000", "152318.934000", "152318.936000", "152318.939000", "152338.974000", "152338.977000", "152338.979000", "152338.982000", "152338.984000", "152338.987000", "152338.990000", "152338.992000", "152338.995000", "152338.997000", "152339.001000", "152339.003000", "152339.006000", "152339.008000", "152339.011000", "152339.013000", "152339.016000", "152339.018000", "152339.021000", "152339.023000", "152358.870000", "152358.873000", "152358.875000", "152358.878000", "152358.880000", "152358.883000", "152358.885000", "152358.887000", "152358.890000", "152358.892000", "152358.895000", "152358.897000", "152358.900000", "152358.902000", "152358.905000", "152358.907000", "152358.910000", "152358.912000", "152358.915000", "152358.917000", "152439.598000", "152439.601000", "152439.603000", "152439.606000", "152439.608000", "152439.611000", "152439.613000", "152439.616000", "152439.618000", "152439.621000", "152439.623000", "152439.626000", "152439.628000", "152439.631000", "152439.633000", "152439.635000", "152439.638000", "152439.640000", "152439.643000", "152439.646000", "152439.648000", "152439.650000", "152439.653000", "152439.655000", "152439.658000", "152439.660000", "152439.663000", "152518.904000", "152518.906000", "152518.909000", "152518.911000", "152518.914000", "152518.916000", "152518.919000", "152518.921000", "152518.924000", "152518.926000", "152518.929000", "152518.931000", "152518.933000", "152518.936000", "152518.938000", "152518.941000", "152518.943000", "152518.946000", "152518.948000", "152518.951000", "152518.953000", "152518.956000", "152518.958000", "152518.961000", "152518.963000", "152518.966000", "152558.912000", "152558.914000", "152558.917000", "152558.919000", "152558.922000", "152558.924000", "152558.927000", "152558.930000", "152558.932000", "152558.935000", "152558.937000", "152558.939000", "152558.942000", "152558.944000", "152558.947000", "152558.949000", "152558.952000", "152558.954000", "152558.957000", "152558.959000", "152558.962000", "152558.964000", "152558.967000", "152558.969000", "152558.972000", "152558.974000", "152558.977000", "152603.600000", "152603.603000", "152603.605000", "152603.608000"],
      "InstanceCreationTime": ["152238.967000", "152238.969000", "152238.972000", "152238.974000", "152238.977000", "152238.979000", "152238.982000", "152238.984000", "152238.987000", "152238.989000", "152238.992000", "152239.002000", "152239.004000", "152239.007000", "152239.010000", "152239.014000", "152239.017000", "152239.020000", "152239.023000", "152239.025000", "152239.027000", "152239.030000", "152239.032000", "152239.035000", "152239.037000", "152258.861000", "152258.864000", "152258.867000", "152258.869000", "152258.872000", "152258.874000", "152258.876000", "152258.879000", "152258.885000", "152258.887000", "152258.890000", "152258.892000", "152258.895000", "152258.897000", "152258.900000", "152258.902000", "152258.905000", "152258.907000", "152258.910000", "152258.912000", "152318.889000", "152318.892000", "152318.894000", "152318.897000", "152318.899000", "152318.902000", "152318.904000", "152318.907000", "152318.909000", "152318.912000", "152318.914000", "152318.916000", "152318.919000", "152318.921000", "152318.924000", "152318.926000", "152318.929000", "152318.931000", "152318.934000", "152318.936000", "152318.939000", "152338.974000", "152338.977000", "152338.979000", "152338.982000", "152338.984000", "152338.987000", "152338.990000", "152338.992000", "152338.995000", "152338.997000", "152339.001000", "152339.003000", "152339.006000", "152339.008000", "152339.011000", "152339.013000", "152339.016000", "152339.018000", "152339.021000", "152339.023000", "152358.870000", "152358.873000", "152358.875000", "152358.878000", "152358.880000", "152358.883000", "152358.885000", "152358.887000", "152358.890000", "152358.892000", "152358.895000", "152358.897000", "152358.900000", "152358.902000", "152358.905000", "152358.907000", "152358.910000", "152358.912000", "152358.915000", "152358.917000", "152439.598000", "152439.601000", "152439.603000", "152439.606000", "152439.608000", "152439.611000", "152439.613000", "152439.616000", "152439.618000", "152439.621000", "152439.623000", "152439.626000", "152439.628000", "152439.631000", "152439.633000", "152439.635000", "152439.638000", "152439.640000", "152439.643000", "152439.646000", "152439.648000", "152439.650000", "152439.653000", "152439.655000", "152439.658000", "152439.660000", "152439.663000", "152518.904000", "152518.906000", "152518.909000", "152518.911000", "152518.914000", "152518.916000", "152518.919000", "152518.921000", "152518.924000", "152518.926000", "152518.929000", "152518.931000", "152518.933000", "152518.936000", "152518.938000", "152518.941000", "152518.943000", "152518.946000", "152518.948000", "152518.951000", "152518.953000", "152518.956000", "152518.958000", "152518.961000", "152518.963000", "152518.966000", "152558.912000", "152558.914000", "152558.917000", "152558.919000", "152558.922000", "152558.924000", "152558.927000", "152558.930000", "152558.932000", "152558.935000", "152558.937000", "152558.939000", "152558.942000", "152558.944000", "152558.947000", "152558.949000", "152558.952000", "152558.954000", "152558.957000", "152558.959000", "152558.962000", "152558.964000", "152558.967000", "152558.969000", "152558.972000", "152558.974000", "152558.977000", "152603.600000", "152603.603000", "152603.605000", "152603.608000"],
      "InstanceNumber": [1, 2, 3, 4, 5, 6, 7, 8, 9, 10, 11, 12, 13, 14, 15, 16, 17, 18, 19, 20, 21, 22, 23, 24, 25, 26, 27, 28, 29, 30, 31, 32, 33, 34, 35, 36, 37, 38, 39, 40, 41, 42, 43, 44, 45, 46, 47, 48, 49, 50, 51, 52, 53, 54, 55, 56, 57, 58, 59, 60, 61, 62, 63, 64, 65, 66, 67, 68, 69, 70, 71, 72, 73, 74, 75, 76, 77, 78, 79, 80, 81, 82, 83, 84, 85, 86, 87, 88, 89, 90, 91, 92, 93, 94, 95, 96, 97, 98, 99, 100, 101, 102, 103, 104, 105, 106, 107, 108, 109, 110, 111, 112, 113, 114, 115, 116, 117, 118, 119, 120, 121, 122, 123, 124, 125, 126, 127, 128, 129, 130, 131, 132, 133, 134, 135, 136, 137, 138, 139, 140, 141, 142, 143, 144, 145, 146, 147, 148, 149, 150, 151, 152, 153, 154, 155, 156, 157, 158, 159, 160, 161, 162, 163, 164, 165, 166, 167, 168, 169, 170, 171, 172, 173, 174, 175, 176, 177, 178, 179, 180, 181, 182, 183, 184, 185, 186, 187, 188, 189, 190],
      "WindowCenter": [4818.0, 4814.0, 4826.0, 4818.0, 4816.0, 4796.0, 4816.0, 4818.0, 4814.0, 4820.0, 4820.0, 4816.0, 4818.0, 4814.0, 4818.0, 4820.0, 4818.0, 4820.0, 4818.0, 4822.0, 4820.0, 4816.0, 4822.0, 4816.0, 4814.0, 4818.0, 4816.0, 4818.0, 4820.0, 4816.0, 4820.0, 4826.0, 4818.0, 4792.0, 4818.0, 4792.0, 4794.0, 4820.0, 4816.0, 4818.0, 4870.0, 4876.0, 4820.0, 4790.0, 4786.0, 4790.0, 4814.0, 4792.0, 4818.0, 4850.0, 4822.0, 4820.0, 4826.0, 4818.0, 4794.0, 4818.0, 4792.0, 4816.0, 4822.0, 4818.0, 4818.0, 4824.0, 4820.0, 4822.0, 4818.0, 4794.0, 4824.0, 4796.0, 4794.0, 4818.0, 4822.0, 4814.0, 4794.0, 4822.0, 4824.0, 4820.0, 4816.0, 4824.0, 4816.0, 4816.0, 4824.0, 4820.0, 4816.0, 4822.0, 4818.0, 4816.0, 4822.0, 4816.0, 4794.0, 4846.0, 4850.0, 4818.0, 4816.0, 4818.0, 4820.0, 4794.0, 4822.0, 4822.0, 4830.0, 4850.0, 4820.0, 4824.0, 4848.0, 4818.0, 4794.0, 4816.0, 4814.0, 4816.0, 4818.0, 4848.0, 4826.0, 4822.0, 4850.0, 4848.0, 4816.0, 4820.0, 4790.0, 4816.0, 4820.0, 4816.0, 4822.0, 4848.0, 4824.0, 4820.0, 4822.0, 4816.0, 4816.0, 4816.0, 4818.0, 4818.0, 4820.0, 4818.0, 4820.0, 4848.0, 4820.0, 4848.0, 4848.0, 4822.0, 4818.0, 4820.0, 4818.0, 4822.0, 4822.0, 4850.0, 4824.0, 4822.0, 4820.0, 4818.0, 4822.0, 4818.0, 4820.0, 4850.0, 4820.0, 4818.0, 4818.0, 4818.0, 4820.0, 4874.0, 4848.0, 4820.0, 4816.0, 4818.0, 4818.0, 4794.0, 4822.0, 4820.0, 4824.0, 4824.0, 4822.0, 4822.0, 4824.0, 4818.0, 4818.0, 4824.0, 4818.0, 4818.0, 4820.0, 4792.0, 4822.0, 4820.0, 4820.0, 4826.0, 4822.0, 4818.0, 4796.0, 4818.0, 4820.0, 4796.0, 4794.0, 4818.0],
      "WindowWidth": [18586.0, 18584.0, 18598.0, 18586.0, 18588.0, 18558.0, 18590.0, 18590.0, 18584.0, 18592.0, 18592.0, 18590.0, 18588.0, 18586.0, 18588.0, 18590.0, 18590.0, 18590.0, 18588.0, 18590.0, 18592.0, 18590.0, 18596.0, 18592.0, 18588.0, 18592.0, 18586.0, 18590.0, 18594.0, 18586.0, 18590.0, 18596.0, 18590.0, 18554.0, 18592.0, 18558.0, 18556.0, 18592.0, 18590.0, 18586.0, 18674.0, 18686.0, 18590.0, 18558.0, 18558.0, 18560.0, 18590.0, 18552.0, 18586.0, 18634.0, 18590.0, 18592.0, 18604.0, 18590.0, 18558.0, 18590.0, 18558.0, 18590.0, 18590.0, 18586.0, 18594.0, 18598.0, 18592.0, 18594.0, 18592.0, 18556.0, 18600.0, 18560.0, 18554.0, 18588.0, 18596.0, 18590.0, 18560.0, 18592.0, 18598.0, 18586.0, 18590.0, 18598.0, 18588.0, 18588.0, 18592.0, 18588.0, 18586.0, 18592.0, 18590.0, 18588.0, 18594.0, 18586.0, 18556.0, 18630.0, 18638.0, 18588.0, 18586.0, 18586.0, 18588.0, 18554.0, 18592.0, 18592.0, 18596.0, 18630.0, 18590.0, 18592.0, 18636.0, 18588.0, 18556.0, 18588.0, 18582.0, 18590.0, 18584.0, 18630.0, 18598.0, 18594.0, 18640.0, 18628.0, 18586.0, 18588.0, 18556.0, 18586.0, 18588.0, 18588.0, 18590.0, 18636.0, 18598.0, 18586.0, 18592.0, 18584.0, 18588.0, 18584.0, 18586.0, 18580.0, 18594.0, 18588.0, 18590.0, 18636.0, 18588.0, 18630.0, 18624.0, 18594.0, 18590.0, 18586.0, 18586.0, 18590.0, 18590.0, 18634.0, 18596.0, 18588.0, 18596.0, 18586.0, 18600.0, 18590.0, 18596.0, 18632.0, 18590.0, 18588.0, 18586.0, 18590.0, 18592.0, 18674.0, 18634.0, 18588.0, 18586.0, 18584.0, 18586.0, 18554.0, 18594.0, 18594.0, 18594.0, 18598.0, 18590.0, 18592.0, 18596.0, 18586.0, 18588.0, 18594.0, 18588.0, 18590.0, 18588.0, 18554.0, 18586.0, 18588.0, 18592.0, 18596.0, 18590.0, 18588.0, 18556.0, 18588.0, 18586.0, 18556.0, 18552.0, 18590.0]
    },
    "slices": {}
  }
}