{
  "AcquisitionMatrixPE": 104,
  "AcquisitionNumber": 1,
  "AcquisitionTime": "15:21:19.927500",
  "BandwidthPerPixelPhaseEncode": 17.17,
  "BaseResolution": 104,
  "BodyPartExamined": "BRAIN",
  "CoilString": "HC1-7;NC1_2",
  "ConsistencyInfo": "N4_VE11C_LATEST_20160120",
  "ConversionSoftware": "dcm2niix",
  "ConversionSoftwareVersion": "v1.0.20190902",
  "DerivedVendorReportedEchoSpacing": 0.000560011,
  "DeviceSerialNumber": "167006",
  "DwellTime": 2.1e-06,
  "EchoTime": 0.037,
  "EchoTrainLength": 104,
  "EffectiveEchoSpacing": 0.000560011,
  "FlipAngle": 52,
  "ImageComments": "Unaliased_MB4_PE3_LB",
  "ImageOrientationPatientDICOM": [0.999776, -0.0197496, 0.0075496, 0.0211168, 0.950581, -0.309757],
  "ImageType": [
    "ORIGINAL",
    "PRIMARY",
    "M",
    "MB",
    "ND",
    "MOSAIC"
],
  "ImagingFrequency": 123.259,
  "InPlanePhaseEncodingDirectionDICOM": "COL",
  "InstitutionAddress": "Chemin_Queen-Mary_4565_Montreal_District_CA_H3W_1W5",
  "InstitutionName": "IUGM",
  "InstitutionalDepartmentName": "Department",
  "MRAcquisitionType": "2D",
  "MagneticFieldStrength": 3,
  "Manufacturer": "Siemens",
  "ManufacturersModelName": "Prisma_fit",
  "Modality": "MR",
  "MultibandAccelerationFactor": 4,
  "PartialFourier": 1,
  "PatientPosition": "HFS",
  "PercentPhaseFOV": 100,
  "PhaseEncodingDirection": "j",
  "PhaseEncodingSteps": 104,
  "PhaseResolution": 1,
  "PixelBandwidth": 2290,
  "ProcedureStepDescription": "memory_things",
  "ProtocolName": "func_task-things_run-1",
  "PulseSequenceDetails": "%CustomerSeq%_cmrr_mbep2d_bold",
  "ReceiveCoilActiveElements": "HC1-7;NC1,2",
  "ReceiveCoilName": "HeadNeck_64",
  "ReconMatrixPE": 104,
  "RepetitionTime": 1.49,
  "SAR": 0.0383603,
  "ScanOptions": "FS",
  "ScanningSequence": "EP",
  "SequenceName": "epfid2d1_104",
  "SequenceVariant": "SK_SS",
  "SeriesDescription": "func_task-things_run-1",
  "SeriesNumber": 10,
  "ShimSetting": [622, -7251, -8816, 630, 7, -226, -48, -10],
  "SliceThickness": 2,
  "SliceTiming": [0, 0.7825, 0.0975, 0.88, 0.195, 0.98, 0.2925, 1.0775, 0.39, 1.175, 0.49, 1.2725, 0.5875, 1.37, 0.685, 0, 0.7825, 0.0975, 0.88, 0.195, 0.98, 0.2925, 1.0775, 0.39, 1.175, 0.49, 1.2725, 0.5875, 1.37, 0.685, 0, 0.7825, 0.0975, 0.88, 0.195, 0.98, 0.2925, 1.0775, 0.39, 1.175, 0.49, 1.2725, 0.5875, 1.37, 0.685, 0, 0.7825, 0.0975, 0.88, 0.195, 0.98, 0.2925, 1.0775, 0.39, 1.175, 0.49, 1.2725, 0.5875, 1.37, 0.685],
  "SoftwareVersions": "syngo_MR_E11",
  "SpacingBetweenSlices": 2,
  "StationName": "MRC35049",
  "TaskName": "things",
  "TotalReadoutTime": 0.0576811,
  "TxRefAmp": 240.738,
  "WipMemBlock": "18dfa888-7179-47bb-9bdc-c478ad4c9bf2||Sequence: R016 ve11c/master r/e634e98; Dec 19 2017 11:00:25 by eja",
  "dcmmeta_affine": [
    [-1.9995529651641846, 0.0422336719930172, 0.0021178622264415026, 105.13571166992188],
    [0.03949914872646332, 1.9011623859405518, -0.619694709777832, -68.45989227294922],
    [0.015099192038178444, 0.6195144057273865, 1.9015713930130005, -61.848480224609375],
    [0.0, 0.0, 0.0, 1.0]
],
  "dcmmeta_reorient_transform": [
    [0.0, -1.0, 0.0, 103.0],
    [1.0, 0.0, 0.0, 0.0],
    [0.0, 0.0, 1.0, 0.0],
    [0.0, 0.0, 0.0, 1.0]
],
  "dcmmeta_shape": [104, 104, 60, 190],
  "dcmmeta_slice_dim": 2,
  "dcmmeta_version": 0.6,
  "global": {
    "const": {
      "AcquisitionMatrix": [104, 0, 0, 104],
      "AngioFlag": "N",
      "BitsAllocated": 16,
      "BitsStored": 16,
      "BodyPartExamined": "BRAIN",
      "Columns": 832,
      "EchoNumbers": 1,
      "EchoTime": 37.0,
      "EchoTrainLength": 104,
      "FlipAngle": 52.0,
      "HighBit": 15,
      "ImageOrientationPatient": [0.99977645398003, -0.0197495738841, 0.00754959591685, 0.02111683527288, 0.95058116986847, -0.3097571932329],
      "ImagePositionPatient": [-852.69609145243, -805.00523067821, 221.96863281696],
      "ImageType": [
        "ORIGINAL",
        "PRIMARY",
        "M",
        "MB",
        "ND",
        "MOSAIC"
],
      "ImagedNucleus": "1H",
      "ImagingFrequency": 123.258868,
      "InPlanePhaseEncodingDirection": "COL",
      "MRAcquisitionType": "2D",
      "MagneticFieldStrength": 3.0,
      "Manufacturer": "SIEMENS",
      "ManufacturerModelName": "Prisma_fit",
      "Modality": "MR",
      "NumberOfAverages": 1.0,
      "NumberOfPhaseEncodingSteps": 104,
      "PercentPhaseFieldOfView": 100.0,
      "PercentSampling": 100.0,
      "PerformedProcedureStepStartTime": "151303.672000",
      "PhotometricInterpretation": "MONOCHROME2",
      "PixelBandwidth": 2290.0,
      "PixelRepresentation": 0,
      "PixelSpacing": [2.0, 2.0],
      "ProtocolName": "func_task-things_run-1",
      "RepetitionTime": 1490.0,
      "Rows": 832,
      "SAR": 0.03836031773644,
      "SamplesPerPixel": 1,
      "ScanOptions": "FS",
      "ScanningSequence": "EP",
      "SequenceName": "epfid2d1_104",
      "SequenceVariant": [
        "SK",
        "SS"
],
      "SeriesDescription": "func_task-things_run-1",
      "SeriesNumber": 10,
      "SeriesTime": "152238.825000",
      "SliceLocation": -37.481202267287,
      "SliceThickness": 2.0,
      "SmallestImagePixelValue": 0,
      "SoftwareVersions": "syngo MR E11",
      "SpacingBetweenSlices": 1.9999999624466,
      "SpecificCharacterSet": "ISO_IR 100",
      "StudyID": "1",
      "StudyTime": "151303.588000",
      "TransmitCoilName": "Body",
      "VariableFlipAngleFlag": "N",
      "WindowCenterWidthExplanation": "Algo1",
      "dBdt": 0.0},
    "slices": {}
  },
  "time": {
    "samples": {
      "AcquisitionNumber": [1, 2, 3, 4, 5, 6, 7, 8, 9, 10, 11, 12, 13, 14, 15, 16, 17, 18, 19, 20, 21, 22, 23, 24, 25, 26, 27, 28, 29, 30, 31, 32, 33, 34, 35, 36, 37, 38, 39, 40, 41, 42, 43, 44, 45, 46, 47, 48, 49, 50, 51, 52, 53, 54, 55, 56, 57, 58, 59, 60, 61, 62, 63, 64, 65, 66, 67, 68, 69, 70, 71, 72, 73, 74, 75, 76, 77, 78, 79, 80, 81, 82, 83, 84, 85, 86, 87, 88, 89, 90, 91, 92, 93, 94, 95, 96, 97, 98, 99, 100, 101, 102, 103, 104, 105, 106, 107, 108, 109, 110, 111, 112, 113, 114, 115, 116, 117, 118, 119, 120, 121, 122, 123, 124, 125, 126, 127, 128, 129, 130, 131, 132, 133, 134, 135, 136, 137, 138, 139, 140, 141, 142, 143, 144, 145, 146, 147, 148, 149, 150, 151, 152, 153, 154, 155, 156, 157, 158, 159, 160, 161, 162, 163, 164, 165, 166, 167, 168, 169, 170, 171, 172, 173, 174, 175, 176, 177, 178, 179, 180, 181, 182, 183, 184, 185, 186, 187, 188, 189, 190],
      "AcquisitionTime": ["152119.927500", "152121.417500", "152122.907500", "152124.397500", "152125.887500", "152127.377500", "152128.867500", "152130.357500", "152131.847500", "152133.337500", "152134.827500", "152136.317500", "152137.807500", "152139.297500", "152140.787500", "152142.277500", "152143.767500", "152145.257500", "152146.747500", "152148.237500", "152149.727500", "152151.217500", "152152.707500", "152154.197500", "152155.687500", "152157.177500", "152158.667500", "152200.157500", "152201.647500", "152203.137500", "152204.627500", "152206.117500", "152207.607500", "152209.097500", "152210.587500", "152212.077500", "152213.567500", "152215.057500", "152216.547500", "152218.037500", "152219.527500", "152221.017500", "152222.507500", "152223.997500", "152225.487500", "152226.977500", "152228.467500", "152229.957500", "152231.447500", "152232.937500", "152234.427500", "152235.917500", "152237.407500", "152238.897500", "152240.387500", "152241.877500", "152243.367500", "152244.857500", "152246.347500", "152247.837500", "152249.327500", "152250.817500", "152252.307500", "152253.797500", "152255.287500", "152256.777500", "152258.267500", "152259.757500", "152301.247500", "152302.737500", "152304.227500", "152305.717500", "152307.207500", "152308.697500", "152310.187500", "152311.677500", "152313.167500", "152314.657500", "152316.147500", "152317.637500", "152319.127500", "152320.617500", "152322.107500", "152323.597500", "152325.087500", "152326.577500", "152328.067500", "152329.557500", "152331.047500", "152332.537500", "152334.027500", "152335.517500", "152337.007500", "152338.497500", "152339.987500", "152341.477500", "152342.967500", "152344.457500", "152345.947500", "152347.437500", "152348.927500", "152350.417500", "152351.907500", "152353.397500", "152354.887500", "152356.377500", "152357.867500", "152359.357500", "152400.847500", "152402.337500", "152403.827500", "152405.317500", "152406.807500", "152408.297500", "152409.787500", "152411.277500", "152412.767500", "152414.257500", "152415.747500", "152417.237500", "152418.727500", "152420.217500", "152421.707500", "152423.197500", "152424.687500", "152426.177500", "152427.667500", "152429.157500", "152430.647500", "152432.137500", "152433.627500", "152435.117500", "152436.607500", "152438.097500", "152439.587500", "152441.077500", "152442.567500", "152444.057500", "152445.547500", "152447.037500", "152448.527500", "152450.017500", "152451.507500", "152452.997500", "152454.487500", "152455.977500", "152457.467500", "152458.957500", "152500.447500", "152501.937500", "152503.427500", "152504.917500", "152506.407500", "152507.897500", "152509.387500", "152510.877500", "152512.367500", "152513.857500", "152515.347500", "152516.837500", "152518.327500", "152519.817500", "152521.307500", "152522.797500", "152524.287500", "152525.777500", "152527.267500", "152528.757500", "152530.247500", "152531.737500", "152533.227500", "152534.717500", "152536.207500", "152537.697500", "152539.187500", "152540.677500", "152542.167500", "152543.657500", "152545.147500", "152546.637500", "152548.127500", "152549.617500", "152551.107500", "152552.597500", "152554.087500", "152555.577500", "152557.067500", "152558.557500", "152600.047500", "152601.537500"],
      "ContentTime": ["152238.828000", "152238.832000", "152238.835000", "152238.839000", "152238.842000", "152238.845000", "152238.849000", "152238.852000", "152238.855000", "152238.859000", "152238.862000", "152238.866000", "152238.869000", "152238.873000", "152238.876000", "152238.879000", "152238.882000", "152238.886000", "152238.889000", "152238.892000", "152238.895000", "152238.899000", "152238.902000", "152238.905000", "152238.908000", "152258.768000", "152258.772000", "152258.775000", "152258.778000", "152258.782000", "152258.785000", "152258.788000", "152258.791000", "152258.795000", "152258.798000", "152258.802000", "152258.805000", "152258.808000", "152258.811000", "152258.815000", "152258.818000", "152258.821000", "152258.824000", "152258.828000", "152258.831000", "152318.768000", "152318.772000", "152318.775000", "152318.778000", "152318.782000", "152318.785000", "152318.788000", "152318.791000", "152318.795000", "152318.798000", "152318.801000", "152318.804000", "152318.815000", "152318.818000", "152318.822000", "152318.825000", "152318.828000", "152318.831000", "152318.835000", "152318.838000", "152318.842000", "152338.768000", "152338.844000", "152338.847000", "152338.850000", "152338.854000", "152338.857000", "152338.860000", "152338.863000", "152338.867000", "152338.870000", "152338.873000", "152338.881000", "152338.884000", "152338.887000", "152338.910000", "152338.914000", "152338.917000", "152338.920000", "152338.923000", "152338.927000", "152358.768000", "152358.772000", "152358.775000", "152358.778000", "152358.782000", "152358.785000", "152358.788000", "152358.791000", "152358.795000", "152358.798000", "152358.801000", "152358.804000", "152358.808000", "152358.811000", "152358.814000", "152358.817000", "152358.821000", "152358.824000", "152358.827000", "152358.830000", "152438.769000", "152438.773000", "152438.776000", "152438.779000", "152438.783000", "152438.786000", "152438.789000", "152438.792000", "152438.796000", "152438.799000", "152438.802000", "152438.850000", "152438.853000", "152438.856000", "152438.860000", "152438.863000", "152438.866000", "152438.869000", "152438.873000", "152438.876000", "152438.879000", "152438.882000", "152438.886000", "152438.889000", "152438.892000", "152438.895000", "152438.899000", "152518.768000", "152518.772000", "152518.775000", "152518.779000", "152518.782000", "152518.785000", "152518.789000", "152518.792000", "152518.795000", "152518.799000", "152518.802000", "152518.805000", "152518.808000", "152518.812000", "152518.815000", "152518.819000", "152518.822000", "152518.825000", "152518.828000", "152518.832000", "152518.835000", "152518.838000", "152518.842000", "152518.845000", "152518.848000", "152518.852000", "152558.768000", "152558.772000", "152558.775000", "152558.778000", "152558.782000", "152558.785000", "152558.789000", "152558.806000", "152558.810000", "152558.813000", "152558.816000", "152558.820000", "152558.823000", "152558.826000", "152558.829000", "152558.833000", "152558.836000", "152558.839000", "152558.843000", "152558.846000", "152558.849000", "152558.852000", "152558.856000", "152558.859000", "152558.862000", "152558.865000", "152558.869000", "152603.554000", "152603.557000", "152603.561000", "152603.564000"],
      "InstanceCreationTime": ["152238.828000", "152238.832000", "152238.835000", "152238.839000", "152238.842000", "152238.845000", "152238.849000", "152238.852000", "152238.855000", "152238.859000", "152238.862000", "152238.866000", "152238.869000", "152238.873000", "152238.876000", "152238.879000", "152238.882000", "152238.886000", "152238.889000", "152238.892000", "152238.895000", "152238.899000", "152238.902000", "152238.905000", "152238.908000", "152258.768000", "152258.772000", "152258.775000", "152258.778000", "152258.782000", "152258.785000", "152258.788000", "152258.791000", "152258.795000", "152258.798000", "152258.802000", "152258.805000", "152258.808000", "152258.811000", "152258.815000", "152258.818000", "152258.821000", "152258.824000", "152258.828000", "152258.831000", "152318.768000", "152318.772000", "152318.775000", "152318.778000", "152318.782000", "152318.785000", "152318.788000", "152318.791000", "152318.795000", "152318.798000", "152318.801000", "152318.804000", "152318.815000", "152318.818000", "152318.822000", "152318.825000", "152318.828000", "152318.831000", "152318.835000", "152318.838000", "152318.842000", "152338.768000", "152338.844000", "152338.847000", "152338.850000", "152338.854000", "152338.857000", "152338.860000", "152338.863000", "152338.867000", "152338.870000", "152338.873000", "152338.881000", "152338.884000", "152338.887000", "152338.910000", "152338.914000", "152338.917000", "152338.920000", "152338.923000", "152338.927000", "152358.768000", "152358.772000", "152358.775000", "152358.778000", "152358.782000", "152358.785000", "152358.788000", "152358.791000", "152358.795000", "152358.798000", "152358.801000", "152358.804000", "152358.808000", "152358.811000", "152358.814000", "152358.817000", "152358.821000", "152358.824000", "152358.827000", "152358.830000", "152438.769000", "152438.773000", "152438.776000", "152438.779000", "152438.783000", "152438.786000", "152438.789000", "152438.792000", "152438.796000", "152438.799000", "152438.802000", "152438.850000", "152438.853000", "152438.856000", "152438.860000", "152438.863000", "152438.866000", "152438.869000", "152438.873000", "152438.876000", "152438.879000", "152438.882000", "152438.886000", "152438.889000", "152438.892000", "152438.895000", "152438.899000", "152518.768000", "152518.772000", "152518.775000", "152518.779000", "152518.782000", "152518.785000", "152518.789000", "152518.792000", "152518.795000", "152518.799000", "152518.802000", "152518.805000", "152518.808000", "152518.812000", "152518.815000", "152518.819000", "152518.822000", "152518.825000", "152518.828000", "152518.832000", "152518.835000", "152518.838000", "152518.842000", "152518.845000", "152518.848000", "152518.852000", "152558.768000", "152558.772000", "152558.775000", "152558.778000", "152558.782000", "152558.785000", "152558.789000", "152558.806000", "152558.810000", "152558.813000", "152558.816000", "152558.820000", "152558.823000", "152558.826000", "152558.829000", "152558.833000", "152558.836000", "152558.839000", "152558.843000", "152558.846000", "152558.849000", "152558.852000", "152558.856000", "152558.859000", "152558.862000", "152558.865000", "152558.869000", "152603.554000", "152603.557000", "152603.561000", "152603.564000"],
      "InstanceNumber": [1, 2, 3, 4, 5, 6, 7, 8, 9, 10, 11, 12, 13, 14, 15, 16, 17, 18, 19, 20, 21, 22, 23, 24, 25, 26, 27, 28, 29, 30, 31, 32, 33, 34, 35, 36, 37, 38, 39, 40, 41, 42, 43, 44, 45, 46, 47, 48, 49, 50, 51, 52, 53, 54, 55, 56, 57, 58, 59, 60, 61, 62, 63, 64, 65, 66, 67, 68, 69, 70, 71, 72, 73, 74, 75, 76, 77, 78, 79, 80, 81, 82, 83, 84, 85, 86, 87, 88, 89, 90, 91, 92, 93, 94, 95, 96, 97, 98, 99, 100, 101, 102, 103, 104, 105, 106, 107, 108, 109, 110, 111, 112, 113, 114, 115, 116, 117, 118, 119, 120, 121, 122, 123, 124, 125, 126, 127, 128, 129, 130, 131, 132, 133, 134, 135, 136, 137, 138, 139, 140, 141, 142, 143, 144, 145, 146, 147, 148, 149, 150, 151, 152, 153, 154, 155, 156, 157, 158, 159, 160, 161, 162, 163, 164, 165, 166, 167, 168, 169, 170, 171, 172, 173, 174, 175, 176, 177, 178, 179, 180, 181, 182, 183, 184, 185, 186, 187, 188, 189, 190],
      "LargestImagePixelValue": [42239, 41103, 40911, 39665, 39560, 39761, 39046, 39513, 39387, 39502, 39416, 39372, 39448, 39054, 39803, 39789, 39329, 39593, 38913, 39218, 38831, 39485, 39363, 38969, 39158, 39764, 39053, 38808, 39832, 39501, 39277, 39663, 38871, 39392, 39519, 39484, 39919, 40155, 39618, 39587, 40027, 39836, 38298, 39022, 39174, 39035, 39308, 38959, 39054, 39285, 38982, 38737, 39393, 38705, 38757, 38830, 38954, 39279, 39262, 39065, 39432, 39597, 38916, 39285, 39239, 39410, 39678, 39320, 38714, 39335, 39663, 39172, 39455, 40043, 39019, 38900, 39046, 39037, 38492, 38507, 39039, 38911, 38800, 39183, 39089, 38924, 39554, 39282, 38938, 39401, 39419, 37917, 38595, 39190, 38310, 38801, 38713, 38544, 38646, 39207, 38268, 38532, 39030, 38245, 39068, 38875, 39300, 38851, 38462, 39123, 39015, 38849, 38701, 38560, 38980, 39194, 38917, 38711, 39441, 38599, 39228, 39523, 38056, 38336, 39245, 38706, 38979, 38842, 38476, 38852, 39052, 38602, 38998, 38927, 38652, 38847, 39134, 38073, 37999, 39201, 38817, 39545, 39374, 39765, 39284, 39035, 39399, 39627, 39920, 38940, 39811, 39499, 38977, 39386, 39650, 39486, 39949, 40230, 39212, 39666, 39247, 39080, 38829, 38859, 38973, 39036, 38782, 39558, 38280, 39099, 39613, 38611, 39469, 39603, 38998, 39439, 39661, 39724, 39918, 38727, 39418, 39262, 39300, 38805, 39667, 39755, 39153, 39701, 39416, 39896],
      "WindowCenter": [10236.0, 10173.0, 10164.0, 10141.0, 10147.0, 10144.0, 10139.0, 10136.0, 10135.0, 10135.0, 10128.0, 10128.0, 10128.0, 10120.0, 10133.0, 10128.0, 10126.0, 10127.0, 10114.0, 10128.0, 10129.0, 10128.0, 10133.0, 10124.0, 10114.0, 10123.0, 10118.0, 10129.0, 10136.0, 10112.0, 10096.0, 10098.0, 10089.0, 10116.0, 10120.0, 10126.0, 10133.0, 10124.0, 10116.0, 10118.0, 10137.0, 10150.0, 10119.0, 10106.0, 10092.0, 10084.0, 10080.0, 10066.0, 10052.0, 10057.0, 10065.0, 10078.0, 10091.0, 10079.0, 10094.0, 10112.0, 10112.0, 10112.0, 10101.0, 10100.0, 10123.0, 10140.0, 10128.0, 10128.0, 10112.0, 10110.0, 10116.0, 10124.0, 10121.0, 10117.0, 10110.0, 10097.0, 10103.0, 10113.0, 10103.0, 10088.0, 10069.0, 10067.0, 10069.0, 10087.0, 10101.0, 10088.0, 10089.0, 10101.0, 10102.0, 10116.0, 10131.0, 10109.0, 10103.0, 10095.0, 10098.0, 10090.0, 10096.0, 10085.0, 10069.0, 10068.0, 10076.0, 10069.0, 10077.0, 10081.0, 10077.0, 10079.0, 10092.0, 10094.0, 10100.0, 10085.0, 10080.0, 10075.0, 10079.0, 10082.0, 10075.0, 10068.0, 10076.0, 10083.0, 10099.0, 10099.0, 10091.0, 10090.0, 10091.0, 10083.0, 10083.0, 10088.0, 10076.0, 10084.0, 10082.0, 10067.0, 10073.0, 10076.0, 10070.0, 10068.0, 10071.0, 10066.0, 10080.0, 10092.0, 10098.0, 10110.0, 10114.0, 10096.0, 10079.0, 10096.0, 10077.0, 10077.0, 10063.0, 10064.0, 10065.0, 10069.0, 10074.0, 10073.0, 10085.0, 10085.0, 10112.0, 10115.0, 10108.0, 10108.0, 10098.0, 10090.0, 10102.0, 10123.0, 10122.0, 10106.0, 10075.0, 10059.0, 10049.0, 10058.0, 10065.0, 10065.0, 10059.0, 10070.0, 10054.0, 10065.0, 10072.0, 10065.0, 10079.0, 10088.0, 10091.0, 10098.0, 10096.0, 10081.0, 10085.0, 10070.0, 10071.0, 10065.0, 10065.0, 10067.0, 10065.0, 10062.0, 10063.0, 10086.0, 10090.0, 10087.0],
      "WindowWidth": [22064.0, 21891.0, 21846.0, 21786.0, 21790.0, 21776.0, 21764.0, 21753.0, 21751.0, 21752.0, 21735.0, 21734.0, 21735.0, 21718.0, 21746.0, 21738.0, 21731.0, 21733.0, 21705.0, 21737.0, 21738.0, 21739.0, 21748.0, 21729.0, 21709.0, 21722.0, 21712.0, 21737.0, 21752.0, 21699.0, 21665.0, 21666.0, 21653.0, 21707.0, 21718.0, 21729.0, 21746.0, 21725.0, 21706.0, 21713.0, 21755.0, 21785.0, 21722.0, 21683.0, 21653.0, 21633.0, 21623.0, 21593.0, 21563.0, 21574.0, 21592.0, 21623.0, 21652.0, 21630.0, 21662.0, 21700.0, 21700.0, 21698.0, 21672.0, 21669.0, 21719.0, 21756.0, 21733.0, 21733.0, 21700.0, 21694.0, 21706.0, 21723.0, 21722.0, 21711.0, 21693.0, 21664.0, 21675.0, 21692.0, 21677.0, 21643.0, 21598.0, 21596.0, 21603.0, 21643.0, 21673.0, 21646.0, 21649.0, 21673.0, 21674.0, 21703.0, 21734.0, 21690.0, 21675.0, 21661.0, 21666.0, 21653.0, 21660.0, 21634.0, 21599.0, 21595.0, 21612.0, 21599.0, 21617.0, 21624.0, 21619.0, 21623.0, 21653.0, 21660.0, 21669.0, 21632.0, 21618.0, 21610.0, 21620.0, 21624.0, 21609.0, 21597.0, 21616.0, 21632.0, 21667.0, 21667.0, 21646.0, 21644.0, 21644.0, 21627.0, 21626.0, 21637.0, 21616.0, 21633.0, 21628.0, 21593.0, 21606.0, 21615.0, 21602.0, 21595.0, 21597.0, 21589.0, 21621.0, 21651.0, 21664.0, 21694.0, 21697.0, 21659.0, 21622.0, 21653.0, 21613.0, 21609.0, 21579.0, 21582.0, 21585.0, 21596.0, 21606.0, 21602.0, 21628.0, 21634.0, 21691.0, 21698.0, 21684.0, 21680.0, 21659.0, 21640.0, 21662.0, 21710.0, 21713.0, 21676.0, 21605.0, 21572.0, 21550.0, 21571.0, 21587.0, 21586.0, 21574.0, 21594.0, 21566.0, 21585.0, 21600.0, 21587.0, 21613.0, 21635.0, 21644.0, 21656.0, 21650.0, 21618.0, 21626.0, 21598.0, 21595.0, 21584.0, 21584.0, 21590.0, 21585.0, 21578.0, 21579.0, 21628.0, 21640.0, 21630.0]
    },
    "slices": {}
  }
}