{
  "AcquisitionMatrixPE": 104,
  "AcquisitionNumber": 1,
  "AcquisitionTime": "15:27:41.070000",
  "BandwidthPerPixelPhaseEncode": 17.17,
  "BaseResolution": 104,
  "BodyPartExamined": "BRAIN",
  "CoilString": "HC1-7;NC1_2",
  "ConsistencyInfo": "N4_VE11C_LATEST_20160120",
  "ConversionSoftware": "dcm2niix",
  "ConversionSoftwareVersion": "v1.0.20190902",
  "DerivedVendorReportedEchoSpacing": 0.000560011,
  "DeviceSerialNumber": "167006",
  "DwellTime": 2.1e-06,
  "EchoTime": 0.037,
  "EchoTrainLength": 104,
  "EffectiveEchoSpacing": 0.000560011,
  "FlipAngle": 52,
  "ImageComments": "Unaliased_MB4_PE3_LB",
  "ImageOrientationPatientDICOM": [0.999776, -0.0197496, 0.0075496, 0.0211168, 0.950581, -0.309757],
  "ImageType": [
    "ORIGINAL",
    "PRIMARY",
    "P",
    "MB",
    "ND",
    "MOSAIC"
],
  "ImagingFrequency": 123.259,
  "InPlanePhaseEncodingDirectionDICOM": "COL",
  "InstitutionAddress": "Chemin_Queen-Mary_4565_Montreal_District_CA_H3W_1W5",
  "InstitutionName": "IUGM",
  "InstitutionalDepartmentName": "Department",
  "MRAcquisitionType": "2D",
  "MagneticFieldStrength": 3,
  "Manufacturer": "Siemens",
  "ManufacturersModelName": "Prisma_fit",
  "Modality": "MR",
  "MultibandAccelerationFactor": 4,
  "PartialFourier": 1,
  "PatientPosition": "HFS",
  "PercentPhaseFOV": 100,
  "PhaseEncodingDirection": "j",
  "PhaseEncodingSteps": 104,
  "PhaseResolution": 1,
  "PixelBandwidth": 2290,
  "ProcedureStepDescription": "memory_things",
  "ProtocolName": "func_task-things_run-2",
  "PulseSequenceDetails": "%CustomerSeq%_cmrr_mbep2d_bold",
  "ReceiveCoilActiveElements": "HC1-7;NC1,2",
  "ReceiveCoilName": "HeadNeck_64",
  "ReconMatrixPE": 104,
  "RepetitionTime": 1.49,
  "SAR": 0.0383603,
  "ScanOptions": "FS",
  "ScanningSequence": "EP",
  "SequenceName": "epfid2d1_104",
  "SequenceVariant": "SK_SS",
  "SeriesDescription": "func_task-things_run-2",
  "SeriesNumber": 14,
  "ShimSetting": [622, -7251, -8816, 630, 7, -226, -48, -10],
  "SliceThickness": 2,
  "SliceTiming": [0, 0.7825, 0.0975, 0.8825, 0.195, 0.98, 0.2925, 1.0775, 0.3925, 1.175, 0.49, 1.2725, 0.5875, 1.3725, 0.685, 0, 0.7825, 0.0975, 0.8825, 0.195, 0.98, 0.2925, 1.0775, 0.3925, 1.175, 0.49, 1.2725, 0.5875, 1.3725, 0.685, 0, 0.7825, 0.0975, 0.8825, 0.195, 0.98, 0.2925, 1.0775, 0.3925, 1.175, 0.49, 1.2725, 0.5875, 1.3725, 0.685, 0, 0.7825, 0.0975, 0.8825, 0.195, 0.98, 0.2925, 1.0775, 0.3925, 1.175, 0.49, 1.2725, 0.5875, 1.3725, 0.685],
  "SoftwareVersions": "syngo_MR_E11",
  "SpacingBetweenSlices": 2,
  "StationName": "MRC35049",
  "TaskName": "things",
  "TotalReadoutTime": 0.0576811,
  "TxRefAmp": 240.738,
  "WipMemBlock": "087e03c2-cd24-438c-83c5-1bf4e618697d||Sequence: R016 ve11c/master r/e634e98; Dec 19 2017 11:00:25 by eja",
  "dcmmeta_affine": [
    [-1.9995529651641846, 0.0422336719930172, 0.0021178622264415026, 105.13571166992188],
    [0.03949914872646332, 1.9011623859405518, -0.619694709777832, -68.45989227294922],
    [0.015099192038178444, 0.6195144057273865, 1.9015713930130005, -61.848480224609375],
    [0.0, 0.0, 0.0, 1.0]
],
  "dcmmeta_reorient_transform": [
    [0.0, -1.0, 0.0, 103.0],
    [1.0, 0.0, 0.0, 0.0],
    [0.0, 0.0, 1.0, 0.0],
    [0.0, 0.0, 0.0, 1.0]
],
  "dcmmeta_shape": [104, 104, 60, 190],
  "dcmmeta_slice_dim": 2,
  "dcmmeta_version": 0.6,
  "global": {
    "const": {
      "AcquisitionMatrix": [104, 0, 0, 104],
      "AngioFlag": "N",
      "BitsAllocated": 16,
      "BitsStored": 16,
      "BodyPartExamined": "BRAIN",
      "Columns": 832,
      "EchoNumbers": 1,
      "EchoTime": 37.0,
      "EchoTrainLength": 104,
      "FlipAngle": 52.0,
      "HighBit": 15,
      "ImageOrientationPatient": [0.99977645398003, -0.0197495738841, 0.00754959591685, 0.02111683527288, 0.95058116986847, -0.3097571932329],
      "ImagePositionPatient": [-852.69609145243, -805.00523067821, 221.96863281696],
      "ImageType": [
        "ORIGINAL",
        "PRIMARY",
        "P",
        "MB",
        "ND",
        "MOSAIC"
],
      "ImagedNucleus": "1H",
      "ImagingFrequency": 123.258873,
      "InPlanePhaseEncodingDirection": "COL",
      "LargestImagePixelValue": 4095,
      "MRAcquisitionType": "2D",
      "MagneticFieldStrength": 3.0,
      "Manufacturer": "SIEMENS",
      "ManufacturerModelName": "Prisma_fit",
      "Modality": "MR",
      "NumberOfAverages": 1.0,
      "NumberOfPhaseEncodingSteps": 104,
      "PercentPhaseFieldOfView": 100.0,
      "PercentSampling": 100.0,
      "PerformedProcedureStepStartTime": "151303.672000",
      "PhotometricInterpretation": "MONOCHROME2",
      "PixelBandwidth": 2290.0,
      "PixelRepresentation": 0,
      "PixelSpacing": [2.0, 2.0],
      "ProtocolName": "func_task-things_run-2",
      "RepetitionTime": 1490.0,
      "RescaleIntercept": -4096.0,
      "RescaleSlope": 2.0,
      "RescaleType": "US",
      "Rows": 832,
      "SAR": 0.03836031773644,
      "SamplesPerPixel": 1,
      "ScanOptions": "FS",
      "ScanningSequence": "EP",
      "SequenceName": "epfid2d1_104",
      "SequenceVariant": [
        "SK",
        "SS"
],
      "SeriesDescription": "func_task-things_run-2",
      "SeriesNumber": 14,
      "SeriesTime": "152842.138000",
      "SliceLocation": -37.481202267287,
      "SliceThickness": 2.0,
      "SmallestImagePixelValue": 0,
      "SoftwareVersions": "syngo MR E11",
      "SpacingBetweenSlices": 1.9999999624466,
      "SpecificCharacterSet": "ISO_IR 100",
      "StudyID": "1",
      "StudyTime": "151303.588000",
      "TransmitCoilName": "Body",
      "VariableFlipAngleFlag": "N",
      "WindowCenterWidthExplanation": "Algo1",
      "dBdt": 0.0},
    "slices": {}
  },
  "time": {
    "samples": {
      "AcquisitionNumber": [1, 2, 3, 4, 5, 6, 7, 8, 9, 10, 11, 12, 13, 14, 15, 16, 17, 18, 19, 20, 21, 22, 23, 24, 25, 26, 27, 28, 29, 30, 31, 32, 33, 34, 35, 36, 37, 38, 39, 40, 41, 42, 43, 44, 45, 46, 47, 48, 49, 50, 51, 52, 53, 54, 55, 56, 57, 58, 59, 60, 61, 62, 63, 64, 65, 66, 67, 68, 69, 70, 71, 72, 73, 74, 75, 76, 77, 78, 79, 80, 81, 82, 83, 84, 85, 86, 87, 88, 89, 90, 91, 92, 93, 94, 95, 96, 97, 98, 99, 100, 101, 102, 103, 104, 105, 106, 107, 108, 109, 110, 111, 112, 113, 114, 115, 116, 117, 118, 119, 120, 121, 122, 123, 124, 125, 126, 127, 128, 129, 130, 131, 132, 133, 134, 135, 136, 137, 138, 139, 140, 141, 142, 143, 144, 145, 146, 147, 148, 149, 150, 151, 152, 153, 154, 155, 156, 157, 158, 159, 160, 161, 162, 163, 164, 165, 166, 167, 168, 169, 170, 171, 172, 173, 174, 175, 176, 177, 178, 179, 180, 181, 182, 183, 184, 185, 186, 187, 188, 189, 190],
      "AcquisitionTime": ["152741.070000", "152742.560000", "152744.050000", "152745.540000", "152747.030000", "152748.520000", "152750.010000", "152751.500000", "152752.990000", "152754.480000", "152755.970000", "152757.460000", "152758.950000", "152800.440000", "152801.930000", "152803.420000", "152804.910000", "152806.400000", "152807.890000", "152809.380000", "152810.870000", "152812.360000", "152813.850000", "152815.340000", "152816.830000", "152818.320000", "152819.810000", "152821.300000", "152822.790000", "152824.280000", "152825.770000", "152827.260000", "152828.750000", "152830.240000", "152831.730000", "152833.220000", "152834.710000", "152836.200000", "152837.690000", "152839.180000", "152840.670000", "152842.160000", "152843.650000", "152845.140000", "152846.630000", "152848.120000", "152849.610000", "152851.100000", "152852.590000", "152854.080000", "152855.570000", "152857.060000", "152858.550000", "152900.040000", "152901.530000", "152903.020000", "152904.510000", "152906.000000", "152907.490000", "152908.980000", "152910.470000", "152911.960000", "152913.450000", "152914.940000", "152916.430000", "152917.920000", "152919.410000", "152920.900000", "152922.390000", "152923.880000", "152925.370000", "152926.860000", "152928.350000", "152929.840000", "152931.330000", "152932.820000", "152934.310000", "152935.800000", "152937.290000", "152938.780000", "152940.270000", "152941.760000", "152943.250000", "152944.740000", "152946.230000", "152947.720000", "152949.210000", "152950.700000", "152952.190000", "152953.680000", "152955.170000", "152956.660000", "152958.150000", "152959.640000", "153001.130000", "153002.620000", "153004.110000", "153005.600000", "153007.090000", "153008.580000", "153010.070000", "153011.560000", "153013.050000", "153014.540000", "153016.030000", "153017.520000", "153019.010000", "153020.500000", "153021.990000", "153023.480000", "153024.970000", "153026.460000", "153027.950000", "153029.440000", "153030.930000", "153032.420000", "153033.910000", "153035.400000", "153036.890000", "153038.380000", "153039.870000", "153041.360000", "153042.850000", "153044.340000", "153045.830000", "153047.320000", "153048.810000", "153050.300000", "153051.790000", "153053.280000", "153054.770000", "153056.260000", "153057.750000", "153059.240000", "153100.730000", "153102.220000", "153103.710000", "153105.200000", "153106.690000", "153108.180000", "153109.670000", "153111.160000", "153112.650000", "153114.140000", "153115.630000", "153117.120000", "153118.610000", "153120.100000", "153121.590000", "153123.080000", "153124.570000", "153126.060000", "153127.550000", "153129.040000", "153130.530000", "153132.020000", "153133.510000", "153135.000000", "153136.490000", "153137.980000", "153139.470000", "153140.960000", "153142.450000", "153143.940000", "153145.430000", "153146.920000", "153148.410000", "153149.900000", "153151.390000", "153152.880000", "153154.370000", "153155.860000", "153157.350000", "153158.840000", "153200.330000", "153201.820000", "153203.310000", "153204.800000", "153206.290000", "153207.780000", "153209.270000", "153210.760000", "153212.250000", "153213.740000", "153215.230000", "153216.720000", "153218.210000", "153219.700000", "153221.190000", "153222.680000"],
      "ContentTime": ["152842.140000", "152842.143000", "152842.145000", "152842.148000", "152842.150000", "152842.152000", "152902.183000", "152902.186000", "152902.189000", "152902.191000", "152902.194000", "152902.196000", "152902.199000", "152902.201000", "152902.204000", "152902.206000", "152902.208000", "152902.211000", "152902.213000", "152902.216000", "152902.218000", "152902.221000", "152902.223000", "152902.226000", "152902.228000", "152902.235000", "152922.194000", "152922.197000", "152922.200000", "152922.202000", "152922.205000", "152922.207000", "152922.209000", "152922.212000", "152922.214000", "152922.217000", "152922.219000", "152922.222000", "152922.224000", "152922.227000", "152922.229000", "152922.232000", "152922.234000", "152922.236000", "152922.239000", "152922.241000", "152922.244000", "152942.182000", "152942.185000", "152942.187000", "152942.190000", "152942.192000", "152942.195000", "152942.197000", "152942.199000", "152942.202000", "152942.204000", "152942.207000", "152942.209000", "152942.212000", "152942.214000", "152942.217000", "152942.219000", "152942.221000", "152942.224000", "152942.226000", "152942.229000", "153002.181000", "153002.184000", "153002.186000", "153002.189000", "153002.200000", "153002.203000", "153002.205000", "153002.208000", "153002.210000", "153002.213000", "153002.215000", "153002.218000", "153002.220000", "153002.223000", "153002.225000", "153002.227000", "153002.230000", "153002.232000", "153002.235000", "153002.237000", "153022.180000", "153022.183000", "153022.185000", "153022.188000", "153022.190000", "153022.193000", "153022.195000", "153022.198000", "153022.200000", "153022.203000", "153022.205000", "153022.207000", "153022.210000", "153022.212000", "153022.215000", "153022.217000", "153022.220000", "153022.222000", "153022.225000", "153022.227000", "153102.206000", "153102.209000", "153102.212000", "153102.214000", "153102.217000", "153102.219000", "153102.222000", "153102.224000", "153102.227000", "153102.229000", "153102.232000", "153102.234000", "153102.237000", "153102.239000", "153102.242000", "153102.254000", "153102.256000", "153102.259000", "153102.261000", "153102.264000", "153102.266000", "153102.269000", "153102.271000", "153102.274000", "153102.276000", "153102.278000", "153102.281000", "153142.213000", "153142.216000", "153142.219000", "153142.221000", "153142.224000", "153142.226000", "153142.229000", "153142.231000", "153142.234000", "153142.236000", "153142.249000", "153142.251000", "153142.254000", "153142.256000", "153142.259000", "153142.261000", "153142.264000", "153142.266000", "153142.268000", "153142.271000", "153142.273000", "153142.276000", "153142.278000", "153142.281000", "153142.283000", "153142.286000", "153142.288000", "153222.215000", "153222.218000", "153222.221000", "153222.223000", "153222.226000", "153222.228000", "153222.230000", "153222.233000", "153222.235000", "153222.238000", "153222.240000", "153222.243000", "153222.245000", "153222.248000", "153222.250000", "153222.253000", "153222.255000", "153222.258000", "153222.260000", "153222.263000", "153222.265000", "153222.268000", "153222.270000", "153222.273000", "153222.275000", "153222.278000", "153225.135000", "153225.138000", "153225.140000"],
      "InstanceCreationTime": ["152842.140000", "152842.143000", "152842.145000", "152842.148000", "152842.150000", "152842.152000", "152902.183000", "152902.186000", "152902.189000", "152902.191000", "152902.194000", "152902.196000", "152902.199000", "152902.201000", "152902.204000", "152902.206000", "152902.208000", "152902.211000", "152902.213000", "152902.216000", "152902.218000", "152902.221000", "152902.223000", "152902.226000", "152902.228000", "152902.235000", "152922.194000", "152922.197000", "152922.200000", "152922.202000", "152922.205000", "152922.207000", "152922.209000", "152922.212000", "152922.214000", "152922.217000", "152922.219000", "152922.222000", "152922.224000", "152922.227000", "152922.229000", "152922.232000", "152922.234000", "152922.236000", "152922.239000", "152922.241000", "152922.244000", "152942.182000", "152942.185000", "152942.187000", "152942.190000", "152942.192000", "152942.195000", "152942.197000", "152942.199000", "152942.202000", "152942.204000", "152942.207000", "152942.209000", "152942.212000", "152942.214000", "152942.217000", "152942.219000", "152942.221000", "152942.224000", "152942.226000", "152942.229000", "153002.181000", "153002.184000", "153002.186000", "153002.189000", "153002.200000", "153002.203000", "153002.205000", "153002.208000", "153002.210000", "153002.213000", "153002.215000", "153002.218000", "153002.220000", "153002.223000", "153002.225000", "153002.227000", "153002.230000", "153002.232000", "153002.235000", "153002.237000", "153022.180000", "153022.183000", "153022.185000", "153022.188000", "153022.190000", "153022.193000", "153022.195000", "153022.198000", "153022.200000", "153022.203000", "153022.205000", "153022.207000", "153022.210000", "153022.212000", "153022.215000", "153022.217000", "153022.220000", "153022.222000", "153022.225000", "153022.227000", "153102.206000", "153102.209000", "153102.212000", "153102.214000", "153102.217000", "153102.219000", "153102.222000", "153102.224000", "153102.227000", "153102.229000", "153102.232000", "153102.234000", "153102.237000", "153102.239000", "153102.242000", "153102.254000", "153102.256000", "153102.259000", "153102.261000", "153102.264000", "153102.266000", "153102.269000", "153102.271000", "153102.274000", "153102.276000", "153102.278000", "153102.281000", "153142.213000", "153142.216000", "153142.219000", "153142.221000", "153142.224000", "153142.226000", "153142.229000", "153142.231000", "153142.234000", "153142.236000", "153142.249000", "153142.251000", "153142.254000", "153142.256000", "153142.259000", "153142.261000", "153142.264000", "153142.266000", "153142.268000", "153142.271000", "153142.273000", "153142.276000", "153142.278000", "153142.281000", "153142.283000", "153142.286000", "153142.288000", "153222.215000", "153222.218000", "153222.221000", "153222.223000", "153222.226000", "153222.228000", "153222.230000", "153222.233000", "153222.235000", "153222.238000", "153222.240000", "153222.243000", "153222.245000", "153222.248000", "153222.250000", "153222.253000", "153222.255000", "153222.258000", "153222.260000", "153222.263000", "153222.265000", "153222.268000", "153222.270000", "153222.273000", "153222.275000", "153222.278000", "153225.135000", "153225.138000", "153225.140000"],
      "InstanceNumber": [1, 2, 3, 4, 5, 6, 7, 8, 9, 10, 11, 12, 13, 14, 15, 16, 17, 18, 19, 20, 21, 22, 23, 24, 25, 26, 27, 28, 29, 30, 31, 32, 33, 34, 35, 36, 37, 38, 39, 40, 41, 42, 43, 44, 45, 46, 47, 48, 49, 50, 51, 52, 53, 54, 55, 56, 57, 58, 59, 60, 61, 62, 63, 64, 65, 66, 67, 68, 69, 70, 71, 72, 73, 74, 75, 76, 77, 78, 79, 80, 81, 82, 83, 84, 85, 86, 87, 88, 89, 90, 91, 92, 93, 94, 95, 96, 97, 98, 99, 100, 101, 102, 103, 104, 105, 106, 107, 108, 109, 110, 111, 112, 113, 114, 115, 116, 117, 118, 119, 120, 121, 122, 123, 124, 125, 126, 127, 128, 129, 130, 131, 132, 133, 134, 135, 136, 137, 138, 139, 140, 141, 142, 143, 144, 145, 146, 147, 148, 149, 150, 151, 152, 153, 154, 155, 156, 157, 158, 159, 160, 161, 162, 163, 164, 165, 166, 167, 168, 169, 170, 171, 172, 173, 174, 175, 176, 177, 178, 179, 180, 181, 182, 183, 184, 185, 186, 187, 188, 189, 190],
      "WindowCenter": [4816.0, 4792.0, 4814.0, 4816.0, 4818.0, 4820.0, 4816.0, 4814.0, 4820.0, 4790.0, 4816.0, 4818.0, 4818.0, 4818.0, 4794.0, 4818.0, 4850.0, 4882.0, 4822.0, 4790.0, 4810.0, 4810.0, 4812.0, 4792.0, 4794.0, 4820.0, 4820.0, 4826.0, 4852.0, 4818.0, 4792.0, 4814.0, 4792.0, 4812.0, 4790.0, 4794.0, 4796.0, 4820.0, 4850.0, 4822.0, 4794.0, 4790.0, 4816.0, 4816.0, 4788.0, 4814.0, 4818.0, 4818.0, 4796.0, 4822.0, 4822.0, 4816.0, 4814.0, 4818.0, 4816.0, 4814.0, 4794.0, 4814.0, 4794.0, 4818.0, 4794.0, 4794.0, 4818.0, 4816.0, 4820.0, 4816.0, 4794.0, 4848.0, 4818.0, 4794.0, 4814.0, 4794.0, 4816.0, 4818.0, 4818.0, 4818.0, 4824.0, 4820.0, 4790.0, 4816.0, 4814.0, 4790.0, 4794.0, 4792.0, 4792.0, 4820.0, 4818.0, 4814.0, 4818.0, 4820.0, 4816.0, 4816.0, 4820.0, 4818.0, 4818.0, 4792.0, 4792.0, 4850.0, 4824.0, 4814.0, 4788.0, 4792.0, 4816.0, 4816.0, 4820.0, 4822.0, 4820.0, 4822.0, 4796.0, 4792.0, 4790.0, 4824.0, 4820.0, 4794.0, 4816.0, 4820.0, 4818.0, 4794.0, 4820.0, 4816.0, 4820.0, 4820.0, 4816.0, 4820.0, 4822.0, 4794.0, 4790.0, 4794.0, 4794.0, 4794.0, 4796.0, 4820.0, 4794.0, 4850.0, 4824.0, 4792.0, 4816.0, 4794.0, 4818.0, 4816.0, 4814.0, 4792.0, 4822.0, 4820.0, 4796.0, 4818.0, 4816.0, 4796.0, 4796.0, 4792.0, 4820.0, 4848.0, 4824.0, 4790.0, 4812.0, 4814.0, 4814.0, 4816.0, 4820.0, 4796.0, 4824.0, 4798.0, 4794.0, 4818.0, 4792.0, 4790.0, 4846.0, 4822.0, 4818.0, 4816.0, 4816.0, 4818.0, 4816.0, 4794.0, 4820.0, 4796.0, 4796.0, 4820.0, 4792.0, 4794.0, 4818.0, 4816.0, 4792.0, 4816.0, 4794.0, 4796.0, 4792.0, 4820.0, 4794.0, 4794.0],
      "WindowWidth": [18582.0, 18554.0, 18586.0, 18586.0, 18586.0, 18590.0, 18588.0, 18584.0, 18590.0, 18550.0, 18586.0, 18584.0, 18588.0, 18586.0, 18558.0, 18584.0, 18632.0, 18688.0, 18592.0, 18556.0, 18592.0, 18594.0, 18594.0, 18558.0, 18554.0, 18588.0, 18588.0, 18600.0, 18636.0, 18586.0, 18556.0, 18592.0, 18552.0, 18588.0, 18558.0, 18554.0, 18556.0, 18586.0, 18648.0, 18590.0, 18552.0, 18552.0, 18582.0, 18586.0, 18554.0, 18582.0, 18586.0, 18588.0, 18558.0, 18592.0, 18590.0, 18590.0, 18586.0, 18582.0, 18584.0, 18582.0, 18550.0, 18586.0, 18554.0, 18584.0, 18554.0, 18554.0, 18584.0, 18584.0, 18588.0, 18586.0, 18554.0, 18626.0, 18588.0, 18554.0, 18586.0, 18558.0, 18584.0, 18584.0, 18584.0, 18590.0, 18588.0, 18588.0, 18550.0, 18588.0, 18588.0, 18550.0, 18556.0, 18554.0, 18550.0, 18588.0, 18586.0, 18586.0, 18588.0, 18584.0, 18590.0, 18584.0, 18586.0, 18586.0, 18588.0, 18556.0, 18556.0, 18640.0, 18590.0, 18590.0, 18552.0, 18554.0, 18588.0, 18586.0, 18582.0, 18586.0, 18586.0, 18590.0, 18556.0, 18548.0, 18552.0, 18596.0, 18586.0, 18556.0, 18590.0, 18586.0, 18584.0, 18552.0, 18586.0, 18584.0, 18586.0, 18586.0, 18580.0, 18590.0, 18586.0, 18554.0, 18556.0, 18550.0, 18552.0, 18552.0, 18556.0, 18586.0, 18552.0, 18630.0, 18590.0, 18554.0, 18584.0, 18556.0, 18584.0, 18580.0, 18580.0, 18552.0, 18588.0, 18586.0, 18554.0, 18590.0, 18584.0, 18552.0, 18552.0, 18556.0, 18588.0, 18636.0, 18590.0, 18552.0, 18588.0, 18588.0, 18586.0, 18584.0, 18588.0, 18552.0, 18588.0, 18554.0, 18554.0, 18582.0, 18554.0, 18552.0, 18628.0, 18584.0, 18582.0, 18580.0, 18586.0, 18586.0, 18582.0, 18554.0, 18584.0, 18552.0, 18554.0, 18586.0, 18554.0, 18554.0, 18584.0, 18580.0, 18558.0, 18586.0, 18554.0, 18552.0, 18554.0, 18592.0, 18556.0, 18552.0]
    },
    "slices": {}
  }
}