{
  "AcquisitionMatrixPE": 104,
  "AcquisitionNumber": 1,
  "AcquisitionTime": "15:46:44.017500",
  "BandwidthPerPixelPhaseEncode": 17.17,
  "BaseResolution": 104,
  "BodyPartExamined": "BRAIN",
  "CoilString": "HC1-7;NC1_2",
  "ConsistencyInfo": "N4_VE11C_LATEST_20160120",
  "ConversionSoftware": "dcm2niix",
  "ConversionSoftwareVersion": "v1.0.20190902",
  "DerivedVendorReportedEchoSpacing": 0.000560011,
  "DeviceSerialNumber": "167006",
  "DwellTime": 2.1e-06,
  "EchoTime": 0.037,
  "EchoTrainLength": 104,
  "EffectiveEchoSpacing": 0.000560011,
  "FlipAngle": 52,
  "ImageComments": "Unaliased_MB4_PE3_LB",
  "ImageOrientationPatientDICOM": [0.999776, -0.0197496, 0.0075496, 0.0211168, 0.950581, -0.309757],
  "ImageType": [
    "ORIGINAL",
    "PRIMARY",
    "M",
    "MB",
    "ND",
    "MOSAIC"
],
  "ImagingFrequency": 123.259,
  "InPlanePhaseEncodingDirectionDICOM": "COL",
  "InstitutionAddress": "Chemin_Queen-Mary_4565_Montreal_District_CA_H3W_1W5",
  "InstitutionName": "IUGM",
  "InstitutionalDepartmentName": "Department",
  "MRAcquisitionType": "2D",
  "MagneticFieldStrength": 3,
  "Manufacturer": "Siemens",
  "ManufacturersModelName": "Prisma_fit",
  "Modality": "MR",
  "MultibandAccelerationFactor": 4,
  "PartialFourier": 1,
  "PatientPosition": "HFS",
  "PercentPhaseFOV": 100,
  "PhaseEncodingDirection": "j",
  "PhaseEncodingSteps": 104,
  "PhaseResolution": 1,
  "PixelBandwidth": 2290,
  "ProcedureStepDescription": "memory_things",
  "ProtocolName": "func_task-things_run-5",
  "PulseSequenceDetails": "%CustomerSeq%_cmrr_mbep2d_bold",
  "ReceiveCoilActiveElements": "HC1-7;NC1,2",
  "ReceiveCoilName": "HeadNeck_64",
  "ReconMatrixPE": 104,
  "RepetitionTime": 1.49,
  "SAR": 0.0383603,
  "ScanOptions": "FS",
  "ScanningSequence": "EP",
  "SequenceName": "epfid2d1_104",
  "SequenceVariant": "SK_SS",
  "SeriesDescription": "func_task-things_run-5",
  "SeriesNumber": 22,
  "ShimSetting": [622, -7251, -8816, 630, 7, -226, -48, -10],
  "SliceThickness": 2,
  "SliceTiming": [0, 0.7825, 0.0975, 0.88, 0.195, 0.98, 0.2925, 1.0775, 0.39, 1.175, 0.49, 1.2725, 0.5875, 1.37, 0.685, 0, 0.7825, 0.0975, 0.88, 0.195, 0.98, 0.2925, 1.0775, 0.39, 1.175, 0.49, 1.2725, 0.5875, 1.37, 0.685, 0, 0.7825, 0.0975, 0.88, 0.195, 0.98, 0.2925, 1.0775, 0.39, 1.175, 0.49, 1.2725, 0.5875, 1.37, 0.685, 0, 0.7825, 0.0975, 0.88, 0.195, 0.98, 0.2925, 1.0775, 0.39, 1.175, 0.49, 1.2725, 0.5875, 1.37, 0.685],
  "SoftwareVersions": "syngo_MR_E11",
  "SpacingBetweenSlices": 2,
  "StationName": "MRC35049",
  "TaskName": "things",
  "TotalReadoutTime": 0.0576811,
  "TxRefAmp": 240.738,
  "WipMemBlock": "28f3604b-c911-4b88-8a9a-29dae713d917||Sequence: R016 ve11c/master r/e634e98; Dec 19 2017 11:00:25 by eja",
  "dcmmeta_affine": [
    [-1.9995529651641846, 0.0422336719930172, 0.0021178622264415026, 105.13571166992188],
    [0.03949914872646332, 1.9011623859405518, -0.619694709777832, -68.45989227294922],
    [0.015099192038178444, 0.6195144057273865, 1.9015713930130005, -61.848480224609375],
    [0.0, 0.0, 0.0, 1.0]
],
  "dcmmeta_reorient_transform": [
    [0.0, -1.0, 0.0, 103.0],
    [1.0, 0.0, 0.0, 0.0],
    [0.0, 0.0, 1.0, 0.0],
    [0.0, 0.0, 0.0, 1.0]
],
  "dcmmeta_shape": [104, 104, 60, 190],
  "dcmmeta_slice_dim": 2,
  "dcmmeta_version": 0.6,
  "global": {
    "const": {
      "AcquisitionMatrix": [104, 0, 0, 104],
      "AngioFlag": "N",
      "BitsAllocated": 16,
      "BitsStored": 16,
      "BodyPartExamined": "BRAIN",
      "Columns": 832,
      "EchoNumbers": 1,
      "EchoTime": 37.0,
      "EchoTrainLength": 104,
      "FlipAngle": 52.0,
      "HighBit": 15,
      "ImageOrientationPatient": [0.99977645398003, -0.0197495738841, 0.00754959591685, 0.02111683527288, 0.95058116986847, -0.3097571932329],
      "ImagePositionPatient": [-852.69609145243, -805.00523067821, 221.96863281696],
      "ImageType": [
        "ORIGINAL",
        "PRIMARY",
        "M",
        "MB",
        "ND",
        "MOSAIC"
],
      "ImagedNucleus": "1H",
      "ImagingFrequency": 123.258882,
      "InPlanePhaseEncodingDirection": "COL",
      "MRAcquisitionType": "2D",
      "MagneticFieldStrength": 3.0,
      "Manufacturer": "SIEMENS",
      "ManufacturerModelName": "Prisma_fit",
      "Modality": "MR",
      "NumberOfAverages": 1.0,
      "NumberOfPhaseEncodingSteps": 104,
      "PercentPhaseFieldOfView": 100.0,
      "PercentSampling": 100.0,
      "PerformedProcedureStepStartTime": "151303.672000",
      "PhotometricInterpretation": "MONOCHROME2",
      "PixelBandwidth": 2290.0,
      "PixelRepresentation": 0,
      "PixelSpacing": [2.0, 2.0],
      "ProtocolName": "func_task-things_run-5",
      "RepetitionTime": 1490.0,
      "Rows": 832,
      "SAR": 0.03836031773644,
      "SamplesPerPixel": 1,
      "ScanOptions": "FS",
      "ScanningSequence": "EP",
      "SequenceName": "epfid2d1_104",
      "SequenceVariant": [
        "SK",
        "SS"
],
      "SeriesDescription": "func_task-things_run-5",
      "SeriesNumber": 22,
      "SeriesTime": "154802.115000",
      "SliceLocation": -37.481202267287,
      "SliceThickness": 2.0,
      "SmallestImagePixelValue": 0,
      "SoftwareVersions": "syngo MR E11",
      "SpacingBetweenSlices": 1.9999999624466,
      "SpecificCharacterSet": "ISO_IR 100",
      "StudyID": "1",
      "StudyTime": "151303.588000",
      "TransmitCoilName": "Body",
      "VariableFlipAngleFlag": "N",
      "WindowCenterWidthExplanation": "Algo1",
      "dBdt": 0.0},
    "slices": {}
  },
  "time": {
    "samples": {
      "AcquisitionNumber": [1, 2, 3, 4, 5, 6, 7, 8, 9, 10, 11, 12, 13, 14, 15, 16, 17, 18, 19, 20, 21, 22, 23, 24, 25, 26, 27, 28, 29, 30, 31, 32, 33, 34, 35, 36, 37, 38, 39, 40, 41, 42, 43, 44, 45, 46, 47, 48, 49, 50, 51, 52, 53, 54, 55, 56, 57, 58, 59, 60, 61, 62, 63, 64, 65, 66, 67, 68, 69, 70, 71, 72, 73, 74, 75, 76, 77, 78, 79, 80, 81, 82, 83, 84, 85, 86, 87, 88, 89, 90, 91, 92, 93, 94, 95, 96, 97, 98, 99, 100, 101, 102, 103, 104, 105, 106, 107, 108, 109, 110, 111, 112, 113, 114, 115, 116, 117, 118, 119, 120, 121, 122, 123, 124, 125, 126, 127, 128, 129, 130, 131, 132, 133, 134, 135, 136, 137, 138, 139, 140, 141, 142, 143, 144, 145, 146, 147, 148, 149, 150, 151, 152, 153, 154, 155, 156, 157, 158, 159, 160, 161, 162, 163, 164, 165, 166, 167, 168, 169, 170, 171, 172, 173, 174, 175, 176, 177, 178, 179, 180, 181, 182, 183, 184, 185, 186, 187, 188, 189, 190],
      "AcquisitionTime": ["154644.017500", "154645.507500", "154646.997500", "154648.487500", "154649.977500", "154651.467500", "154652.957500", "154654.447500", "154655.937500", "154657.427500", "154658.917500", "154700.407500", "154701.897500", "154703.387500", "154704.877500", "154706.367500", "154707.857500", "154709.347500", "154710.837500", "154712.327500", "154713.817500", "154715.307500", "154716.797500", "154718.287500", "154719.777500", "154721.267500", "154722.757500", "154724.247500", "154725.737500", "154727.227500", "154728.717500", "154730.207500", "154731.697500", "154733.187500", "154734.677500", "154736.167500", "154737.657500", "154739.147500", "154740.637500", "154742.127500", "154743.617500", "154745.107500", "154746.597500", "154748.087500", "154749.577500", "154751.067500", "154752.557500", "154754.047500", "154755.537500", "154757.027500", "154758.517500", "154800.007500", "154801.497500", "154802.987500", "154804.477500", "154805.967500", "154807.457500", "154808.947500", "154810.437500", "154811.927500", "154813.417500", "154814.907500", "154816.397500", "154817.887500", "154819.377500", "154820.867500", "154822.357500", "154823.847500", "154825.337500", "154826.827500", "154828.317500", "154829.807500", "154831.297500", "154832.787500", "154834.277500", "154835.767500", "154837.257500", "154838.747500", "154840.237500", "154841.727500", "154843.217500", "154844.707500", "154846.197500", "154847.687500", "154849.177500", "154850.667500", "154852.157500", "154853.647500", "154855.137500", "154856.627500", "154858.117500", "154859.607500", "154901.097500", "154902.587500", "154904.077500", "154905.567500", "154907.057500", "154908.547500", "154910.037500", "154911.527500", "154913.017500", "154914.507500", "154915.997500", "154917.487500", "154918.977500", "154920.467500", "154921.957500", "154923.447500", "154924.937500", "154926.427500", "154927.917500", "154929.407500", "154930.897500", "154932.387500", "154933.877500", "154935.367500", "154936.857500", "154938.347500", "154939.837500", "154941.327500", "154942.817500", "154944.307500", "154945.797500", "154947.287500", "154948.777500", "154950.267500", "154951.757500", "154953.247500", "154954.737500", "154956.227500", "154957.717500", "154959.207500", "155000.697500", "155002.187500", "155003.677500", "155005.167500", "155006.657500", "155008.147500", "155009.637500", "155011.127500", "155012.617500", "155014.107500", "155015.597500", "155017.087500", "155018.577500", "155020.067500", "155021.557500", "155023.047500", "155024.537500", "155026.027500", "155027.517500", "155029.007500", "155030.497500", "155031.987500", "155033.477500", "155034.967500", "155036.457500", "155037.947500", "155039.437500", "155040.927500", "155042.417500", "155043.907500", "155045.397500", "155046.887500", "155048.377500", "155049.867500", "155051.357500", "155052.847500", "155054.337500", "155055.827500", "155057.317500", "155058.807500", "155100.297500", "155101.787500", "155103.277500", "155104.767500", "155106.257500", "155107.747500", "155109.237500", "155110.727500", "155112.217500", "155113.707500", "155115.197500", "155116.687500", "155118.177500", "155119.667500", "155121.157500", "155122.647500", "155124.137500", "155125.627500"],
      "ContentTime": ["154802.118000", "154802.122000", "154802.125000", "154802.128000", "154802.132000", "154802.135000", "154802.138000", "154802.142000", "154802.145000", "154802.148000", "154802.151000", "154802.155000", "154802.158000", "154802.161000", "154802.164000", "154802.168000", "154802.171000", "154802.174000", "154802.177000", "154802.180000", "154802.184000", "154802.195000", "154822.073000", "154822.077000", "154822.080000", "154822.083000", "154822.086000", "154822.090000", "154822.093000", "154822.096000", "154822.099000", "154822.103000", "154822.106000", "154822.109000", "154822.112000", "154822.116000", "154822.119000", "154822.122000", "154822.125000", "154822.128000", "154822.132000", "154822.135000", "154842.073000", "154842.077000", "154842.080000", "154842.083000", "154842.086000", "154842.090000", "154842.093000", "154842.096000", "154842.099000", "154842.103000", "154842.106000", "154842.109000", "154842.112000", "154842.116000", "154842.119000", "154842.122000", "154842.125000", "154842.128000", "154842.132000", "154842.135000", "154902.073000", "154902.077000", "154902.080000", "154902.083000", "154902.086000", "154902.090000", "154902.093000", "154902.096000", "154902.099000", "154902.103000", "154902.106000", "154902.109000", "154902.112000", "154902.116000", "154902.119000", "154902.122000", "154902.125000", "154902.129000", "154902.132000", "154902.149000", "154902.152000", "154922.072000", "154922.076000", "154922.079000", "154922.082000", "154922.086000", "154922.089000", "154922.092000", "154922.095000", "154922.099000", "154922.102000", "154922.105000", "154922.108000", "154922.112000", "154922.115000", "154922.118000", "154922.121000", "154922.125000", "154922.128000", "154922.131000", "154922.135000", "155002.073000", "155002.077000", "155002.080000", "155002.083000", "155002.087000", "155002.090000", "155002.093000", "155002.096000", "155002.100000", "155002.103000", "155002.106000", "155002.109000", "155002.113000", "155002.116000", "155002.119000", "155002.122000", "155002.126000", "155002.129000", "155002.132000", "155002.135000", "155002.139000", "155002.142000", "155002.145000", "155002.148000", "155002.152000", "155002.155000", "155002.158000", "155002.162000", "155002.165000", "155042.073000", "155042.077000", "155042.080000", "155042.083000", "155042.087000", "155042.090000", "155042.093000", "155042.096000", "155042.101000", "155042.104000", "155042.107000", "155042.111000", "155042.114000", "155042.117000", "155042.120000", "155042.124000", "155042.127000", "155042.130000", "155042.134000", "155042.137000", "155042.140000", "155042.143000", "155042.147000", "155042.150000", "155042.153000", "155042.156000", "155042.160000", "155122.073000", "155122.077000", "155122.080000", "155122.083000", "155122.086000", "155122.090000", "155122.093000", "155122.096000", "155122.099000", "155122.103000", "155122.106000", "155122.109000", "155122.112000", "155122.116000", "155122.119000", "155122.122000", "155122.126000", "155122.129000", "155122.132000", "155122.135000", "155122.138000", "155122.142000", "155122.164000", "155122.168000", "155122.171000", "155122.174000", "155122.178000", "155127.785000", "155127.788000", "155127.791000", "155127.795000"],
      "InstanceCreationTime": ["154802.118000", "154802.122000", "154802.125000", "154802.128000", "154802.132000", "154802.135000", "154802.138000", "154802.142000", "154802.145000", "154802.148000", "154802.151000", "154802.155000", "154802.158000", "154802.161000", "154802.164000", "154802.168000", "154802.171000", "154802.174000", "154802.177000", "154802.180000", "154802.184000", "154802.195000", "154822.073000", "154822.077000", "154822.080000", "154822.083000", "154822.086000", "154822.090000", "154822.093000", "154822.096000", "154822.099000", "154822.103000", "154822.106000", "154822.109000", "154822.112000", "154822.116000", "154822.119000", "154822.122000", "154822.125000", "154822.128000", "154822.132000", "154822.135000", "154842.073000", "154842.077000", "154842.080000", "154842.083000", "154842.086000", "154842.090000", "154842.093000", "154842.096000", "154842.099000", "154842.103000", "154842.106000", "154842.109000", "154842.112000", "154842.116000", "154842.119000", "154842.122000", "154842.125000", "154842.128000", "154842.132000", "154842.135000", "154902.073000", "154902.077000", "154902.080000", "154902.083000", "154902.086000", "154902.090000", "154902.093000", "154902.096000", "154902.099000", "154902.103000", "154902.106000", "154902.109000", "154902.112000", "154902.116000", "154902.119000", "154902.122000", "154902.125000", "154902.129000", "154902.132000", "154902.149000", "154902.152000", "154922.072000", "154922.076000", "154922.079000", "154922.082000", "154922.086000", "154922.089000", "154922.092000", "154922.095000", "154922.099000", "154922.102000", "154922.105000", "154922.108000", "154922.112000", "154922.115000", "154922.118000", "154922.121000", "154922.125000", "154922.128000", "154922.131000", "154922.135000", "155002.073000", "155002.077000", "155002.080000", "155002.083000", "155002.087000", "155002.090000", "155002.093000", "155002.096000", "155002.100000", "155002.103000", "155002.106000", "155002.109000", "155002.113000", "155002.116000", "155002.119000", "155002.122000", "155002.126000", "155002.129000", "155002.132000", "155002.135000", "155002.139000", "155002.142000", "155002.145000", "155002.148000", "155002.152000", "155002.155000", "155002.158000", "155002.162000", "155002.165000", "155042.073000", "155042.077000", "155042.080000", "155042.083000", "155042.087000", "155042.090000", "155042.093000", "155042.096000", "155042.101000", "155042.104000", "155042.107000", "155042.111000", "155042.114000", "155042.117000", "155042.120000", "155042.124000", "155042.127000", "155042.130000", "155042.134000", "155042.137000", "155042.140000", "155042.143000", "155042.147000", "155042.150000", "155042.153000", "155042.156000", "155042.160000", "155122.073000", "155122.077000", "155122.080000", "155122.083000", "155122.086000", "155122.090000", "155122.093000", "155122.096000", "155122.099000", "155122.103000", "155122.106000", "155122.109000", "155122.112000", "155122.116000", "155122.119000", "155122.122000", "155122.126000", "155122.129000", "155122.132000", "155122.135000", "155122.138000", "155122.142000", "155122.164000", "155122.168000", "155122.171000", "155122.174000", "155122.178000", "155127.785000", "155127.788000", "155127.791000", "155127.795000"],
      "InstanceNumber": [1, 2, 3, 4, 5, 6, 7, 8, 9, 10, 11, 12, 13, 14, 15, 16, 17, 18, 19, 20, 21, 22, 23, 24, 25, 26, 27, 28, 29, 30, 31, 32, 33, 34, 35, 36, 37, 38, 39, 40, 41, 42, 43, 44, 45, 46, 47, 48, 49, 50, 51, 52, 53, 54, 55, 56, 57, 58, 59, 60, 61, 62, 63, 64, 65, 66, 67, 68, 69, 70, 71, 72, 73, 74, 75, 76, 77, 78, 79, 80, 81, 82, 83, 84, 85, 86, 87, 88, 89, 90, 91, 92, 93, 94, 95, 96, 97, 98, 99, 100, 101, 102, 103, 104, 105, 106, 107, 108, 109, 110, 111, 112, 113, 114, 115, 116, 117, 118, 119, 120, 121, 122, 123, 124, 125, 126, 127, 128, 129, 130, 131, 132, 133, 134, 135, 136, 137, 138, 139, 140, 141, 142, 143, 144, 145, 146, 147, 148, 149, 150, 151, 152, 153, 154, 155, 156, 157, 158, 159, 160, 161, 162, 163, 164, 165, 166, 167, 168, 169, 170, 171, 172, 173, 174, 175, 176, 177, 178, 179, 180, 181, 182, 183, 184, 185, 186, 187, 188, 189, 190],
      "LargestImagePixelValue": [41067, 39884, 38877, 37794, 37885, 38149, 38368, 38163, 38201, 37976, 37491, 38182, 38350, 38069, 37732, 37527, 38303, 38288, 37963, 38467, 38371, 38309, 37604, 38536, 37983, 37292, 37783, 37439, 37483, 37950, 38064, 38459, 38585, 38234, 37984, 38046, 37788, 38154, 38050, 38080, 37969, 37604, 37942, 37763, 38083, 38203, 38398, 38164, 38269, 37956, 37347, 37436, 37454, 37959, 38080, 38386, 38667, 37964, 37480, 37750, 37871, 37665, 37357, 37508, 37298, 38102, 38502, 38692, 38910, 38767, 38639, 38151, 38368, 37856, 38498, 38657, 37845, 37567, 37498, 37571, 37983, 37877, 37759, 38422, 37724, 38095, 37671, 37824, 38748, 37676, 37730, 37763, 38298, 38172, 38057, 38255, 37721, 37402, 37963, 37791, 37186, 37751, 39161, 37942, 37780, 38075, 38751, 38540, 38156, 37719, 37976, 38628, 38280, 38010, 38335, 38750, 37960, 38661, 38451, 38944, 38634, 38783, 38531, 38215, 38326, 38498, 38386, 38301, 37774, 37950, 38578, 37919, 37691, 38401, 37698, 38244, 37671, 37588, 38243, 38030, 37313, 38460, 37411, 37741, 38026, 38351, 38101, 37850, 38464, 38011, 38889, 38429, 38313, 38052, 38333, 37708, 38445, 38230, 38276, 37880, 38252, 38210, 38154, 38049, 38494, 38151, 38354, 38021, 37841, 38121, 38310, 37265, 38427, 37754, 38072, 37002, 37751, 38648, 38183, 38121, 38411, 38092, 38419, 38001, 37153, 36742, 35515, 36755, 37083, 36806],
      "WindowCenter": [10093.0, 10031.0, 9998.0, 9977.0, 9981.0, 10012.0, 10011.0, 9988.0, 9972.0, 9952.0, 9961.0, 9974.0, 9983.0, 9976.0, 9955.0, 9953.0, 9957.0, 9956.0, 9950.0, 9956.0, 9965.0, 9974.0, 9953.0, 9975.0, 9972.0, 9961.0, 9960.0, 9939.0, 9928.0, 9925.0, 9924.0, 9917.0, 9922.0, 9916.0, 9918.0, 9927.0, 9936.0, 9963.0, 9970.0, 9993.0, 9989.0, 9980.0, 9992.0, 9999.0, 10014.0, 10000.0, 9981.0, 9971.0, 9989.0, 9965.0, 9951.0, 9927.0, 9917.0, 9930.0, 9945.0, 9953.0, 9975.0, 9977.0, 9967.0, 9956.0, 9943.0, 9970.0, 9979.0, 9956.0, 9927.0, 9924.0, 9924.0, 9905.0, 9881.0, 9878.0, 9892.0, 9899.0, 9917.0, 9919.0, 9940.0, 9961.0, 9962.0, 9964.0, 9964.0, 9969.0, 9971.0, 9962.0, 9948.0, 9956.0, 9952.0, 9975.0, 9991.0, 10024.0, 10021.0, 10017.0, 10008.0, 9989.0, 9970.0, 9952.0, 9960.0, 9982.0, 9994.0, 10008.0, 10009.0, 9993.0, 9979.0, 9987.0, 9998.0, 9985.0, 9988.0, 9991.0, 9984.0, 9974.0, 9985.0, 9992.0, 9980.0, 9991.0, 9982.0, 9984.0, 9976.0, 9977.0, 9973.0, 9980.0, 9965.0, 9946.0, 9947.0, 9946.0, 9942.0, 9935.0, 9940.0, 9949.0, 9966.0, 9984.0, 9987.0, 10003.0, 10009.0, 9997.0, 10004.0, 10020.0, 10015.0, 10029.0, 10006.0, 9985.0, 9985.0, 9977.0, 9979.0, 9994.0, 9967.0, 9975.0, 9985.0, 9993.0, 9981.0, 9972.0, 9962.0, 9951.0, 9963.0, 9964.0, 9979.0, 9983.0, 9975.0, 9976.0, 9977.0, 9969.0, 9965.0, 9968.0, 9970.0, 9961.0, 9961.0, 9967.0, 9982.0, 9998.0, 9994.0, 9978.0, 9970.0, 9977.0, 9992.0, 9994.0, 10007.0, 10005.0, 10001.0, 9988.0, 9960.0, 9974.0, 9959.0, 9936.0, 9915.0, 9923.0, 9971.0, 9960.0, 9954.0, 9929.0, 9896.0, 9881.0, 9869.0, 9854.0],
      "WindowWidth": [21708.0, 21532.0, 21440.0, 21383.0, 21380.0, 21440.0, 21436.0, 21383.0, 21348.0, 21303.0, 21325.0, 21349.0, 21370.0, 21353.0, 21310.0, 21306.0, 21311.0, 21308.0, 21295.0, 21308.0, 21330.0, 21348.0, 21306.0, 21357.0, 21350.0, 21327.0, 21320.0, 21279.0, 21251.0, 21242.0, 21236.0, 21224.0, 21231.0, 21223.0, 21229.0, 21251.0, 21271.0, 21334.0, 21350.0, 21402.0, 21394.0, 21372.0, 21397.0, 21417.0, 21451.0, 21419.0, 21375.0, 21352.0, 21388.0, 21340.0, 21311.0, 21259.0, 21237.0, 21260.0, 21293.0, 21308.0, 21357.0, 21363.0, 21345.0, 21316.0, 21294.0, 21349.0, 21373.0, 21316.0, 21249.0, 21236.0, 21236.0, 21195.0, 21141.0, 21134.0, 21162.0, 21186.0, 21227.0, 21234.0, 21277.0, 21328.0, 21337.0, 21337.0, 21335.0, 21341.0, 21342.0, 21325.0, 21294.0, 21305.0, 21302.0, 21355.0, 21397.0, 21476.0, 21460.0, 21454.0, 21429.0, 21384.0, 21338.0, 21302.0, 21321.0, 21367.0, 21399.0, 21432.0, 21433.0, 21400.0, 21371.0, 21382.0, 21404.0, 21375.0, 21384.0, 21389.0, 21372.0, 21348.0, 21373.0, 21395.0, 21365.0, 21391.0, 21369.0, 21374.0, 21353.0, 21352.0, 21347.0, 21358.0, 21328.0, 21282.0, 21285.0, 21284.0, 21281.0, 21267.0, 21275.0, 21294.0, 21333.0, 21374.0, 21384.0, 21416.0, 21427.0, 21404.0, 21418.0, 21454.0, 21445.0, 21469.0, 21424.0, 21379.0, 21376.0, 21357.0, 21365.0, 21397.0, 21346.0, 21356.0, 21374.0, 21393.0, 21370.0, 21350.0, 21328.0, 21302.0, 21323.0, 21328.0, 21357.0, 21368.0, 21352.0, 21353.0, 21355.0, 21341.0, 21329.0, 21339.0, 21343.0, 21324.0, 21322.0, 21338.0, 21366.0, 21401.0, 21393.0, 21359.0, 21345.0, 21359.0, 21391.0, 21403.0, 21426.0, 21427.0, 21417.0, 21384.0, 21311.0, 21341.0, 21310.0, 21260.0, 21213.0, 21239.0, 21350.0, 21324.0, 21325.0, 21247.0, 21175.0, 21138.0, 21107.0, 21075.0]
    },
    "slices": {}
  }
}