{
  "AcquisitionMatrixPE": 104,
  "AcquisitionNumber": 1,
  "AcquisitionTime": "15:34:7.497500",
  "BandwidthPerPixelPhaseEncode": 17.17,
  "BaseResolution": 104,
  "BodyPartExamined": "BRAIN",
  "CoilString": "HC1-7;NC1_2",
  "ConsistencyInfo": "N4_VE11C_LATEST_20160120",
  "ConversionSoftware": "dcm2niix",
  "ConversionSoftwareVersion": "v1.0.20190902",
  "DerivedVendorReportedEchoSpacing": 0.000560011,
  "DeviceSerialNumber": "167006",
  "DwellTime": 2.1e-06,
  "EchoTime": 0.037,
  "EchoTrainLength": 104,
  "EffectiveEchoSpacing": 0.000560011,
  "FlipAngle": 52,
  "ImageComments": "Unaliased_MB4_PE3_LB",
  "ImageOrientationPatientDICOM": [0.999776, -0.0197496, 0.0075496, 0.0211168, 0.950581, -0.309757],
  "ImageType": [
    "ORIGINAL",
    "PRIMARY",
    "P",
    "MB",
    "ND",
    "MOSAIC"
],
  "ImagingFrequency": 123.259,
  "InPlanePhaseEncodingDirectionDICOM": "COL",
  "InstitutionAddress": "Chemin_Queen-Mary_4565_Montreal_District_CA_H3W_1W5",
  "InstitutionName": "IUGM",
  "InstitutionalDepartmentName": "Department",
  "MRAcquisitionType": "2D",
  "MagneticFieldStrength": 3,
  "Manufacturer": "Siemens",
  "ManufacturersModelName": "Prisma_fit",
  "Modality": "MR",
  "MultibandAccelerationFactor": 4,
  "PartialFourier": 1,
  "PatientPosition": "HFS",
  "PercentPhaseFOV": 100,
  "PhaseEncodingDirection": "j",
  "PhaseEncodingSteps": 104,
  "PhaseResolution": 1,
  "PixelBandwidth": 2290,
  "ProcedureStepDescription": "memory_things",
  "ProtocolName": "func_task-things_run-3",
  "PulseSequenceDetails": "%CustomerSeq%_cmrr_mbep2d_bold",
  "ReceiveCoilActiveElements": "HC1-7;NC1,2",
  "ReceiveCoilName": "HeadNeck_64",
  "ReconMatrixPE": 104,
  "RepetitionTime": 1.49,
  "SAR": 0.0383603,
  "ScanOptions": "FS",
  "ScanningSequence": "EP",
  "SequenceName": "epfid2d1_104",
  "SequenceVariant": "SK_SS",
  "SeriesDescription": "func_task-things_run-3",
  "SeriesNumber": 17,
  "ShimSetting": [622, -7251, -8816, 630, 7, -226, -48, -10],
  "SliceThickness": 2,
  "SliceTiming": [0, 0.785, 0.0975, 0.8825, 0.1975, 0.98, 0.295, 1.0775, 0.3925, 1.1775, 0.49, 1.275, 0.5875, 1.3725, 0.6875, 0, 0.785, 0.0975, 0.8825, 0.1975, 0.98, 0.295, 1.0775, 0.3925, 1.1775, 0.49, 1.275, 0.5875, 1.3725, 0.6875, 0, 0.785, 0.0975, 0.8825, 0.1975, 0.98, 0.295, 1.0775, 0.3925, 1.1775, 0.49, 1.275, 0.5875, 1.3725, 0.6875, 0, 0.785, 0.0975, 0.8825, 0.1975, 0.98, 0.295, 1.0775, 0.3925, 1.1775, 0.49, 1.275, 0.5875, 1.3725, 0.6875],
  "SoftwareVersions": "syngo_MR_E11",
  "SpacingBetweenSlices": 2,
  "StationName": "MRC35049",
  "TaskName": "things",
  "TotalReadoutTime": 0.0576811,
  "TxRefAmp": 240.738,
  "WipMemBlock": "50d03349-9603-46df-b939-6ebc36b5c323||Sequence: R016 ve11c/master r/e634e98; Dec 19 2017 11:00:25 by eja",
  "dcmmeta_affine": [
    [-1.9995529651641846, 0.0422336719930172, 0.0021178622264415026, 105.13571166992188],
    [0.03949914872646332, 1.9011623859405518, -0.619694709777832, -68.45989227294922],
    [0.015099192038178444, 0.6195144057273865, 1.9015713930130005, -61.848480224609375],
    [0.0, 0.0, 0.0, 1.0]
],
  "dcmmeta_reorient_transform": [
    [0.0, -1.0, 0.0, 103.0],
    [1.0, 0.0, 0.0, 0.0],
    [0.0, 0.0, 1.0, 0.0],
    [0.0, 0.0, 0.0, 1.0]
],
  "dcmmeta_shape": [104, 104, 60, 190],
  "dcmmeta_slice_dim": 2,
  "dcmmeta_version": 0.6,
  "global": {
    "const": {
      "AcquisitionMatrix": [104, 0, 0, 104],
      "AngioFlag": "N",
      "BitsAllocated": 16,
      "BitsStored": 16,
      "BodyPartExamined": "BRAIN",
      "Columns": 832,
      "EchoNumbers": 1,
      "EchoTime": 37.0,
      "EchoTrainLength": 104,
      "FlipAngle": 52.0,
      "HighBit": 15,
      "ImageOrientationPatient": [0.99977645398003, -0.0197495738841, 0.00754959591685, 0.02111683527288, 0.95058116986847, -0.3097571932329],
      "ImagePositionPatient": [-852.69609145243, -805.00523067821, 221.96863281696],
      "ImageType": [
        "ORIGINAL",
        "PRIMARY",
        "P",
        "MB",
        "ND",
        "MOSAIC"
],
      "ImagedNucleus": "1H",
      "ImagingFrequency": 123.258876,
      "InPlanePhaseEncodingDirection": "COL",
      "LargestImagePixelValue": 4095,
      "MRAcquisitionType": "2D",
      "MagneticFieldStrength": 3.0,
      "Manufacturer": "SIEMENS",
      "ManufacturerModelName": "Prisma_fit",
      "Modality": "MR",
      "NumberOfAverages": 1.0,
      "NumberOfPhaseEncodingSteps": 104,
      "PercentPhaseFieldOfView": 100.0,
      "PercentSampling": 100.0,
      "PerformedProcedureStepStartTime": "151303.672000",
      "PhotometricInterpretation": "MONOCHROME2",
      "PixelBandwidth": 2290.0,
      "PixelRepresentation": 0,
      "PixelSpacing": [2.0, 2.0],
      "ProtocolName": "func_task-things_run-3",
      "RepetitionTime": 1490.0,
      "RescaleIntercept": -4096.0,
      "RescaleSlope": 2.0,
      "RescaleType": "US",
      "Rows": 832,
      "SAR": 0.03836031773644,
      "SamplesPerPixel": 1,
      "ScanOptions": "FS",
      "ScanningSequence": "EP",
      "SequenceName": "epfid2d1_104",
      "SequenceVariant": [
        "SK",
        "SS"
],
      "SeriesDescription": "func_task-things_run-3",
      "SeriesNumber": 17,
      "SeriesTime": "153539.073000",
      "SliceLocation": -37.481202267287,
      "SliceThickness": 2.0,
      "SmallestImagePixelValue": 0,
      "SoftwareVersions": "syngo MR E11",
      "SpacingBetweenSlices": 1.9999999624466,
      "SpecificCharacterSet": "ISO_IR 100",
      "StudyID": "1",
      "StudyTime": "151303.588000",
      "TransmitCoilName": "Body",
      "VariableFlipAngleFlag": "N",
      "WindowCenterWidthExplanation": "Algo1",
      "dBdt": 0.0},
    "slices": {}
  },
  "time": {
    "samples": {
      "AcquisitionNumber": [1, 2, 3, 4, 5, 6, 7, 8, 9, 10, 11, 12, 13, 14, 15, 16, 17, 18, 19, 20, 21, 22, 23, 24, 25, 26, 27, 28, 29, 30, 31, 32, 33, 34, 35, 36, 37, 38, 39, 40, 41, 42, 43, 44, 45, 46, 47, 48, 49, 50, 51, 52, 53, 54, 55, 56, 57, 58, 59, 60, 61, 62, 63, 64, 65, 66, 67, 68, 69, 70, 71, 72, 73, 74, 75, 76, 77, 78, 79, 80, 81, 82, 83, 84, 85, 86, 87, 88, 89, 90, 91, 92, 93, 94, 95, 96, 97, 98, 99, 100, 101, 102, 103, 104, 105, 106, 107, 108, 109, 110, 111, 112, 113, 114, 115, 116, 117, 118, 119, 120, 121, 122, 123, 124, 125, 126, 127, 128, 129, 130, 131, 132, 133, 134, 135, 136, 137, 138, 139, 140, 141, 142, 143, 144, 145, 146, 147, 148, 149, 150, 151, 152, 153, 154, 155, 156, 157, 158, 159, 160, 161, 162, 163, 164, 165, 166, 167, 168, 169, 170, 171, 172, 173, 174, 175, 176, 177, 178, 179, 180, 181, 182, 183, 184, 185, 186, 187, 188, 189, 190],
      "AcquisitionTime": ["153407.497500", "153408.987500", "153410.477500", "153411.967500", "153413.457500", "153414.947500", "153416.437500", "153417.927500", "153419.417500", "153420.907500", "153422.397500", "153423.887500", "153425.377500", "153426.867500", "153428.357500", "153429.847500", "153431.337500", "153432.827500", "153434.317500", "153435.807500", "153437.297500", "153438.787500", "153440.277500", "153441.767500", "153443.257500", "153444.747500", "153446.237500", "153447.727500", "153449.217500", "153450.707500", "153452.197500", "153453.687500", "153455.177500", "153456.667500", "153458.157500", "153459.647500", "153501.137500", "153502.627500", "153504.117500", "153505.607500", "153507.097500", "153508.587500", "153510.077500", "153511.567500", "153513.057500", "153514.547500", "153516.037500", "153517.527500", "153519.017500", "153520.507500", "153521.997500", "153523.487500", "153524.977500", "153526.467500", "153527.957500", "153529.447500", "153530.937500", "153532.427500", "153533.917500", "153535.407500", "153536.897500", "153538.387500", "153539.877500", "153541.367500", "153542.857500", "153544.347500", "153545.837500", "153547.327500", "153548.817500", "153550.307500", "153551.797500", "153553.287500", "153554.777500", "153556.267500", "153557.757500", "153559.247500", "153600.737500", "153602.227500", "153603.717500", "153605.207500", "153606.697500", "153608.187500", "153609.677500", "153611.167500", "153612.657500", "153614.147500", "153615.637500", "153617.127500", "153618.617500", "153620.107500", "153621.597500", "153623.087500", "153624.577500", "153626.067500", "153627.557500", "153629.047500", "153630.537500", "153632.027500", "153633.517500", "153635.007500", "153636.497500", "153637.987500", "153639.477500", "153640.967500", "153642.457500", "153643.947500", "153645.437500", "153646.927500", "153648.417500", "153649.907500", "153651.397500", "153652.887500", "153654.377500", "153655.867500", "153657.357500", "153658.847500", "153700.337500", "153701.827500", "153703.317500", "153704.807500", "153706.297500", "153707.787500", "153709.277500", "153710.767500", "153712.257500", "153713.747500", "153715.237500", "153716.727500", "153718.217500", "153719.707500", "153721.197500", "153722.687500", "153724.177500", "153725.667500", "153727.157500", "153728.647500", "153730.137500", "153731.627500", "153733.117500", "153734.607500", "153736.097500", "153737.587500", "153739.077500", "153740.567500", "153742.057500", "153743.547500", "153745.037500", "153746.527500", "153748.017500", "153749.507500", "153750.997500", "153752.487500", "153753.977500", "153755.467500", "153756.957500", "153758.447500", "153759.937500", "153801.427500", "153802.917500", "153804.407500", "153805.897500", "153807.387500", "153808.877500", "153810.367500", "153811.857500", "153813.347500", "153814.837500", "153816.327500", "153817.817500", "153819.307500", "153820.797500", "153822.287500", "153823.777500", "153825.267500", "153826.757500", "153828.247500", "153829.737500", "153831.227500", "153832.717500", "153834.207500", "153835.697500", "153837.187500", "153838.677500", "153840.167500", "153841.657500", "153843.147500", "153844.637500", "153846.127500", "153847.617500", "153849.107500"],
      "ContentTime": ["153539.075000", "153539.078000", "153539.080000", "153539.083000", "153539.085000", "153539.088000", "153539.090000", "153539.093000", "153539.095000", "153539.098000", "153539.100000", "153539.103000", "153539.105000", "153539.108000", "153539.110000", "153539.113000", "153539.115000", "153539.118000", "153539.120000", "153539.123000", "153539.125000", "153539.128000", "153539.130000", "153539.133000", "153539.135000", "153539.138000", "153539.140000", "153539.143000", "153539.145000", "153539.147000", "153539.150000", "153539.152000", "153539.155000", "153539.157000", "153539.160000", "153539.162000", "153539.165000", "153539.167000", "153558.964000", "153558.966000", "153558.969000", "153558.971000", "153558.974000", "153558.976000", "153558.979000", "153558.981000", "153558.984000", "153558.986000", "153558.989000", "153558.991000", "153558.994000", "153558.996000", "153558.998000", "153559.002000", "153559.004000", "153559.007000", "153559.009000", "153559.012000", "153618.981000", "153618.984000", "153618.986000", "153618.989000", "153618.991000", "153618.994000", "153618.996000", "153618.999000", "153619.001000", "153619.004000", "153619.006000", "153619.008000", "153619.011000", "153619.013000", "153619.016000", "153619.018000", "153619.021000", "153619.023000", "153619.026000", "153619.028000", "153638.980000", "153638.983000", "153638.986000", "153638.990000", "153638.993000", "153638.995000", "153639.000000", "153639.002000", "153639.005000", "153639.007000", "153639.010000", "153639.012000", "153639.015000", "153639.017000", "153639.020000", "153639.022000", "153639.024000", "153639.027000", "153639.029000", "153639.032000", "153719.005000", "153719.008000", "153719.010000", "153719.013000", "153719.015000", "153719.018000", "153719.020000", "153719.023000", "153719.025000", "153719.028000", "153719.030000", "153719.033000", "153719.035000", "153719.038000", "153719.040000", "153719.042000", "153719.045000", "153719.047000", "153719.050000", "153719.052000", "153719.055000", "153719.057000", "153719.060000", "153719.062000", "153719.065000", "153719.067000", "153719.070000", "153719.072000", "153719.075000", "153719.077000", "153759.012000", "153759.015000", "153759.017000", "153759.020000", "153759.022000", "153759.025000", "153759.027000", "153759.030000", "153759.032000", "153759.035000", "153759.037000", "153759.040000", "153759.042000", "153759.045000", "153759.047000", "153759.050000", "153759.052000", "153759.055000", "153759.057000", "153759.060000", "153759.062000", "153759.065000", "153759.067000", "153759.070000", "153759.072000", "153759.075000", "153818.964000", "153818.967000", "153818.969000", "153818.972000", "153818.974000", "153818.976000", "153818.979000", "153818.981000", "153818.984000", "153818.986000", "153818.989000", "153818.991000", "153818.994000", "153818.996000", "153851.718000", "153851.721000", "153851.723000", "153851.726000", "153851.729000", "153851.731000", "153851.735000", "153851.738000", "153851.741000", "153851.743000", "153851.747000", "153851.749000", "153851.752000", "153851.755000", "153851.757000", "153851.760000", "153851.763000", "153851.766000", "153851.768000", "153851.773000", "153851.776000", "153851.779000"],
      "InstanceCreationTime": ["153539.075000", "153539.078000", "153539.080000", "153539.083000", "153539.085000", "153539.088000", "153539.090000", "153539.093000", "153539.095000", "153539.098000", "153539.100000", "153539.103000", "153539.105000", "153539.108000", "153539.110000", "153539.113000", "153539.115000", "153539.118000", "153539.120000", "153539.123000", "153539.125000", "153539.128000", "153539.130000", "153539.133000", "153539.135000", "153539.138000", "153539.140000", "153539.143000", "153539.145000", "153539.147000", "153539.150000", "153539.152000", "153539.155000", "153539.157000", "153539.160000", "153539.162000", "153539.165000", "153539.167000", "153558.964000", "153558.966000", "153558.969000", "153558.971000", "153558.974000", "153558.976000", "153558.979000", "153558.981000", "153558.984000", "153558.986000", "153558.989000", "153558.991000", "153558.994000", "153558.996000", "153558.998000", "153559.002000", "153559.004000", "153559.007000", "153559.009000", "153559.012000", "153618.981000", "153618.984000", "153618.986000", "153618.989000", "153618.991000", "153618.994000", "153618.996000", "153618.999000", "153619.001000", "153619.004000", "153619.006000", "153619.008000", "153619.011000", "153619.013000", "153619.016000", "153619.018000", "153619.021000", "153619.023000", "153619.026000", "153619.028000", "153638.980000", "153638.983000", "153638.986000", "153638.990000", "153638.993000", "153638.995000", "153639.000000", "153639.002000", "153639.005000", "153639.007000", "153639.010000", "153639.012000", "153639.015000", "153639.017000", "153639.020000", "153639.022000", "153639.024000", "153639.027000", "153639.029000", "153639.032000", "153719.005000", "153719.008000", "153719.010000", "153719.013000", "153719.015000", "153719.018000", "153719.020000", "153719.023000", "153719.025000", "153719.028000", "153719.030000", "153719.033000", "153719.035000", "153719.038000", "153719.040000", "153719.042000", "153719.045000", "153719.047000", "153719.050000", "153719.052000", "153719.055000", "153719.057000", "153719.060000", "153719.062000", "153719.065000", "153719.067000", "153719.070000", "153719.072000", "153719.075000", "153719.077000", "153759.012000", "153759.015000", "153759.017000", "153759.020000", "153759.022000", "153759.025000", "153759.027000", "153759.030000", "153759.032000", "153759.035000", "153759.037000", "153759.040000", "153759.042000", "153759.045000", "153759.047000", "153759.050000", "153759.052000", "153759.055000", "153759.057000", "153759.060000", "153759.062000", "153759.065000", "153759.067000", "153759.070000", "153759.072000", "153759.075000", "153818.964000", "153818.967000", "153818.969000", "153818.972000", "153818.974000", "153818.976000", "153818.979000", "153818.981000", "153818.984000", "153818.986000", "153818.989000", "153818.991000", "153818.994000", "153818.996000", "153851.718000", "153851.721000", "153851.723000", "153851.726000", "153851.729000", "153851.731000", "153851.735000", "153851.738000", "153851.741000", "153851.743000", "153851.747000", "153851.749000", "153851.752000", "153851.755000", "153851.757000", "153851.760000", "153851.763000", "153851.766000", "153851.768000", "153851.773000", "153851.776000", "153851.779000"],
      "InstanceNumber": [1, 2, 3, 4, 5, 6, 7, 8, 9, 10, 11, 12, 13, 14, 15, 16, 17, 18, 19, 20, 21, 22, 23, 24, 25, 26, 27, 28, 29, 30, 31, 32, 33, 34, 35, 36, 37, 38, 39, 40, 41, 42, 43, 44, 45, 46, 47, 48, 49, 50, 51, 52, 53, 54, 55, 56, 57, 58, 59, 60, 61, 62, 63, 64, 65, 66, 67, 68, 69, 70, 71, 72, 73, 74, 75, 76, 77, 78, 79, 80, 81, 82, 83, 84, 85, 86, 87, 88, 89, 90, 91, 92, 93, 94, 95, 96, 97, 98, 99, 100, 101, 102, 103, 104, 105, 106, 107, 108, 109, 110, 111, 112, 113, 114, 115, 116, 117, 118, 119, 120, 121, 122, 123, 124, 125, 126, 127, 128, 129, 130, 131, 132, 133, 134, 135, 136, 137, 138, 139, 140, 141, 142, 143, 144, 145, 146, 147, 148, 149, 150, 151, 152, 153, 154, 155, 156, 157, 158, 159, 160, 161, 162, 163, 164, 165, 166, 167, 168, 169, 170, 171, 172, 173, 174, 175, 176, 177, 178, 179, 180, 181, 182, 183, 184, 185, 186, 187, 188, 189, 190],
      "WindowCenter": [4794.0, 4818.0, 4816.0, 4794.0, 4826.0, 4796.0, 4812.0, 4812.0, 4816.0, 4814.0, 4814.0, 4820.0, 4818.0, 4794.0, 4818.0, 4816.0, 4816.0, 4818.0, 4814.0, 4814.0, 4816.0, 4792.0, 4818.0, 4826.0, 4794.0, 4816.0, 4790.0, 4814.0, 4814.0, 4812.0, 4792.0, 4792.0, 4818.0, 4818.0, 4822.0, 4788.0, 4814.0, 4814.0, 4814.0, 4792.0, 4816.0, 4816.0, 4790.0, 4792.0, 4794.0, 4794.0, 4788.0, 4792.0, 4790.0, 4794.0, 4790.0, 4790.0, 4816.0, 4792.0, 4794.0, 4794.0, 4790.0, 4792.0, 4794.0, 4792.0, 4818.0, 4790.0, 4788.0, 4816.0, 4816.0, 4790.0, 4792.0, 4792.0, 4816.0, 4792.0, 4814.0, 4790.0, 4792.0, 4818.0, 4818.0, 4814.0, 4794.0, 4788.0, 4794.0, 4818.0, 4816.0, 4792.0, 4790.0, 4792.0, 4816.0, 4792.0, 4792.0, 4794.0, 4792.0, 4790.0, 4792.0, 4794.0, 4792.0, 4794.0, 4792.0, 4792.0, 4796.0, 4790.0, 4794.0, 4794.0, 4816.0, 4848.0, 4820.0, 4816.0, 4814.0, 4818.0, 4814.0, 4792.0, 4792.0, 4792.0, 4796.0, 4796.0, 4822.0, 4816.0, 4794.0, 4794.0, 4792.0, 4816.0, 4818.0, 4794.0, 4818.0, 4820.0, 4794.0, 4816.0, 4816.0, 4792.0, 4794.0, 4794.0, 4790.0, 4792.0, 4790.0, 4794.0, 4796.0, 4790.0, 4790.0, 4818.0, 4874.0, 4820.0, 4812.0, 4814.0, 4810.0, 4812.0, 4794.0, 4792.0, 4796.0, 4796.0, 4796.0, 4790.0, 4792.0, 4820.0, 4790.0, 4814.0, 4790.0, 4790.0, 4816.0, 4814.0, 4792.0, 4818.0, 4790.0, 4794.0, 4816.0, 4792.0, 4790.0, 4794.0, 4812.0, 4792.0, 4788.0, 4790.0, 4794.0, 4820.0, 4796.0, 4794.0, 4796.0, 4790.0, 4790.0, 4788.0, 4792.0, 4792.0, 4820.0, 4820.0, 4790.0, 4794.0, 4790.0, 4792.0, 4790.0, 4792.0, 4790.0, 4790.0, 4794.0, 4792.0],
      "WindowWidth": [18554.0, 18582.0, 18582.0, 18554.0, 18590.0, 18550.0, 18590.0, 18590.0, 18588.0, 18584.0, 18584.0, 18586.0, 18584.0, 18554.0, 18582.0, 18586.0, 18586.0, 18582.0, 18584.0, 18588.0, 18582.0, 18562.0, 18584.0, 18590.0, 18556.0, 18586.0, 18554.0, 18588.0, 18586.0, 18584.0, 18550.0, 18552.0, 18588.0, 18582.0, 18588.0, 18550.0, 18592.0, 18584.0, 18588.0, 18552.0, 18586.0, 18586.0, 18554.0, 18552.0, 18556.0, 18554.0, 18556.0, 18554.0, 18558.0, 18552.0, 18550.0, 18552.0, 18586.0, 18554.0, 18548.0, 18544.0, 18552.0, 18552.0, 18552.0, 18554.0, 18588.0, 18558.0, 18546.0, 18580.0, 18584.0, 18550.0, 18556.0, 18556.0, 18584.0, 18558.0, 18586.0, 18552.0, 18556.0, 18584.0, 18580.0, 18586.0, 18552.0, 18552.0, 18558.0, 18584.0, 18586.0, 18556.0, 18548.0, 18556.0, 18582.0, 18552.0, 18558.0, 18556.0, 18552.0, 18554.0, 18554.0, 18554.0, 18548.0, 18550.0, 18556.0, 18554.0, 18556.0, 18554.0, 18550.0, 18554.0, 18582.0, 18628.0, 18588.0, 18596.0, 18594.0, 18598.0, 18582.0, 18552.0, 18552.0, 18550.0, 18556.0, 18550.0, 18588.0, 18580.0, 18556.0, 18554.0, 18554.0, 18584.0, 18588.0, 18554.0, 18582.0, 18588.0, 18558.0, 18586.0, 18580.0, 18552.0, 18554.0, 18548.0, 18550.0, 18554.0, 18550.0, 18556.0, 18550.0, 18550.0, 18550.0, 18580.0, 18672.0, 18582.0, 18594.0, 18596.0, 18592.0, 18592.0, 18552.0, 18552.0, 18546.0, 18550.0, 18552.0, 18550.0, 18550.0, 18586.0, 18558.0, 18590.0, 18558.0, 18560.0, 18580.0, 18584.0, 18552.0, 18582.0, 18552.0, 18546.0, 18580.0, 18550.0, 18552.0, 18554.0, 18584.0, 18556.0, 18546.0, 18548.0, 18554.0, 18584.0, 18550.0, 18554.0, 18550.0, 18550.0, 18556.0, 18554.0, 18552.0, 18552.0, 18582.0, 18580.0, 18546.0, 18552.0, 18552.0, 18556.0, 18550.0, 18554.0, 18550.0, 18548.0, 18552.0, 18548.0]
    },
    "slices": {}
  }
}