{
  "AcquisitionMatrixPE": 104,
  "AcquisitionNumber": 1,
  "AcquisitionTime": "15:52:59.845000",
  "BandwidthPerPixelPhaseEncode": 17.17,
  "BaseResolution": 104,
  "BodyPartExamined": "BRAIN",
  "CoilString": "HC1-7;NC1_2",
  "ConsistencyInfo": "N4_VE11C_LATEST_20160120",
  "ConversionSoftware": "dcm2niix",
  "ConversionSoftwareVersion": "v1.0.20190902",
  "DerivedVendorReportedEchoSpacing": 0.000560011,
  "DeviceSerialNumber": "167006",
  "DwellTime": 2.1e-06,
  "EchoTime": 0.037,
  "EchoTrainLength": 104,
  "EffectiveEchoSpacing": 0.000560011,
  "FlipAngle": 52,
  "ImageComments": "Unaliased_MB4_PE3_LB",
  "ImageOrientationPatientDICOM": [0.999776, -0.0197496, 0.0075496, 0.0211168, 0.950581, -0.309757],
  "ImageType": [
    "ORIGINAL",
    "PRIMARY",
    "M",
    "MB",
    "ND",
    "MOSAIC"
],
  "ImagingFrequency": 123.259,
  "InPlanePhaseEncodingDirectionDICOM": "COL",
  "InstitutionAddress": "Chemin_Queen-Mary_4565_Montreal_District_CA_H3W_1W5",
  "InstitutionName": "IUGM",
  "InstitutionalDepartmentName": "Department",
  "MRAcquisitionType": "2D",
  "MagneticFieldStrength": 3,
  "Manufacturer": "Siemens",
  "ManufacturersModelName": "Prisma_fit",
  "Modality": "MR",
  "MultibandAccelerationFactor": 4,
  "PartialFourier": 1,
  "PatientPosition": "HFS",
  "PercentPhaseFOV": 100,
  "PhaseEncodingDirection": "j",
  "PhaseEncodingSteps": 104,
  "PhaseResolution": 1,
  "PixelBandwidth": 2290,
  "ProcedureStepDescription": "memory_things",
  "ProtocolName": "func_task-things_run-6",
  "PulseSequenceDetails": "%CustomerSeq%_cmrr_mbep2d_bold",
  "ReceiveCoilActiveElements": "HC1-7;NC1,2",
  "ReceiveCoilName": "HeadNeck_64",
  "ReconMatrixPE": 104,
  "RepetitionTime": 1.49,
  "SAR": 0.0383603,
  "ScanOptions": "FS",
  "ScanningSequence": "EP",
  "SequenceName": "epfid2d1_104",
  "SequenceVariant": "SK_SS",
  "SeriesDescription": "func_task-things_run-6",
  "SeriesNumber": 25,
  "ShimSetting": [622, -7251, -8816, 630, 7, -226, -48, -10],
  "SliceThickness": 2,
  "SliceTiming": [0, 0.785, 0.0975, 0.8825, 0.1975, 0.98, 0.295, 1.0775, 0.3925, 1.1775, 0.49, 1.275, 0.5875, 1.3725, 0.6875, 0, 0.785, 0.0975, 0.8825, 0.1975, 0.98, 0.295, 1.0775, 0.3925, 1.1775, 0.49, 1.275, 0.5875, 1.3725, 0.6875, 0, 0.785, 0.0975, 0.8825, 0.1975, 0.98, 0.295, 1.0775, 0.3925, 1.1775, 0.49, 1.275, 0.5875, 1.3725, 0.6875, 0, 0.785, 0.0975, 0.8825, 0.1975, 0.98, 0.295, 1.0775, 0.3925, 1.1775, 0.49, 1.275, 0.5875, 1.3725, 0.6875],
  "SoftwareVersions": "syngo_MR_E11",
  "SpacingBetweenSlices": 2,
  "StationName": "MRC35049",
  "TaskName": "things",
  "TotalReadoutTime": 0.0576811,
  "TxRefAmp": 240.738,
  "WipMemBlock": "32293596-c455-478d-9b5e-96a402737901||Sequence: R016 ve11c/master r/e634e98; Dec 19 2017 11:00:25 by eja",
  "dcmmeta_affine": [
    [-1.9995529651641846, 0.0422336719930172, 0.0021178622264415026, 105.13571166992188],
    [0.03949914872646332, 1.9011623859405518, -0.619694709777832, -68.45989227294922],
    [0.015099192038178444, 0.6195144057273865, 1.9015713930130005, -61.848480224609375],
    [0.0, 0.0, 0.0, 1.0]
],
  "dcmmeta_reorient_transform": [
    [0.0, -1.0, 0.0, 103.0],
    [1.0, 0.0, 0.0, 0.0],
    [0.0, 0.0, 1.0, 0.0],
    [0.0, 0.0, 0.0, 1.0]
],
  "dcmmeta_shape": [104, 104, 60, 190],
  "dcmmeta_slice_dim": 2,
  "dcmmeta_version": 0.6,
  "global": {
    "const": {
      "AcquisitionMatrix": [104, 0, 0, 104],
      "AngioFlag": "N",
      "BitsAllocated": 16,
      "BitsStored": 16,
      "BodyPartExamined": "BRAIN",
      "Columns": 832,
      "EchoNumbers": 1,
      "EchoTime": 37.0,
      "EchoTrainLength": 104,
      "FlipAngle": 52.0,
      "HighBit": 15,
      "ImageOrientationPatient": [0.99977645398003, -0.0197495738841, 0.00754959591685, 0.02111683527288, 0.95058116986847, -0.3097571932329],
      "ImagePositionPatient": [-852.69609145243, -805.00523067821, 221.96863281696],
      "ImageType": [
        "ORIGINAL",
        "PRIMARY",
        "M",
        "MB",
        "ND",
        "MOSAIC"
],
      "ImagedNucleus": "1H",
      "ImagingFrequency": 123.258885,
      "InPlanePhaseEncodingDirection": "COL",
      "MRAcquisitionType": "2D",
      "MagneticFieldStrength": 3.0,
      "Manufacturer": "SIEMENS",
      "ManufacturerModelName": "Prisma_fit",
      "Modality": "MR",
      "NumberOfAverages": 1.0,
      "NumberOfPhaseEncodingSteps": 104,
      "PercentPhaseFieldOfView": 100.0,
      "PercentSampling": 100.0,
      "PerformedProcedureStepStartTime": "151303.672000",
      "PhotometricInterpretation": "MONOCHROME2",
      "PixelBandwidth": 2290.0,
      "PixelRepresentation": 0,
      "PixelSpacing": [2.0, 2.0],
      "ProtocolName": "func_task-things_run-6",
      "RepetitionTime": 1490.0,
      "Rows": 832,
      "SAR": 0.03836031773644,
      "SamplesPerPixel": 1,
      "ScanOptions": "FS",
      "ScanningSequence": "EP",
      "SequenceName": "epfid2d1_104",
      "SequenceVariant": [
        "SK",
        "SS"
],
      "SeriesDescription": "func_task-things_run-6",
      "SeriesNumber": 25,
      "SeriesTime": "155418.891000",
      "SliceLocation": -37.481202267287,
      "SliceThickness": 2.0,
      "SmallestImagePixelValue": 0,
      "SoftwareVersions": "syngo MR E11",
      "SpacingBetweenSlices": 1.9999999624466,
      "SpecificCharacterSet": "ISO_IR 100",
      "StudyID": "1",
      "StudyTime": "151303.588000",
      "TransmitCoilName": "Body",
      "VariableFlipAngleFlag": "N",
      "WindowCenterWidthExplanation": "Algo1",
      "dBdt": 0.0},
    "slices": {}
  },
  "time": {
    "samples": {
      "AcquisitionNumber": [1, 2, 3, 4, 5, 6, 7, 8, 9, 10, 11, 12, 13, 14, 15, 16, 17, 18, 19, 20, 21, 22, 23, 24, 25, 26, 27, 28, 29, 30, 31, 32, 33, 34, 35, 36, 37, 38, 39, 40, 41, 42, 43, 44, 45, 46, 47, 48, 49, 50, 51, 52, 53, 54, 55, 56, 57, 58, 59, 60, 61, 62, 63, 64, 65, 66, 67, 68, 69, 70, 71, 72, 73, 74, 75, 76, 77, 78, 79, 80, 81, 82, 83, 84, 85, 86, 87, 88, 89, 90, 91, 92, 93, 94, 95, 96, 97, 98, 99, 100, 101, 102, 103, 104, 105, 106, 107, 108, 109, 110, 111, 112, 113, 114, 115, 116, 117, 118, 119, 120, 121, 122, 123, 124, 125, 126, 127, 128, 129, 130, 131, 132, 133, 134, 135, 136, 137, 138, 139, 140, 141, 142, 143, 144, 145, 146, 147, 148, 149, 150, 151, 152, 153, 154, 155, 156, 157, 158, 159, 160, 161, 162, 163, 164, 165, 166, 167, 168, 169, 170, 171, 172, 173, 174, 175, 176, 177, 178, 179, 180, 181, 182, 183, 184, 185, 186, 187, 188, 189, 190],
      "AcquisitionTime": ["155259.845000", "155301.335000", "155302.825000", "155304.315000", "155305.805000", "155307.295000", "155308.785000", "155310.275000", "155311.765000", "155313.255000", "155314.745000", "155316.235000", "155317.725000", "155319.215000", "155320.705000", "155322.195000", "155323.685000", "155325.175000", "155326.665000", "155328.155000", "155329.645000", "155331.135000", "155332.625000", "155334.115000", "155335.605000", "155337.095000", "155338.585000", "155340.075000", "155341.565000", "155343.055000", "155344.545000", "155346.035000", "155347.525000", "155349.015000", "155350.505000", "155351.995000", "155353.485000", "155354.975000", "155356.465000", "155357.955000", "155359.445000", "155400.935000", "155402.425000", "155403.915000", "155405.405000", "155406.895000", "155408.385000", "155409.875000", "155411.365000", "155412.855000", "155414.345000", "155415.835000", "155417.325000", "155418.815000", "155420.305000", "155421.795000", "155423.285000", "155424.775000", "155426.265000", "155427.755000", "155429.245000", "155430.735000", "155432.225000", "155433.715000", "155435.205000", "155436.695000", "155438.185000", "155439.675000", "155441.165000", "155442.655000", "155444.145000", "155445.635000", "155447.125000", "155448.615000", "155450.105000", "155451.595000", "155453.085000", "155454.575000", "155456.065000", "155457.555000", "155459.045000", "155500.535000", "155502.025000", "155503.515000", "155505.005000", "155506.495000", "155507.985000", "155509.475000", "155510.965000", "155512.455000", "155513.945000", "155515.435000", "155516.925000", "155518.415000", "155519.905000", "155521.395000", "155522.885000", "155524.375000", "155525.865000", "155527.355000", "155528.845000", "155530.335000", "155531.825000", "155533.315000", "155534.805000", "155536.295000", "155537.785000", "155539.275000", "155540.765000", "155542.255000", "155543.745000", "155545.235000", "155546.725000", "155548.215000", "155549.705000", "155551.195000", "155552.685000", "155554.175000", "155555.665000", "155557.155000", "155558.645000", "155600.135000", "155601.625000", "155603.115000", "155604.605000", "155606.095000", "155607.585000", "155609.075000", "155610.565000", "155612.055000", "155613.545000", "155615.035000", "155616.525000", "155618.015000", "155619.505000", "155620.995000", "155622.485000", "155623.975000", "155625.465000", "155626.955000", "155628.445000", "155629.935000", "155631.425000", "155632.915000", "155634.405000", "155635.895000", "155637.385000", "155638.875000", "155640.365000", "155641.855000", "155643.345000", "155644.835000", "155646.325000", "155647.815000", "155649.305000", "155650.795000", "155652.285000", "155653.775000", "155655.265000", "155656.755000", "155658.245000", "155659.735000", "155701.225000", "155702.715000", "155704.205000", "155705.695000", "155707.185000", "155708.675000", "155710.165000", "155711.655000", "155713.145000", "155714.635000", "155716.125000", "155717.615000", "155719.105000", "155720.595000", "155722.085000", "155723.575000", "155725.065000", "155726.555000", "155728.045000", "155729.535000", "155731.025000", "155732.515000", "155734.005000", "155735.495000", "155736.985000", "155738.475000", "155739.965000", "155741.455000"],
      "ContentTime": ["155418.894000", "155418.898000", "155418.902000", "155418.905000", "155418.908000", "155418.911000", "155418.915000", "155418.918000", "155418.921000", "155418.924000", "155418.927000", "155418.931000", "155418.934000", "155418.937000", "155418.940000", "155418.944000", "155418.947000", "155418.950000", "155418.953000", "155418.957000", "155418.960000", "155418.963000", "155418.966000", "155418.970000", "155418.973000", "155418.985000", "155438.864000", "155438.868000", "155438.871000", "155438.874000", "155438.877000", "155438.881000", "155438.884000", "155438.887000", "155438.890000", "155438.894000", "155438.897000", "155438.900000", "155438.903000", "155438.906000", "155438.910000", "155438.913000", "155438.926000", "155438.930000", "155438.933000", "155438.936000", "155458.864000", "155458.868000", "155458.871000", "155458.874000", "155458.878000", "155458.881000", "155458.885000", "155458.888000", "155458.891000", "155458.895000", "155458.898000", "155458.902000", "155458.905000", "155458.908000", "155458.912000", "155458.915000", "155458.918000", "155458.921000", "155458.925000", "155458.928000", "155518.864000", "155518.868000", "155518.871000", "155518.874000", "155518.877000", "155518.881000", "155518.884000", "155518.887000", "155518.891000", "155518.894000", "155518.897000", "155518.900000", "155518.904000", "155518.907000", "155518.910000", "155518.913000", "155518.917000", "155518.920000", "155518.923000", "155518.926000", "155518.930000", "155558.863000", "155558.867000", "155558.870000", "155558.873000", "155558.877000", "155558.880000", "155558.884000", "155558.887000", "155558.890000", "155558.894000", "155558.897000", "155558.901000", "155558.904000", "155558.907000", "155558.911000", "155558.915000", "155558.918000", "155558.921000", "155558.925000", "155558.928000", "155558.931000", "155558.935000", "155558.940000", "155558.944000", "155558.948000", "155558.951000", "155558.956000", "155558.960000", "155558.964000", "155558.967000", "155558.970000", "155558.973000", "155638.863000", "155638.867000", "155638.870000", "155638.873000", "155638.876000", "155638.880000", "155638.883000", "155638.886000", "155638.890000", "155638.893000", "155638.896000", "155638.900000", "155638.903000", "155638.906000", "155638.909000", "155638.913000", "155638.916000", "155638.919000", "155638.923000", "155638.926000", "155638.929000", "155638.932000", "155638.936000", "155638.939000", "155638.942000", "155638.945000", "155638.949000", "155718.864000", "155718.868000", "155718.871000", "155718.874000", "155718.878000", "155718.881000", "155718.884000", "155718.887000", "155718.891000", "155718.894000", "155718.897000", "155718.900000", "155718.904000", "155718.907000", "155718.910000", "155718.914000", "155718.917000", "155718.920000", "155718.923000", "155718.926000", "155718.930000", "155718.938000", "155718.941000", "155718.945000", "155718.948000", "155718.951000", "155718.954000", "155743.327000", "155743.331000", "155743.334000", "155743.337000", "155743.341000", "155743.344000", "155743.348000", "155743.352000", "155743.355000", "155743.359000", "155743.362000", "155743.366000", "155743.369000", "155743.373000", "155743.376000", "155743.379000", "155743.383000"],
      "InstanceCreationTime": ["155418.894000", "155418.898000", "155418.902000", "155418.905000", "155418.908000", "155418.911000", "155418.915000", "155418.918000", "155418.921000", "155418.924000", "155418.927000", "155418.931000", "155418.934000", "155418.937000", "155418.940000", "155418.944000", "155418.947000", "155418.950000", "155418.953000", "155418.957000", "155418.960000", "155418.963000", "155418.966000", "155418.970000", "155418.973000", "155418.985000", "155438.864000", "155438.868000", "155438.871000", "155438.874000", "155438.877000", "155438.881000", "155438.884000", "155438.887000", "155438.890000", "155438.894000", "155438.897000", "155438.900000", "155438.903000", "155438.906000", "155438.910000", "155438.913000", "155438.926000", "155438.930000", "155438.933000", "155438.936000", "155458.864000", "155458.868000", "155458.871000", "155458.874000", "155458.878000", "155458.881000", "155458.885000", "155458.888000", "155458.891000", "155458.895000", "155458.898000", "155458.902000", "155458.905000", "155458.908000", "155458.912000", "155458.915000", "155458.918000", "155458.921000", "155458.925000", "155458.928000", "155518.864000", "155518.868000", "155518.871000", "155518.874000", "155518.877000", "155518.881000", "155518.884000", "155518.887000", "155518.891000", "155518.894000", "155518.897000", "155518.900000", "155518.904000", "155518.907000", "155518.910000", "155518.913000", "155518.917000", "155518.920000", "155518.923000", "155518.926000", "155518.930000", "155558.863000", "155558.867000", "155558.870000", "155558.873000", "155558.877000", "155558.880000", "155558.884000", "155558.887000", "155558.890000", "155558.894000", "155558.897000", "155558.901000", "155558.904000", "155558.907000", "155558.911000", "155558.915000", "155558.918000", "155558.921000", "155558.925000", "155558.928000", "155558.931000", "155558.935000", "155558.940000", "155558.944000", "155558.948000", "155558.951000", "155558.956000", "155558.960000", "155558.964000", "155558.967000", "155558.970000", "155558.973000", "155638.863000", "155638.867000", "155638.870000", "155638.873000", "155638.876000", "155638.880000", "155638.883000", "155638.886000", "155638.890000", "155638.893000", "155638.896000", "155638.900000", "155638.903000", "155638.906000", "155638.909000", "155638.913000", "155638.916000", "155638.919000", "155638.923000", "155638.926000", "155638.929000", "155638.932000", "155638.936000", "155638.939000", "155638.942000", "155638.945000", "155638.949000", "155718.864000", "155718.868000", "155718.871000", "155718.874000", "155718.878000", "155718.881000", "155718.884000", "155718.887000", "155718.891000", "155718.894000", "155718.897000", "155718.900000", "155718.904000", "155718.907000", "155718.910000", "155718.914000", "155718.917000", "155718.920000", "155718.923000", "155718.926000", "155718.930000", "155718.938000", "155718.941000", "155718.945000", "155718.948000", "155718.951000", "155718.954000", "155743.327000", "155743.331000", "155743.334000", "155743.337000", "155743.341000", "155743.344000", "155743.348000", "155743.352000", "155743.355000", "155743.359000", "155743.362000", "155743.366000", "155743.369000", "155743.373000", "155743.376000", "155743.379000", "155743.383000"],
      "InstanceNumber": [1, 2, 3, 4, 5, 6, 7, 8, 9, 10, 11, 12, 13, 14, 15, 16, 17, 18, 19, 20, 21, 22, 23, 24, 25, 26, 27, 28, 29, 30, 31, 32, 33, 34, 35, 36, 37, 38, 39, 40, 41, 42, 43, 44, 45, 46, 47, 48, 49, 50, 51, 52, 53, 54, 55, 56, 57, 58, 59, 60, 61, 62, 63, 64, 65, 66, 67, 68, 69, 70, 71, 72, 73, 74, 75, 76, 77, 78, 79, 80, 81, 82, 83, 84, 85, 86, 87, 88, 89, 90, 91, 92, 93, 94, 95, 96, 97, 98, 99, 100, 101, 102, 103, 104, 105, 106, 107, 108, 109, 110, 111, 112, 113, 114, 115, 116, 117, 118, 119, 120, 121, 122, 123, 124, 125, 126, 127, 128, 129, 130, 131, 132, 133, 134, 135, 136, 137, 138, 139, 140, 141, 142, 143, 144, 145, 146, 147, 148, 149, 150, 151, 152, 153, 154, 155, 156, 157, 158, 159, 160, 161, 162, 163, 164, 165, 166, 167, 168, 169, 170, 171, 172, 173, 174, 175, 176, 177, 178, 179, 180, 181, 182, 183, 184, 185, 186, 187, 188, 189, 190],
      "LargestImagePixelValue": [39398, 38756, 38160, 37564, 37264, 37154, 36718, 37006, 36971, 36762, 37089, 36624, 36586, 36743, 36870, 37847, 36808, 37392, 36975, 37035, 36941, 37603, 37189, 36829, 36922, 37240, 36832, 37868, 38347, 37406, 38248, 36694, 37129, 36808, 37320, 37239, 37729, 37846, 37873, 38223, 37410, 37554, 37547, 37372, 37741, 37521, 37339, 37518, 37437, 37198, 37719, 37095, 37221, 37163, 37276, 37302, 37221, 37436, 37265, 37549, 37059, 37105, 36969, 37701, 37568, 36706, 36541, 37609, 37055, 36405, 36201, 37073, 36658, 37344, 38098, 37713, 37002, 37733, 37201, 37479, 36971, 37003, 36573, 36788, 36643, 37111, 37629, 36839, 37804, 36869, 37127, 36678, 37305, 36984, 36588, 37943, 37619, 37350, 38461, 37220, 37480, 37148, 37652, 37305, 36596, 36375, 36939, 36724, 36948, 37286, 36859, 35811, 36994, 36712, 36761, 36718, 36934, 36631, 36461, 36189, 35898, 35986, 36664, 36692, 36135, 36183, 36537, 36582, 37067, 36513, 36955, 37036, 37071, 36541, 35992, 36205, 35736, 37078, 36474, 35728, 35794, 36860, 36613, 35820, 37002, 36727, 36613, 36122, 36178, 36143, 36277, 35786, 36384, 37855, 37427, 38365, 39137, 36556, 36887, 36216, 36347, 36795, 36477, 36473, 36630, 37016, 36455, 37277, 36736, 36070, 36298, 35932, 35791, 35573, 36402, 36804, 36310, 36298, 38214, 36365, 36159, 36027, 36093, 36135, 35987, 35799, 36033, 35979, 35879, 35925],
      "WindowCenter": [10055.0, 10008.0, 9986.0, 9983.0, 9977.0, 9983.0, 9975.0, 9967.0, 9980.0, 9992.0, 9991.0, 9977.0, 9968.0, 9957.0, 9947.0, 9966.0, 9949.0, 9961.0, 9965.0, 9971.0, 9956.0, 9958.0, 9936.0, 9914.0, 9904.0, 9909.0, 9929.0, 9964.0, 9988.0, 9967.0, 9972.0, 9974.0, 9927.0, 9903.0, 9874.0, 9880.0, 9896.0, 9913.0, 9905.0, 9928.0, 9950.0, 9955.0, 9923.0, 9917.0, 9915.0, 9917.0, 9915.0, 9923.0, 9931.0, 9943.0, 9942.0, 9928.0, 9925.0, 9941.0, 9935.0, 9938.0, 9934.0, 9957.0, 9960.0, 9944.0, 9928.0, 9916.0, 9932.0, 9950.0, 9932.0, 9914.0, 9948.0, 9951.0, 9932.0, 9905.0, 9885.0, 9894.0, 9897.0, 9905.0, 9907.0, 9917.0, 9908.0, 9895.0, 9870.0, 9861.0, 9869.0, 9873.0, 9845.0, 9834.0, 9836.0, 9858.0, 9887.0, 9904.0, 9902.0, 9880.0, 9879.0, 9881.0, 9875.0, 9869.0, 9863.0, 9890.0, 9926.0, 9925.0, 9884.0, 9866.0, 9860.0, 9851.0, 9871.0, 9861.0, 9845.0, 9875.0, 9892.0, 9898.0, 9883.0, 9869.0, 9855.0, 9850.0, 9882.0, 9870.0, 9840.0, 9836.0, 9843.0, 9855.0, 9866.0, 9874.0, 9862.0, 9859.0, 9873.0, 9864.0, 9856.0, 9851.0, 9855.0, 9848.0, 9860.0, 9858.0, 9864.0, 9868.0, 9875.0, 9890.0, 9880.0, 9860.0, 9841.0, 9873.0, 9893.0, 9902.0, 9894.0, 9894.0, 9891.0, 9907.0, 9905.0, 9886.0, 9857.0, 9839.0, 9829.0, 9829.0, 9823.0, 9831.0, 9843.0, 9903.0, 9912.0, 9933.0, 9938.0, 9887.0, 9895.0, 9860.0, 9825.0, 9806.0, 9818.0, 9845.0, 9874.0, 9874.0, 9869.0, 9881.0, 9884.0, 9878.0, 9875.0, 9893.0, 9917.0, 9910.0, 9906.0, 9899.0, 9904.0, 9903.0, 9912.0, 9910.0, 9896.0, 9885.0, 9878.0, 9884.0, 9878.0, 9870.0, 9861.0, 9867.0, 9876.0, 9895.0],
      "WindowWidth": [21617.0, 21481.0, 21409.0, 21388.0, 21369.0, 21378.0, 21357.0, 21337.0, 21362.0, 21392.0, 21387.0, 21360.0, 21341.0, 21312.0, 21291.0, 21332.0, 21298.0, 21320.0, 21330.0, 21344.0, 21310.0, 21312.0, 21265.0, 21220.0, 21196.0, 21205.0, 21253.0, 21327.0, 21379.0, 21337.0, 21353.0, 21371.0, 21243.0, 21188.0, 21119.0, 21132.0, 21165.0, 21202.0, 21191.0, 21238.0, 21287.0, 21299.0, 21231.0, 21214.0, 21208.0, 21214.0, 21208.0, 21227.0, 21244.0, 21273.0, 21269.0, 21241.0, 21236.0, 21268.0, 21259.0, 21260.0, 21258.0, 21303.0, 21309.0, 21274.0, 21242.0, 21212.0, 21249.0, 21289.0, 21246.0, 21209.0, 21286.0, 21289.0, 21246.0, 21193.0, 21149.0, 21160.0, 21172.0, 21189.0, 21193.0, 21224.0, 21202.0, 21171.0, 21114.0, 21091.0, 21108.0, 21123.0, 21068.0, 21038.0, 21039.0, 21092.0, 21150.0, 21193.0, 21185.0, 21136.0, 21134.0, 21140.0, 21124.0, 21107.0, 21102.0, 21157.0, 21255.0, 21252.0, 21138.0, 21103.0, 21086.0, 21065.0, 21104.0, 21087.0, 21050.0, 21120.0, 21158.0, 21173.0, 21137.0, 21101.0, 21073.0, 21070.0, 21131.0, 21104.0, 21044.0, 21030.0, 21044.0, 21076.0, 21102.0, 21118.0, 21101.0, 21089.0, 21118.0, 21099.0, 21082.0, 21070.0, 21072.0, 21061.0, 21086.0, 21087.0, 21098.0, 21104.0, 21120.0, 21158.0, 21138.0, 21094.0, 21050.0, 21114.0, 21162.0, 21186.0, 21168.0, 21166.0, 21163.0, 21198.0, 21192.0, 21147.0, 21084.0, 21044.0, 21021.0, 21022.0, 21012.0, 21026.0, 21048.0, 21175.0, 21206.0, 21261.0, 21270.0, 21158.0, 21162.0, 21089.0, 21011.0, 20965.0, 20991.0, 21053.0, 21120.0, 21121.0, 21115.0, 21136.0, 21146.0, 21137.0, 21128.0, 21164.0, 21216.0, 21204.0, 21189.0, 21170.0, 21189.0, 21189.0, 21196.0, 21203.0, 21172.0, 21147.0, 21130.0, 21141.0, 21132.0, 21116.0, 21097.0, 21109.0, 21131.0, 21174.0]
    },
    "slices": {}
  }
}