{
  "AcquisitionMatrixPE": 104,
  "AcquisitionNumber": 1,
  "AcquisitionTime": "15:40:28.550000",
  "BandwidthPerPixelPhaseEncode": 17.17,
  "BaseResolution": 104,
  "BodyPartExamined": "BRAIN",
  "CoilString": "HC1-7;NC1_2",
  "ConsistencyInfo": "N4_VE11C_LATEST_20160120",
  "ConversionSoftware": "dcm2niix",
  "ConversionSoftwareVersion": "v1.0.20190902",
  "DerivedVendorReportedEchoSpacing": 0.000560011,
  "DeviceSerialNumber": "167006",
  "DwellTime": 2.1e-06,
  "EchoTime": 0.037,
  "EchoTrainLength": 104,
  "EffectiveEchoSpacing": 0.000560011,
  "FlipAngle": 52,
  "ImageComments": "Unaliased_MB4_PE3_LB",
  "ImageOrientationPatientDICOM": [0.999776, -0.0197496, 0.0075496, 0.0211168, 0.950581, -0.309757],
  "ImageType": [
    "ORIGINAL",
    "PRIMARY",
    "P",
    "MB",
    "ND",
    "MOSAIC"
],
  "ImagingFrequency": 123.259,
  "InPlanePhaseEncodingDirectionDICOM": "COL",
  "InstitutionAddress": "Chemin_Queen-Mary_4565_Montreal_District_CA_H3W_1W5",
  "InstitutionName": "IUGM",
  "InstitutionalDepartmentName": "Department",
  "MRAcquisitionType": "2D",
  "MagneticFieldStrength": 3,
  "Manufacturer": "Siemens",
  "ManufacturersModelName": "Prisma_fit",
  "Modality": "MR",
  "MultibandAccelerationFactor": 4,
  "PartialFourier": 1,
  "PatientPosition": "HFS",
  "PercentPhaseFOV": 100,
  "PhaseEncodingDirection": "j",
  "PhaseEncodingSteps": 104,
  "PhaseResolution": 1,
  "PixelBandwidth": 2290,
  "ProcedureStepDescription": "memory_things",
  "ProtocolName": "func_task-things_run-4",
  "PulseSequenceDetails": "%CustomerSeq%_cmrr_mbep2d_bold",
  "ReceiveCoilActiveElements": "HC1-7;NC1,2",
  "ReceiveCoilName": "HeadNeck_64",
  "ReconMatrixPE": 104,
  "RepetitionTime": 1.49,
  "SAR": 0.0383603,
  "ScanOptions": "FS",
  "ScanningSequence": "EP",
  "SequenceName": "epfid2d1_104",
  "SequenceVariant": "SK_SS",
  "SeriesDescription": "func_task-things_run-4",
  "SeriesNumber": 20,
  "ShimSetting": [622, -7251, -8816, 630, 7, -226, -48, -10],
  "SliceThickness": 2,
  "SliceTiming": [0, 0.7825, 0.0975, 0.8825, 0.195, 0.98, 0.2925, 1.0775, 0.3925, 1.175, 0.49, 1.2725, 0.5875, 1.3725, 0.685, 0, 0.7825, 0.0975, 0.8825, 0.195, 0.98, 0.2925, 1.0775, 0.3925, 1.175, 0.49, 1.2725, 0.5875, 1.3725, 0.685, 0, 0.7825, 0.0975, 0.8825, 0.195, 0.98, 0.2925, 1.0775, 0.3925, 1.175, 0.49, 1.2725, 0.5875, 1.3725, 0.685, 0, 0.7825, 0.0975, 0.8825, 0.195, 0.98, 0.2925, 1.0775, 0.3925, 1.175, 0.49, 1.2725, 0.5875, 1.3725, 0.685],
  "SoftwareVersions": "syngo_MR_E11",
  "SpacingBetweenSlices": 2,
  "StationName": "MRC35049",
  "TaskName": "things",
  "TotalReadoutTime": 0.0576811,
  "TxRefAmp": 240.738,
  "WipMemBlock": "62d311a9-1a81-47ca-9d4a-261fc0b73052||Sequence: R016 ve11c/master r/e634e98; Dec 19 2017 11:00:25 by eja",
  "dcmmeta_affine": [
    [-1.9995529651641846, 0.0422336719930172, 0.0021178622264415026, 105.13571166992188],
    [0.03949914872646332, 1.9011623859405518, -0.619694709777832, -68.45989227294922],
    [0.015099192038178444, 0.6195144057273865, 1.9015713930130005, -61.848480224609375],
    [0.0, 0.0, 0.0, 1.0]
],
  "dcmmeta_reorient_transform": [
    [0.0, -1.0, 0.0, 103.0],
    [1.0, 0.0, 0.0, 0.0],
    [0.0, 0.0, 1.0, 0.0],
    [0.0, 0.0, 0.0, 1.0]
],
  "dcmmeta_shape": [104, 104, 60, 190],
  "dcmmeta_slice_dim": 2,
  "dcmmeta_version": 0.6,
  "global": {
    "const": {
      "AcquisitionMatrix": [104, 0, 0, 104],
      "AngioFlag": "N",
      "BitsAllocated": 16,
      "BitsStored": 16,
      "BodyPartExamined": "BRAIN",
      "Columns": 832,
      "EchoNumbers": 1,
      "EchoTime": 37.0,
      "EchoTrainLength": 104,
      "FlipAngle": 52.0,
      "HighBit": 15,
      "ImageOrientationPatient": [0.99977645398003, -0.0197495738841, 0.00754959591685, 0.02111683527288, 0.95058116986847, -0.3097571932329],
      "ImagePositionPatient": [-852.69609145243, -805.00523067821, 221.96863281696],
      "ImageType": [
        "ORIGINAL",
        "PRIMARY",
        "P",
        "MB",
        "ND",
        "MOSAIC"
],
      "ImagedNucleus": "1H",
      "ImagingFrequency": 123.258876,
      "InPlanePhaseEncodingDirection": "COL",
      "LargestImagePixelValue": 4095,
      "MRAcquisitionType": "2D",
      "MagneticFieldStrength": 3.0,
      "Manufacturer": "SIEMENS",
      "ManufacturerModelName": "Prisma_fit",
      "Modality": "MR",
      "NumberOfAverages": 1.0,
      "NumberOfPhaseEncodingSteps": 104,
      "PercentPhaseFieldOfView": 100.0,
      "PercentSampling": 100.0,
      "PerformedProcedureStepStartTime": "151303.672000",
      "PhotometricInterpretation": "MONOCHROME2",
      "PixelBandwidth": 2290.0,
      "PixelRepresentation": 0,
      "PixelSpacing": [2.0, 2.0],
      "ProtocolName": "func_task-things_run-4",
      "RepetitionTime": 1490.0,
      "RescaleIntercept": -4096.0,
      "RescaleSlope": 2.0,
      "RescaleType": "US",
      "Rows": 832,
      "SAR": 0.03836031773644,
      "SamplesPerPixel": 1,
      "ScanOptions": "FS",
      "ScanningSequence": "EP",
      "SequenceName": "epfid2d1_104",
      "SequenceVariant": [
        "SK",
        "SS"
],
      "SeriesDescription": "func_task-things_run-4",
      "SeriesNumber": 20,
      "SeriesTime": "154158.981000",
      "SliceLocation": -37.481202267287,
      "SliceThickness": 2.0,
      "SmallestImagePixelValue": 0,
      "SoftwareVersions": "syngo MR E11",
      "SpacingBetweenSlices": 1.9999999624466,
      "SpecificCharacterSet": "ISO_IR 100",
      "StudyID": "1",
      "StudyTime": "151303.588000",
      "TransmitCoilName": "Body",
      "VariableFlipAngleFlag": "N",
      "WindowCenterWidthExplanation": "Algo1",
      "dBdt": 0.0},
    "slices": {}
  },
  "time": {
    "samples": {
      "AcquisitionNumber": [1, 2, 3, 4, 5, 6, 7, 8, 9, 10, 11, 12, 13, 14, 15, 16, 17, 18, 19, 20, 21, 22, 23, 24, 25, 26, 27, 28, 29, 30, 31, 32, 33, 34, 35, 36, 37, 38, 39, 40, 41, 42, 43, 44, 45, 46, 47, 48, 49, 50, 51, 52, 53, 54, 55, 56, 57, 58, 59, 60, 61, 62, 63, 64, 65, 66, 67, 68, 69, 70, 71, 72, 73, 74, 75, 76, 77, 78, 79, 80, 81, 82, 83, 84, 85, 86, 87, 88, 89, 90, 91, 92, 93, 94, 95, 96, 97, 98, 99, 100, 101, 102, 103, 104, 105, 106, 107, 108, 109, 110, 111, 112, 113, 114, 115, 116, 117, 118, 119, 120, 121, 122, 123, 124, 125, 126, 127, 128, 129, 130, 131, 132, 133, 134, 135, 136, 137, 138, 139, 140, 141, 142, 143, 144, 145, 146, 147, 148, 149, 150, 151, 152, 153, 154, 155, 156, 157, 158, 159, 160, 161, 162, 163, 164, 165, 166, 167, 168, 169, 170, 171, 172, 173, 174, 175, 176, 177, 178, 179, 180, 181, 182, 183, 184, 185, 186, 187, 188, 189, 190],
      "AcquisitionTime": ["154028.550000", "154030.040000", "154031.530000", "154033.020000", "154034.510000", "154036.000000", "154037.490000", "154038.980000", "154040.470000", "154041.960000", "154043.450000", "154044.940000", "154046.430000", "154047.920000", "154049.410000", "154050.900000", "154052.390000", "154053.880000", "154055.370000", "154056.860000", "154058.350000", "154059.840000", "154101.330000", "154102.820000", "154104.310000", "154105.800000", "154107.290000", "154108.780000", "154110.270000", "154111.760000", "154113.250000", "154114.740000", "154116.230000", "154117.720000", "154119.210000", "154120.700000", "154122.190000", "154123.680000", "154125.170000", "154126.660000", "154128.150000", "154129.640000", "154131.130000", "154132.620000", "154134.110000", "154135.600000", "154137.090000", "154138.580000", "154140.070000", "154141.560000", "154143.050000", "154144.540000", "154146.030000", "154147.520000", "154149.010000", "154150.500000", "154151.990000", "154153.480000", "154154.970000", "154156.460000", "154157.950000", "154159.440000", "154200.930000", "154202.420000", "154203.910000", "154205.400000", "154206.890000", "154208.380000", "154209.870000", "154211.360000", "154212.850000", "154214.340000", "154215.830000", "154217.320000", "154218.810000", "154220.300000", "154221.790000", "154223.280000", "154224.770000", "154226.260000", "154227.750000", "154229.240000", "154230.730000", "154232.220000", "154233.710000", "154235.200000", "154236.690000", "154238.180000", "154239.670000", "154241.160000", "154242.650000", "154244.140000", "154245.630000", "154247.120000", "154248.610000", "154250.100000", "154251.590000", "154253.080000", "154254.570000", "154256.060000", "154257.550000", "154259.040000", "154300.530000", "154302.020000", "154303.510000", "154305.000000", "154306.490000", "154307.980000", "154309.470000", "154310.960000", "154312.450000", "154313.940000", "154315.430000", "154316.920000", "154318.410000", "154319.900000", "154321.390000", "154322.880000", "154324.370000", "154325.860000", "154327.350000", "154328.840000", "154330.330000", "154331.820000", "154333.310000", "154334.800000", "154336.290000", "154337.780000", "154339.270000", "154340.760000", "154342.250000", "154343.740000", "154345.230000", "154346.720000", "154348.210000", "154349.700000", "154351.190000", "154352.680000", "154354.170000", "154355.660000", "154357.150000", "154358.640000", "154400.130000", "154401.620000", "154403.110000", "154404.600000", "154406.090000", "154407.580000", "154409.070000", "154410.560000", "154412.050000", "154413.540000", "154415.030000", "154416.520000", "154418.010000", "154419.500000", "154420.990000", "154422.480000", "154423.970000", "154425.460000", "154426.950000", "154428.440000", "154429.930000", "154431.420000", "154432.910000", "154434.400000", "154435.890000", "154437.380000", "154438.870000", "154440.360000", "154441.850000", "154443.340000", "154444.830000", "154446.320000", "154447.810000", "154449.300000", "154450.790000", "154452.280000", "154453.770000", "154455.260000", "154456.750000", "154458.240000", "154459.730000", "154501.220000", "154502.710000", "154504.200000", "154505.690000", "154507.180000", "154508.670000", "154510.160000"],
      "ContentTime": ["154158.983000", "154158.986000", "154158.989000", "154158.991000", "154158.994000", "154158.996000", "154159.000000", "154159.002000", "154159.005000", "154159.007000", "154159.010000", "154159.012000", "154159.014000", "154159.017000", "154159.019000", "154159.022000", "154159.024000", "154159.027000", "154159.029000", "154159.032000", "154159.034000", "154159.037000", "154159.039000", "154159.041000", "154159.044000", "154159.046000", "154159.049000", "154159.051000", "154159.054000", "154159.056000", "154159.060000", "154159.063000", "154159.065000", "154159.068000", "154159.070000", "154159.073000", "154218.878000", "154218.881000", "154218.883000", "154218.886000", "154218.888000", "154218.891000", "154218.893000", "154218.896000", "154218.898000", "154218.901000", "154218.903000", "154218.905000", "154218.908000", "154218.910000", "154218.913000", "154218.915000", "154218.918000", "154218.920000", "154218.923000", "154218.925000", "154238.894000", "154238.897000", "154238.899000", "154238.902000", "154238.904000", "154238.907000", "154238.909000", "154238.912000", "154238.914000", "154238.916000", "154238.919000", "154238.921000", "154238.924000", "154238.926000", "154238.929000", "154238.931000", "154238.934000", "154238.936000", "154238.939000", "154238.941000", "154238.944000", "154259.052000", "154259.055000", "154259.057000", "154259.060000", "154259.062000", "154259.065000", "154259.067000", "154259.070000", "154259.072000", "154259.075000", "154259.077000", "154259.080000", "154259.082000", "154259.084000", "154259.087000", "154259.089000", "154259.092000", "154259.094000", "154259.097000", "154259.099000", "154339.129000", "154339.132000", "154339.134000", "154339.137000", "154339.139000", "154339.142000", "154339.144000", "154339.147000", "154339.149000", "154339.152000", "154339.154000", "154339.157000", "154339.159000", "154339.162000", "154339.164000", "154339.167000", "154339.169000", "154339.172000", "154339.174000", "154339.177000", "154339.179000", "154339.182000", "154339.184000", "154339.187000", "154339.189000", "154339.192000", "154339.194000", "154339.197000", "154339.199000", "154339.202000", "154418.908000", "154418.910000", "154418.913000", "154418.915000", "154418.918000", "154418.920000", "154418.923000", "154418.925000", "154418.928000", "154418.930000", "154418.933000", "154418.935000", "154418.938000", "154418.940000", "154418.943000", "154418.945000", "154418.948000", "154418.950000", "154418.953000", "154418.955000", "154418.958000", "154418.960000", "154418.963000", "154418.965000", "154418.967000", "154418.970000", "154418.972000", "154458.938000", "154458.941000", "154458.943000", "154458.946000", "154458.948000", "154458.951000", "154458.953000", "154458.956000", "154458.958000", "154458.961000", "154458.963000", "154458.966000", "154458.968000", "154458.970000", "154458.973000", "154458.975000", "154458.978000", "154458.980000", "154458.983000", "154458.985000", "154458.988000", "154458.990000", "154458.993000", "154458.995000", "154458.998000", "154459.001000", "154459.004000", "154512.199000", "154512.202000", "154512.205000", "154512.207000", "154512.210000", "154512.212000", "154512.215000", "154512.218000", "154512.220000"],
      "InstanceCreationTime": ["154158.983000", "154158.986000", "154158.989000", "154158.991000", "154158.994000", "154158.996000", "154159.000000", "154159.002000", "154159.005000", "154159.007000", "154159.010000", "154159.012000", "154159.014000", "154159.017000", "154159.019000", "154159.022000", "154159.024000", "154159.027000", "154159.029000", "154159.032000", "154159.034000", "154159.037000", "154159.039000", "154159.041000", "154159.044000", "154159.046000", "154159.049000", "154159.051000", "154159.054000", "154159.056000", "154159.060000", "154159.063000", "154159.065000", "154159.068000", "154159.070000", "154159.073000", "154218.878000", "154218.881000", "154218.883000", "154218.886000", "154218.888000", "154218.891000", "154218.893000", "154218.896000", "154218.898000", "154218.901000", "154218.903000", "154218.905000", "154218.908000", "154218.910000", "154218.913000", "154218.915000", "154218.918000", "154218.920000", "154218.923000", "154218.925000", "154238.894000", "154238.897000", "154238.899000", "154238.902000", "154238.904000", "154238.907000", "154238.909000", "154238.912000", "154238.914000", "154238.916000", "154238.919000", "154238.921000", "154238.924000", "154238.926000", "154238.929000", "154238.931000", "154238.934000", "154238.936000", "154238.939000", "154238.941000", "154238.944000", "154259.052000", "154259.055000", "154259.057000", "154259.060000", "154259.062000", "154259.065000", "154259.067000", "154259.070000", "154259.072000", "154259.075000", "154259.077000", "154259.080000", "154259.082000", "154259.084000", "154259.087000", "154259.089000", "154259.092000", "154259.094000", "154259.097000", "154259.099000", "154339.129000", "154339.132000", "154339.134000", "154339.137000", "154339.139000", "154339.142000", "154339.144000", "154339.147000", "154339.149000", "154339.152000", "154339.154000", "154339.157000", "154339.159000", "154339.162000", "154339.164000", "154339.167000", "154339.169000", "154339.172000", "154339.174000", "154339.177000", "154339.179000", "154339.182000", "154339.184000", "154339.187000", "154339.189000", "154339.192000", "154339.194000", "154339.197000", "154339.199000", "154339.202000", "154418.908000", "154418.910000", "154418.913000", "154418.915000", "154418.918000", "154418.920000", "154418.923000", "154418.925000", "154418.928000", "154418.930000", "154418.933000", "154418.935000", "154418.938000", "154418.940000", "154418.943000", "154418.945000", "154418.948000", "154418.950000", "154418.953000", "154418.955000", "154418.958000", "154418.960000", "154418.963000", "154418.965000", "154418.967000", "154418.970000", "154418.972000", "154458.938000", "154458.941000", "154458.943000", "154458.946000", "154458.948000", "154458.951000", "154458.953000", "154458.956000", "154458.958000", "154458.961000", "154458.963000", "154458.966000", "154458.968000", "154458.970000", "154458.973000", "154458.975000", "154458.978000", "154458.980000", "154458.983000", "154458.985000", "154458.988000", "154458.990000", "154458.993000", "154458.995000", "154458.998000", "154459.001000", "154459.004000", "154512.199000", "154512.202000", "154512.205000", "154512.207000", "154512.210000", "154512.212000", "154512.215000", "154512.218000", "154512.220000"],
      "InstanceNumber": [1, 2, 3, 4, 5, 6, 7, 8, 9, 10, 11, 12, 13, 14, 15, 16, 17, 18, 19, 20, 21, 22, 23, 24, 25, 26, 27, 28, 29, 30, 31, 32, 33, 34, 35, 36, 37, 38, 39, 40, 41, 42, 43, 44, 45, 46, 47, 48, 49, 50, 51, 52, 53, 54, 55, 56, 57, 58, 59, 60, 61, 62, 63, 64, 65, 66, 67, 68, 69, 70, 71, 72, 73, 74, 75, 76, 77, 78, 79, 80, 81, 82, 83, 84, 85, 86, 87, 88, 89, 90, 91, 92, 93, 94, 95, 96, 97, 98, 99, 100, 101, 102, 103, 104, 105, 106, 107, 108, 109, 110, 111, 112, 113, 114, 115, 116, 117, 118, 119, 120, 121, 122, 123, 124, 125, 126, 127, 128, 129, 130, 131, 132, 133, 134, 135, 136, 137, 138, 139, 140, 141, 142, 143, 144, 145, 146, 147, 148, 149, 150, 151, 152, 153, 154, 155, 156, 157, 158, 159, 160, 161, 162, 163, 164, 165, 166, 167, 168, 169, 170, 171, 172, 173, 174, 175, 176, 177, 178, 179, 180, 181, 182, 183, 184, 185, 186, 187, 188, 189, 190],
      "WindowCenter": [4826.0, 4876.0, 4876.0, 4822.0, 4794.0, 4790.0, 4794.0, 4826.0, 4826.0, 4824.0, 4848.0, 4850.0, 4848.0, 4852.0, 4878.0, 4880.0, 4816.0, 4816.0, 4794.0, 4794.0, 4818.0, 4880.0, 4876.0, 4826.0, 4828.0, 4824.0, 4798.0, 4822.0, 4820.0, 4792.0, 4872.0, 4870.0, 4824.0, 4824.0, 4820.0, 4792.0, 4826.0, 4824.0, 4826.0, 4848.0, 4828.0, 4822.0, 4820.0, 4824.0, 4876.0, 4850.0, 4822.0, 4818.0, 4794.0, 4824.0, 4824.0, 4824.0, 4848.0, 4876.0, 4854.0, 4826.0, 4828.0, 4854.0, 4824.0, 4822.0, 4826.0, 4848.0, 4822.0, 4848.0, 4826.0, 4826.0, 4854.0, 4824.0, 4824.0, 4822.0, 4820.0, 4824.0, 4852.0, 4824.0, 4824.0, 4824.0, 4822.0, 4824.0, 4874.0, 4828.0, 4822.0, 4824.0, 4824.0, 4820.0, 4852.0, 4852.0, 4822.0, 4824.0, 4822.0, 4822.0, 4850.0, 4824.0, 4824.0, 4824.0, 4820.0, 4826.0, 4822.0, 4848.0, 4880.0, 4850.0, 4822.0, 4818.0, 4820.0, 4822.0, 4846.0, 4828.0, 4830.0, 4876.0, 4850.0, 4826.0, 4820.0, 4850.0, 4824.0, 4824.0, 4822.0, 4874.0, 4878.0, 4824.0, 4822.0, 4820.0, 4820.0, 4822.0, 4848.0, 4852.0, 4828.0, 4824.0, 4826.0, 4826.0, 4826.0, 4822.0, 4850.0, 4826.0, 4822.0, 4826.0, 4822.0, 4848.0, 4854.0, 4824.0, 4850.0, 4824.0, 4798.0, 4828.0, 4822.0, 4820.0, 4848.0, 4850.0, 4824.0, 4826.0, 4822.0, 4824.0, 4824.0, 4818.0, 4824.0, 4822.0, 4822.0, 4822.0, 4824.0, 4848.0, 4824.0, 4826.0, 4820.0, 4850.0, 4852.0, 4820.0, 4820.0, 4822.0, 4822.0, 4824.0, 4852.0, 4902.0, 4848.0, 4820.0, 4820.0, 4820.0, 4820.0, 4850.0, 4826.0, 4820.0, 4826.0, 4828.0, 4824.0, 4852.0, 4824.0, 4826.0, 4822.0, 4800.0, 4822.0, 4826.0, 4824.0, 4850.0],
      "WindowWidth": [18590.0, 18692.0, 18680.0, 18586.0, 18548.0, 18548.0, 18552.0, 18582.0, 18588.0, 18590.0, 18626.0, 18626.0, 18622.0, 18630.0, 18690.0, 18676.0, 18584.0, 18582.0, 18554.0, 18550.0, 18582.0, 18674.0, 18668.0, 18592.0, 18594.0, 18590.0, 18552.0, 18586.0, 18584.0, 18552.0, 18674.0, 18672.0, 18590.0, 18588.0, 18586.0, 18546.0, 18588.0, 18590.0, 18598.0, 18624.0, 18594.0, 18590.0, 18584.0, 18590.0, 18688.0, 18634.0, 18582.0, 18582.0, 18548.0, 18586.0, 18590.0, 18584.0, 18628.0, 18668.0, 18628.0, 18592.0, 18590.0, 18632.0, 18586.0, 18582.0, 18588.0, 18620.0, 18582.0, 18628.0, 18590.0, 18590.0, 18628.0, 18594.0, 18588.0, 18588.0, 18584.0, 18588.0, 18640.0, 18584.0, 18588.0, 18588.0, 18588.0, 18588.0, 18670.0, 18592.0, 18584.0, 18592.0, 18586.0, 18586.0, 18634.0, 18628.0, 18584.0, 18594.0, 18590.0, 18586.0, 18624.0, 18592.0, 18594.0, 18592.0, 18582.0, 18592.0, 18584.0, 18628.0, 18682.0, 18624.0, 18582.0, 18578.0, 18582.0, 18582.0, 18624.0, 18588.0, 18592.0, 18670.0, 18628.0, 18588.0, 18582.0, 18628.0, 18588.0, 18592.0, 18578.0, 18674.0, 18688.0, 18586.0, 18584.0, 18584.0, 18578.0, 18584.0, 18630.0, 18624.0, 18598.0, 18590.0, 18590.0, 18590.0, 18588.0, 18586.0, 18632.0, 18590.0, 18586.0, 18592.0, 18584.0, 18628.0, 18632.0, 18584.0, 18626.0, 18586.0, 18556.0, 18588.0, 18586.0, 18584.0, 18622.0, 18630.0, 18588.0, 18600.0, 18586.0, 18590.0, 18586.0, 18582.0, 18586.0, 18582.0, 18592.0, 18588.0, 18588.0, 18634.0, 18580.0, 18592.0, 18584.0, 18630.0, 18632.0, 18584.0, 18578.0, 18588.0, 18582.0, 18584.0, 18630.0, 18722.0, 18622.0, 18582.0, 18584.0, 18580.0, 18578.0, 18622.0, 18592.0, 18582.0, 18592.0, 18588.0, 18584.0, 18628.0, 18582.0, 18578.0, 18578.0, 18550.0, 18582.0, 18588.0, 18584.0, 18628.0]
    },
    "slices": {}
  }
}