{
  "AcquisitionMatrixPE": 104,
  "AcquisitionNumber": 1,
  "AcquisitionTime": "15:29:43.985000",
  "BandwidthPerPixelPhaseEncode": 17.17,
  "BaseResolution": 104,
  "BodyPartExamined": "BRAIN",
  "CoilString": "HC1-7;NC1_2",
  "ConsistencyInfo": "N4_VE11C_LATEST_20160120",
  "ConversionSoftware": "dcm2niix",
  "ConversionSoftwareVersion": "v1.0.20190902",
  "DerivedVendorReportedEchoSpacing": 0.000560011,
  "DeviceSerialNumber": "167006",
  "DwellTime": 2.1e-06,
  "EchoTime": 0.037,
  "EchoTrainLength": 104,
  "EffectiveEchoSpacing": 0.000560011,
  "FlipAngle": 52,
  "ImageComments": "Unaliased_MB4_PE3_LB",
  "ImageOrientationPatientDICOM": [0.998887, -0.0461575, 0.0097211, 0.0467569, 0.941665, -0.333288],
  "ImageType": [
    "ORIGINAL",
    "PRIMARY",
    "P",
    "MB",
    "ND",
    "MOSAIC"
],
  "ImagingFrequency": 123.259,
  "InPlanePhaseEncodingDirectionDICOM": "COL",
  "InstitutionAddress": "Chemin_Queen-Mary_4565_Montreal_District_CA_H3W_1W5",
  "InstitutionName": "IUGM",
  "InstitutionalDepartmentName": "Department",
  "MRAcquisitionType": "2D",
  "MagneticFieldStrength": 3,
  "Manufacturer": "Siemens",
  "ManufacturersModelName": "Prisma_fit",
  "Modality": "MR",
  "MultibandAccelerationFactor": 4,
  "PartialFourier": 1,
  "PatientPosition": "HFS",
  "PercentPhaseFOV": 100,
  "PhaseEncodingDirection": "j",
  "PhaseEncodingSteps": 104,
  "PhaseResolution": 1,
  "PixelBandwidth": 2290,
  "ProcedureStepDescription": "memory_things",
  "ProtocolName": "func_task-things_run-1",
  "PulseSequenceDetails": "%CustomerSeq%_cmrr_mbep2d_bold",
  "ReceiveCoilActiveElements": "HC1-7;NC1,2",
  "ReceiveCoilName": "HeadNeck_64",
  "ReconMatrixPE": 104,
  "RepetitionTime": 1.49,
  "SAR": 0.0355395,
  "ScanOptions": "FS",
  "ScanningSequence": "EP",
  "SequenceName": "epfid2d1_104",
  "SequenceVariant": "SK_SS",
  "SeriesDescription": "func_task-things_run-1",
  "SeriesNumber": 11,
  "ShimSetting": [628, -7241, -8818, 594, 1, -154, -59, -29],
  "SliceThickness": 2,
  "SliceTiming": [0, 0.785, 0.1, 0.8825, 0.1975, 0.98, 0.295, 1.08, 0.3925, 1.1775, 0.49, 1.275, 0.59, 1.3725, 0.6875, 0, 0.785, 0.1, 0.8825, 0.1975, 0.98, 0.295, 1.08, 0.3925, 1.1775, 0.49, 1.275, 0.59, 1.3725, 0.6875, 0, 0.785, 0.1, 0.8825, 0.1975, 0.98, 0.295, 1.08, 0.3925, 1.1775, 0.49, 1.275, 0.59, 1.3725, 0.6875, 0, 0.785, 0.1, 0.8825, 0.1975, 0.98, 0.295, 1.08, 0.3925, 1.1775, 0.49, 1.275, 0.59, 1.3725, 0.6875],
  "SoftwareVersions": "syngo_MR_E11",
  "SpacingBetweenSlices": 2,
  "StationName": "MRC35049",
  "TaskName": "things",
  "TotalReadoutTime": 0.0576811,
  "TxRefAmp": 234.237,
  "WipMemBlock": "f6d6c143-acb7-42f9-ab79-ada1e9d1929d||Sequence: R016 ve11c/master r/e634e98; Dec 19 2017 11:00:25 by eja",
  "dcmmeta_affine": [
    [-1.9977737665176392, 0.09351377934217453, -0.012459460645914078, 102.39879608154297],
    [0.09231503307819366, 1.8833298683166504, -0.6667433381080627, -69.93574523925781],
    [0.019442206248641014, 0.6665762662887573, 1.885549783706665, -64.25875854492188],
    [0.0, 0.0, 0.0, 1.0]
],
  "dcmmeta_reorient_transform": [
    [0.0, -1.0, 0.0, 103.0],
    [1.0, 0.0, 0.0, 0.0],
    [0.0, 0.0, 1.0, 0.0],
    [0.0, 0.0, 0.0, 1.0]
],
  "dcmmeta_shape": [104, 104, 60, 190],
  "dcmmeta_slice_dim": 2,
  "dcmmeta_version": 0.6,
  "global": {
    "const": {
      "AcquisitionMatrix": [104, 0, 0, 104],
      "AngioFlag": "N",
      "BitsAllocated": 16,
      "BitsStored": 16,
      "BodyPartExamined": "BRAIN",
      "Columns": 832,
      "EchoNumbers": 1,
      "EchoTime": 37.0,
      "EchoTrainLength": 104,
      "FlipAngle": 52.0,
      "HighBit": 15,
      "ImageOrientationPatient": [0.99888687240235, -0.046157516155, 0.00972110305688, 0.04675688828352, 0.94166491828312, -0.3332881262105],
      "ImagePositionPatient": [-873.25937015354, -775.9766139844, 239.95538861474],
      "ImageType": [
        "ORIGINAL",
        "PRIMARY",
        "P",
        "MB",
        "ND",
        "MOSAIC"
],
      "ImagedNucleus": "1H",
      "ImagingFrequency": 123.258916,
      "InPlanePhaseEncodingDirection": "COL",
      "LargestImagePixelValue": 4095,
      "MRAcquisitionType": "2D",
      "MagneticFieldStrength": 3.0,
      "Manufacturer": "SIEMENS",
      "ManufacturerModelName": "Prisma_fit",
      "Modality": "MR",
      "NumberOfAverages": 1.0,
      "NumberOfPhaseEncodingSteps": 104,
      "PercentPhaseFieldOfView": 100.0,
      "PercentSampling": 100.0,
      "PerformedProcedureStepStartTime": "144713.973000",
      "PhotometricInterpretation": "MONOCHROME2",
      "PixelBandwidth": 2290.0,
      "PixelRepresentation": 0,
      "PixelSpacing": [2.0, 2.0],
      "ProtocolName": "func_task-things_run-1",
      "RepetitionTime": 1490.0,
      "RescaleIntercept": -4096.0,
      "RescaleSlope": 2.0,
      "RescaleType": "US",
      "Rows": 832,
      "SAR": 0.03553951294661,
      "SamplesPerPixel": 1,
      "ScanOptions": "FS",
      "ScanningSequence": "EP",
      "SequenceName": "epfid2d1_104",
      "SequenceVariant": [
        "SK",
        "SS"
],
      "SeriesDescription": "func_task-things_run-1",
      "SeriesNumber": 11,
      "SeriesTime": "153107.896000",
      "SliceLocation": -37.904865131087,
      "SliceThickness": 2.0,
      "SmallestImagePixelValue": 0,
      "SoftwareVersions": "syngo MR E11",
      "SpacingBetweenSlices": 1.999999991241,
      "SpecificCharacterSet": "ISO_IR 100",
      "StudyID": "1",
      "StudyTime": "144713.864000",
      "TransmitCoilName": "Body",
      "VariableFlipAngleFlag": "N",
      "WindowCenterWidthExplanation": "Algo1",
      "dBdt": 0.0},
    "slices": {}
  },
  "time": {
    "samples": {
      "AcquisitionNumber": [1, 2, 3, 4, 5, 6, 7, 8, 9, 10, 11, 12, 13, 14, 15, 16, 17, 18, 19, 20, 21, 22, 23, 24, 25, 26, 27, 28, 29, 30, 31, 32, 33, 34, 35, 36, 37, 38, 39, 40, 41, 42, 43, 44, 45, 46, 47, 48, 49, 50, 51, 52, 53, 54, 55, 56, 57, 58, 59, 60, 61, 62, 63, 64, 65, 66, 67, 68, 69, 70, 71, 72, 73, 74, 75, 76, 77, 78, 79, 80, 81, 82, 83, 84, 85, 86, 87, 88, 89, 90, 91, 92, 93, 94, 95, 96, 97, 98, 99, 100, 101, 102, 103, 104, 105, 106, 107, 108, 109, 110, 111, 112, 113, 114, 115, 116, 117, 118, 119, 120, 121, 122, 123, 124, 125, 126, 127, 128, 129, 130, 131, 132, 133, 134, 135, 136, 137, 138, 139, 140, 141, 142, 143, 144, 145, 146, 147, 148, 149, 150, 151, 152, 153, 154, 155, 156, 157, 158, 159, 160, 161, 162, 163, 164, 165, 166, 167, 168, 169, 170, 171, 172, 173, 174, 175, 176, 177, 178, 179, 180, 181, 182, 183, 184, 185, 186, 187, 188, 189, 190],
      "AcquisitionTime": ["152943.985000", "152945.475000", "152946.965000", "152948.455000", "152949.945000", "152951.435000", "152952.925000", "152954.415000", "152955.905000", "152957.395000", "152958.885000", "153000.375000", "153001.865000", "153003.355000", "153004.845000", "153006.335000", "153007.825000", "153009.315000", "153010.805000", "153012.295000", "153013.785000", "153015.275000", "153016.765000", "153018.255000", "153019.745000", "153021.235000", "153022.725000", "153024.215000", "153025.705000", "153027.195000", "153028.685000", "153030.175000", "153031.665000", "153033.155000", "153034.645000", "153036.135000", "153037.625000", "153039.115000", "153040.605000", "153042.095000", "153043.585000", "153045.075000", "153046.565000", "153048.055000", "153049.545000", "153051.035000", "153052.525000", "153054.015000", "153055.505000", "153056.995000", "153058.485000", "153059.975000", "153101.465000", "153102.955000", "153104.445000", "153105.935000", "153107.425000", "153108.915000", "153110.405000", "153111.895000", "153113.385000", "153114.875000", "153116.365000", "153117.855000", "153119.345000", "153120.835000", "153122.325000", "153123.815000", "153125.305000", "153126.795000", "153128.285000", "153129.775000", "153131.265000", "153132.755000", "153134.245000", "153135.735000", "153137.225000", "153138.715000", "153140.205000", "153141.695000", "153143.185000", "153144.675000", "153146.165000", "153147.655000", "153149.145000", "153150.635000", "153152.125000", "153153.615000", "153155.105000", "153156.595000", "153158.085000", "153159.575000", "153201.065000", "153202.555000", "153204.045000", "153205.535000", "153207.025000", "153208.515000", "153210.005000", "153211.495000", "153212.985000", "153214.475000", "153215.965000", "153217.455000", "153218.945000", "153220.435000", "153221.925000", "153223.415000", "153224.905000", "153226.395000", "153227.885000", "153229.375000", "153230.865000", "153232.355000", "153233.845000", "153235.335000", "153236.825000", "153238.315000", "153239.805000", "153241.295000", "153242.785000", "153244.275000", "153245.765000", "153247.255000", "153248.745000", "153250.235000", "153251.725000", "153253.215000", "153254.705000", "153256.195000", "153257.685000", "153259.175000", "153300.665000", "153302.155000", "153303.645000", "153305.135000", "153306.625000", "153308.115000", "153309.605000", "153311.095000", "153312.585000", "153314.075000", "153315.565000", "153317.055000", "153318.545000", "153320.035000", "153321.525000", "153323.015000", "153324.505000", "153325.995000", "153327.485000", "153328.975000", "153330.465000", "153331.955000", "153333.445000", "153334.935000", "153336.425000", "153337.915000", "153339.405000", "153340.895000", "153342.385000", "153343.875000", "153345.365000", "153346.855000", "153348.345000", "153349.835000", "153351.325000", "153352.815000", "153354.305000", "153355.795000", "153357.285000", "153358.775000", "153400.265000", "153401.755000", "153403.245000", "153404.735000", "153406.225000", "153407.715000", "153409.205000", "153410.695000", "153412.185000", "153413.675000", "153415.165000", "153416.655000", "153418.145000", "153419.635000", "153421.125000", "153422.615000", "153424.105000", "153425.595000"],
      "ContentTime": ["153107.898000", "153107.900000", "153107.903000", "153107.905000", "153107.908000", "153107.910000", "153107.913000", "153107.916000", "153107.918000", "153107.921000", "153107.923000", "153107.926000", "153107.928000", "153107.936000", "153107.939000", "153107.941000", "153107.944000", "153107.947000", "153107.949000", "153107.952000", "153107.954000", "153107.957000", "153107.959000", "153107.962000", "153107.964000", "153107.967000", "153107.969000", "153107.972000", "153107.974000", "153107.977000", "153107.979000", "153127.802000", "153127.805000", "153127.807000", "153127.810000", "153127.812000", "153127.815000", "153127.818000", "153127.820000", "153127.823000", "153127.825000", "153127.828000", "153127.830000", "153127.833000", "153127.835000", "153127.838000", "153127.840000", "153127.843000", "153127.845000", "153127.848000", "153127.851000", "153147.824000", "153147.827000", "153147.829000", "153147.832000", "153147.835000", "153147.837000", "153147.840000", "153147.842000", "153147.845000", "153147.847000", "153147.850000", "153147.852000", "153147.855000", "153147.857000", "153147.860000", "153147.862000", "153147.865000", "153147.867000", "153147.870000", "153147.872000", "153207.851000", "153207.854000", "153207.857000", "153207.859000", "153207.862000", "153207.864000", "153207.867000", "153207.869000", "153207.872000", "153207.874000", "153207.877000", "153207.879000", "153207.882000", "153207.884000", "153207.887000", "153207.889000", "153207.892000", "153207.894000", "153207.897000", "153207.899000", "153207.902000", "153247.855000", "153247.858000", "153247.860000", "153247.863000", "153247.865000", "153247.868000", "153247.871000", "153247.873000", "153247.876000", "153247.878000", "153247.881000", "153247.883000", "153247.886000", "153247.888000", "153247.891000", "153247.893000", "153247.896000", "153247.898000", "153247.901000", "153247.903000", "153247.906000", "153247.908000", "153247.911000", "153247.913000", "153247.924000", "153247.927000", "153247.929000", "153247.932000", "153247.934000", "153247.937000", "153247.939000", "153328.296000", "153328.299000", "153328.301000", "153328.304000", "153328.306000", "153328.309000", "153328.311000", "153328.314000", "153328.317000", "153328.319000", "153328.322000", "153328.324000", "153328.327000", "153328.329000", "153328.332000", "153328.334000", "153328.337000", "153328.339000", "153328.342000", "153328.344000", "153328.347000", "153328.349000", "153328.352000", "153328.354000", "153328.357000", "153328.359000", "153328.362000", "153347.871000", "153347.874000", "153347.877000", "153347.879000", "153347.882000", "153347.884000", "153347.887000", "153347.889000", "153347.892000", "153347.894000", "153347.897000", "153347.899000", "153347.902000", "153427.462000", "153427.465000", "153427.467000", "153427.470000", "153427.473000", "153427.475000", "153427.478000", "153427.480000", "153427.483000", "153427.486000", "153427.488000", "153427.491000", "153427.493000", "153427.496000", "153427.499000", "153427.501000", "153427.504000", "153427.506000", "153427.509000", "153427.512000", "153427.514000", "153427.517000", "153427.519000", "153427.522000", "153427.525000", "153427.527000", "153427.538000"],
      "InstanceCreationTime": ["153107.898000", "153107.900000", "153107.903000", "153107.905000", "153107.908000", "153107.910000", "153107.913000", "153107.916000", "153107.918000", "153107.921000", "153107.923000", "153107.926000", "153107.928000", "153107.936000", "153107.939000", "153107.941000", "153107.944000", "153107.947000", "153107.949000", "153107.952000", "153107.954000", "153107.957000", "153107.959000", "153107.962000", "153107.964000", "153107.967000", "153107.969000", "153107.972000", "153107.974000", "153107.977000", "153107.979000", "153127.802000", "153127.805000", "153127.807000", "153127.810000", "153127.812000", "153127.815000", "153127.818000", "153127.820000", "153127.823000", "153127.825000", "153127.828000", "153127.830000", "153127.833000", "153127.835000", "153127.838000", "153127.840000", "153127.843000", "153127.845000", "153127.848000", "153127.851000", "153147.824000", "153147.827000", "153147.829000", "153147.832000", "153147.835000", "153147.837000", "153147.840000", "153147.842000", "153147.845000", "153147.847000", "153147.850000", "153147.852000", "153147.855000", "153147.857000", "153147.860000", "153147.862000", "153147.865000", "153147.867000", "153147.870000", "153147.872000", "153207.851000", "153207.854000", "153207.857000", "153207.859000", "153207.862000", "153207.864000", "153207.867000", "153207.869000", "153207.872000", "153207.874000", "153207.877000", "153207.879000", "153207.882000", "153207.884000", "153207.887000", "153207.889000", "153207.892000", "153207.894000", "153207.897000", "153207.899000", "153207.902000", "153247.855000", "153247.858000", "153247.860000", "153247.863000", "153247.865000", "153247.868000", "153247.871000", "153247.873000", "153247.876000", "153247.878000", "153247.881000", "153247.883000", "153247.886000", "153247.888000", "153247.891000", "153247.893000", "153247.896000", "153247.898000", "153247.901000", "153247.903000", "153247.906000", "153247.908000", "153247.911000", "153247.913000", "153247.924000", "153247.927000", "153247.929000", "153247.932000", "153247.934000", "153247.937000", "153247.939000", "153328.296000", "153328.299000", "153328.301000", "153328.304000", "153328.306000", "153328.309000", "153328.311000", "153328.314000", "153328.317000", "153328.319000", "153328.322000", "153328.324000", "153328.327000", "153328.329000", "153328.332000", "153328.334000", "153328.337000", "153328.339000", "153328.342000", "153328.344000", "153328.347000", "153328.349000", "153328.352000", "153328.354000", "153328.357000", "153328.359000", "153328.362000", "153347.871000", "153347.874000", "153347.877000", "153347.879000", "153347.882000", "153347.884000", "153347.887000", "153347.889000", "153347.892000", "153347.894000", "153347.897000", "153347.899000", "153347.902000", "153427.462000", "153427.465000", "153427.467000", "153427.470000", "153427.473000", "153427.475000", "153427.478000", "153427.480000", "153427.483000", "153427.486000", "153427.488000", "153427.491000", "153427.493000", "153427.496000", "153427.499000", "153427.501000", "153427.504000", "153427.506000", "153427.509000", "153427.512000", "153427.514000", "153427.517000", "153427.519000", "153427.522000", "153427.525000", "153427.527000", "153427.538000"],
      "InstanceNumber": [1, 2, 3, 4, 5, 6, 7, 8, 9, 10, 11, 12, 13, 14, 15, 16, 17, 18, 19, 20, 21, 22, 23, 24, 25, 26, 27, 28, 29, 30, 31, 32, 33, 34, 35, 36, 37, 38, 39, 40, 41, 42, 43, 44, 45, 46, 47, 48, 49, 50, 51, 52, 53, 54, 55, 56, 57, 58, 59, 60, 61, 62, 63, 64, 65, 66, 67, 68, 69, 70, 71, 72, 73, 74, 75, 76, 77, 78, 79, 80, 81, 82, 83, 84, 85, 86, 87, 88, 89, 90, 91, 92, 93, 94, 95, 96, 97, 98, 99, 100, 101, 102, 103, 104, 105, 106, 107, 108, 109, 110, 111, 112, 113, 114, 115, 116, 117, 118, 119, 120, 121, 122, 123, 124, 125, 126, 127, 128, 129, 130, 131, 132, 133, 134, 135, 136, 137, 138, 139, 140, 141, 142, 143, 144, 145, 146, 147, 148, 149, 150, 151, 152, 153, 154, 155, 156, 157, 158, 159, 160, 161, 162, 163, 164, 165, 166, 167, 168, 169, 170, 171, 172, 173, 174, 175, 176, 177, 178, 179, 180, 181, 182, 183, 184, 185, 186, 187, 188, 189, 190],
      "WindowCenter": [4816.0, 4818.0, 4818.0, 4796.0, 4796.0, 4796.0, 4814.0, 4810.0, 4816.0, 4808.0, 4818.0, 4792.0, 4792.0, 4792.0, 4796.0, 4790.0, 4818.0, 4816.0, 4816.0, 4812.0, 4814.0, 4816.0, 4820.0, 4814.0, 4794.0, 4796.0, 4814.0, 4794.0, 4818.0, 4816.0, 4814.0, 4816.0, 4816.0, 4818.0, 4816.0, 4818.0, 4816.0, 4816.0, 4796.0, 4816.0, 4796.0, 4814.0, 4818.0, 4794.0, 4816.0, 4818.0, 4816.0, 4818.0, 4794.0, 4816.0, 4816.0, 4820.0, 4816.0, 4818.0, 4796.0, 4814.0, 4790.0, 4794.0, 4814.0, 4814.0, 4794.0, 4818.0, 4820.0, 4794.0, 4794.0, 4814.0, 4816.0, 4816.0, 4816.0, 4818.0, 4816.0, 4816.0, 4814.0, 4790.0, 4816.0, 4818.0, 4816.0, 4816.0, 4792.0, 4818.0, 4816.0, 4794.0, 4814.0, 4816.0, 4794.0, 4816.0, 4816.0, 4816.0, 4814.0, 4792.0, 4792.0, 4818.0, 4818.0, 4814.0, 4816.0, 4816.0, 4814.0, 4818.0, 4794.0, 4818.0, 4814.0, 4794.0, 4794.0, 4794.0, 4816.0, 4816.0, 4816.0, 4818.0, 4816.0, 4816.0, 4818.0, 4818.0, 4816.0, 4810.0, 4816.0, 4794.0, 4816.0, 4816.0, 4792.0, 4814.0, 4796.0, 4792.0, 4816.0, 4816.0, 4814.0, 4792.0, 4816.0, 4818.0, 4816.0, 4816.0, 4792.0, 4792.0, 4820.0, 4792.0, 4792.0, 4816.0, 4816.0, 4792.0, 4792.0, 4820.0, 4818.0, 4816.0, 4818.0, 4816.0, 4814.0, 4814.0, 4792.0, 4792.0, 4812.0, 4814.0, 4794.0, 4814.0, 4814.0, 4816.0, 4814.0, 4818.0, 4816.0, 4814.0, 4816.0, 4814.0, 4792.0, 4816.0, 4812.0, 4816.0, 4812.0, 4816.0, 4814.0, 4790.0, 4816.0, 4814.0, 4792.0, 4814.0, 4790.0, 4816.0, 4818.0, 4792.0, 4812.0, 4816.0, 4820.0, 4814.0, 4812.0, 4816.0, 4816.0, 4812.0, 4790.0, 4812.0, 4814.0, 4794.0, 4814.0, 4816.0],
      "WindowWidth": [18600.0, 18610.0, 18614.0, 18562.0, 18534.0, 18556.0, 18610.0, 18616.0, 18616.0, 18612.0, 18606.0, 18570.0, 18566.0, 18556.0, 18566.0, 18570.0, 18598.0, 18614.0, 18612.0, 18610.0, 18618.0, 18608.0, 18606.0, 18604.0, 18566.0, 18572.0, 18600.0, 18560.0, 18606.0, 18606.0, 18602.0, 18614.0, 18602.0, 18612.0, 18604.0, 18602.0, 18608.0, 18596.0, 18568.0, 18612.0, 18572.0, 18614.0, 18610.0, 18564.0, 18606.0, 18608.0, 18596.0, 18608.0, 18568.0, 18606.0, 18606.0, 18606.0, 18606.0, 18608.0, 18568.0, 18604.0, 18570.0, 18558.0, 18606.0, 18610.0, 18574.0, 18606.0, 18608.0, 18562.0, 18570.0, 18602.0, 18602.0, 18608.0, 18594.0, 18606.0, 18600.0, 18598.0, 18608.0, 18566.0, 18602.0, 18610.0, 18600.0, 18602.0, 18574.0, 18598.0, 18608.0, 18572.0, 18602.0, 18604.0, 18566.0, 18606.0, 18598.0, 18600.0, 18602.0, 18564.0, 18574.0, 18604.0, 18606.0, 18608.0, 18600.0, 18602.0, 18598.0, 18602.0, 18570.0, 18600.0, 18606.0, 18568.0, 18574.0, 18568.0, 18608.0, 18600.0, 18596.0, 18610.0, 18596.0, 18600.0, 18610.0, 18596.0, 18594.0, 18604.0, 18606.0, 18564.0, 18606.0, 18602.0, 18562.0, 18604.0, 18572.0, 18572.0, 18594.0, 18594.0, 18602.0, 18566.0, 18610.0, 18606.0, 18604.0, 18608.0, 18566.0, 18568.0, 18602.0, 18560.0, 18572.0, 18592.0, 18602.0, 18572.0, 18558.0, 18612.0, 18604.0, 18602.0, 18610.0, 18600.0, 18598.0, 18592.0, 18568.0, 18570.0, 18594.0, 18602.0, 18566.0, 18604.0, 18604.0, 18596.0, 18602.0, 18600.0, 18604.0, 18600.0, 18598.0, 18600.0, 18566.0, 18606.0, 18598.0, 18602.0, 18606.0, 18600.0, 18602.0, 18574.0, 18600.0, 18608.0, 18566.0, 18600.0, 18562.0, 18598.0, 18608.0, 18558.0, 18598.0, 18610.0, 18604.0, 18608.0, 18592.0, 18604.0, 18604.0, 18594.0, 18564.0, 18604.0, 18594.0, 18574.0, 18594.0, 18596.0]
    },
    "slices": {}
  }
}