{
  "AcquisitionMatrixPE": 104,
  "AcquisitionNumber": 1,
  "AcquisitionTime": "15:42:14.815000",
  "BandwidthPerPixelPhaseEncode": 17.17,
  "BaseResolution": 104,
  "BodyPartExamined": "BRAIN",
  "CoilString": "HC1-7;NC1_2",
  "ConsistencyInfo": "N4_VE11C_LATEST_20160120",
  "ConversionSoftware": "dcm2niix",
  "ConversionSoftwareVersion": "v1.0.20190902",
  "DerivedVendorReportedEchoSpacing": 0.000560011,
  "DeviceSerialNumber": "167006",
  "DwellTime": 2.1e-06,
  "EchoTime": 0.037,
  "EchoTrainLength": 104,
  "EffectiveEchoSpacing": 0.000560011,
  "FlipAngle": 52,
  "ImageComments": "Unaliased_MB4_PE3_LB",
  "ImageOrientationPatientDICOM": [0.998887, -0.0461575, 0.0097211, 0.0467569, 0.941665, -0.333288],
  "ImageType": [
    "ORIGINAL",
    "PRIMARY",
    "M",
    "MB",
    "ND",
    "MOSAIC"
],
  "ImagingFrequency": 123.259,
  "InPlanePhaseEncodingDirectionDICOM": "COL",
  "InstitutionAddress": "Chemin_Queen-Mary_4565_Montreal_District_CA_H3W_1W5",
  "InstitutionName": "IUGM",
  "InstitutionalDepartmentName": "Department",
  "MRAcquisitionType": "2D",
  "MagneticFieldStrength": 3,
  "Manufacturer": "Siemens",
  "ManufacturersModelName": "Prisma_fit",
  "Modality": "MR",
  "MultibandAccelerationFactor": 4,
  "PartialFourier": 1,
  "PatientPosition": "HFS",
  "PercentPhaseFOV": 100,
  "PhaseEncodingDirection": "j",
  "PhaseEncodingSteps": 104,
  "PhaseResolution": 1,
  "PixelBandwidth": 2290,
  "ProcedureStepDescription": "memory_things",
  "ProtocolName": "func_task-things_run-3",
  "PulseSequenceDetails": "%CustomerSeq%_cmrr_mbep2d_bold",
  "ReceiveCoilActiveElements": "HC1-7;NC1,2",
  "ReceiveCoilName": "HeadNeck_64",
  "ReconMatrixPE": 104,
  "RepetitionTime": 1.49,
  "SAR": 0.0355395,
  "ScanOptions": "FS",
  "ScanningSequence": "EP",
  "SequenceName": "epfid2d1_104",
  "SequenceVariant": "SK_SS",
  "SeriesDescription": "func_task-things_run-3",
  "SeriesNumber": 16,
  "ShimSetting": [628, -7241, -8818, 594, 1, -154, -59, -29],
  "SliceThickness": 2,
  "SliceTiming": [0, 0.7825, 0.0975, 0.8825, 0.195, 0.98, 0.2925, 1.0775, 0.3925, 1.175, 0.49, 1.2725, 0.5875, 1.3725, 0.685, 0, 0.7825, 0.0975, 0.8825, 0.195, 0.98, 0.2925, 1.0775, 0.3925, 1.175, 0.49, 1.2725, 0.5875, 1.3725, 0.685, 0, 0.7825, 0.0975, 0.8825, 0.195, 0.98, 0.2925, 1.0775, 0.3925, 1.175, 0.49, 1.2725, 0.5875, 1.3725, 0.685, 0, 0.7825, 0.0975, 0.8825, 0.195, 0.98, 0.2925, 1.0775, 0.3925, 1.175, 0.49, 1.2725, 0.5875, 1.3725, 0.685],
  "SoftwareVersions": "syngo_MR_E11",
  "SpacingBetweenSlices": 2,
  "StationName": "MRC35049",
  "TaskName": "things",
  "TotalReadoutTime": 0.0576811,
  "TxRefAmp": 234.237,
  "WipMemBlock": "447a15d8-2283-4777-ab6b-62a21e6b551d||Sequence: R016 ve11c/master r/e634e98; Dec 19 2017 11:00:25 by eja",
  "dcmmeta_affine": [
    [-1.9977737665176392, 0.09351377934217453, -0.012459460645914078, 102.39879608154297],
    [0.09231503307819366, 1.8833298683166504, -0.6667433381080627, -69.93574523925781],
    [0.019442206248641014, 0.6665762662887573, 1.885549783706665, -64.25875854492188],
    [0.0, 0.0, 0.0, 1.0]
],
  "dcmmeta_reorient_transform": [
    [0.0, -1.0, 0.0, 103.0],
    [1.0, 0.0, 0.0, 0.0],
    [0.0, 0.0, 1.0, 0.0],
    [0.0, 0.0, 0.0, 1.0]
],
  "dcmmeta_shape": [104, 104, 60, 190],
  "dcmmeta_slice_dim": 2,
  "dcmmeta_version": 0.6,
  "global": {
    "const": {
      "AcquisitionMatrix": [104, 0, 0, 104],
      "AngioFlag": "N",
      "BitsAllocated": 16,
      "BitsStored": 16,
      "BodyPartExamined": "BRAIN",
      "Columns": 832,
      "EchoNumbers": 1,
      "EchoTime": 37.0,
      "EchoTrainLength": 104,
      "FlipAngle": 52.0,
      "HighBit": 15,
      "ImageOrientationPatient": [0.99888687240235, -0.046157516155, 0.00972110305688, 0.04675688828352, 0.94166491828312, -0.3332881262105],
      "ImagePositionPatient": [-873.25937015354, -775.9766139844, 239.95538861474],
      "ImageType": [
        "ORIGINAL",
        "PRIMARY",
        "M",
        "MB",
        "ND",
        "MOSAIC"
],
      "ImagedNucleus": "1H",
      "ImagingFrequency": 123.258925,
      "InPlanePhaseEncodingDirection": "COL",
      "MRAcquisitionType": "2D",
      "MagneticFieldStrength": 3.0,
      "Manufacturer": "SIEMENS",
      "ManufacturerModelName": "Prisma_fit",
      "Modality": "MR",
      "NumberOfAverages": 1.0,
      "NumberOfPhaseEncodingSteps": 104,
      "PercentPhaseFieldOfView": 100.0,
      "PercentSampling": 100.0,
      "PerformedProcedureStepStartTime": "144713.973000",
      "PhotometricInterpretation": "MONOCHROME2",
      "PixelBandwidth": 2290.0,
      "PixelRepresentation": 0,
      "PixelSpacing": [2.0, 2.0],
      "ProtocolName": "func_task-things_run-3",
      "RepetitionTime": 1490.0,
      "Rows": 832,
      "SAR": 0.03553951294661,
      "SamplesPerPixel": 1,
      "ScanOptions": "FS",
      "ScanningSequence": "EP",
      "SequenceName": "epfid2d1_104",
      "SequenceVariant": [
        "SK",
        "SS"
],
      "SeriesDescription": "func_task-things_run-3",
      "SeriesNumber": 16,
      "SeriesTime": "154344.752000",
      "SliceLocation": -37.904865131087,
      "SliceThickness": 2.0,
      "SmallestImagePixelValue": 0,
      "SoftwareVersions": "syngo MR E11",
      "SpacingBetweenSlices": 1.999999991241,
      "SpecificCharacterSet": "ISO_IR 100",
      "StudyID": "1",
      "StudyTime": "144713.864000",
      "TransmitCoilName": "Body",
      "VariableFlipAngleFlag": "N",
      "WindowCenterWidthExplanation": "Algo1",
      "dBdt": 0.0},
    "slices": {}
  },
  "time": {
    "samples": {
      "AcquisitionNumber": [1, 2, 3, 4, 5, 6, 7, 8, 9, 10, 11, 12, 13, 14, 15, 16, 17, 18, 19, 20, 21, 22, 23, 24, 25, 26, 27, 28, 29, 30, 31, 32, 33, 34, 35, 36, 37, 38, 39, 40, 41, 42, 43, 44, 45, 46, 47, 48, 49, 50, 51, 52, 53, 54, 55, 56, 57, 58, 59, 60, 61, 62, 63, 64, 65, 66, 67, 68, 69, 70, 71, 72, 73, 74, 75, 76, 77, 78, 79, 80, 81, 82, 83, 84, 85, 86, 87, 88, 89, 90, 91, 92, 93, 94, 95, 96, 97, 98, 99, 100, 101, 102, 103, 104, 105, 106, 107, 108, 109, 110, 111, 112, 113, 114, 115, 116, 117, 118, 119, 120, 121, 122, 123, 124, 125, 126, 127, 128, 129, 130, 131, 132, 133, 134, 135, 136, 137, 138, 139, 140, 141, 142, 143, 144, 145, 146, 147, 148, 149, 150, 151, 152, 153, 154, 155, 156, 157, 158, 159, 160, 161, 162, 163, 164, 165, 166, 167, 168, 169, 170, 171, 172, 173, 174, 175, 176, 177, 178, 179, 180, 181, 182, 183, 184, 185, 186, 187, 188, 189, 190],
      "AcquisitionTime": ["154214.815000", "154216.305000", "154217.795000", "154219.285000", "154220.775000", "154222.265000", "154223.755000", "154225.245000", "154226.735000", "154228.225000", "154229.715000", "154231.205000", "154232.695000", "154234.185000", "154235.675000", "154237.165000", "154238.655000", "154240.145000", "154241.635000", "154243.125000", "154244.615000", "154246.105000", "154247.595000", "154249.085000", "154250.575000", "154252.065000", "154253.555000", "154255.045000", "154256.535000", "154258.025000", "154259.515000", "154301.005000", "154302.495000", "154303.985000", "154305.475000", "154306.965000", "154308.455000", "154309.945000", "154311.435000", "154312.925000", "154314.415000", "154315.905000", "154317.395000", "154318.885000", "154320.375000", "154321.865000", "154323.355000", "154324.845000", "154326.335000", "154327.825000", "154329.315000", "154330.805000", "154332.295000", "154333.785000", "154335.275000", "154336.765000", "154338.255000", "154339.745000", "154341.235000", "154342.725000", "154344.215000", "154345.705000", "154347.195000", "154348.685000", "154350.175000", "154351.665000", "154353.155000", "154354.645000", "154356.135000", "154357.625000", "154359.115000", "154400.605000", "154402.095000", "154403.585000", "154405.075000", "154406.565000", "154408.055000", "154409.545000", "154411.035000", "154412.525000", "154414.015000", "154415.505000", "154416.995000", "154418.485000", "154419.975000", "154421.465000", "154422.955000", "154424.445000", "154425.935000", "154427.425000", "154428.915000", "154430.405000", "154431.895000", "154433.385000", "154434.875000", "154436.365000", "154437.855000", "154439.345000", "154440.835000", "154442.325000", "154443.815000", "154445.305000", "154446.795000", "154448.285000", "154449.775000", "154451.265000", "154452.755000", "154454.245000", "154455.735000", "154457.225000", "154458.715000", "154500.205000", "154501.695000", "154503.185000", "154504.675000", "154506.165000", "154507.655000", "154509.145000", "154510.635000", "154512.125000", "154513.615000", "154515.105000", "154516.595000", "154518.085000", "154519.575000", "154521.065000", "154522.555000", "154524.045000", "154525.535000", "154527.025000", "154528.515000", "154530.005000", "154531.495000", "154532.985000", "154534.475000", "154535.965000", "154537.455000", "154538.945000", "154540.435000", "154541.925000", "154543.415000", "154544.905000", "154546.395000", "154547.885000", "154549.375000", "154550.865000", "154552.355000", "154553.845000", "154555.335000", "154556.825000", "154558.315000", "154559.805000", "154601.295000", "154602.785000", "154604.275000", "154605.765000", "154607.255000", "154608.745000", "154610.235000", "154611.725000", "154613.215000", "154614.705000", "154616.195000", "154617.685000", "154619.175000", "154620.665000", "154622.155000", "154623.645000", "154625.135000", "154626.625000", "154628.115000", "154629.605000", "154631.095000", "154632.585000", "154634.075000", "154635.565000", "154637.055000", "154638.545000", "154640.035000", "154641.525000", "154643.015000", "154644.505000", "154645.995000", "154647.485000", "154648.975000", "154650.465000", "154651.955000", "154653.445000", "154654.935000", "154656.425000"],
      "ContentTime": ["154344.756000", "154344.759000", "154344.763000", "154344.766000", "154344.769000", "154344.773000", "154344.776000", "154344.780000", "154344.783000", "154344.786000", "154344.790000", "154344.793000", "154344.796000", "154344.800000", "154344.803000", "154344.807000", "154344.810000", "154344.813000", "154344.816000", "154344.820000", "154344.823000", "154344.827000", "154344.830000", "154344.833000", "154344.837000", "154344.840000", "154344.843000", "154344.847000", "154344.850000", "154344.861000", "154344.865000", "154344.868000", "154344.872000", "154344.875000", "154344.878000", "154344.882000", "154344.885000", "154404.718000", "154404.722000", "154404.725000", "154404.728000", "154404.732000", "154404.735000", "154404.738000", "154404.742000", "154404.745000", "154404.749000", "154404.752000", "154404.755000", "154404.759000", "154404.762000", "154404.765000", "154404.769000", "154404.772000", "154404.785000", "154404.789000", "154404.792000", "154424.718000", "154424.722000", "154424.725000", "154424.729000", "154424.732000", "154424.735000", "154424.739000", "154424.742000", "154424.745000", "154424.749000", "154424.752000", "154424.756000", "154424.759000", "154424.762000", "154424.766000", "154424.769000", "154424.773000", "154424.776000", "154424.780000", "154424.783000", "154444.719000", "154444.723000", "154444.726000", "154444.730000", "154444.733000", "154444.736000", "154444.740000", "154444.743000", "154444.747000", "154444.750000", "154444.754000", "154444.757000", "154444.760000", "154444.764000", "154444.767000", "154444.771000", "154444.774000", "154444.777000", "154444.781000", "154444.784000", "154524.719000", "154524.723000", "154524.726000", "154524.730000", "154524.733000", "154524.737000", "154524.740000", "154524.743000", "154524.747000", "154524.750000", "154524.753000", "154524.757000", "154524.760000", "154524.764000", "154524.767000", "154524.826000", "154524.829000", "154524.833000", "154524.836000", "154524.840000", "154524.843000", "154524.846000", "154524.850000", "154524.853000", "154524.856000", "154524.860000", "154524.863000", "154524.867000", "154524.870000", "154524.873000", "154604.718000", "154604.722000", "154604.725000", "154604.729000", "154604.732000", "154604.736000", "154604.739000", "154604.742000", "154604.746000", "154604.749000", "154604.752000", "154604.756000", "154604.759000", "154604.762000", "154604.766000", "154604.769000", "154604.772000", "154604.776000", "154604.779000", "154604.782000", "154604.786000", "154604.789000", "154604.793000", "154604.796000", "154604.799000", "154604.803000", "154604.806000", "154644.718000", "154644.722000", "154644.725000", "154644.729000", "154644.732000", "154644.752000", "154644.756000", "154644.759000", "154644.764000", "154644.767000", "154644.777000", "154644.781000", "154644.784000", "154644.787000", "154644.791000", "154644.794000", "154644.798000", "154644.801000", "154644.804000", "154644.808000", "154644.811000", "154644.815000", "154644.818000", "154644.821000", "154644.825000", "154644.828000", "154658.388000", "154658.392000", "154658.395000", "154658.399000", "154658.402000", "154658.406000", "154658.409000", "154658.412000", "154658.416000", "154658.419000"],
      "InstanceCreationTime": ["154344.756000", "154344.759000", "154344.763000", "154344.766000", "154344.769000", "154344.773000", "154344.776000", "154344.780000", "154344.783000", "154344.786000", "154344.790000", "154344.793000", "154344.796000", "154344.800000", "154344.803000", "154344.807000", "154344.810000", "154344.813000", "154344.816000", "154344.820000", "154344.823000", "154344.827000", "154344.830000", "154344.833000", "154344.837000", "154344.840000", "154344.843000", "154344.847000", "154344.850000", "154344.861000", "154344.865000", "154344.868000", "154344.872000", "154344.875000", "154344.878000", "154344.882000", "154344.885000", "154404.718000", "154404.722000", "154404.725000", "154404.728000", "154404.732000", "154404.735000", "154404.738000", "154404.742000", "154404.745000", "154404.749000", "154404.752000", "154404.755000", "154404.759000", "154404.762000", "154404.765000", "154404.769000", "154404.772000", "154404.785000", "154404.789000", "154404.792000", "154424.718000", "154424.722000", "154424.725000", "154424.729000", "154424.732000", "154424.735000", "154424.739000", "154424.742000", "154424.745000", "154424.749000", "154424.752000", "154424.756000", "154424.759000", "154424.762000", "154424.766000", "154424.769000", "154424.773000", "154424.776000", "154424.780000", "154424.783000", "154444.719000", "154444.723000", "154444.726000", "154444.730000", "154444.733000", "154444.736000", "154444.740000", "154444.743000", "154444.747000", "154444.750000", "154444.754000", "154444.757000", "154444.760000", "154444.764000", "154444.767000", "154444.771000", "154444.774000", "154444.777000", "154444.781000", "154444.784000", "154524.719000", "154524.723000", "154524.726000", "154524.730000", "154524.733000", "154524.737000", "154524.740000", "154524.743000", "154524.747000", "154524.750000", "154524.753000", "154524.757000", "154524.760000", "154524.764000", "154524.767000", "154524.826000", "154524.829000", "154524.833000", "154524.836000", "154524.840000", "154524.843000", "154524.846000", "154524.850000", "154524.853000", "154524.856000", "154524.860000", "154524.863000", "154524.867000", "154524.870000", "154524.873000", "154604.718000", "154604.722000", "154604.725000", "154604.729000", "154604.732000", "154604.736000", "154604.739000", "154604.742000", "154604.746000", "154604.749000", "154604.752000", "154604.756000", "154604.759000", "154604.762000", "154604.766000", "154604.769000", "154604.772000", "154604.776000", "154604.779000", "154604.782000", "154604.786000", "154604.789000", "154604.793000", "154604.796000", "154604.799000", "154604.803000", "154604.806000", "154644.718000", "154644.722000", "154644.725000", "154644.729000", "154644.732000", "154644.752000", "154644.756000", "154644.759000", "154644.764000", "154644.767000", "154644.777000", "154644.781000", "154644.784000", "154644.787000", "154644.791000", "154644.794000", "154644.798000", "154644.801000", "154644.804000", "154644.808000", "154644.811000", "154644.815000", "154644.818000", "154644.821000", "154644.825000", "154644.828000", "154658.388000", "154658.392000", "154658.395000", "154658.399000", "154658.402000", "154658.406000", "154658.409000", "154658.412000", "154658.416000", "154658.419000"],
      "InstanceNumber": [1, 2, 3, 4, 5, 6, 7, 8, 9, 10, 11, 12, 13, 14, 15, 16, 17, 18, 19, 20, 21, 22, 23, 24, 25, 26, 27, 28, 29, 30, 31, 32, 33, 34, 35, 36, 37, 38, 39, 40, 41, 42, 43, 44, 45, 46, 47, 48, 49, 50, 51, 52, 53, 54, 55, 56, 57, 58, 59, 60, 61, 62, 63, 64, 65, 66, 67, 68, 69, 70, 71, 72, 73, 74, 75, 76, 77, 78, 79, 80, 81, 82, 83, 84, 85, 86, 87, 88, 89, 90, 91, 92, 93, 94, 95, 96, 97, 98, 99, 100, 101, 102, 103, 104, 105, 106, 107, 108, 109, 110, 111, 112, 113, 114, 115, 116, 117, 118, 119, 120, 121, 122, 123, 124, 125, 126, 127, 128, 129, 130, 131, 132, 133, 134, 135, 136, 137, 138, 139, 140, 141, 142, 143, 144, 145, 146, 147, 148, 149, 150, 151, 152, 153, 154, 155, 156, 157, 158, 159, 160, 161, 162, 163, 164, 165, 166, 167, 168, 169, 170, 171, 172, 173, 174, 175, 176, 177, 178, 179, 180, 181, 182, 183, 184, 185, 186, 187, 188, 189, 190],
      "LargestImagePixelValue": [43530, 42185, 41862, 42084, 41389, 41151, 40921, 40327, 41484, 41269, 40905, 41150, 41698, 40861, 41321, 41297, 41249, 41418, 41025, 41405, 40879, 40536, 40592, 41134, 43550, 43363, 41314, 41147, 41508, 41453, 42121, 41591, 42133, 42181, 42352, 42299, 41956, 42066, 41989, 41652, 41511, 41800, 41224, 40750, 41427, 40751, 40380, 40921, 41148, 41244, 40579, 40942, 43681, 42057, 41185, 41383, 40675, 41181, 41232, 41041, 40525, 41247, 41028, 40916, 41281, 41068, 40937, 41317, 41603, 41173, 41791, 41161, 41800, 41857, 41444, 41731, 40729, 42040, 40708, 42465, 41420, 41491, 41989, 41342, 41215, 41256, 42314, 41340, 41531, 41290, 41263, 41011, 41009, 41125, 41097, 41281, 41500, 41710, 41768, 41477, 41330, 41147, 41995, 41957, 42962, 42348, 40872, 40896, 41211, 41294, 41539, 41728, 41580, 41450, 41483, 41266, 41218, 41253, 41705, 41527, 41596, 41582, 42234, 41977, 41774, 41866, 41991, 41850, 42165, 41785, 41600, 41743, 41777, 41702, 41378, 42204, 42137, 41823, 41968, 41641, 41327, 41255, 41694, 41816, 41692, 41324, 41651, 41627, 41676, 41728, 42387, 41768, 41751, 42109, 41655, 42731, 41906, 42246, 41776, 41447, 42274, 42061, 42298, 41899, 41428, 41507, 41922, 41886, 42055, 41762, 42342, 42093, 42250, 41788, 41752, 42137, 42058, 42004, 42466, 42280, 42132, 41633, 41391, 41989, 42029, 41809, 41494, 41607, 41798, 41645],
      "WindowCenter": [10450.0, 10400.0, 10384.0, 10376.0, 10369.0, 10386.0, 10379.0, 10359.0, 10363.0, 10372.0, 10380.0, 10375.0, 10365.0, 10352.0, 10356.0, 10355.0, 10363.0, 10378.0, 10376.0, 10365.0, 10358.0, 10361.0, 10360.0, 10366.0, 10416.0, 10422.0, 10396.0, 10375.0, 10368.0, 10354.0, 10330.0, 10311.0, 10314.0, 10316.0, 10323.0, 10332.0, 10332.0, 10346.0, 10363.0, 10384.0, 10387.0, 10384.0, 10373.0, 10359.0, 10371.0, 10373.0, 10383.0, 10399.0, 10391.0, 10375.0, 10358.0, 10371.0, 10411.0, 10391.0, 10370.0, 10356.0, 10341.0, 10338.0, 10338.0, 10340.0, 10333.0, 10333.0, 10331.0, 10344.0, 10361.0, 10385.0, 10389.0, 10381.0, 10371.0, 10357.0, 10370.0, 10377.0, 10392.0, 10391.0, 10381.0, 10379.0, 10368.0, 10391.0, 10391.0, 10412.0, 10383.0, 10365.0, 10356.0, 10354.0, 10369.0, 10378.0, 10390.0, 10365.0, 10363.0, 10363.0, 10365.0, 10358.0, 10356.0, 10355.0, 10356.0, 10376.0, 10408.0, 10405.0, 10389.0, 10356.0, 10350.0, 10369.0, 10398.0, 10411.0, 10401.0, 10350.0, 10321.0, 10314.0, 10310.0, 10299.0, 10303.0, 10310.0, 10319.0, 10334.0, 10353.0, 10377.0, 10365.0, 10347.0, 10367.0, 10377.0, 10384.0, 10392.0, 10409.0, 10421.0, 10413.0, 10397.0, 10395.0, 10395.0, 10408.0, 10402.0, 10397.0, 10389.0, 10389.0, 10396.0, 10392.0, 10400.0, 10399.0, 10416.0, 10410.0, 10389.0, 10370.0, 10365.0, 10369.0, 10375.0, 10399.0, 10404.0, 10390.0, 10366.0, 10347.0, 10338.0, 10347.0, 10350.0, 10364.0, 10368.0, 10355.0, 10353.0, 10342.0, 10362.0, 10384.0, 10373.0, 10366.0, 10372.0, 10397.0, 10417.0, 10390.0, 10370.0, 10357.0, 10351.0, 10351.0, 10346.0, 10343.0, 10342.0, 10351.0, 10366.0, 10363.0, 10374.0, 10382.0, 10385.0, 10397.0, 10405.0, 10427.0, 10437.0, 10417.0, 10405.0, 10380.0, 10377.0, 10379.0, 10377.0, 10363.0, 10369.0],
      "WindowWidth": [22632.0, 22477.0, 22414.0, 22379.0, 22353.0, 22390.0, 22375.0, 22331.0, 22334.0, 22353.0, 22370.0, 22361.0, 22336.0, 22308.0, 22316.0, 22316.0, 22334.0, 22365.0, 22365.0, 22336.0, 22322.0, 22336.0, 22334.0, 22348.0, 22457.0, 22473.0, 22415.0, 22368.0, 22352.0, 22320.0, 22265.0, 22219.0, 22224.0, 22230.0, 22244.0, 22269.0, 22270.0, 22299.0, 22337.0, 22389.0, 22396.0, 22389.0, 22364.0, 22334.0, 22362.0, 22366.0, 22392.0, 22427.0, 22406.0, 22370.0, 22337.0, 22369.0, 22452.0, 22411.0, 22363.0, 22331.0, 22298.0, 22290.0, 22288.0, 22294.0, 22279.0, 22278.0, 22276.0, 22305.0, 22342.0, 22398.0, 22410.0, 22387.0, 22362.0, 22335.0, 22361.0, 22379.0, 22415.0, 22411.0, 22391.0, 22384.0, 22364.0, 22409.0, 22415.0, 22455.0, 22395.0, 22353.0, 22329.0, 22329.0, 22366.0, 22384.0, 22406.0, 22354.0, 22349.0, 22349.0, 22357.0, 22339.0, 22334.0, 22331.0, 22336.0, 22381.0, 22452.0, 22446.0, 22408.0, 22335.0, 22327.0, 22366.0, 22431.0, 22460.0, 22435.0, 22317.0, 22250.0, 22237.0, 22225.0, 22204.0, 22210.0, 22224.0, 22244.0, 22283.0, 22328.0, 22381.0, 22355.0, 22318.0, 22356.0, 22380.0, 22397.0, 22412.0, 22450.0, 22480.0, 22463.0, 22427.0, 22423.0, 22422.0, 22452.0, 22438.0, 22428.0, 22411.0, 22410.0, 22422.0, 22418.0, 22435.0, 22431.0, 22472.0, 22457.0, 22409.0, 22365.0, 22354.0, 22367.0, 22377.0, 22432.0, 22446.0, 22417.0, 22359.0, 22312.0, 22293.0, 22315.0, 22322.0, 22348.0, 22358.0, 22329.0, 22323.0, 22304.0, 22346.0, 22395.0, 22373.0, 22355.0, 22370.0, 22431.0, 22479.0, 22417.0, 22366.0, 22334.0, 22319.0, 22321.0, 22309.0, 22303.0, 22303.0, 22323.0, 22355.0, 22351.0, 22374.0, 22393.0, 22399.0, 22428.0, 22446.0, 22496.0, 22522.0, 22477.0, 22448.0, 22391.0, 22383.0, 22388.0, 22383.0, 22353.0, 22365.0]
    },
    "slices": {}
  }
}