{
  "AcquisitionMatrixPE": 104,
  "AcquisitionNumber": 1,
  "AcquisitionTime": "15:35:59.337500",
  "BandwidthPerPixelPhaseEncode": 17.17,
  "BaseResolution": 104,
  "BodyPartExamined": "BRAIN",
  "CoilString": "HC1-7;NC1_2",
  "ConsistencyInfo": "N4_VE11C_LATEST_20160120",
  "ConversionSoftware": "dcm2niix",
  "ConversionSoftwareVersion": "v1.0.20190902",
  "DerivedVendorReportedEchoSpacing": 0.000560011,
  "DeviceSerialNumber": "167006",
  "DwellTime": 2.1e-06,
  "EchoTime": 0.037,
  "EchoTrainLength": 104,
  "EffectiveEchoSpacing": 0.000560011,
  "FlipAngle": 52,
  "ImageComments": "Unaliased_MB4_PE3_LB",
  "ImageOrientationPatientDICOM": [0.998887, -0.0461575, 0.0097211, 0.0467569, 0.941665, -0.333288],
  "ImageType": [
    "ORIGINAL",
    "PRIMARY",
    "P",
    "MB",
    "ND",
    "MOSAIC"
],
  "ImagingFrequency": 123.259,
  "InPlanePhaseEncodingDirectionDICOM": "COL",
  "InstitutionAddress": "Chemin_Queen-Mary_4565_Montreal_District_CA_H3W_1W5",
  "InstitutionName": "IUGM",
  "InstitutionalDepartmentName": "Department",
  "MRAcquisitionType": "2D",
  "MagneticFieldStrength": 3,
  "Manufacturer": "Siemens",
  "ManufacturersModelName": "Prisma_fit",
  "Modality": "MR",
  "MultibandAccelerationFactor": 4,
  "PartialFourier": 1,
  "PatientPosition": "HFS",
  "PercentPhaseFOV": 100,
  "PhaseEncodingDirection": "j",
  "PhaseEncodingSteps": 104,
  "PhaseResolution": 1,
  "PixelBandwidth": 2290,
  "ProcedureStepDescription": "memory_things",
  "ProtocolName": "func_task-things_run-2",
  "PulseSequenceDetails": "%CustomerSeq%_cmrr_mbep2d_bold",
  "ReceiveCoilActiveElements": "HC1-7;NC1,2",
  "ReceiveCoilName": "HeadNeck_64",
  "ReconMatrixPE": 104,
  "RepetitionTime": 1.49,
  "SAR": 0.0355395,
  "ScanOptions": "FS",
  "ScanningSequence": "EP",
  "SequenceName": "epfid2d1_104",
  "SequenceVariant": "SK_SS",
  "SeriesDescription": "func_task-things_run-2",
  "SeriesNumber": 14,
  "ShimSetting": [628, -7241, -8818, 594, 1, -154, -59, -29],
  "SliceThickness": 2,
  "SliceTiming": [0, 0.785, 0.0975, 0.8825, 0.1975, 0.98, 0.295, 1.0775, 0.3925, 1.175, 0.49, 1.275, 0.5875, 1.3725, 0.685, 0, 0.785, 0.0975, 0.8825, 0.1975, 0.98, 0.295, 1.0775, 0.3925, 1.175, 0.49, 1.275, 0.5875, 1.3725, 0.685, 0, 0.785, 0.0975, 0.8825, 0.1975, 0.98, 0.295, 1.0775, 0.3925, 1.175, 0.49, 1.275, 0.5875, 1.3725, 0.685, 0, 0.785, 0.0975, 0.8825, 0.1975, 0.98, 0.295, 1.0775, 0.3925, 1.175, 0.49, 1.275, 0.5875, 1.3725, 0.685],
  "SoftwareVersions": "syngo_MR_E11",
  "SpacingBetweenSlices": 2,
  "StationName": "MRC35049",
  "TaskName": "things",
  "TotalReadoutTime": 0.0576811,
  "TxRefAmp": 234.237,
  "WipMemBlock": "b587e709-9975-43cb-b210-7952b4fcf35b||Sequence: R016 ve11c/master r/e634e98; Dec 19 2017 11:00:25 by eja",
  "dcmmeta_affine": [
    [-1.9977737665176392, 0.09351377934217453, -0.012459460645914078, 102.39879608154297],
    [0.09231503307819366, 1.8833298683166504, -0.6667433381080627, -69.93574523925781],
    [0.019442206248641014, 0.6665762662887573, 1.885549783706665, -64.25875854492188],
    [0.0, 0.0, 0.0, 1.0]
],
  "dcmmeta_reorient_transform": [
    [0.0, -1.0, 0.0, 103.0],
    [1.0, 0.0, 0.0, 0.0],
    [0.0, 0.0, 1.0, 0.0],
    [0.0, 0.0, 0.0, 1.0]
],
  "dcmmeta_shape": [104, 104, 60, 190],
  "dcmmeta_slice_dim": 2,
  "dcmmeta_version": 0.6,
  "global": {
    "const": {
      "AcquisitionMatrix": [104, 0, 0, 104],
      "AngioFlag": "N",
      "BitsAllocated": 16,
      "BitsStored": 16,
      "BodyPartExamined": "BRAIN",
      "Columns": 832,
      "EchoNumbers": 1,
      "EchoTime": 37.0,
      "EchoTrainLength": 104,
      "FlipAngle": 52.0,
      "HighBit": 15,
      "ImageOrientationPatient": [0.99888687240235, -0.046157516155, 0.00972110305688, 0.04675688828352, 0.94166491828312, -0.3332881262105],
      "ImagePositionPatient": [-873.25937015354, -775.9766139844, 239.95538861474],
      "ImageType": [
        "ORIGINAL",
        "PRIMARY",
        "P",
        "MB",
        "ND",
        "MOSAIC"
],
      "ImagedNucleus": "1H",
      "ImagingFrequency": 123.258921,
      "InPlanePhaseEncodingDirection": "COL",
      "LargestImagePixelValue": 4095,
      "MRAcquisitionType": "2D",
      "MagneticFieldStrength": 3.0,
      "Manufacturer": "SIEMENS",
      "ManufacturerModelName": "Prisma_fit",
      "Modality": "MR",
      "NumberOfAverages": 1.0,
      "NumberOfPhaseEncodingSteps": 104,
      "PercentPhaseFieldOfView": 100.0,
      "PercentSampling": 100.0,
      "PerformedProcedureStepStartTime": "144713.973000",
      "PhotometricInterpretation": "MONOCHROME2",
      "PixelBandwidth": 2290.0,
      "PixelRepresentation": 0,
      "PixelSpacing": [2.0, 2.0],
      "ProtocolName": "func_task-things_run-2",
      "RepetitionTime": 1490.0,
      "RescaleIntercept": -4096.0,
      "RescaleSlope": 2.0,
      "RescaleType": "US",
      "Rows": 832,
      "SAR": 0.03553951294661,
      "SamplesPerPixel": 1,
      "ScanOptions": "FS",
      "ScanningSequence": "EP",
      "SequenceName": "epfid2d1_104",
      "SequenceVariant": [
        "SK",
        "SS"
],
      "SeriesDescription": "func_task-things_run-2",
      "SeriesNumber": 14,
      "SeriesTime": "153726.279000",
      "SliceLocation": -37.904865131087,
      "SliceThickness": 2.0,
      "SmallestImagePixelValue": 0,
      "SoftwareVersions": "syngo MR E11",
      "SpacingBetweenSlices": 1.999999991241,
      "SpecificCharacterSet": "ISO_IR 100",
      "StudyID": "1",
      "StudyTime": "144713.864000",
      "TransmitCoilName": "Body",
      "VariableFlipAngleFlag": "N",
      "WindowCenterWidthExplanation": "Algo1",
      "dBdt": 0.0},
    "slices": {}
  },
  "time": {
    "samples": {
      "AcquisitionNumber": [1, 2, 3, 4, 5, 6, 7, 8, 9, 10, 11, 12, 13, 14, 15, 16, 17, 18, 19, 20, 21, 22, 23, 24, 25, 26, 27, 28, 29, 30, 31, 32, 33, 34, 35, 36, 37, 38, 39, 40, 41, 42, 43, 44, 45, 46, 47, 48, 49, 50, 51, 52, 53, 54, 55, 56, 57, 58, 59, 60, 61, 62, 63, 64, 65, 66, 67, 68, 69, 70, 71, 72, 73, 74, 75, 76, 77, 78, 79, 80, 81, 82, 83, 84, 85, 86, 87, 88, 89, 90, 91, 92, 93, 94, 95, 96, 97, 98, 99, 100, 101, 102, 103, 104, 105, 106, 107, 108, 109, 110, 111, 112, 113, 114, 115, 116, 117, 118, 119, 120, 121, 122, 123, 124, 125, 126, 127, 128, 129, 130, 131, 132, 133, 134, 135, 136, 137, 138, 139, 140, 141, 142, 143, 144, 145, 146, 147, 148, 149, 150, 151, 152, 153, 154, 155, 156, 157, 158, 159, 160, 161, 162, 163, 164, 165, 166, 167, 168, 169, 170, 171, 172, 173, 174, 175, 176, 177, 178, 179, 180, 181, 182, 183, 184, 185, 186, 187, 188, 189, 190],
      "AcquisitionTime": ["153559.337500", "153600.827500", "153602.317500", "153603.807500", "153605.297500", "153606.787500", "153608.277500", "153609.767500", "153611.257500", "153612.747500", "153614.237500", "153615.727500", "153617.217500", "153618.707500", "153620.197500", "153621.687500", "153623.177500", "153624.667500", "153626.157500", "153627.647500", "153629.137500", "153630.627500", "153632.117500", "153633.607500", "153635.097500", "153636.587500", "153638.077500", "153639.567500", "153641.057500", "153642.547500", "153644.037500", "153645.527500", "153647.017500", "153648.507500", "153649.997500", "153651.487500", "153652.977500", "153654.467500", "153655.957500", "153657.447500", "153658.937500", "153700.427500", "153701.917500", "153703.407500", "153704.897500", "153706.387500", "153707.877500", "153709.367500", "153710.857500", "153712.347500", "153713.837500", "153715.327500", "153716.817500", "153718.307500", "153719.797500", "153721.287500", "153722.777500", "153724.267500", "153725.757500", "153727.247500", "153728.737500", "153730.227500", "153731.717500", "153733.207500", "153734.697500", "153736.187500", "153737.677500", "153739.167500", "153740.657500", "153742.147500", "153743.637500", "153745.127500", "153746.617500", "153748.107500", "153749.597500", "153751.087500", "153752.577500", "153754.067500", "153755.557500", "153757.047500", "153758.537500", "153800.027500", "153801.517500", "153803.007500", "153804.497500", "153805.987500", "153807.477500", "153808.967500", "153810.457500", "153811.947500", "153813.437500", "153814.927500", "153816.417500", "153817.907500", "153819.397500", "153820.887500", "153822.377500", "153823.867500", "153825.357500", "153826.847500", "153828.337500", "153829.827500", "153831.317500", "153832.807500", "153834.297500", "153835.787500", "153837.277500", "153838.767500", "153840.257500", "153841.747500", "153843.237500", "153844.727500", "153846.217500", "153847.707500", "153849.197500", "153850.687500", "153852.177500", "153853.667500", "153855.157500", "153856.647500", "153858.137500", "153859.627500", "153901.117500", "153902.607500", "153904.097500", "153905.587500", "153907.077500", "153908.567500", "153910.057500", "153911.547500", "153913.037500", "153914.527500", "153916.017500", "153917.507500", "153918.997500", "153920.487500", "153921.977500", "153923.467500", "153924.957500", "153926.447500", "153927.937500", "153929.427500", "153930.917500", "153932.407500", "153933.897500", "153935.387500", "153936.877500", "153938.367500", "153939.857500", "153941.347500", "153942.837500", "153944.327500", "153945.817500", "153947.307500", "153948.797500", "153950.287500", "153951.777500", "153953.267500", "153954.757500", "153956.247500", "153957.737500", "153959.227500", "154000.717500", "154002.207500", "154003.697500", "154005.187500", "154006.677500", "154008.167500", "154009.657500", "154011.147500", "154012.637500", "154014.127500", "154015.617500", "154017.107500", "154018.597500", "154020.087500", "154021.577500", "154023.067500", "154024.557500", "154026.047500", "154027.537500", "154029.027500", "154030.517500", "154032.007500", "154033.497500", "154034.987500", "154036.477500", "154037.967500", "154039.457500", "154040.947500"],
      "ContentTime": ["153726.281000", "153726.284000", "153726.286000", "153726.289000", "153726.291000", "153726.307000", "153726.310000", "153726.312000", "153726.315000", "153726.317000", "153726.320000", "153726.322000", "153726.325000", "153726.333000", "153726.336000", "153726.338000", "153726.341000", "153726.343000", "153726.346000", "153726.348000", "153726.351000", "153726.353000", "153726.356000", "153726.358000", "153726.361000", "153726.363000", "153726.366000", "153726.368000", "153726.371000", "153726.380000", "153726.383000", "153726.385000", "153726.388000", "153746.181000", "153746.184000", "153746.187000", "153746.189000", "153746.198000", "153746.200000", "153746.203000", "153746.205000", "153746.208000", "153746.210000", "153746.213000", "153746.215000", "153746.218000", "153746.220000", "153746.223000", "153746.225000", "153746.228000", "153746.230000", "153746.233000", "153746.235000", "153806.198000", "153806.210000", "153806.213000", "153806.215000", "153806.218000", "153806.220000", "153806.223000", "153806.225000", "153806.228000", "153806.230000", "153806.233000", "153806.235000", "153806.238000", "153806.241000", "153806.243000", "153806.246000", "153806.248000", "153806.251000", "153806.253000", "153806.256000", "153826.185000", "153826.188000", "153826.190000", "153826.193000", "153826.195000", "153826.198000", "153826.201000", "153826.203000", "153826.206000", "153826.208000", "153826.211000", "153826.215000", "153826.218000", "153826.220000", "153826.223000", "153826.226000", "153826.229000", "153826.232000", "153826.234000", "153826.237000", "153906.239000", "153906.242000", "153906.245000", "153906.247000", "153906.250000", "153906.252000", "153906.255000", "153906.257000", "153906.260000", "153906.262000", "153906.265000", "153906.267000", "153906.270000", "153906.272000", "153906.275000", "153906.277000", "153906.280000", "153906.282000", "153906.285000", "153906.287000", "153906.290000", "153906.292000", "153906.295000", "153906.297000", "153906.300000", "153906.303000", "153906.305000", "153906.308000", "153906.310000", "153906.313000", "153906.315000", "153946.218000", "153946.221000", "153946.224000", "153946.226000", "153946.229000", "153946.231000", "153946.234000", "153946.236000", "153946.239000", "153946.241000", "153946.244000", "153946.246000", "153946.249000", "153946.252000", "153946.254000", "153946.257000", "153946.259000", "153946.262000", "153946.264000", "153946.267000", "153946.270000", "153946.272000", "153946.275000", "153946.278000", "153946.280000", "153946.283000", "153946.285000", "154026.214000", "154026.217000", "154026.220000", "154026.222000", "154026.225000", "154026.227000", "154026.230000", "154026.232000", "154026.235000", "154026.237000", "154026.240000", "154026.242000", "154026.245000", "154026.247000", "154026.250000", "154026.253000", "154026.255000", "154026.258000", "154026.260000", "154026.263000", "154026.265000", "154026.268000", "154026.270000", "154026.273000", "154026.275000", "154026.278000", "154026.280000", "154043.187000", "154043.190000", "154043.193000", "154043.195000", "154043.198000", "154043.200000", "154043.203000", "154043.206000", "154043.208000", "154043.211000", "154043.213000", "154043.216000"],
      "InstanceCreationTime": ["153726.281000", "153726.284000", "153726.286000", "153726.289000", "153726.291000", "153726.307000", "153726.310000", "153726.312000", "153726.315000", "153726.317000", "153726.320000", "153726.322000", "153726.325000", "153726.333000", "153726.336000", "153726.338000", "153726.341000", "153726.343000", "153726.346000", "153726.348000", "153726.351000", "153726.353000", "153726.356000", "153726.358000", "153726.361000", "153726.363000", "153726.366000", "153726.368000", "153726.371000", "153726.380000", "153726.383000", "153726.385000", "153726.388000", "153746.181000", "153746.184000", "153746.187000", "153746.189000", "153746.198000", "153746.200000", "153746.203000", "153746.205000", "153746.208000", "153746.210000", "153746.213000", "153746.215000", "153746.218000", "153746.220000", "153746.223000", "153746.225000", "153746.228000", "153746.230000", "153746.233000", "153746.235000", "153806.198000", "153806.210000", "153806.213000", "153806.215000", "153806.218000", "153806.220000", "153806.223000", "153806.225000", "153806.228000", "153806.230000", "153806.233000", "153806.235000", "153806.238000", "153806.241000", "153806.243000", "153806.246000", "153806.248000", "153806.251000", "153806.253000", "153806.256000", "153826.185000", "153826.188000", "153826.190000", "153826.193000", "153826.195000", "153826.198000", "153826.201000", "153826.203000", "153826.206000", "153826.208000", "153826.211000", "153826.215000", "153826.218000", "153826.220000", "153826.223000", "153826.226000", "153826.229000", "153826.232000", "153826.234000", "153826.237000", "153906.239000", "153906.242000", "153906.245000", "153906.247000", "153906.250000", "153906.252000", "153906.255000", "153906.257000", "153906.260000", "153906.262000", "153906.265000", "153906.267000", "153906.270000", "153906.272000", "153906.275000", "153906.277000", "153906.280000", "153906.282000", "153906.285000", "153906.287000", "153906.290000", "153906.292000", "153906.295000", "153906.297000", "153906.300000", "153906.303000", "153906.305000", "153906.308000", "153906.310000", "153906.313000", "153906.315000", "153946.218000", "153946.221000", "153946.224000", "153946.226000", "153946.229000", "153946.231000", "153946.234000", "153946.236000", "153946.239000", "153946.241000", "153946.244000", "153946.246000", "153946.249000", "153946.252000", "153946.254000", "153946.257000", "153946.259000", "153946.262000", "153946.264000", "153946.267000", "153946.270000", "153946.272000", "153946.275000", "153946.278000", "153946.280000", "153946.283000", "153946.285000", "154026.214000", "154026.217000", "154026.220000", "154026.222000", "154026.225000", "154026.227000", "154026.230000", "154026.232000", "154026.235000", "154026.237000", "154026.240000", "154026.242000", "154026.245000", "154026.247000", "154026.250000", "154026.253000", "154026.255000", "154026.258000", "154026.260000", "154026.263000", "154026.265000", "154026.268000", "154026.270000", "154026.273000", "154026.275000", "154026.278000", "154026.280000", "154043.187000", "154043.190000", "154043.193000", "154043.195000", "154043.198000", "154043.200000", "154043.203000", "154043.206000", "154043.208000", "154043.211000", "154043.213000", "154043.216000"],
      "InstanceNumber": [1, 2, 3, 4, 5, 6, 7, 8, 9, 10, 11, 12, 13, 14, 15, 16, 17, 18, 19, 20, 21, 22, 23, 24, 25, 26, 27, 28, 29, 30, 31, 32, 33, 34, 35, 36, 37, 38, 39, 40, 41, 42, 43, 44, 45, 46, 47, 48, 49, 50, 51, 52, 53, 54, 55, 56, 57, 58, 59, 60, 61, 62, 63, 64, 65, 66, 67, 68, 69, 70, 71, 72, 73, 74, 75, 76, 77, 78, 79, 80, 81, 82, 83, 84, 85, 86, 87, 88, 89, 90, 91, 92, 93, 94, 95, 96, 97, 98, 99, 100, 101, 102, 103, 104, 105, 106, 107, 108, 109, 110, 111, 112, 113, 114, 115, 116, 117, 118, 119, 120, 121, 122, 123, 124, 125, 126, 127, 128, 129, 130, 131, 132, 133, 134, 135, 136, 137, 138, 139, 140, 141, 142, 143, 144, 145, 146, 147, 148, 149, 150, 151, 152, 153, 154, 155, 156, 157, 158, 159, 160, 161, 162, 163, 164, 165, 166, 167, 168, 169, 170, 171, 172, 173, 174, 175, 176, 177, 178, 179, 180, 181, 182, 183, 184, 185, 186, 187, 188, 189, 190],
      "WindowCenter": [4812.0, 4816.0, 4814.0, 4812.0, 4790.0, 4816.0, 4818.0, 4814.0, 4814.0, 4818.0, 4814.0, 4816.0, 4816.0, 4814.0, 4816.0, 4816.0, 4818.0, 4812.0, 4816.0, 4816.0, 4814.0, 4816.0, 4814.0, 4816.0, 4812.0, 4814.0, 4814.0, 4816.0, 4816.0, 4816.0, 4814.0, 4814.0, 4816.0, 4816.0, 4812.0, 4814.0, 4814.0, 4816.0, 4816.0, 4814.0, 4814.0, 4816.0, 4818.0, 4788.0, 4814.0, 4816.0, 4814.0, 4816.0, 4812.0, 4818.0, 4816.0, 4814.0, 4814.0, 4812.0, 4814.0, 4816.0, 4814.0, 4814.0, 4810.0, 4816.0, 4810.0, 4812.0, 4816.0, 4814.0, 4818.0, 4816.0, 4814.0, 4816.0, 4814.0, 4814.0, 4816.0, 4812.0, 4814.0, 4814.0, 4814.0, 4814.0, 4792.0, 4816.0, 4812.0, 4814.0, 4818.0, 4810.0, 4812.0, 4816.0, 4810.0, 4814.0, 4814.0, 4818.0, 4812.0, 4814.0, 4814.0, 4814.0, 4790.0, 4812.0, 4792.0, 4788.0, 4818.0, 4814.0, 4814.0, 4816.0, 4816.0, 4812.0, 4812.0, 4810.0, 4784.0, 4788.0, 4790.0, 4814.0, 4816.0, 4818.0, 4818.0, 4814.0, 4814.0, 4812.0, 4814.0, 4812.0, 4810.0, 4790.0, 4816.0, 4816.0, 4814.0, 4818.0, 4816.0, 4816.0, 4814.0, 4816.0, 4812.0, 4814.0, 4812.0, 4812.0, 4812.0, 4812.0, 4816.0, 4814.0, 4818.0, 4816.0, 4814.0, 4812.0, 4812.0, 4812.0, 4790.0, 4810.0, 4816.0, 4810.0, 4816.0, 4812.0, 4814.0, 4814.0, 4808.0, 4810.0, 4810.0, 4812.0, 4812.0, 4812.0, 4816.0, 4814.0, 4812.0, 4812.0, 4812.0, 4812.0, 4810.0, 4790.0, 4788.0, 4814.0, 4812.0, 4812.0, 4816.0, 4814.0, 4814.0, 4816.0, 4812.0, 4814.0, 4794.0, 4788.0, 4812.0, 4814.0, 4814.0, 4818.0, 4790.0, 4810.0, 4810.0, 4786.0, 4786.0, 4788.0, 4810.0, 4812.0, 4812.0, 4814.0, 4812.0, 4812.0],
      "WindowWidth": [18612.0, 18620.0, 18612.0, 18612.0, 18576.0, 18612.0, 18622.0, 18622.0, 18614.0, 18604.0, 18612.0, 18622.0, 18614.0, 18618.0, 18614.0, 18622.0, 18618.0, 18608.0, 18618.0, 18612.0, 18620.0, 18610.0, 18612.0, 18622.0, 18610.0, 18624.0, 18610.0, 18620.0, 18620.0, 18610.0, 18620.0, 18610.0, 18610.0, 18610.0, 18596.0, 18618.0, 18610.0, 18622.0, 18618.0, 18618.0, 18614.0, 18610.0, 18620.0, 18568.0, 18606.0, 18614.0, 18612.0, 18620.0, 18612.0, 18618.0, 18620.0, 18606.0, 18612.0, 18612.0, 18610.0, 18622.0, 18606.0, 18614.0, 18610.0, 18618.0, 18614.0, 18608.0, 18618.0, 18604.0, 18614.0, 18618.0, 18606.0, 18616.0, 18612.0, 18608.0, 18618.0, 18608.0, 18616.0, 18616.0, 18612.0, 18622.0, 18576.0, 18614.0, 18608.0, 18612.0, 18620.0, 18606.0, 18620.0, 18616.0, 18602.0, 18612.0, 18614.0, 18616.0, 18618.0, 18610.0, 18616.0, 18610.0, 18572.0, 18606.0, 18550.0, 18546.0, 18622.0, 18622.0, 18624.0, 18622.0, 18618.0, 18606.0, 18602.0, 18594.0, 18562.0, 18570.0, 18572.0, 18612.0, 18622.0, 18618.0, 18622.0, 18620.0, 18602.0, 18614.0, 18604.0, 18608.0, 18608.0, 18570.0, 18620.0, 18616.0, 18614.0, 18624.0, 18614.0, 18622.0, 18614.0, 18612.0, 18610.0, 18602.0, 18614.0, 18606.0, 18612.0, 18616.0, 18618.0, 18616.0, 18616.0, 18620.0, 18610.0, 18604.0, 18610.0, 18596.0, 18560.0, 18612.0, 18622.0, 18614.0, 18616.0, 18614.0, 18616.0, 18604.0, 18604.0, 18606.0, 18600.0, 18596.0, 18610.0, 18604.0, 18614.0, 18622.0, 18614.0, 18622.0, 18612.0, 18608.0, 18608.0, 18568.0, 18576.0, 18616.0, 18614.0, 18608.0, 18624.0, 18616.0, 18622.0, 18608.0, 18598.0, 18612.0, 18564.0, 18562.0, 18618.0, 18618.0, 18622.0, 18626.0, 18576.0, 18612.0, 18602.0, 18570.0, 18574.0, 18568.0, 18608.0, 18616.0, 18612.0, 18620.0, 18614.0, 18610.0]
    },
    "slices": {}
  }
}