{
  "AcquisitionMatrixPE": 104,
  "AcquisitionNumber": 1,
  "AcquisitionTime": "15:50:2.362500",
  "BandwidthPerPixelPhaseEncode": 17.17,
  "BaseResolution": 104,
  "BodyPartExamined": "BRAIN",
  "CoilString": "HC1-7;NC1_2",
  "ConsistencyInfo": "N4_VE11C_LATEST_20160120",
  "ConversionSoftware": "dcm2niix",
  "ConversionSoftwareVersion": "v1.0.20190902",
  "DerivedVendorReportedEchoSpacing": 0.000560011,
  "DeviceSerialNumber": "167006",
  "DwellTime": 2.1e-06,
  "EchoTime": 0.037,
  "EchoTrainLength": 104,
  "EffectiveEchoSpacing": 0.000560011,
  "FlipAngle": 52,
  "ImageComments": "Unaliased_MB4_PE3_LB",
  "ImageOrientationPatientDICOM": [0.998887, -0.0461575, 0.0097211, 0.0467569, 0.941665, -0.333288],
  "ImageType": [
    "ORIGINAL",
    "PRIMARY",
    "M",
    "MB",
    "ND",
    "MOSAIC"
],
  "ImagingFrequency": 123.259,
  "InPlanePhaseEncodingDirectionDICOM": "COL",
  "InstitutionAddress": "Chemin_Queen-Mary_4565_Montreal_District_CA_H3W_1W5",
  "InstitutionName": "IUGM",
  "InstitutionalDepartmentName": "Department",
  "MRAcquisitionType": "2D",
  "MagneticFieldStrength": 3,
  "Manufacturer": "Siemens",
  "ManufacturersModelName": "Prisma_fit",
  "Modality": "MR",
  "MultibandAccelerationFactor": 4,
  "PartialFourier": 1,
  "PatientPosition": "HFS",
  "PercentPhaseFOV": 100,
  "PhaseEncodingDirection": "j",
  "PhaseEncodingSteps": 104,
  "PhaseResolution": 1,
  "PixelBandwidth": 2290,
  "ProcedureStepDescription": "memory_things",
  "ProtocolName": "func_task-things_run-4",
  "PulseSequenceDetails": "%CustomerSeq%_cmrr_mbep2d_bold",
  "ReceiveCoilActiveElements": "HC1-7;NC1,2",
  "ReceiveCoilName": "HeadNeck_64",
  "ReconMatrixPE": 104,
  "RepetitionTime": 1.49,
  "SAR": 0.0355395,
  "ScanOptions": "FS",
  "ScanningSequence": "EP",
  "SequenceName": "epfid2d1_104",
  "SequenceVariant": "SK_SS",
  "SeriesDescription": "func_task-things_run-4",
  "SeriesNumber": 19,
  "ShimSetting": [628, -7241, -8818, 594, 1, -154, -59, -29],
  "SliceThickness": 2,
  "SliceTiming": [0, 0.785, 0.0975, 0.8825, 0.1975, 0.98, 0.295, 1.0775, 0.3925, 1.1775, 0.49, 1.275, 0.5875, 1.3725, 0.6875, 0, 0.785, 0.0975, 0.8825, 0.1975, 0.98, 0.295, 1.0775, 0.3925, 1.1775, 0.49, 1.275, 0.5875, 1.3725, 0.6875, 0, 0.785, 0.0975, 0.8825, 0.1975, 0.98, 0.295, 1.0775, 0.3925, 1.1775, 0.49, 1.275, 0.5875, 1.3725, 0.6875, 0, 0.785, 0.0975, 0.8825, 0.1975, 0.98, 0.295, 1.0775, 0.3925, 1.1775, 0.49, 1.275, 0.5875, 1.3725, 0.6875],
  "SoftwareVersions": "syngo_MR_E11",
  "SpacingBetweenSlices": 2,
  "StationName": "MRC35049",
  "TaskName": "things",
  "TotalReadoutTime": 0.0576811,
  "TxRefAmp": 234.237,
  "WipMemBlock": "b8ca1cf2-4932-4163-a7d5-bfbaa9fc26ac||Sequence: R016 ve11c/master r/e634e98; Dec 19 2017 11:00:25 by eja",
  "dcmmeta_affine": [
    [-1.9977737665176392, 0.09351377934217453, -0.012459460645914078, 102.39879608154297],
    [0.09231503307819366, 1.8833298683166504, -0.6667433381080627, -69.93574523925781],
    [0.019442206248641014, 0.6665762662887573, 1.885549783706665, -64.25875854492188],
    [0.0, 0.0, 0.0, 1.0]
],
  "dcmmeta_reorient_transform": [
    [0.0, -1.0, 0.0, 103.0],
    [1.0, 0.0, 0.0, 0.0],
    [0.0, 0.0, 1.0, 0.0],
    [0.0, 0.0, 0.0, 1.0]
],
  "dcmmeta_shape": [104, 104, 60, 190],
  "dcmmeta_slice_dim": 2,
  "dcmmeta_version": 0.6,
  "global": {
    "const": {
      "AcquisitionMatrix": [104, 0, 0, 104],
      "AngioFlag": "N",
      "BitsAllocated": 16,
      "BitsStored": 16,
      "BodyPartExamined": "BRAIN",
      "Columns": 832,
      "EchoNumbers": 1,
      "EchoTime": 37.0,
      "EchoTrainLength": 104,
      "FlipAngle": 52.0,
      "HighBit": 15,
      "ImageOrientationPatient": [0.99888687240235, -0.046157516155, 0.00972110305688, 0.04675688828352, 0.94166491828312, -0.3332881262105],
      "ImagePositionPatient": [-873.25937015354, -775.9766139844, 239.95538861474],
      "ImageType": [
        "ORIGINAL",
        "PRIMARY",
        "M",
        "MB",
        "ND",
        "MOSAIC"
],
      "ImagedNucleus": "1H",
      "ImagingFrequency": 123.258928,
      "InPlanePhaseEncodingDirection": "COL",
      "MRAcquisitionType": "2D",
      "MagneticFieldStrength": 3.0,
      "Manufacturer": "SIEMENS",
      "ManufacturerModelName": "Prisma_fit",
      "Modality": "MR",
      "NumberOfAverages": 1.0,
      "NumberOfPhaseEncodingSteps": 104,
      "PercentPhaseFieldOfView": 100.0,
      "PercentSampling": 100.0,
      "PerformedProcedureStepStartTime": "144713.973000",
      "PhotometricInterpretation": "MONOCHROME2",
      "PixelBandwidth": 2290.0,
      "PixelRepresentation": 0,
      "PixelSpacing": [2.0, 2.0],
      "ProtocolName": "func_task-things_run-4",
      "RepetitionTime": 1490.0,
      "Rows": 832,
      "SAR": 0.03553951294661,
      "SamplesPerPixel": 1,
      "ScanOptions": "FS",
      "ScanningSequence": "EP",
      "SequenceName": "epfid2d1_104",
      "SequenceVariant": [
        "SK",
        "SS"
],
      "SeriesDescription": "func_task-things_run-4",
      "SeriesNumber": 19,
      "SeriesTime": "155127.726000",
      "SliceLocation": -37.904865131087,
      "SliceThickness": 2.0,
      "SmallestImagePixelValue": 0,
      "SoftwareVersions": "syngo MR E11",
      "SpacingBetweenSlices": 1.999999991241,
      "SpecificCharacterSet": "ISO_IR 100",
      "StudyID": "1",
      "StudyTime": "144713.864000",
      "TransmitCoilName": "Body",
      "VariableFlipAngleFlag": "N",
      "WindowCenterWidthExplanation": "Algo1",
      "dBdt": 0.0},
    "slices": {}
  },
  "time": {
    "samples": {
      "AcquisitionNumber": [1, 2, 3, 4, 5, 6, 7, 8, 9, 10, 11, 12, 13, 14, 15, 16, 17, 18, 19, 20, 21, 22, 23, 24, 25, 26, 27, 28, 29, 30, 31, 32, 33, 34, 35, 36, 37, 38, 39, 40, 41, 42, 43, 44, 45, 46, 47, 48, 49, 50, 51, 52, 53, 54, 55, 56, 57, 58, 59, 60, 61, 62, 63, 64, 65, 66, 67, 68, 69, 70, 71, 72, 73, 74, 75, 76, 77, 78, 79, 80, 81, 82, 83, 84, 85, 86, 87, 88, 89, 90, 91, 92, 93, 94, 95, 96, 97, 98, 99, 100, 101, 102, 103, 104, 105, 106, 107, 108, 109, 110, 111, 112, 113, 114, 115, 116, 117, 118, 119, 120, 121, 122, 123, 124, 125, 126, 127, 128, 129, 130, 131, 132, 133, 134, 135, 136, 137, 138, 139, 140, 141, 142, 143, 144, 145, 146, 147, 148, 149, 150, 151, 152, 153, 154, 155, 156, 157, 158, 159, 160, 161, 162, 163, 164, 165, 166, 167, 168, 169, 170, 171, 172, 173, 174, 175, 176, 177, 178, 179, 180, 181, 182, 183, 184, 185, 186, 187, 188, 189, 190],
      "AcquisitionTime": ["155002.362500", "155003.852500", "155005.342500", "155006.832500", "155008.322500", "155009.812500", "155011.302500", "155012.792500", "155014.282500", "155015.772500", "155017.262500", "155018.752500", "155020.242500", "155021.732500", "155023.222500", "155024.712500", "155026.202500", "155027.692500", "155029.182500", "155030.672500", "155032.162500", "155033.652500", "155035.142500", "155036.632500", "155038.122500", "155039.612500", "155041.102500", "155042.592500", "155044.082500", "155045.572500", "155047.062500", "155048.552500", "155050.042500", "155051.532500", "155053.022500", "155054.512500", "155056.002500", "155057.492500", "155058.982500", "155100.472500", "155101.962500", "155103.452500", "155104.942500", "155106.432500", "155107.922500", "155109.412500", "155110.902500", "155112.392500", "155113.882500", "155115.372500", "155116.862500", "155118.352500", "155119.842500", "155121.332500", "155122.822500", "155124.312500", "155125.802500", "155127.292500", "155128.782500", "155130.272500", "155131.762500", "155133.252500", "155134.742500", "155136.232500", "155137.722500", "155139.212500", "155140.702500", "155142.192500", "155143.682500", "155145.172500", "155146.662500", "155148.152500", "155149.642500", "155151.132500", "155152.622500", "155154.112500", "155155.602500", "155157.092500", "155158.582500", "155200.072500", "155201.562500", "155203.052500", "155204.542500", "155206.032500", "155207.522500", "155209.012500", "155210.502500", "155211.992500", "155213.482500", "155214.972500", "155216.462500", "155217.952500", "155219.442500", "155220.932500", "155222.422500", "155223.912500", "155225.402500", "155226.892500", "155228.382500", "155229.872500", "155231.362500", "155232.852500", "155234.342500", "155235.832500", "155237.322500", "155238.812500", "155240.302500", "155241.792500", "155243.282500", "155244.772500", "155246.262500", "155247.752500", "155249.242500", "155250.732500", "155252.222500", "155253.712500", "155255.202500", "155256.692500", "155258.182500", "155259.672500", "155301.162500", "155302.652500", "155304.142500", "155305.632500", "155307.122500", "155308.612500", "155310.102500", "155311.592500", "155313.082500", "155314.572500", "155316.062500", "155317.552500", "155319.042500", "155320.532500", "155322.022500", "155323.512500", "155325.002500", "155326.492500", "155327.982500", "155329.472500", "155330.962500", "155332.452500", "155333.942500", "155335.432500", "155336.922500", "155338.412500", "155339.902500", "155341.392500", "155342.882500", "155344.372500", "155345.862500", "155347.352500", "155348.842500", "155350.332500", "155351.822500", "155353.312500", "155354.802500", "155356.292500", "155357.782500", "155359.272500", "155400.762500", "155402.252500", "155403.742500", "155405.232500", "155406.722500", "155408.212500", "155409.702500", "155411.192500", "155412.682500", "155414.172500", "155415.662500", "155417.152500", "155418.642500", "155420.132500", "155421.622500", "155423.112500", "155424.602500", "155426.092500", "155427.582500", "155429.072500", "155430.562500", "155432.052500", "155433.542500", "155435.032500", "155436.522500", "155438.012500", "155439.502500", "155440.992500", "155442.482500", "155443.972500"],
      "ContentTime": ["155127.730000", "155127.734000", "155127.737000", "155127.740000", "155127.744000", "155127.747000", "155127.751000", "155127.754000", "155127.763000", "155127.766000", "155127.770000", "155127.773000", "155127.777000", "155127.780000", "155127.783000", "155127.787000", "155127.790000", "155127.793000", "155127.797000", "155127.800000", "155127.803000", "155127.807000", "155127.810000", "155127.814000", "155127.817000", "155127.822000", "155127.825000", "155127.829000", "155127.832000", "155127.836000", "155127.839000", "155147.697000", "155147.701000", "155147.704000", "155147.708000", "155147.711000", "155147.714000", "155147.718000", "155147.721000", "155147.724000", "155147.728000", "155147.731000", "155147.735000", "155147.738000", "155147.741000", "155147.745000", "155147.748000", "155147.751000", "155147.755000", "155147.758000", "155147.761000", "155207.696000", "155207.700000", "155207.704000", "155207.707000", "155207.711000", "155207.714000", "155207.717000", "155207.721000", "155207.724000", "155207.727000", "155207.731000", "155207.734000", "155207.737000", "155207.741000", "155207.744000", "155207.747000", "155207.751000", "155207.754000", "155207.758000", "155207.761000", "155227.696000", "155227.700000", "155227.703000", "155227.707000", "155227.710000", "155227.713000", "155227.717000", "155227.720000", "155227.723000", "155227.727000", "155227.730000", "155227.733000", "155227.737000", "155227.740000", "155227.744000", "155227.747000", "155227.750000", "155227.754000", "155227.757000", "155227.760000", "155307.696000", "155307.700000", "155307.703000", "155307.707000", "155307.710000", "155307.713000", "155307.717000", "155307.720000", "155307.724000", "155307.727000", "155307.730000", "155307.734000", "155307.738000", "155307.742000", "155307.745000", "155307.748000", "155307.752000", "155307.755000", "155307.758000", "155307.762000", "155307.765000", "155307.769000", "155307.772000", "155307.775000", "155307.779000", "155307.782000", "155307.785000", "155307.789000", "155307.792000", "155307.796000", "155307.799000", "155307.803000", "155347.697000", "155347.701000", "155347.704000", "155347.708000", "155347.711000", "155347.715000", "155347.718000", "155347.721000", "155347.725000", "155347.728000", "155347.731000", "155347.735000", "155347.738000", "155347.742000", "155347.745000", "155347.748000", "155347.752000", "155347.755000", "155347.758000", "155347.762000", "155347.765000", "155347.769000", "155347.772000", "155347.775000", "155347.778000", "155347.782000", "155347.785000", "155427.696000", "155427.700000", "155427.715000", "155427.719000", "155427.722000", "155427.726000", "155427.729000", "155427.732000", "155427.736000", "155427.739000", "155427.743000", "155427.746000", "155427.750000", "155427.753000", "155427.757000", "155427.760000", "155427.764000", "155427.767000", "155427.771000", "155427.774000", "155427.778000", "155427.782000", "155427.785000", "155427.788000", "155427.792000", "155427.795000", "155427.799000", "155446.282000", "155446.285000", "155446.289000", "155446.292000", "155446.296000", "155446.299000", "155446.302000", "155446.306000", "155446.309000", "155446.313000", "155446.316000", "155446.320000", "155446.323000"],
      "InstanceCreationTime": ["155127.730000", "155127.734000", "155127.737000", "155127.740000", "155127.744000", "155127.747000", "155127.751000", "155127.754000", "155127.763000", "155127.766000", "155127.770000", "155127.773000", "155127.777000", "155127.780000", "155127.783000", "155127.787000", "155127.790000", "155127.793000", "155127.797000", "155127.800000", "155127.803000", "155127.807000", "155127.810000", "155127.814000", "155127.817000", "155127.822000", "155127.825000", "155127.829000", "155127.832000", "155127.836000", "155127.839000", "155147.697000", "155147.701000", "155147.704000", "155147.708000", "155147.711000", "155147.714000", "155147.718000", "155147.721000", "155147.724000", "155147.728000", "155147.731000", "155147.735000", "155147.738000", "155147.741000", "155147.745000", "155147.748000", "155147.751000", "155147.755000", "155147.758000", "155147.761000", "155207.696000", "155207.700000", "155207.704000", "155207.707000", "155207.711000", "155207.714000", "155207.717000", "155207.721000", "155207.724000", "155207.727000", "155207.731000", "155207.734000", "155207.737000", "155207.741000", "155207.744000", "155207.747000", "155207.751000", "155207.754000", "155207.758000", "155207.761000", "155227.696000", "155227.700000", "155227.703000", "155227.707000", "155227.710000", "155227.713000", "155227.717000", "155227.720000", "155227.723000", "155227.727000", "155227.730000", "155227.733000", "155227.737000", "155227.740000", "155227.744000", "155227.747000", "155227.750000", "155227.754000", "155227.757000", "155227.760000", "155307.696000", "155307.700000", "155307.703000", "155307.707000", "155307.710000", "155307.713000", "155307.717000", "155307.720000", "155307.724000", "155307.727000", "155307.730000", "155307.734000", "155307.738000", "155307.742000", "155307.745000", "155307.748000", "155307.752000", "155307.755000", "155307.758000", "155307.762000", "155307.765000", "155307.769000", "155307.772000", "155307.775000", "155307.779000", "155307.782000", "155307.785000", "155307.789000", "155307.792000", "155307.796000", "155307.799000", "155307.803000", "155347.697000", "155347.701000", "155347.704000", "155347.708000", "155347.711000", "155347.715000", "155347.718000", "155347.721000", "155347.725000", "155347.728000", "155347.731000", "155347.735000", "155347.738000", "155347.742000", "155347.745000", "155347.748000", "155347.752000", "155347.755000", "155347.758000", "155347.762000", "155347.765000", "155347.769000", "155347.772000", "155347.775000", "155347.778000", "155347.782000", "155347.785000", "155427.696000", "155427.700000", "155427.715000", "155427.719000", "155427.722000", "155427.726000", "155427.729000", "155427.732000", "155427.736000", "155427.739000", "155427.743000", "155427.746000", "155427.750000", "155427.753000", "155427.757000", "155427.760000", "155427.764000", "155427.767000", "155427.771000", "155427.774000", "155427.778000", "155427.782000", "155427.785000", "155427.788000", "155427.792000", "155427.795000", "155427.799000", "155446.282000", "155446.285000", "155446.289000", "155446.292000", "155446.296000", "155446.299000", "155446.302000", "155446.306000", "155446.309000", "155446.313000", "155446.316000", "155446.320000", "155446.323000"],
      "InstanceNumber": [1, 2, 3, 4, 5, 6, 7, 8, 9, 10, 11, 12, 13, 14, 15, 16, 17, 18, 19, 20, 21, 22, 23, 24, 25, 26, 27, 28, 29, 30, 31, 32, 33, 34, 35, 36, 37, 38, 39, 40, 41, 42, 43, 44, 45, 46, 47, 48, 49, 50, 51, 52, 53, 54, 55, 56, 57, 58, 59, 60, 61, 62, 63, 64, 65, 66, 67, 68, 69, 70, 71, 72, 73, 74, 75, 76, 77, 78, 79, 80, 81, 82, 83, 84, 85, 86, 87, 88, 89, 90, 91, 92, 93, 94, 95, 96, 97, 98, 99, 100, 101, 102, 103, 104, 105, 106, 107, 108, 109, 110, 111, 112, 113, 114, 115, 116, 117, 118, 119, 120, 121, 122, 123, 124, 125, 126, 127, 128, 129, 130, 131, 132, 133, 134, 135, 136, 137, 138, 139, 140, 141, 142, 143, 144, 145, 146, 147, 148, 149, 150, 151, 152, 153, 154, 155, 156, 157, 158, 159, 160, 161, 162, 163, 164, 165, 166, 167, 168, 169, 170, 171, 172, 173, 174, 175, 176, 177, 178, 179, 180, 181, 182, 183, 184, 185, 186, 187, 188, 189, 190],
      "LargestImagePixelValue": [43852, 42296, 42850, 41863, 41189, 41978, 41724, 41808, 41429, 41361, 41530, 41660, 41639, 41949, 41837, 42136, 42248, 42102, 42165, 41212, 42097, 41984, 41709, 41898, 42315, 39754, 41460, 41827, 41808, 41999, 41696, 41541, 41685, 41800, 41109, 41690, 41295, 41799, 42017, 42131, 41167, 41400, 41839, 41909, 41624, 41587, 41378, 40907, 41551, 40995, 41725, 41277, 41820, 41904, 41692, 41384, 41320, 41545, 41133, 41459, 41624, 41398, 41675, 41783, 41087, 41859, 41513, 41684, 42215, 41694, 41237, 41749, 41805, 41961, 41987, 42189, 42102, 41880, 41902, 41750, 41754, 41991, 41792, 41321, 42327, 42182, 42065, 42322, 42244, 42275, 41973, 42128, 42194, 41904, 42420, 42183, 42216, 41994, 42215, 42206, 41914, 42378, 42169, 42621, 42070, 42045, 42034, 41910, 41737, 42194, 42354, 41966, 42179, 42182, 42238, 41923, 42173, 42035, 42121, 41918, 42058, 41998, 42116, 42043, 42476, 42194, 41902, 41950, 41965, 41952, 41786, 41866, 41030, 41854, 41960, 41394, 41991, 42250, 42051, 41780, 41561, 41488, 41664, 42047, 41867, 41544, 41445, 40831, 41193, 41364, 41313, 41206, 41786, 41589, 41645, 41641, 41207, 41399, 40842, 41084, 41548, 41150, 41238, 41393, 41493, 41387, 41875, 41190, 41253, 41030, 41149, 40816, 40763, 40857, 40889, 40888, 41718, 40899, 41748, 41104, 40807, 40882, 41043, 40824, 41167, 40865, 41448, 40809, 41412, 41737],
      "WindowCenter": [10449.0, 10377.0, 10361.0, 10354.0, 10344.0, 10354.0, 10388.0, 10391.0, 10384.0, 10402.0, 10409.0, 10385.0, 10368.0, 10364.0, 10362.0, 10361.0, 10354.0, 10354.0, 10368.0, 10366.0, 10379.0, 10380.0, 10376.0, 10379.0, 10393.0, 10370.0, 10391.0, 10412.0, 10408.0, 10391.0, 10375.0, 10357.0, 10349.0, 10348.0, 10323.0, 10333.0, 10336.0, 10348.0, 10354.0, 10356.0, 10351.0, 10365.0, 10418.0, 10399.0, 10383.0, 10374.0, 10365.0, 10361.0, 10366.0, 10360.0, 10359.0, 10360.0, 10364.0, 10350.0, 10341.0, 10334.0, 10349.0, 10364.0, 10374.0, 10373.0, 10373.0, 10367.0, 10368.0, 10380.0, 10371.0, 10381.0, 10381.0, 10382.0, 10381.0, 10376.0, 10373.0, 10382.0, 10382.0, 10375.0, 10366.0, 10364.0, 10370.0, 10380.0, 10381.0, 10382.0, 10368.0, 10355.0, 10346.0, 10340.0, 10353.0, 10361.0, 10357.0, 10354.0, 10347.0, 10351.0, 10369.0, 10387.0, 10383.0, 10360.0, 10360.0, 10354.0, 10363.0, 10367.0, 10367.0, 10352.0, 10343.0, 10349.0, 10369.0, 10381.0, 10377.0, 10376.0, 10374.0, 10390.0, 10392.0, 10392.0, 10390.0, 10378.0, 10388.0, 10382.0, 10376.0, 10354.0, 10348.0, 10352.0, 10357.0, 10358.0, 10358.0, 10360.0, 10366.0, 10362.0, 10367.0, 10367.0, 10373.0, 10377.0, 10378.0, 10377.0, 10375.0, 10374.0, 10391.0, 10428.0, 10438.0, 10423.0, 10379.0, 10359.0, 10342.0, 10318.0, 10292.0, 10276.0, 10290.0, 10313.0, 10333.0, 10338.0, 10342.0, 10355.0, 10385.0, 10387.0, 10366.0, 10358.0, 10366.0, 10364.0, 10370.0, 10385.0, 10389.0, 10384.0, 10370.0, 10360.0, 10362.0, 10372.0, 10387.0, 10394.0, 10401.0, 10397.0, 10410.0, 10396.0, 10382.0, 10368.0, 10371.0, 10358.0, 10350.0, 10363.0, 10388.0, 10383.0, 10364.0, 10334.0, 10330.0, 10337.0, 10338.0, 10346.0, 10362.0, 10359.0, 10343.0, 10324.0, 10322.0, 10332.0, 10355.0, 10374.0],
      "WindowWidth": [22629.0, 22427.0, 22361.0, 22333.0, 22303.0, 22319.0, 22395.0, 22403.0, 22386.0, 22425.0, 22442.0, 22383.0, 22346.0, 22335.0, 22330.0, 22329.0, 22311.0, 22311.0, 22342.0, 22346.0, 22373.0, 22375.0, 22367.0, 22370.0, 22407.0, 22365.0, 22401.0, 22449.0, 22446.0, 22402.0, 22366.0, 22324.0, 22306.0, 22303.0, 22250.0, 22267.0, 22280.0, 22306.0, 22319.0, 22323.0, 22312.0, 22344.0, 22464.0, 22426.0, 22385.0, 22364.0, 22345.0, 22335.0, 22349.0, 22334.0, 22332.0, 22336.0, 22344.0, 22312.0, 22294.0, 22279.0, 22310.0, 22343.0, 22367.0, 22364.0, 22363.0, 22351.0, 22355.0, 22381.0, 22363.0, 22385.0, 22387.0, 22388.0, 22386.0, 22376.0, 22368.0, 22391.0, 22391.0, 22374.0, 22353.0, 22346.0, 22358.0, 22383.0, 22388.0, 22387.0, 22354.0, 22320.0, 22302.0, 22292.0, 22321.0, 22338.0, 22330.0, 22321.0, 22305.0, 22317.0, 22362.0, 22400.0, 22390.0, 22338.0, 22334.0, 22322.0, 22343.0, 22357.0, 22357.0, 22322.0, 22300.0, 22316.0, 22359.0, 22387.0, 22382.0, 22379.0, 22371.0, 22409.0, 22413.0, 22413.0, 22409.0, 22383.0, 22403.0, 22388.0, 22372.0, 22326.0, 22311.0, 22321.0, 22332.0, 22336.0, 22335.0, 22338.0, 22353.0, 22343.0, 22353.0, 22357.0, 22370.0, 22385.0, 22382.0, 22379.0, 22377.0, 22377.0, 22416.0, 22498.0, 22524.0, 22494.0, 22390.0, 22334.0, 22295.0, 22239.0, 22178.0, 22145.0, 22175.0, 22226.0, 22276.0, 22290.0, 22300.0, 22334.0, 22399.0, 22401.0, 22354.0, 22334.0, 22348.0, 22348.0, 22362.0, 22396.0, 22407.0, 22397.0, 22366.0, 22342.0, 22346.0, 22370.0, 22401.0, 22417.0, 22434.0, 22429.0, 22453.0, 22423.0, 22396.0, 22364.0, 22367.0, 22338.0, 22323.0, 22350.0, 22406.0, 22397.0, 22351.0, 22287.0, 22275.0, 22289.0, 22294.0, 22311.0, 22349.0, 22341.0, 22303.0, 22260.0, 22255.0, 22282.0, 22331.0, 22379.0]
    },
    "slices": {}
  }
}