{
  "AcquisitionMatrixPE": 104,
  "AcquisitionNumber": 1,
  "AcquisitionTime": "16:03:21.347500",
  "BandwidthPerPixelPhaseEncode": 17.17,
  "BaseResolution": 104,
  "BodyPartExamined": "BRAIN",
  "CoilString": "HC1-7;NC1_2",
  "ConsistencyInfo": "N4_VE11C_LATEST_20160120",
  "ConversionSoftware": "dcm2niix",
  "ConversionSoftwareVersion": "v1.0.20190902",
  "DerivedVendorReportedEchoSpacing": 0.000560011,
  "DeviceSerialNumber": "167006",
  "DwellTime": 2.1e-06,
  "EchoTime": 0.037,
  "EchoTrainLength": 104,
  "EffectiveEchoSpacing": 0.000560011,
  "FlipAngle": 52,
  "ImageComments": "Unaliased_MB4_PE3_LB",
  "ImageOrientationPatientDICOM": [0.998887, -0.0461575, 0.0097211, 0.0467569, 0.941665, -0.333288],
  "ImageType": [
    "ORIGINAL",
    "PRIMARY",
    "P",
    "MB",
    "ND",
    "MOSAIC"
],
  "ImagingFrequency": 123.259,
  "InPlanePhaseEncodingDirectionDICOM": "COL",
  "InstitutionAddress": "Chemin_Queen-Mary_4565_Montreal_District_CA_H3W_1W5",
  "InstitutionName": "IUGM",
  "InstitutionalDepartmentName": "Department",
  "MRAcquisitionType": "2D",
  "MagneticFieldStrength": 3,
  "Manufacturer": "Siemens",
  "ManufacturersModelName": "Prisma_fit",
  "Modality": "MR",
  "MultibandAccelerationFactor": 4,
  "PartialFourier": 1,
  "PatientPosition": "HFS",
  "PercentPhaseFOV": 100,
  "PhaseEncodingDirection": "j",
  "PhaseEncodingSteps": 104,
  "PhaseResolution": 1,
  "PixelBandwidth": 2290,
  "ProcedureStepDescription": "memory_things",
  "ProtocolName": "func_task-things_run-6",
  "PulseSequenceDetails": "%CustomerSeq%_cmrr_mbep2d_bold",
  "ReceiveCoilActiveElements": "HC1-7;NC1,2",
  "ReceiveCoilName": "HeadNeck_64",
  "ReconMatrixPE": 104,
  "RepetitionTime": 1.49,
  "SAR": 0.0355395,
  "ScanOptions": "FS",
  "ScanningSequence": "EP",
  "SequenceName": "epfid2d1_104",
  "SequenceVariant": "SK_SS",
  "SeriesDescription": "func_task-things_run-6",
  "SeriesNumber": 26,
  "ShimSetting": [628, -7241, -8818, 594, 1, -154, -59, -29],
  "SliceThickness": 2,
  "SliceTiming": [0, 0.785, 0.1, 0.8825, 0.1975, 0.98, 0.295, 1.08, 0.3925, 1.1775, 0.49, 1.275, 0.59, 1.3725, 0.6875, 0, 0.785, 0.1, 0.8825, 0.1975, 0.98, 0.295, 1.08, 0.3925, 1.1775, 0.49, 1.275, 0.59, 1.3725, 0.6875, 0, 0.785, 0.1, 0.8825, 0.1975, 0.98, 0.295, 1.08, 0.3925, 1.1775, 0.49, 1.275, 0.59, 1.3725, 0.6875, 0, 0.785, 0.1, 0.8825, 0.1975, 0.98, 0.295, 1.08, 0.3925, 1.1775, 0.49, 1.275, 0.59, 1.3725, 0.6875],
  "SoftwareVersions": "syngo_MR_E11",
  "SpacingBetweenSlices": 2,
  "StationName": "MRC35049",
  "TaskName": "things",
  "TotalReadoutTime": 0.0576811,
  "TxRefAmp": 234.237,
  "WipMemBlock": "9f249757-6edc-4796-ae92-74330a46b9d0||Sequence: R016 ve11c/master r/e634e98; Dec 19 2017 11:00:25 by eja",
  "dcmmeta_affine": [
    [-1.9977737665176392, 0.09351377934217453, -0.012459460645914078, 102.39879608154297],
    [0.09231503307819366, 1.8833298683166504, -0.6667433381080627, -69.93574523925781],
    [0.019442206248641014, 0.6665762662887573, 1.885549783706665, -64.25875854492188],
    [0.0, 0.0, 0.0, 1.0]
],
  "dcmmeta_reorient_transform": [
    [0.0, -1.0, 0.0, 103.0],
    [1.0, 0.0, 0.0, 0.0],
    [0.0, 0.0, 1.0, 0.0],
    [0.0, 0.0, 0.0, 1.0]
],
  "dcmmeta_shape": [104, 104, 60, 190],
  "dcmmeta_slice_dim": 2,
  "dcmmeta_version": 0.6,
  "global": {
    "const": {
      "AcquisitionMatrix": [104, 0, 0, 104],
      "AngioFlag": "N",
      "BitsAllocated": 16,
      "BitsStored": 16,
      "BodyPartExamined": "BRAIN",
      "Columns": 832,
      "EchoNumbers": 1,
      "EchoTime": 37.0,
      "EchoTrainLength": 104,
      "FlipAngle": 52.0,
      "HighBit": 15,
      "ImageOrientationPatient": [0.99888687240235, -0.046157516155, 0.00972110305688, 0.04675688828352, 0.94166491828312, -0.3332881262105],
      "ImagePositionPatient": [-873.25937015354, -775.9766139844, 239.95538861474],
      "ImageType": [
        "ORIGINAL",
        "PRIMARY",
        "P",
        "MB",
        "ND",
        "MOSAIC"
],
      "ImagedNucleus": "1H",
      "ImagingFrequency": 123.258931,
      "InPlanePhaseEncodingDirection": "COL",
      "LargestImagePixelValue": 4095,
      "MRAcquisitionType": "2D",
      "MagneticFieldStrength": 3.0,
      "Manufacturer": "SIEMENS",
      "ManufacturerModelName": "Prisma_fit",
      "Modality": "MR",
      "NumberOfAverages": 1.0,
      "NumberOfPhaseEncodingSteps": 104,
      "PercentPhaseFieldOfView": 100.0,
      "PercentSampling": 100.0,
      "PerformedProcedureStepStartTime": "144713.973000",
      "PhotometricInterpretation": "MONOCHROME2",
      "PixelBandwidth": 2290.0,
      "PixelRepresentation": 0,
      "PixelSpacing": [2.0, 2.0],
      "ProtocolName": "func_task-things_run-6",
      "RepetitionTime": 1490.0,
      "RescaleIntercept": -4096.0,
      "RescaleSlope": 2.0,
      "RescaleType": "US",
      "Rows": 832,
      "SAR": 0.03553951294661,
      "SamplesPerPixel": 1,
      "ScanOptions": "FS",
      "ScanningSequence": "EP",
      "SequenceName": "epfid2d1_104",
      "SequenceVariant": [
        "SK",
        "SS"
],
      "SeriesDescription": "func_task-things_run-6",
      "SeriesNumber": 26,
      "SeriesTime": "160424.832000",
      "SliceLocation": -37.904865131087,
      "SliceThickness": 2.0,
      "SmallestImagePixelValue": 0,
      "SoftwareVersions": "syngo MR E11",
      "SpacingBetweenSlices": 1.999999991241,
      "SpecificCharacterSet": "ISO_IR 100",
      "StudyID": "1",
      "StudyTime": "144713.864000",
      "TransmitCoilName": "Body",
      "VariableFlipAngleFlag": "N",
      "WindowCenterWidthExplanation": "Algo1",
      "dBdt": 0.0},
    "slices": {}
  },
  "time": {
    "samples": {
      "AcquisitionNumber": [1, 2, 3, 4, 5, 6, 7, 8, 9, 10, 11, 12, 13, 14, 15, 16, 17, 18, 19, 20, 21, 22, 23, 24, 25, 26, 27, 28, 29, 30, 31, 32, 33, 34, 35, 36, 37, 38, 39, 40, 41, 42, 43, 44, 45, 46, 47, 48, 49, 50, 51, 52, 53, 54, 55, 56, 57, 58, 59, 60, 61, 62, 63, 64, 65, 66, 67, 68, 69, 70, 71, 72, 73, 74, 75, 76, 77, 78, 79, 80, 81, 82, 83, 84, 85, 86, 87, 88, 89, 90, 91, 92, 93, 94, 95, 96, 97, 98, 99, 100, 101, 102, 103, 104, 105, 106, 107, 108, 109, 110, 111, 112, 113, 114, 115, 116, 117, 118, 119, 120, 121, 122, 123, 124, 125, 126, 127, 128, 129, 130, 131, 132, 133, 134, 135, 136, 137, 138, 139, 140, 141, 142, 143, 144, 145, 146, 147, 148, 149, 150, 151, 152, 153, 154, 155, 156, 157, 158, 159, 160, 161, 162, 163, 164, 165, 166, 167, 168, 169, 170, 171, 172, 173, 174, 175, 176, 177, 178, 179, 180, 181, 182, 183, 184, 185, 186, 187, 188, 189, 190],
      "AcquisitionTime": ["160321.347500", "160322.837500", "160324.327500", "160325.817500", "160327.307500", "160328.797500", "160330.287500", "160331.777500", "160333.267500", "160334.757500", "160336.247500", "160337.737500", "160339.227500", "160340.717500", "160342.207500", "160343.697500", "160345.187500", "160346.677500", "160348.167500", "160349.657500", "160351.147500", "160352.637500", "160354.127500", "160355.617500", "160357.107500", "160358.597500", "160400.087500", "160401.577500", "160403.067500", "160404.557500", "160406.047500", "160407.537500", "160409.027500", "160410.517500", "160412.007500", "160413.497500", "160414.987500", "160416.477500", "160417.967500", "160419.457500", "160420.947500", "160422.437500", "160423.927500", "160425.417500", "160426.907500", "160428.397500", "160429.887500", "160431.377500", "160432.867500", "160434.357500", "160435.847500", "160437.337500", "160438.827500", "160440.317500", "160441.807500", "160443.297500", "160444.787500", "160446.277500", "160447.767500", "160449.257500", "160450.747500", "160452.237500", "160453.727500", "160455.217500", "160456.707500", "160458.197500", "160459.687500", "160501.177500", "160502.667500", "160504.157500", "160505.647500", "160507.137500", "160508.627500", "160510.117500", "160511.607500", "160513.097500", "160514.587500", "160516.077500", "160517.567500", "160519.057500", "160520.547500", "160522.037500", "160523.527500", "160525.017500", "160526.507500", "160527.997500", "160529.487500", "160530.977500", "160532.467500", "160533.957500", "160535.447500", "160536.937500", "160538.427500", "160539.917500", "160541.407500", "160542.897500", "160544.387500", "160545.877500", "160547.367500", "160548.857500", "160550.347500", "160551.837500", "160553.327500", "160554.817500", "160556.307500", "160557.797500", "160559.287500", "160600.777500", "160602.267500", "160603.757500", "160605.247500", "160606.737500", "160608.227500", "160609.717500", "160611.207500", "160612.697500", "160614.187500", "160615.677500", "160617.167500", "160618.657500", "160620.147500", "160621.637500", "160623.127500", "160624.617500", "160626.107500", "160627.597500", "160629.087500", "160630.577500", "160632.067500", "160633.557500", "160635.047500", "160636.537500", "160638.027500", "160639.517500", "160641.007500", "160642.497500", "160643.987500", "160645.477500", "160646.967500", "160648.457500", "160649.947500", "160651.437500", "160652.927500", "160654.417500", "160655.907500", "160657.397500", "160658.887500", "160700.377500", "160701.867500", "160703.357500", "160704.847500", "160706.337500", "160707.827500", "160709.317500", "160710.807500", "160712.297500", "160713.787500", "160715.277500", "160716.767500", "160718.257500", "160719.747500", "160721.237500", "160722.727500", "160724.217500", "160725.707500", "160727.197500", "160728.687500", "160730.177500", "160731.667500", "160733.157500", "160734.647500", "160736.137500", "160737.627500", "160739.117500", "160740.607500", "160742.097500", "160743.587500", "160745.077500", "160746.567500", "160748.057500", "160749.547500", "160751.037500", "160752.527500", "160754.017500", "160755.507500", "160756.997500", "160758.487500", "160759.977500", "160801.467500", "160802.957500"],
      "ContentTime": ["160424.834000", "160424.837000", "160424.839000", "160424.842000", "160424.845000", "160424.855000", "160424.858000", "160424.861000", "160424.864000", "160444.849000", "160444.852000", "160444.862000", "160444.865000", "160444.867000", "160444.870000", "160444.873000", "160444.880000", "160444.882000", "160444.884000", "160444.887000", "160444.890000", "160444.892000", "160444.895000", "160444.897000", "160444.900000", "160444.902000", "160444.905000", "160444.907000", "160444.910000", "160444.913000", "160504.837000", "160504.839000", "160504.842000", "160504.845000", "160504.847000", "160504.850000", "160504.852000", "160504.854000", "160504.857000", "160504.860000", "160504.862000", "160504.865000", "160504.867000", "160504.870000", "160504.872000", "160504.875000", "160504.877000", "160504.880000", "160504.882000", "160504.885000", "160524.819000", "160524.822000", "160524.824000", "160524.827000", "160524.829000", "160524.832000", "160524.834000", "160524.837000", "160524.839000", "160524.842000", "160524.844000", "160524.847000", "160524.849000", "160524.852000", "160524.854000", "160524.857000", "160524.859000", "160524.862000", "160524.864000", "160524.867000", "160544.847000", "160544.849000", "160544.852000", "160544.854000", "160544.857000", "160544.859000", "160544.862000", "160544.864000", "160544.867000", "160544.870000", "160544.872000", "160544.875000", "160544.877000", "160544.880000", "160544.882000", "160544.885000", "160544.887000", "160544.890000", "160544.892000", "160544.895000", "160625.294000", "160625.297000", "160625.300000", "160625.302000", "160625.305000", "160625.307000", "160625.319000", "160625.321000", "160625.324000", "160625.326000", "160625.329000", "160625.331000", "160625.334000", "160625.337000", "160625.339000", "160625.342000", "160625.344000", "160625.347000", "160625.349000", "160625.352000", "160625.354000", "160625.357000", "160625.359000", "160625.362000", "160625.364000", "160625.367000", "160625.369000", "160625.372000", "160625.375000", "160625.377000", "160625.380000", "160625.382000", "160704.878000", "160704.880000", "160704.883000", "160704.885000", "160704.888000", "160704.891000", "160704.893000", "160704.896000", "160704.898000", "160704.901000", "160704.904000", "160704.907000", "160704.909000", "160704.912000", "160704.914000", "160704.917000", "160704.920000", "160704.922000", "160704.925000", "160704.927000", "160704.930000", "160704.932000", "160704.935000", "160704.937000", "160704.940000", "160704.942000", "160704.945000", "160744.924000", "160744.927000", "160744.930000", "160744.932000", "160744.935000", "160744.937000", "160744.940000", "160744.942000", "160744.945000", "160744.947000", "160744.950000", "160744.952000", "160744.955000", "160744.958000", "160744.960000", "160744.963000", "160744.965000", "160744.968000", "160744.970000", "160744.973000", "160744.975000", "160744.978000", "160744.980000", "160744.983000", "160744.986000", "160744.988000", "160744.991000", "160804.774000", "160804.777000", "160804.779000", "160804.782000", "160804.785000", "160804.787000", "160804.790000", "160804.792000", "160804.795000", "160804.797000", "160804.800000", "160804.803000", "160804.805000", "160804.808000"],
      "InstanceCreationTime": ["160424.834000", "160424.837000", "160424.839000", "160424.842000", "160424.845000", "160424.855000", "160424.858000", "160424.861000", "160424.864000", "160444.849000", "160444.852000", "160444.862000", "160444.865000", "160444.867000", "160444.870000", "160444.873000", "160444.880000", "160444.882000", "160444.884000", "160444.887000", "160444.890000", "160444.892000", "160444.895000", "160444.897000", "160444.900000", "160444.902000", "160444.905000", "160444.907000", "160444.910000", "160444.913000", "160504.837000", "160504.839000", "160504.842000", "160504.845000", "160504.847000", "160504.850000", "160504.852000", "160504.854000", "160504.857000", "160504.860000", "160504.862000", "160504.865000", "160504.867000", "160504.870000", "160504.872000", "160504.875000", "160504.877000", "160504.880000", "160504.882000", "160504.885000", "160524.819000", "160524.822000", "160524.824000", "160524.827000", "160524.829000", "160524.832000", "160524.834000", "160524.837000", "160524.839000", "160524.842000", "160524.844000", "160524.847000", "160524.849000", "160524.852000", "160524.854000", "160524.857000", "160524.859000", "160524.862000", "160524.864000", "160524.867000", "160544.847000", "160544.849000", "160544.852000", "160544.854000", "160544.857000", "160544.859000", "160544.862000", "160544.864000", "160544.867000", "160544.870000", "160544.872000", "160544.875000", "160544.877000", "160544.880000", "160544.882000", "160544.885000", "160544.887000", "160544.890000", "160544.892000", "160544.895000", "160625.294000", "160625.297000", "160625.300000", "160625.302000", "160625.305000", "160625.307000", "160625.319000", "160625.321000", "160625.324000", "160625.326000", "160625.329000", "160625.331000", "160625.334000", "160625.337000", "160625.339000", "160625.342000", "160625.344000", "160625.347000", "160625.349000", "160625.352000", "160625.354000", "160625.357000", "160625.359000", "160625.362000", "160625.364000", "160625.367000", "160625.369000", "160625.372000", "160625.375000", "160625.377000", "160625.380000", "160625.382000", "160704.878000", "160704.880000", "160704.883000", "160704.885000", "160704.888000", "160704.891000", "160704.893000", "160704.896000", "160704.898000", "160704.901000", "160704.904000", "160704.907000", "160704.909000", "160704.912000", "160704.914000", "160704.917000", "160704.920000", "160704.922000", "160704.925000", "160704.927000", "160704.930000", "160704.932000", "160704.935000", "160704.937000", "160704.940000", "160704.942000", "160704.945000", "160744.924000", "160744.927000", "160744.930000", "160744.932000", "160744.935000", "160744.937000", "160744.940000", "160744.942000", "160744.945000", "160744.947000", "160744.950000", "160744.952000", "160744.955000", "160744.958000", "160744.960000", "160744.963000", "160744.965000", "160744.968000", "160744.970000", "160744.973000", "160744.975000", "160744.978000", "160744.980000", "160744.983000", "160744.986000", "160744.988000", "160744.991000", "160804.774000", "160804.777000", "160804.779000", "160804.782000", "160804.785000", "160804.787000", "160804.790000", "160804.792000", "160804.795000", "160804.797000", "160804.800000", "160804.803000", "160804.805000", "160804.808000"],
      "InstanceNumber": [1, 2, 3, 4, 5, 6, 7, 8, 9, 10, 11, 12, 13, 14, 15, 16, 17, 18, 19, 20, 21, 22, 23, 24, 25, 26, 27, 28, 29, 30, 31, 32, 33, 34, 35, 36, 37, 38, 39, 40, 41, 42, 43, 44, 45, 46, 47, 48, 49, 50, 51, 52, 53, 54, 55, 56, 57, 58, 59, 60, 61, 62, 63, 64, 65, 66, 67, 68, 69, 70, 71, 72, 73, 74, 75, 76, 77, 78, 79, 80, 81, 82, 83, 84, 85, 86, 87, 88, 89, 90, 91, 92, 93, 94, 95, 96, 97, 98, 99, 100, 101, 102, 103, 104, 105, 106, 107, 108, 109, 110, 111, 112, 113, 114, 115, 116, 117, 118, 119, 120, 121, 122, 123, 124, 125, 126, 127, 128, 129, 130, 131, 132, 133, 134, 135, 136, 137, 138, 139, 140, 141, 142, 143, 144, 145, 146, 147, 148, 149, 150, 151, 152, 153, 154, 155, 156, 157, 158, 159, 160, 161, 162, 163, 164, 165, 166, 167, 168, 169, 170, 171, 172, 173, 174, 175, 176, 177, 178, 179, 180, 181, 182, 183, 184, 185, 186, 187, 188, 189, 190],
      "WindowCenter": [4818.0, 4818.0, 4822.0, 4816.0, 4792.0, 4812.0, 4814.0, 4816.0, 4818.0, 4818.0, 4818.0, 4820.0, 4820.0, 4812.0, 4818.0, 4820.0, 4818.0, 4818.0, 4818.0, 4818.0, 4818.0, 4816.0, 4816.0, 4814.0, 4816.0, 4822.0, 4844.0, 4820.0, 4818.0, 4820.0, 4818.0, 4814.0, 4820.0, 4818.0, 4818.0, 4814.0, 4818.0, 4816.0, 4816.0, 4820.0, 4820.0, 4820.0, 4814.0, 4792.0, 4816.0, 4822.0, 4816.0, 4820.0, 4820.0, 4820.0, 4818.0, 4792.0, 4818.0, 4816.0, 4818.0, 4816.0, 4814.0, 4812.0, 4816.0, 4814.0, 4814.0, 4820.0, 4816.0, 4818.0, 4816.0, 4816.0, 4820.0, 4816.0, 4790.0, 4818.0, 4818.0, 4818.0, 4818.0, 4820.0, 4816.0, 4818.0, 4818.0, 4816.0, 4818.0, 4814.0, 4818.0, 4816.0, 4816.0, 4818.0, 4816.0, 4818.0, 4820.0, 4816.0, 4816.0, 4820.0, 4816.0, 4812.0, 4814.0, 4818.0, 4814.0, 4814.0, 4820.0, 4818.0, 4820.0, 4818.0, 4818.0, 4818.0, 4818.0, 4816.0, 4818.0, 4816.0, 4820.0, 4816.0, 4816.0, 4814.0, 4816.0, 4814.0, 4818.0, 4818.0, 4816.0, 4816.0, 4792.0, 4792.0, 4816.0, 4810.0, 4816.0, 4818.0, 4816.0, 4816.0, 4814.0, 4788.0, 4790.0, 4812.0, 4812.0, 4816.0, 4816.0, 4814.0, 4820.0, 4816.0, 4818.0, 4818.0, 4792.0, 4814.0, 4814.0, 4792.0, 4818.0, 4816.0, 4814.0, 4816.0, 4814.0, 4812.0, 4818.0, 4818.0, 4816.0, 4816.0, 4790.0, 4812.0, 4816.0, 4812.0, 4814.0, 4810.0, 4818.0, 4812.0, 4816.0, 4816.0, 4814.0, 4816.0, 4790.0, 4814.0, 4790.0, 4814.0, 4812.0, 4816.0, 4818.0, 4818.0, 4818.0, 4818.0, 4812.0, 4814.0, 4814.0, 4814.0, 4812.0, 4816.0, 4816.0, 4818.0, 4814.0, 4812.0, 4814.0, 4816.0, 4814.0, 4816.0, 4816.0, 4794.0, 4812.0, 4810.0],
      "WindowWidth": [18622.0, 18622.0, 18624.0, 18616.0, 18566.0, 18608.0, 18628.0, 18622.0, 18622.0, 18628.0, 18618.0, 18616.0, 18626.0, 18608.0, 18618.0, 18622.0, 18610.0, 18622.0, 18624.0, 18622.0, 18624.0, 18622.0, 18604.0, 18608.0, 18620.0, 18622.0, 18660.0, 18620.0, 18622.0, 18626.0, 18614.0, 18612.0, 18622.0, 18616.0, 18622.0, 18618.0, 18618.0, 18618.0, 18606.0, 18626.0, 18630.0, 18622.0, 18626.0, 18570.0, 18610.0, 18622.0, 18612.0, 18628.0, 18618.0, 18626.0, 18626.0, 18580.0, 18624.0, 18618.0, 18620.0, 18622.0, 18610.0, 18618.0, 18618.0, 18612.0, 18624.0, 18618.0, 18614.0, 18616.0, 18618.0, 18622.0, 18610.0, 18618.0, 18578.0, 18618.0, 18620.0, 18616.0, 18626.0, 18622.0, 18618.0, 18618.0, 18608.0, 18618.0, 18624.0, 18604.0, 18624.0, 18608.0, 18614.0, 18626.0, 18612.0, 18624.0, 18616.0, 18618.0, 18618.0, 18620.0, 18620.0, 18610.0, 18616.0, 18624.0, 18610.0, 18620.0, 18624.0, 18612.0, 18622.0, 18612.0, 18624.0, 18616.0, 18626.0, 18616.0, 18622.0, 18620.0, 18616.0, 18618.0, 18612.0, 18612.0, 18622.0, 18604.0, 18624.0, 18618.0, 18630.0, 18598.0, 18540.0, 18572.0, 18626.0, 18622.0, 18624.0, 18622.0, 18624.0, 18618.0, 18596.0, 18566.0, 18564.0, 18604.0, 18610.0, 18624.0, 18616.0, 18610.0, 18626.0, 18622.0, 18618.0, 18622.0, 18572.0, 18610.0, 18612.0, 18578.0, 18626.0, 18624.0, 18604.0, 18620.0, 18612.0, 18610.0, 18624.0, 18620.0, 18620.0, 18620.0, 18578.0, 18614.0, 18614.0, 18614.0, 18614.0, 18606.0, 18622.0, 18612.0, 18620.0, 18616.0, 18618.0, 18624.0, 18578.0, 18614.0, 18570.0, 18616.0, 18604.0, 18626.0, 18618.0, 18630.0, 18614.0, 18620.0, 18604.0, 18620.0, 18610.0, 18618.0, 18610.0, 18620.0, 18624.0, 18618.0, 18616.0, 18608.0, 18604.0, 18618.0, 18606.0, 18618.0, 18620.0, 18568.0, 18598.0, 18618.0]
    },
    "slices": {}
  }
}