{
  "AcquisitionMatrixPE": 104,
  "AcquisitionNumber": 1,
  "AcquisitionTime": "15:29:43.985000",
  "BandwidthPerPixelPhaseEncode": 17.17,
  "BaseResolution": 104,
  "BodyPartExamined": "BRAIN",
  "CoilString": "HC1-7;NC1_2",
  "ConsistencyInfo": "N4_VE11C_LATEST_20160120",
  "ConversionSoftware": "dcm2niix",
  "ConversionSoftwareVersion": "v1.0.20190902",
  "DerivedVendorReportedEchoSpacing": 0.000560011,
  "DeviceSerialNumber": "167006",
  "DwellTime": 2.1e-06,
  "EchoTime": 0.037,
  "EchoTrainLength": 104,
  "EffectiveEchoSpacing": 0.000560011,
  "FlipAngle": 52,
  "ImageComments": "Unaliased_MB4_PE3_LB",
  "ImageOrientationPatientDICOM": [0.998887, -0.0461575, 0.0097211, 0.0467569, 0.941665, -0.333288],
  "ImageType": [
    "ORIGINAL",
    "PRIMARY",
    "M",
    "MB",
    "ND",
    "MOSAIC"
],
  "ImagingFrequency": 123.259,
  "InPlanePhaseEncodingDirectionDICOM": "COL",
  "InstitutionAddress": "Chemin_Queen-Mary_4565_Montreal_District_CA_H3W_1W5",
  "InstitutionName": "IUGM",
  "InstitutionalDepartmentName": "Department",
  "MRAcquisitionType": "2D",
  "MagneticFieldStrength": 3,
  "Manufacturer": "Siemens",
  "ManufacturersModelName": "Prisma_fit",
  "Modality": "MR",
  "MultibandAccelerationFactor": 4,
  "PartialFourier": 1,
  "PatientPosition": "HFS",
  "PercentPhaseFOV": 100,
  "PhaseEncodingDirection": "j",
  "PhaseEncodingSteps": 104,
  "PhaseResolution": 1,
  "PixelBandwidth": 2290,
  "ProcedureStepDescription": "memory_things",
  "ProtocolName": "func_task-things_run-1",
  "PulseSequenceDetails": "%CustomerSeq%_cmrr_mbep2d_bold",
  "ReceiveCoilActiveElements": "HC1-7;NC1,2",
  "ReceiveCoilName": "HeadNeck_64",
  "ReconMatrixPE": 104,
  "RepetitionTime": 1.49,
  "SAR": 0.0355395,
  "ScanOptions": "FS",
  "ScanningSequence": "EP",
  "SequenceName": "epfid2d1_104",
  "SequenceVariant": "SK_SS",
  "SeriesDescription": "func_task-things_run-1",
  "SeriesNumber": 10,
  "ShimSetting": [628, -7241, -8818, 594, 1, -154, -59, -29],
  "SliceThickness": 2,
  "SliceTiming": [0, 0.785, 0.1, 0.8825, 0.1975, 0.98, 0.295, 1.08, 0.3925, 1.1775, 0.49, 1.275, 0.59, 1.3725, 0.6875, 0, 0.785, 0.1, 0.8825, 0.1975, 0.98, 0.295, 1.08, 0.3925, 1.1775, 0.49, 1.275, 0.59, 1.3725, 0.6875, 0, 0.785, 0.1, 0.8825, 0.1975, 0.98, 0.295, 1.08, 0.3925, 1.1775, 0.49, 1.275, 0.59, 1.3725, 0.6875, 0, 0.785, 0.1, 0.8825, 0.1975, 0.98, 0.295, 1.08, 0.3925, 1.1775, 0.49, 1.275, 0.59, 1.3725, 0.6875],
  "SoftwareVersions": "syngo_MR_E11",
  "SpacingBetweenSlices": 2,
  "StationName": "MRC35049",
  "TaskName": "things",
  "TotalReadoutTime": 0.0576811,
  "TxRefAmp": 234.237,
  "WipMemBlock": "f6d6c143-acb7-42f9-ab79-ada1e9d1929d||Sequence: R016 ve11c/master r/e634e98; Dec 19 2017 11:00:25 by eja",
  "dcmmeta_affine": [
    [-1.9977737665176392, 0.09351377934217453, -0.012459460645914078, 102.39879608154297],
    [0.09231503307819366, 1.8833298683166504, -0.6667433381080627, -69.93574523925781],
    [0.019442206248641014, 0.6665762662887573, 1.885549783706665, -64.25875854492188],
    [0.0, 0.0, 0.0, 1.0]
],
  "dcmmeta_reorient_transform": [
    [0.0, -1.0, 0.0, 103.0],
    [1.0, 0.0, 0.0, 0.0],
    [0.0, 0.0, 1.0, 0.0],
    [0.0, 0.0, 0.0, 1.0]
],
  "dcmmeta_shape": [104, 104, 60, 190],
  "dcmmeta_slice_dim": 2,
  "dcmmeta_version": 0.6,
  "global": {
    "const": {
      "AcquisitionMatrix": [104, 0, 0, 104],
      "AngioFlag": "N",
      "BitsAllocated": 16,
      "BitsStored": 16,
      "BodyPartExamined": "BRAIN",
      "Columns": 832,
      "EchoNumbers": 1,
      "EchoTime": 37.0,
      "EchoTrainLength": 104,
      "FlipAngle": 52.0,
      "HighBit": 15,
      "ImageOrientationPatient": [0.99888687240235, -0.046157516155, 0.00972110305688, 0.04675688828352, 0.94166491828312, -0.3332881262105],
      "ImagePositionPatient": [-873.25937015354, -775.9766139844, 239.95538861474],
      "ImageType": [
        "ORIGINAL",
        "PRIMARY",
        "M",
        "MB",
        "ND",
        "MOSAIC"
],
      "ImagedNucleus": "1H",
      "ImagingFrequency": 123.258916,
      "InPlanePhaseEncodingDirection": "COL",
      "MRAcquisitionType": "2D",
      "MagneticFieldStrength": 3.0,
      "Manufacturer": "SIEMENS",
      "ManufacturerModelName": "Prisma_fit",
      "Modality": "MR",
      "NumberOfAverages": 1.0,
      "NumberOfPhaseEncodingSteps": 104,
      "PercentPhaseFieldOfView": 100.0,
      "PercentSampling": 100.0,
      "PerformedProcedureStepStartTime": "144713.973000",
      "PhotometricInterpretation": "MONOCHROME2",
      "PixelBandwidth": 2290.0,
      "PixelRepresentation": 0,
      "PixelSpacing": [2.0, 2.0],
      "ProtocolName": "func_task-things_run-1",
      "RepetitionTime": 1490.0,
      "Rows": 832,
      "SAR": 0.03553951294661,
      "SamplesPerPixel": 1,
      "ScanOptions": "FS",
      "ScanningSequence": "EP",
      "SequenceName": "epfid2d1_104",
      "SequenceVariant": [
        "SK",
        "SS"
],
      "SeriesDescription": "func_task-things_run-1",
      "SeriesNumber": 10,
      "SeriesTime": "153107.730000",
      "SliceLocation": -37.904865131087,
      "SliceThickness": 2.0,
      "SmallestImagePixelValue": 0,
      "SoftwareVersions": "syngo MR E11",
      "SpacingBetweenSlices": 1.999999991241,
      "SpecificCharacterSet": "ISO_IR 100",
      "StudyID": "1",
      "StudyTime": "144713.864000",
      "TransmitCoilName": "Body",
      "VariableFlipAngleFlag": "N",
      "WindowCenterWidthExplanation": "Algo1",
      "dBdt": 0.0},
    "slices": {}
  },
  "time": {
    "samples": {
      "AcquisitionNumber": [1, 2, 3, 4, 5, 6, 7, 8, 9, 10, 11, 12, 13, 14, 15, 16, 17, 18, 19, 20, 21, 22, 23, 24, 25, 26, 27, 28, 29, 30, 31, 32, 33, 34, 35, 36, 37, 38, 39, 40, 41, 42, 43, 44, 45, 46, 47, 48, 49, 50, 51, 52, 53, 54, 55, 56, 57, 58, 59, 60, 61, 62, 63, 64, 65, 66, 67, 68, 69, 70, 71, 72, 73, 74, 75, 76, 77, 78, 79, 80, 81, 82, 83, 84, 85, 86, 87, 88, 89, 90, 91, 92, 93, 94, 95, 96, 97, 98, 99, 100, 101, 102, 103, 104, 105, 106, 107, 108, 109, 110, 111, 112, 113, 114, 115, 116, 117, 118, 119, 120, 121, 122, 123, 124, 125, 126, 127, 128, 129, 130, 131, 132, 133, 134, 135, 136, 137, 138, 139, 140, 141, 142, 143, 144, 145, 146, 147, 148, 149, 150, 151, 152, 153, 154, 155, 156, 157, 158, 159, 160, 161, 162, 163, 164, 165, 166, 167, 168, 169, 170, 171, 172, 173, 174, 175, 176, 177, 178, 179, 180, 181, 182, 183, 184, 185, 186, 187, 188, 189, 190],
      "AcquisitionTime": ["152943.985000", "152945.475000", "152946.965000", "152948.455000", "152949.945000", "152951.435000", "152952.925000", "152954.415000", "152955.905000", "152957.395000", "152958.885000", "153000.375000", "153001.865000", "153003.355000", "153004.845000", "153006.335000", "153007.825000", "153009.315000", "153010.805000", "153012.295000", "153013.785000", "153015.275000", "153016.765000", "153018.255000", "153019.745000", "153021.235000", "153022.725000", "153024.215000", "153025.705000", "153027.195000", "153028.685000", "153030.175000", "153031.665000", "153033.155000", "153034.645000", "153036.135000", "153037.625000", "153039.115000", "153040.605000", "153042.095000", "153043.585000", "153045.075000", "153046.565000", "153048.055000", "153049.545000", "153051.035000", "153052.525000", "153054.015000", "153055.505000", "153056.995000", "153058.485000", "153059.975000", "153101.465000", "153102.955000", "153104.445000", "153105.935000", "153107.425000", "153108.915000", "153110.405000", "153111.895000", "153113.385000", "153114.875000", "153116.365000", "153117.855000", "153119.345000", "153120.835000", "153122.325000", "153123.815000", "153125.305000", "153126.795000", "153128.285000", "153129.775000", "153131.265000", "153132.755000", "153134.245000", "153135.735000", "153137.225000", "153138.715000", "153140.205000", "153141.695000", "153143.185000", "153144.675000", "153146.165000", "153147.655000", "153149.145000", "153150.635000", "153152.125000", "153153.615000", "153155.105000", "153156.595000", "153158.085000", "153159.575000", "153201.065000", "153202.555000", "153204.045000", "153205.535000", "153207.025000", "153208.515000", "153210.005000", "153211.495000", "153212.985000", "153214.475000", "153215.965000", "153217.455000", "153218.945000", "153220.435000", "153221.925000", "153223.415000", "153224.905000", "153226.395000", "153227.885000", "153229.375000", "153230.865000", "153232.355000", "153233.845000", "153235.335000", "153236.825000", "153238.315000", "153239.805000", "153241.295000", "153242.785000", "153244.275000", "153245.765000", "153247.255000", "153248.745000", "153250.235000", "153251.725000", "153253.215000", "153254.705000", "153256.195000", "153257.685000", "153259.175000", "153300.665000", "153302.155000", "153303.645000", "153305.135000", "153306.625000", "153308.115000", "153309.605000", "153311.095000", "153312.585000", "153314.075000", "153315.565000", "153317.055000", "153318.545000", "153320.035000", "153321.525000", "153323.015000", "153324.505000", "153325.995000", "153327.485000", "153328.975000", "153330.465000", "153331.955000", "153333.445000", "153334.935000", "153336.425000", "153337.915000", "153339.405000", "153340.895000", "153342.385000", "153343.875000", "153345.365000", "153346.855000", "153348.345000", "153349.835000", "153351.325000", "153352.815000", "153354.305000", "153355.795000", "153357.285000", "153358.775000", "153400.265000", "153401.755000", "153403.245000", "153404.735000", "153406.225000", "153407.715000", "153409.205000", "153410.695000", "153412.185000", "153413.675000", "153415.165000", "153416.655000", "153418.145000", "153419.635000", "153421.125000", "153422.615000", "153424.105000", "153425.595000"],
      "ContentTime": ["153107.734000", "153107.738000", "153107.741000", "153107.745000", "153107.748000", "153107.751000", "153107.755000", "153107.758000", "153107.761000", "153107.765000", "153107.768000", "153107.771000", "153107.775000", "153107.778000", "153107.782000", "153107.785000", "153107.789000", "153107.792000", "153107.795000", "153107.798000", "153107.802000", "153107.805000", "153107.808000", "153107.812000", "153107.815000", "153107.818000", "153107.837000", "153107.840000", "153107.843000", "153107.847000", "153107.850000", "153127.696000", "153127.700000", "153127.703000", "153127.706000", "153127.710000", "153127.713000", "153127.716000", "153127.720000", "153127.723000", "153127.726000", "153127.730000", "153127.733000", "153127.737000", "153127.740000", "153127.743000", "153127.747000", "153127.750000", "153127.753000", "153127.757000", "153127.760000", "153147.696000", "153147.700000", "153147.703000", "153147.706000", "153147.710000", "153147.714000", "153147.717000", "153147.721000", "153147.738000", "153147.741000", "153147.745000", "153147.748000", "153147.751000", "153147.755000", "153147.758000", "153147.761000", "153147.765000", "153147.768000", "153147.772000", "153147.775000", "153147.778000", "153207.696000", "153207.700000", "153207.703000", "153207.707000", "153207.710000", "153207.713000", "153207.717000", "153207.720000", "153207.723000", "153207.727000", "153207.730000", "153207.733000", "153207.737000", "153207.740000", "153207.743000", "153207.747000", "153207.750000", "153207.753000", "153207.757000", "153207.760000", "153247.697000", "153247.701000", "153247.704000", "153247.708000", "153247.711000", "153247.714000", "153247.718000", "153247.721000", "153247.724000", "153247.728000", "153247.731000", "153247.734000", "153247.738000", "153247.741000", "153247.744000", "153247.748000", "153247.751000", "153247.754000", "153247.758000", "153247.761000", "153247.764000", "153247.768000", "153247.771000", "153247.775000", "153247.778000", "153247.781000", "153247.785000", "153247.788000", "153247.791000", "153247.794000", "153247.798000", "153327.696000", "153327.700000", "153327.703000", "153327.706000", "153327.710000", "153327.713000", "153327.717000", "153327.720000", "153327.723000", "153327.727000", "153327.730000", "153327.733000", "153327.737000", "153327.740000", "153327.743000", "153327.747000", "153327.750000", "153327.753000", "153327.757000", "153327.760000", "153327.763000", "153327.767000", "153327.770000", "153327.774000", "153327.777000", "153327.780000", "153327.784000", "153347.696000", "153347.700000", "153347.703000", "153347.707000", "153347.710000", "153347.714000", "153347.717000", "153347.720000", "153347.724000", "153347.727000", "153347.753000", "153347.756000", "153347.759000", "153427.327000", "153427.330000", "153427.334000", "153427.337000", "153427.340000", "153427.344000", "153427.347000", "153427.351000", "153427.354000", "153427.358000", "153427.361000", "153427.365000", "153427.368000", "153427.372000", "153427.375000", "153427.379000", "153427.382000", "153427.386000", "153427.389000", "153427.392000", "153427.396000", "153427.399000", "153427.403000", "153427.406000", "153427.409000", "153427.413000", "153427.417000"],
      "InstanceCreationTime": ["153107.734000", "153107.738000", "153107.741000", "153107.745000", "153107.748000", "153107.751000", "153107.755000", "153107.758000", "153107.761000", "153107.765000", "153107.768000", "153107.771000", "153107.775000", "153107.778000", "153107.782000", "153107.785000", "153107.789000", "153107.792000", "153107.795000", "153107.798000", "153107.802000", "153107.805000", "153107.808000", "153107.812000", "153107.815000", "153107.818000", "153107.837000", "153107.840000", "153107.843000", "153107.847000", "153107.850000", "153127.696000", "153127.700000", "153127.703000", "153127.706000", "153127.710000", "153127.713000", "153127.716000", "153127.720000", "153127.723000", "153127.726000", "153127.730000", "153127.733000", "153127.737000", "153127.740000", "153127.743000", "153127.747000", "153127.750000", "153127.753000", "153127.757000", "153127.760000", "153147.696000", "153147.700000", "153147.703000", "153147.706000", "153147.710000", "153147.714000", "153147.717000", "153147.721000", "153147.738000", "153147.741000", "153147.745000", "153147.748000", "153147.751000", "153147.755000", "153147.758000", "153147.761000", "153147.765000", "153147.768000", "153147.772000", "153147.775000", "153147.778000", "153207.696000", "153207.700000", "153207.703000", "153207.707000", "153207.710000", "153207.713000", "153207.717000", "153207.720000", "153207.723000", "153207.727000", "153207.730000", "153207.733000", "153207.737000", "153207.740000", "153207.743000", "153207.747000", "153207.750000", "153207.753000", "153207.757000", "153207.760000", "153247.697000", "153247.701000", "153247.704000", "153247.708000", "153247.711000", "153247.714000", "153247.718000", "153247.721000", "153247.724000", "153247.728000", "153247.731000", "153247.734000", "153247.738000", "153247.741000", "153247.744000", "153247.748000", "153247.751000", "153247.754000", "153247.758000", "153247.761000", "153247.764000", "153247.768000", "153247.771000", "153247.775000", "153247.778000", "153247.781000", "153247.785000", "153247.788000", "153247.791000", "153247.794000", "153247.798000", "153327.696000", "153327.700000", "153327.703000", "153327.706000", "153327.710000", "153327.713000", "153327.717000", "153327.720000", "153327.723000", "153327.727000", "153327.730000", "153327.733000", "153327.737000", "153327.740000", "153327.743000", "153327.747000", "153327.750000", "153327.753000", "153327.757000", "153327.760000", "153327.763000", "153327.767000", "153327.770000", "153327.774000", "153327.777000", "153327.780000", "153327.784000", "153347.696000", "153347.700000", "153347.703000", "153347.707000", "153347.710000", "153347.714000", "153347.717000", "153347.720000", "153347.724000", "153347.727000", "153347.753000", "153347.756000", "153347.759000", "153427.327000", "153427.330000", "153427.334000", "153427.337000", "153427.340000", "153427.344000", "153427.347000", "153427.351000", "153427.354000", "153427.358000", "153427.361000", "153427.365000", "153427.368000", "153427.372000", "153427.375000", "153427.379000", "153427.382000", "153427.386000", "153427.389000", "153427.392000", "153427.396000", "153427.399000", "153427.403000", "153427.406000", "153427.409000", "153427.413000", "153427.417000"],
      "InstanceNumber": [1, 2, 3, 4, 5, 6, 7, 8, 9, 10, 11, 12, 13, 14, 15, 16, 17, 18, 19, 20, 21, 22, 23, 24, 25, 26, 27, 28, 29, 30, 31, 32, 33, 34, 35, 36, 37, 38, 39, 40, 41, 42, 43, 44, 45, 46, 47, 48, 49, 50, 51, 52, 53, 54, 55, 56, 57, 58, 59, 60, 61, 62, 63, 64, 65, 66, 67, 68, 69, 70, 71, 72, 73, 74, 75, 76, 77, 78, 79, 80, 81, 82, 83, 84, 85, 86, 87, 88, 89, 90, 91, 92, 93, 94, 95, 96, 97, 98, 99, 100, 101, 102, 103, 104, 105, 106, 107, 108, 109, 110, 111, 112, 113, 114, 115, 116, 117, 118, 119, 120, 121, 122, 123, 124, 125, 126, 127, 128, 129, 130, 131, 132, 133, 134, 135, 136, 137, 138, 139, 140, 141, 142, 143, 144, 145, 146, 147, 148, 149, 150, 151, 152, 153, 154, 155, 156, 157, 158, 159, 160, 161, 162, 163, 164, 165, 166, 167, 168, 169, 170, 171, 172, 173, 174, 175, 176, 177, 178, 179, 180, 181, 182, 183, 184, 185, 186, 187, 188, 189, 190],
      "LargestImagePixelValue": [43671, 41975, 41711, 41273, 42022, 40146, 39793, 39979, 40826, 40870, 40874, 41423, 39910, 40928, 40027, 39847, 40825, 39544, 40691, 41121, 40827, 41222, 41221, 41340, 41304, 41083, 40176, 41223, 40517, 41701, 41545, 41360, 41971, 41258, 41896, 41478, 40939, 41254, 41181, 39938, 41024, 40136, 41138, 41306, 40366, 40975, 41881, 40611, 40877, 40505, 40773, 40479, 40993, 40420, 41636, 40767, 41057, 41750, 40182, 41255, 41530, 41161, 40901, 41651, 40507, 41169, 40762, 40475, 41203, 41082, 40482, 41840, 40474, 41310, 40682, 41238, 41345, 41148, 40980, 41180, 41003, 41742, 40625, 41460, 41432, 41154, 41666, 41952, 41083, 42432, 40865, 41162, 41540, 39714, 40821, 40237, 39655, 40891, 39887, 41374, 40010, 41183, 40712, 40689, 41037, 40655, 40610, 40844, 40951, 41156, 41345, 41468, 41463, 40457, 41301, 41479, 40656, 40509, 41541, 40455, 41430, 40068, 41573, 41432, 40565, 41274, 40750, 40916, 41350, 40986, 40668, 40775, 40910, 40946, 40736, 40650, 40274, 40357, 41380, 39813, 40934, 41426, 40864, 41703, 40492, 41570, 40648, 41017, 40615, 40878, 40979, 40619, 41071, 41145, 41283, 40903, 41139, 41155, 41467, 40371, 41388, 40362, 41315, 41207, 41250, 41509, 40384, 40719, 41377, 40534, 41970, 40316, 41408, 41200, 40929, 41505, 40757, 40793, 42087, 40559, 41383, 40912, 40698, 41376, 41162, 39557, 41191, 40101, 40328, 40794],
      "WindowCenter": [10488.0, 10424.0, 10401.0, 10380.0, 10400.0, 10423.0, 10406.0, 10388.0, 10389.0, 10375.0, 10369.0, 10352.0, 10334.0, 10343.0, 10338.0, 10347.0, 10358.0, 10359.0, 10383.0, 10384.0, 10395.0, 10408.0, 10402.0, 10409.0, 10412.0, 10408.0, 10407.0, 10417.0, 10414.0, 10431.0, 10418.0, 10417.0, 10421.0, 10412.0, 10416.0, 10418.0, 10404.0, 10410.0, 10415.0, 10409.0, 10412.0, 10401.0, 10408.0, 10407.0, 10404.0, 10405.0, 10407.0, 10397.0, 10396.0, 10389.0, 10383.0, 10374.0, 10379.0, 10381.0, 10397.0, 10388.0, 10400.0, 10411.0, 10414.0, 10412.0, 10401.0, 10385.0, 10386.0, 10390.0, 10382.0, 10385.0, 10373.0, 10357.0, 10375.0, 10376.0, 10385.0, 10389.0, 10376.0, 10375.0, 10371.0, 10384.0, 10391.0, 10391.0, 10388.0, 10391.0, 10388.0, 10397.0, 10395.0, 10413.0, 10416.0, 10417.0, 10418.0, 10413.0, 10396.0, 10403.0, 10394.0, 10406.0, 10407.0, 10377.0, 10375.0, 10369.0, 10367.0, 10382.0, 10373.0, 10383.0, 10374.0, 10384.0, 10373.0, 10378.0, 10384.0, 10380.0, 10379.0, 10386.0, 10385.0, 10384.0, 10391.0, 10391.0, 10395.0, 10392.0, 10393.0, 10390.0, 10392.0, 10398.0, 10405.0, 10390.0, 10393.0, 10377.0, 10392.0, 10394.0, 10397.0, 10387.0, 10374.0, 10370.0, 10374.0, 10368.0, 10371.0, 10373.0, 10371.0, 10370.0, 10372.0, 10373.0, 10374.0, 10381.0, 10398.0, 10398.0, 10405.0, 10393.0, 10370.0, 10365.0, 10348.0, 10363.0, 10361.0, 10361.0, 10353.0, 10366.0, 10369.0, 10370.0, 10377.0, 10382.0, 10384.0, 10399.0, 10393.0, 10385.0, 10375.0, 10363.0, 10374.0, 10379.0, 10385.0, 10385.0, 10384.0, 10370.0, 10362.0, 10372.0, 10383.0, 10381.0, 10396.0, 10381.0, 10386.0, 10393.0, 10394.0, 10401.0, 10396.0, 10392.0, 10396.0, 10374.0, 10378.0, 10379.0, 10374.0, 10369.0, 10360.0, 10360.0, 10377.0, 10368.0, 10376.0, 10381.0],
      "WindowWidth": [22712.0, 22524.0, 22448.0, 22386.0, 22418.0, 22476.0, 22436.0, 22389.0, 22383.0, 22351.0, 22333.0, 22291.0, 22257.0, 22273.0, 22267.0, 22287.0, 22309.0, 22317.0, 22367.0, 22367.0, 22394.0, 22421.0, 22408.0, 22422.0, 22430.0, 22421.0, 22424.0, 22443.0, 22443.0, 22477.0, 22447.0, 22446.0, 22453.0, 22432.0, 22438.0, 22441.0, 22414.0, 22427.0, 22436.0, 22430.0, 22434.0, 22410.0, 22422.0, 22417.0, 22416.0, 22419.0, 22419.0, 22401.0, 22400.0, 22382.0, 22369.0, 22348.0, 22356.0, 22365.0, 22394.0, 22378.0, 22403.0, 22428.0, 22443.0, 22434.0, 22405.0, 22371.0, 22373.0, 22380.0, 22368.0, 22371.0, 22344.0, 22311.0, 22346.0, 22351.0, 22372.0, 22377.0, 22354.0, 22349.0, 22338.0, 22367.0, 22383.0, 22384.0, 22379.0, 22382.0, 22380.0, 22395.0, 22394.0, 22433.0, 22442.0, 22445.0, 22445.0, 22430.0, 22400.0, 22408.0, 22393.0, 22420.0, 22420.0, 22361.0, 22346.0, 22335.0, 22335.0, 22362.0, 22350.0, 22366.0, 22352.0, 22369.0, 22348.0, 22357.0, 22368.0, 22362.0, 22357.0, 22373.0, 22371.0, 22367.0, 22384.0, 22383.0, 22390.0, 22393.0, 22390.0, 22380.0, 22388.0, 22406.0, 22415.0, 22388.0, 22390.0, 22359.0, 22387.0, 22393.0, 22401.0, 22377.0, 22349.0, 22339.0, 22342.0, 22331.0, 22340.0, 22345.0, 22341.0, 22335.0, 22344.0, 22347.0, 22348.0, 22364.0, 22399.0, 22407.0, 22420.0, 22388.0, 22340.0, 22326.0, 22294.0, 22322.0, 22322.0, 22322.0, 22305.0, 22333.0, 22340.0, 22345.0, 22359.0, 22367.0, 22371.0, 22405.0, 22395.0, 22376.0, 22349.0, 22326.0, 22348.0, 22363.0, 22375.0, 22374.0, 22370.0, 22340.0, 22322.0, 22348.0, 22369.0, 22369.0, 22397.0, 22371.0, 22381.0, 22392.0, 22398.0, 22412.0, 22403.0, 22397.0, 22398.0, 22354.0, 22361.0, 22362.0, 22352.0, 22337.0, 22316.0, 22325.0, 22359.0, 22344.0, 22361.0, 22369.0]
    },
    "slices": {}
  }
}