{
  "AcquisitionMatrixPE": 104,
  "AcquisitionNumber": 1,
  "AcquisitionTime": "13:35:42.692500",
  "BandwidthPerPixelPhaseEncode": 17.17,
  "BaseResolution": 104,
  "BodyPartExamined": "BRAIN",
  "CoilString": "HC1-7;NC1_2",
  "ConsistencyInfo": "N4_VE11C_LATEST_20160120",
  "ConversionSoftware": "dcm2niix",
  "ConversionSoftwareVersion": "v1.0.20190902",
  "DerivedVendorReportedEchoSpacing": 0.000560011,
  "DeviceSerialNumber": "167006",
  "DwellTime": 2.1e-06,
  "EchoTime": 0.037,
  "EchoTrainLength": 104,
  "EffectiveEchoSpacing": 0.000560011,
  "FlipAngle": 52,
  "ImageComments": "Unaliased_MB4_PE3_LB",
  "ImageOrientationPatientDICOM": [0.999155, 0.0187248, 0.0366019, -0.00959144, 0.971861, -0.235359],
  "ImageType": [
    "ORIGINAL",
    "PRIMARY",
    "P",
    "MB",
    "ND",
    "MOSAIC"
],
  "ImagingFrequency": 123.259,
  "InPlanePhaseEncodingDirectionDICOM": "COL",
  "InstitutionAddress": "Chemin_Queen-Mary_4565_Montreal_District_CA_H3W_1W5",
  "InstitutionName": "IUGM",
  "InstitutionalDepartmentName": "Department",
  "MRAcquisitionType": "2D",
  "MagneticFieldStrength": 3,
  "Manufacturer": "Siemens",
  "ManufacturersModelName": "Prisma_fit",
  "Modality": "MR",
  "MultibandAccelerationFactor": 4,
  "PartialFourier": 1,
  "PatientPosition": "HFS",
  "PercentPhaseFOV": 100,
  "PhaseEncodingDirection": "j",
  "PhaseEncodingSteps": 104,
  "PhaseResolution": 1,
  "PixelBandwidth": 2290,
  "ProcedureStepDescription": "memory_things",
  "ProtocolName": "func_task-things_run-3",
  "PulseSequenceDetails": "%CustomerSeq%_cmrr_mbep2d_bold",
  "ReceiveCoilActiveElements": "HC1-7;NC1,2",
  "ReceiveCoilName": "HeadNeck_64",
  "ReconMatrixPE": 104,
  "RepetitionTime": 1.49,
  "SAR": 0.0481416,
  "ScanOptions": "FS",
  "ScanningSequence": "EP",
  "SequenceName": "epfid2d1_104",
  "SequenceVariant": "SK_SS",
  "SeriesDescription": "func_task-things_run-3",
  "SeriesNumber": 17,
  "ShimSetting": [648, -7213, -8771, 732, 81, 6, 83, 5],
  "SliceThickness": 2,
  "SliceTiming": [0, 0.785, 0.0975, 0.8825, 0.195, 0.98, 0.295, 1.0775, 0.3925, 1.175, 0.49, 1.275, 0.5875, 1.3725, 0.685, 0, 0.785, 0.0975, 0.8825, 0.195, 0.98, 0.295, 1.0775, 0.3925, 1.175, 0.49, 1.275, 0.5875, 1.3725, 0.685, 0, 0.785, 0.0975, 0.8825, 0.195, 0.98, 0.295, 1.0775, 0.3925, 1.175, 0.49, 1.275, 0.5875, 1.3725, 0.685, 0, 0.785, 0.0975, 0.8825, 0.195, 0.98, 0.295, 1.0775, 0.3925, 1.175, 0.49, 1.275, 0.5875, 1.3725, 0.685],
  "SoftwareVersions": "syngo_MR_E11",
  "SpacingBetweenSlices": 2,
  "StationName": "MRC35049",
  "TaskName": "things",
  "TotalReadoutTime": 0.0576811,
  "TxRefAmp": 233.086,
  "WipMemBlock": "e7e6982d-dedb-487c-86f3-226abea5493a||Sequence: R016 ve11c/master r/e634e98; Dec 19 2017 11:00:25 by eja",
  "dcmmeta_affine": [
    [-1.9983090162277222, -0.01918288879096508, 0.07995805889368057, 107.88721466064453],
    [-0.037449631839990616, 1.9437223672866821, -0.4696178138256073, -73.95667266845703],
    [0.07320381700992584, 0.4707179367542267, 1.9424381256103516, -59.23091506958008],
    [0.0, 0.0, 0.0, 1.0]
],
  "dcmmeta_reorient_transform": [
    [0.0, -1.0, 0.0, 103.0],
    [1.0, 0.0, 0.0, 0.0],
    [0.0, 0.0, 1.0, 0.0],
    [0.0, 0.0, 0.0, 1.0]
],
  "dcmmeta_shape": [104, 104, 60, 190],
  "dcmmeta_slice_dim": 2,
  "dcmmeta_version": 0.6,
  "global": {
    "const": {
      "AcquisitionMatrix": [104, 0, 0, 104],
      "AngioFlag": "N",
      "BitsAllocated": 16,
      "BitsStored": 16,
      "BodyPartExamined": "BRAIN",
      "Columns": 832,
      "EchoNumbers": 1,
      "EchoTime": 37.0,
      "EchoTrainLength": 104,
      "FlipAngle": 52.0,
      "HighBit": 15,
      "ImageOrientationPatient": [0.99915448329896, 0.01872481630172, 0.03660190921334, -0.0095914440018, 0.97186118204875, -0.235358974821],
      "ImagePositionPatient": [-826.31326842982, -847.3933368367, 133.94817877169],
      "ImageType": [
        "ORIGINAL",
        "PRIMARY",
        "P",
        "MB",
        "ND",
        "MOSAIC"
],
      "ImagedNucleus": "1H",
      "ImagingFrequency": 123.258909,
      "InPlanePhaseEncodingDirection": "COL",
      "LargestImagePixelValue": 4095,
      "MRAcquisitionType": "2D",
      "MagneticFieldStrength": 3.0,
      "Manufacturer": "SIEMENS",
      "ManufacturerModelName": "Prisma_fit",
      "Modality": "MR",
      "NumberOfAverages": 1.0,
      "NumberOfPhaseEncodingSteps": 104,
      "PercentPhaseFieldOfView": 100.0,
      "PercentSampling": 100.0,
      "PerformedProcedureStepStartTime": "131951.839000",
      "PhotometricInterpretation": "MONOCHROME2",
      "PixelBandwidth": 2290.0,
      "PixelRepresentation": 0,
      "PixelSpacing": [2.0, 2.0],
      "ProtocolName": "func_task-things_run-3",
      "RepetitionTime": 1490.0,
      "RescaleIntercept": -4096.0,
      "RescaleSlope": 2.0,
      "RescaleType": "US",
      "Rows": 832,
      "SAR": 0.04814159345807,
      "SamplesPerPixel": 1,
      "ScanOptions": "FS",
      "ScanningSequence": "EP",
      "SequenceName": "epfid2d1_104",
      "SequenceVariant": [
        "SK",
        "SS"
],
      "SeriesDescription": "func_task-things_run-3",
      "SeriesNumber": 17,
      "SeriesTime": "133658.063000",
      "SliceLocation": -35.847280326213,
      "SliceThickness": 2.0,
      "SmallestImagePixelValue": 0,
      "SoftwareVersions": "syngo MR E11",
      "SpacingBetweenSlices": 2.000000013737,
      "SpecificCharacterSet": "ISO_IR 100",
      "StudyID": "1",
      "StudyTime": "131951.754000",
      "TransmitCoilName": "Body",
      "VariableFlipAngleFlag": "N",
      "WindowCenterWidthExplanation": "Algo1",
      "dBdt": 0.0},
    "slices": {}
  },
  "time": {
    "samples": {
      "AcquisitionNumber": [1, 2, 3, 4, 5, 6, 7, 8, 9, 10, 11, 12, 13, 14, 15, 16, 17, 18, 19, 20, 21, 22, 23, 24, 25, 26, 27, 28, 29, 30, 31, 32, 33, 34, 35, 36, 37, 38, 39, 40, 41, 42, 43, 44, 45, 46, 47, 48, 49, 50, 51, 52, 53, 54, 55, 56, 57, 58, 59, 60, 61, 62, 63, 64, 65, 66, 67, 68, 69, 70, 71, 72, 73, 74, 75, 76, 77, 78, 79, 80, 81, 82, 83, 84, 85, 86, 87, 88, 89, 90, 91, 92, 93, 94, 95, 96, 97, 98, 99, 100, 101, 102, 103, 104, 105, 106, 107, 108, 109, 110, 111, 112, 113, 114, 115, 116, 117, 118, 119, 120, 121, 122, 123, 124, 125, 126, 127, 128, 129, 130, 131, 132, 133, 134, 135, 136, 137, 138, 139, 140, 141, 142, 143, 144, 145, 146, 147, 148, 149, 150, 151, 152, 153, 154, 155, 156, 157, 158, 159, 160, 161, 162, 163, 164, 165, 166, 167, 168, 169, 170, 171, 172, 173, 174, 175, 176, 177, 178, 179, 180, 181, 182, 183, 184, 185, 186, 187, 188, 189, 190],
      "AcquisitionTime": ["133542.692500", "133544.182500", "133545.672500", "133547.162500", "133548.652500", "133550.142500", "133551.632500", "133553.122500", "133554.612500", "133556.102500", "133557.592500", "133559.082500", "133600.572500", "133602.062500", "133603.552500", "133605.042500", "133606.532500", "133608.022500", "133609.512500", "133611.002500", "133612.492500", "133613.982500", "133615.472500", "133616.962500", "133618.452500", "133619.942500", "133621.432500", "133622.922500", "133624.412500", "133625.902500", "133627.392500", "133628.882500", "133630.372500", "133631.862500", "133633.352500", "133634.842500", "133636.332500", "133637.822500", "133639.312500", "133640.802500", "133642.292500", "133643.782500", "133645.272500", "133646.762500", "133648.252500", "133649.742500", "133651.232500", "133652.722500", "133654.212500", "133655.702500", "133657.192500", "133658.682500", "133700.172500", "133701.662500", "133703.152500", "133704.642500", "133706.132500", "133707.622500", "133709.112500", "133710.602500", "133712.092500", "133713.582500", "133715.072500", "133716.562500", "133718.052500", "133719.542500", "133721.032500", "133722.522500", "133724.012500", "133725.502500", "133726.992500", "133728.482500", "133729.972500", "133731.462500", "133732.952500", "133734.442500", "133735.932500", "133737.422500", "133738.912500", "133740.402500", "133741.892500", "133743.382500", "133744.872500", "133746.362500", "133747.852500", "133749.342500", "133750.832500", "133752.322500", "133753.812500", "133755.302500", "133756.792500", "133758.282500", "133759.772500", "133801.262500", "133802.752500", "133804.242500", "133805.732500", "133807.222500", "133808.712500", "133810.202500", "133811.692500", "133813.182500", "133814.672500", "133816.162500", "133817.652500", "133819.142500", "133820.632500", "133822.122500", "133823.612500", "133825.102500", "133826.592500", "133828.082500", "133829.572500", "133831.062500", "133832.552500", "133834.042500", "133835.532500", "133837.022500", "133838.512500", "133840.002500", "133841.492500", "133842.982500", "133844.472500", "133845.962500", "133847.452500", "133848.942500", "133850.432500", "133851.922500", "133853.412500", "133854.902500", "133856.392500", "133857.882500", "133859.372500", "133900.862500", "133902.352500", "133903.842500", "133905.332500", "133906.822500", "133908.312500", "133909.802500", "133911.292500", "133912.782500", "133914.272500", "133915.762500", "133917.252500", "133918.742500", "133920.232500", "133921.722500", "133923.212500", "133924.702500", "133926.192500", "133927.682500", "133929.172500", "133930.662500", "133932.152500", "133933.642500", "133935.132500", "133936.622500", "133938.112500", "133939.602500", "133941.092500", "133942.582500", "133944.072500", "133945.562500", "133947.052500", "133948.542500", "133950.032500", "133951.522500", "133953.012500", "133954.502500", "133955.992500", "133957.482500", "133958.972500", "134000.462500", "134001.952500", "134003.442500", "134004.932500", "134006.422500", "134007.912500", "134009.402500", "134010.892500", "134012.382500", "134013.872500", "134015.362500", "134016.852500", "134018.342500", "134019.832500", "134021.322500", "134022.812500", "134024.302500"],
      "ContentTime": ["133658.065000", "133658.068000", "133658.071000", "133658.073000", "133658.076000", "133658.078000", "133658.081000", "133658.083000", "133658.086000", "133658.088000", "133658.091000", "133658.093000", "133658.095000", "133658.098000", "133658.100000", "133658.103000", "133658.105000", "133658.108000", "133658.110000", "133658.113000", "133658.115000", "133718.011000", "133718.014000", "133718.016000", "133718.019000", "133718.021000", "133718.024000", "133718.026000", "133718.029000", "133718.031000", "133718.034000", "133718.036000", "133718.039000", "133718.041000", "133718.044000", "133718.046000", "133718.049000", "133718.051000", "133718.054000", "133718.056000", "133718.068000", "133738.022000", "133738.025000", "133738.027000", "133738.030000", "133738.032000", "133738.034000", "133738.037000", "133738.058000", "133738.060000", "133738.063000", "133738.065000", "133738.068000", "133738.070000", "133738.073000", "133738.075000", "133738.078000", "133738.080000", "133738.083000", "133738.085000", "133738.087000", "133758.021000", "133758.023000", "133758.026000", "133758.028000", "133758.031000", "133758.033000", "133758.036000", "133758.038000", "133758.041000", "133758.043000", "133758.046000", "133758.048000", "133758.050000", "133758.053000", "133758.056000", "133758.058000", "133758.061000", "133758.063000", "133758.066000", "133758.068000", "133758.070000", "133818.027000", "133818.029000", "133818.032000", "133818.034000", "133818.037000", "133818.039000", "133818.042000", "133818.044000", "133818.047000", "133818.049000", "133818.052000", "133818.054000", "133818.057000", "133818.059000", "133818.062000", "133818.064000", "133818.067000", "133818.069000", "133818.072000", "133818.074000", "133858.074000", "133858.077000", "133858.079000", "133858.082000", "133858.084000", "133858.087000", "133858.089000", "133858.092000", "133858.094000", "133858.105000", "133858.108000", "133858.110000", "133858.113000", "133858.115000", "133858.117000", "133858.120000", "133858.122000", "133858.125000", "133858.127000", "133858.130000", "133858.132000", "133858.135000", "133858.137000", "133858.140000", "133858.142000", "133858.145000", "133858.147000", "133858.150000", "133938.617000", "133938.620000", "133938.623000", "133938.625000", "133938.628000", "133938.630000", "133938.633000", "133938.635000", "133938.638000", "133938.640000", "133938.643000", "133938.645000", "133938.648000", "133938.650000", "133938.653000", "133938.655000", "133938.657000", "133938.660000", "133938.662000", "133938.665000", "133938.667000", "133938.670000", "133938.672000", "133938.675000", "133938.677000", "133938.680000", "133938.682000", "134018.042000", "134018.044000", "134018.047000", "134018.049000", "134018.052000", "134018.054000", "134018.057000", "134018.059000", "134018.062000", "134018.064000", "134018.067000", "134018.069000", "134018.072000", "134018.074000", "134018.077000", "134018.079000", "134018.082000", "134018.084000", "134018.087000", "134018.089000", "134018.092000", "134018.094000", "134018.097000", "134018.099000", "134018.102000", "134018.104000", "134018.107000", "134026.368000", "134026.371000", "134026.373000", "134026.376000", "134026.378000", "134026.381000"],
      "InstanceCreationTime": ["133658.065000", "133658.068000", "133658.071000", "133658.073000", "133658.076000", "133658.078000", "133658.081000", "133658.083000", "133658.086000", "133658.088000", "133658.091000", "133658.093000", "133658.095000", "133658.098000", "133658.100000", "133658.103000", "133658.105000", "133658.108000", "133658.110000", "133658.113000", "133658.115000", "133718.011000", "133718.014000", "133718.016000", "133718.019000", "133718.021000", "133718.024000", "133718.026000", "133718.029000", "133718.031000", "133718.034000", "133718.036000", "133718.039000", "133718.041000", "133718.044000", "133718.046000", "133718.049000", "133718.051000", "133718.054000", "133718.056000", "133718.068000", "133738.022000", "133738.025000", "133738.027000", "133738.030000", "133738.032000", "133738.034000", "133738.037000", "133738.058000", "133738.060000", "133738.063000", "133738.065000", "133738.068000", "133738.070000", "133738.073000", "133738.075000", "133738.078000", "133738.080000", "133738.083000", "133738.085000", "133738.087000", "133758.021000", "133758.023000", "133758.026000", "133758.028000", "133758.031000", "133758.033000", "133758.036000", "133758.038000", "133758.041000", "133758.043000", "133758.046000", "133758.048000", "133758.050000", "133758.053000", "133758.056000", "133758.058000", "133758.061000", "133758.063000", "133758.066000", "133758.068000", "133758.070000", "133818.027000", "133818.029000", "133818.032000", "133818.034000", "133818.037000", "133818.039000", "133818.042000", "133818.044000", "133818.047000", "133818.049000", "133818.052000", "133818.054000", "133818.057000", "133818.059000", "133818.062000", "133818.064000", "133818.067000", "133818.069000", "133818.072000", "133818.074000", "133858.074000", "133858.077000", "133858.079000", "133858.082000", "133858.084000", "133858.087000", "133858.089000", "133858.092000", "133858.094000", "133858.105000", "133858.108000", "133858.110000", "133858.113000", "133858.115000", "133858.117000", "133858.120000", "133858.122000", "133858.125000", "133858.127000", "133858.130000", "133858.132000", "133858.135000", "133858.137000", "133858.140000", "133858.142000", "133858.145000", "133858.147000", "133858.150000", "133938.617000", "133938.620000", "133938.623000", "133938.625000", "133938.628000", "133938.630000", "133938.633000", "133938.635000", "133938.638000", "133938.640000", "133938.643000", "133938.645000", "133938.648000", "133938.650000", "133938.653000", "133938.655000", "133938.657000", "133938.660000", "133938.662000", "133938.665000", "133938.667000", "133938.670000", "133938.672000", "133938.675000", "133938.677000", "133938.680000", "133938.682000", "134018.042000", "134018.044000", "134018.047000", "134018.049000", "134018.052000", "134018.054000", "134018.057000", "134018.059000", "134018.062000", "134018.064000", "134018.067000", "134018.069000", "134018.072000", "134018.074000", "134018.077000", "134018.079000", "134018.082000", "134018.084000", "134018.087000", "134018.089000", "134018.092000", "134018.094000", "134018.097000", "134018.099000", "134018.102000", "134018.104000", "134018.107000", "134026.368000", "134026.371000", "134026.373000", "134026.376000", "134026.378000", "134026.381000"],
      "InstanceNumber": [1, 2, 3, 4, 5, 6, 7, 8, 9, 10, 11, 12, 13, 14, 15, 16, 17, 18, 19, 20, 21, 22, 23, 24, 25, 26, 27, 28, 29, 30, 31, 32, 33, 34, 35, 36, 37, 38, 39, 40, 41, 42, 43, 44, 45, 46, 47, 48, 49, 50, 51, 52, 53, 54, 55, 56, 57, 58, 59, 60, 61, 62, 63, 64, 65, 66, 67, 68, 69, 70, 71, 72, 73, 74, 75, 76, 77, 78, 79, 80, 81, 82, 83, 84, 85, 86, 87, 88, 89, 90, 91, 92, 93, 94, 95, 96, 97, 98, 99, 100, 101, 102, 103, 104, 105, 106, 107, 108, 109, 110, 111, 112, 113, 114, 115, 116, 117, 118, 119, 120, 121, 122, 123, 124, 125, 126, 127, 128, 129, 130, 131, 132, 133, 134, 135, 136, 137, 138, 139, 140, 141, 142, 143, 144, 145, 146, 147, 148, 149, 150, 151, 152, 153, 154, 155, 156, 157, 158, 159, 160, 161, 162, 163, 164, 165, 166, 167, 168, 169, 170, 171, 172, 173, 174, 175, 176, 177, 178, 179, 180, 181, 182, 183, 184, 185, 186, 187, 188, 189, 190],
      "WindowCenter": [4868.0, 4870.0, 4866.0, 4868.0, 4868.0, 4870.0, 4866.0, 4870.0, 4868.0, 4872.0, 4870.0, 4868.0, 4868.0, 4864.0, 4872.0, 4866.0, 4870.0, 4870.0, 4872.0, 4892.0, 4866.0, 4868.0, 4866.0, 4868.0, 4870.0, 4870.0, 4872.0, 4868.0, 4870.0, 4866.0, 4868.0, 4870.0, 4868.0, 4868.0, 4868.0, 4870.0, 4868.0, 4868.0, 4870.0, 4868.0, 4868.0, 4864.0, 4868.0, 4866.0, 4866.0, 4868.0, 4866.0, 4868.0, 4872.0, 4868.0, 4868.0, 4870.0, 4868.0, 4870.0, 4870.0, 4872.0, 4866.0, 4870.0, 4868.0, 4872.0, 4870.0, 4870.0, 4868.0, 4866.0, 4868.0, 4864.0, 4870.0, 4866.0, 4866.0, 4866.0, 4870.0, 4866.0, 4868.0, 4866.0, 4866.0, 4868.0, 4870.0, 4868.0, 4868.0, 4868.0, 4866.0, 4866.0, 4864.0, 4864.0, 4870.0, 4866.0, 4868.0, 4870.0, 4872.0, 4864.0, 4870.0, 4866.0, 4868.0, 4866.0, 4864.0, 4868.0, 4872.0, 4870.0, 4868.0, 4868.0, 4868.0, 4866.0, 4868.0, 4868.0, 4866.0, 4866.0, 4866.0, 4870.0, 4866.0, 4870.0, 4866.0, 4870.0, 4868.0, 4868.0, 4864.0, 4866.0, 4866.0, 4866.0, 4866.0, 4872.0, 4872.0, 4870.0, 4868.0, 4868.0, 4864.0, 4870.0, 4868.0, 4868.0, 4870.0, 4870.0, 4870.0, 4868.0, 4866.0, 4868.0, 4870.0, 4864.0, 4868.0, 4868.0, 4866.0, 4868.0, 4868.0, 4868.0, 4868.0, 4866.0, 4868.0, 4870.0, 4868.0, 4866.0, 4868.0, 4866.0, 4872.0, 4866.0, 4864.0, 4868.0, 4894.0, 4898.0, 4868.0, 4868.0, 4872.0, 4866.0, 4866.0, 4864.0, 4864.0, 4868.0, 4866.0, 4870.0, 4870.0, 4868.0, 4868.0, 4868.0, 4870.0, 4870.0, 4870.0, 4868.0, 4866.0, 4866.0, 4866.0, 4866.0, 4868.0, 4868.0, 4868.0, 4866.0, 4870.0, 4868.0, 4868.0, 4870.0, 4866.0, 4870.0, 4864.0, 4870.0],
      "WindowWidth": [18684.0, 18688.0, 18690.0, 18688.0, 18684.0, 18688.0, 18688.0, 18688.0, 18686.0, 18690.0, 18690.0, 18686.0, 18686.0, 18688.0, 18690.0, 18692.0, 18688.0, 18690.0, 18686.0, 18720.0, 18682.0, 18686.0, 18684.0, 18686.0, 18690.0, 18688.0, 18690.0, 18694.0, 18686.0, 18688.0, 18682.0, 18688.0, 18688.0, 18692.0, 18684.0, 18690.0, 18686.0, 18688.0, 18684.0, 18692.0, 18686.0, 18686.0, 18686.0, 18688.0, 18686.0, 18686.0, 18684.0, 18686.0, 18686.0, 18690.0, 18688.0, 18692.0, 18688.0, 18690.0, 18688.0, 18692.0, 18688.0, 18694.0, 18682.0, 18688.0, 18688.0, 18690.0, 18684.0, 18692.0, 18694.0, 18686.0, 18690.0, 18688.0, 18686.0, 18686.0, 18684.0, 18686.0, 18686.0, 18690.0, 18688.0, 18690.0, 18686.0, 18692.0, 18686.0, 18692.0, 18684.0, 18686.0, 18682.0, 18682.0, 18688.0, 18686.0, 18692.0, 18694.0, 18686.0, 18690.0, 18694.0, 18696.0, 18690.0, 18690.0, 18682.0, 18686.0, 18688.0, 18686.0, 18686.0, 18684.0, 18692.0, 18688.0, 18688.0, 18686.0, 18690.0, 18688.0, 18690.0, 18686.0, 18686.0, 18692.0, 18688.0, 18686.0, 18686.0, 18688.0, 18686.0, 18690.0, 18694.0, 18690.0, 18688.0, 18686.0, 18690.0, 18688.0, 18686.0, 18690.0, 18690.0, 18690.0, 18692.0, 18686.0, 18690.0, 18690.0, 18686.0, 18688.0, 18686.0, 18686.0, 18694.0, 18688.0, 18686.0, 18690.0, 18684.0, 18688.0, 18692.0, 18690.0, 18690.0, 18688.0, 18686.0, 18694.0, 18692.0, 18688.0, 18686.0, 18688.0, 18690.0, 18686.0, 18692.0, 18696.0, 18720.0, 18718.0, 18684.0, 18688.0, 18690.0, 18686.0, 18684.0, 18688.0, 18688.0, 18694.0, 18690.0, 18686.0, 18688.0, 18690.0, 18686.0, 18690.0, 18688.0, 18696.0, 18692.0, 18688.0, 18688.0, 18690.0, 18690.0, 18686.0, 18688.0, 18684.0, 18688.0, 18682.0, 18688.0, 18692.0, 18690.0, 18690.0, 18690.0, 18690.0, 18692.0, 18688.0]
    },
    "slices": {}
  }
}