{
  "AcquisitionMatrixPE": 104,
  "AcquisitionNumber": 1,
  "AcquisitionTime": "13:29:41.717500",
  "BandwidthPerPixelPhaseEncode": 17.17,
  "BaseResolution": 104,
  "BodyPartExamined": "BRAIN",
  "CoilString": "HC1-7;NC1_2",
  "ConsistencyInfo": "N4_VE11C_LATEST_20160120",
  "ConversionSoftware": "dcm2niix",
  "ConversionSoftwareVersion": "v1.0.20190902",
  "DerivedVendorReportedEchoSpacing": 0.000560011,
  "DeviceSerialNumber": "167006",
  "DwellTime": 2.1e-06,
  "EchoTime": 0.037,
  "EchoTrainLength": 104,
  "EffectiveEchoSpacing": 0.000560011,
  "FlipAngle": 52,
  "ImageComments": "Unaliased_MB4_PE3_LB",
  "ImageOrientationPatientDICOM": [0.999155, 0.0187248, 0.0366019, -0.00959144, 0.971861, -0.235359],
  "ImageType": [
    "ORIGINAL",
    "PRIMARY",
    "P",
    "MB",
    "ND",
    "MOSAIC"
],
  "ImagingFrequency": 123.259,
  "InPlanePhaseEncodingDirectionDICOM": "COL",
  "InstitutionAddress": "Chemin_Queen-Mary_4565_Montreal_District_CA_H3W_1W5",
  "InstitutionName": "IUGM",
  "InstitutionalDepartmentName": "Department",
  "MRAcquisitionType": "2D",
  "MagneticFieldStrength": 3,
  "Manufacturer": "Siemens",
  "ManufacturersModelName": "Prisma_fit",
  "Modality": "MR",
  "MultibandAccelerationFactor": 4,
  "PartialFourier": 1,
  "PatientPosition": "HFS",
  "PercentPhaseFOV": 100,
  "PhaseEncodingDirection": "j",
  "PhaseEncodingSteps": 104,
  "PhaseResolution": 1,
  "PixelBandwidth": 2290,
  "ProcedureStepDescription": "memory_things",
  "ProtocolName": "func_task-things_run-2",
  "PulseSequenceDetails": "%CustomerSeq%_cmrr_mbep2d_bold",
  "ReceiveCoilActiveElements": "HC1-7;NC1,2",
  "ReceiveCoilName": "HeadNeck_64",
  "ReconMatrixPE": 104,
  "RepetitionTime": 1.49,
  "SAR": 0.0481416,
  "ScanOptions": "FS",
  "ScanningSequence": "EP",
  "SequenceName": "epfid2d1_104",
  "SequenceVariant": "SK_SS",
  "SeriesDescription": "func_task-things_run-2",
  "SeriesNumber": 14,
  "ShimSetting": [648, -7213, -8771, 732, 81, 6, 83, 5],
  "SliceThickness": 2,
  "SliceTiming": [0, 0.785, 0.0975, 0.8825, 0.195, 0.98, 0.295, 1.0775, 0.3925, 1.175, 0.49, 1.275, 0.5875, 1.3725, 0.685, 0, 0.785, 0.0975, 0.8825, 0.195, 0.98, 0.295, 1.0775, 0.3925, 1.175, 0.49, 1.275, 0.5875, 1.3725, 0.685, 0, 0.785, 0.0975, 0.8825, 0.195, 0.98, 0.295, 1.0775, 0.3925, 1.175, 0.49, 1.275, 0.5875, 1.3725, 0.685, 0, 0.785, 0.0975, 0.8825, 0.195, 0.98, 0.295, 1.0775, 0.3925, 1.175, 0.49, 1.275, 0.5875, 1.3725, 0.685],
  "SoftwareVersions": "syngo_MR_E11",
  "SpacingBetweenSlices": 2,
  "StationName": "MRC35049",
  "TaskName": "things",
  "TotalReadoutTime": 0.0576811,
  "TxRefAmp": 233.086,
  "WipMemBlock": "0ac2d1da-4d26-418c-9bb4-8df18bd47168||Sequence: R016 ve11c/master r/e634e98; Dec 19 2017 11:00:25 by eja",
  "dcmmeta_affine": [
    [-1.9983090162277222, -0.01918288879096508, 0.07995805889368057, 107.88721466064453],
    [-0.037449631839990616, 1.9437223672866821, -0.4696178138256073, -73.95667266845703],
    [0.07320381700992584, 0.4707179367542267, 1.9424381256103516, -59.23091506958008],
    [0.0, 0.0, 0.0, 1.0]
],
  "dcmmeta_reorient_transform": [
    [0.0, -1.0, 0.0, 103.0],
    [1.0, 0.0, 0.0, 0.0],
    [0.0, 0.0, 1.0, 0.0],
    [0.0, 0.0, 0.0, 1.0]
],
  "dcmmeta_shape": [104, 104, 60, 190],
  "dcmmeta_slice_dim": 2,
  "dcmmeta_version": 0.6,
  "global": {
    "const": {
      "AcquisitionMatrix": [104, 0, 0, 104],
      "AngioFlag": "N",
      "BitsAllocated": 16,
      "BitsStored": 16,
      "BodyPartExamined": "BRAIN",
      "Columns": 832,
      "EchoNumbers": 1,
      "EchoTime": 37.0,
      "EchoTrainLength": 104,
      "FlipAngle": 52.0,
      "HighBit": 15,
      "ImageOrientationPatient": [0.99915448329896, 0.01872481630172, 0.03660190921334, -0.0095914440018, 0.97186118204875, -0.235358974821],
      "ImagePositionPatient": [-826.31326842982, -847.3933368367, 133.94817877169],
      "ImageType": [
        "ORIGINAL",
        "PRIMARY",
        "P",
        "MB",
        "ND",
        "MOSAIC"
],
      "ImagedNucleus": "1H",
      "ImagingFrequency": 123.258906,
      "InPlanePhaseEncodingDirection": "COL",
      "LargestImagePixelValue": 4095,
      "MRAcquisitionType": "2D",
      "MagneticFieldStrength": 3.0,
      "Manufacturer": "SIEMENS",
      "ManufacturerModelName": "Prisma_fit",
      "Modality": "MR",
      "NumberOfAverages": 1.0,
      "NumberOfPhaseEncodingSteps": 104,
      "PercentPhaseFieldOfView": 100.0,
      "PercentSampling": 100.0,
      "PerformedProcedureStepStartTime": "131951.839000",
      "PhotometricInterpretation": "MONOCHROME2",
      "PixelBandwidth": 2290.0,
      "PixelRepresentation": 0,
      "PixelSpacing": [2.0, 2.0],
      "ProtocolName": "func_task-things_run-2",
      "RepetitionTime": 1490.0,
      "RescaleIntercept": -4096.0,
      "RescaleSlope": 2.0,
      "RescaleType": "US",
      "Rows": 832,
      "SAR": 0.04814159345807,
      "SamplesPerPixel": 1,
      "ScanOptions": "FS",
      "ScanningSequence": "EP",
      "SequenceName": "epfid2d1_104",
      "SequenceVariant": [
        "SK",
        "SS"
],
      "SeriesDescription": "func_task-things_run-2",
      "SeriesNumber": 14,
      "SeriesTime": "133100.872000",
      "SliceLocation": -35.847280326213,
      "SliceThickness": 2.0,
      "SmallestImagePixelValue": 0,
      "SoftwareVersions": "syngo MR E11",
      "SpacingBetweenSlices": 2.000000013737,
      "SpecificCharacterSet": "ISO_IR 100",
      "StudyID": "1",
      "StudyTime": "131951.754000",
      "TransmitCoilName": "Body",
      "VariableFlipAngleFlag": "N",
      "WindowCenterWidthExplanation": "Algo1",
      "dBdt": 0.0},
    "slices": {}
  },
  "time": {
    "samples": {
      "AcquisitionNumber": [1, 2, 3, 4, 5, 6, 7, 8, 9, 10, 11, 12, 13, 14, 15, 16, 17, 18, 19, 20, 21, 22, 23, 24, 25, 26, 27, 28, 29, 30, 31, 32, 33, 34, 35, 36, 37, 38, 39, 40, 41, 42, 43, 44, 45, 46, 47, 48, 49, 50, 51, 52, 53, 54, 55, 56, 57, 58, 59, 60, 61, 62, 63, 64, 65, 66, 67, 68, 69, 70, 71, 72, 73, 74, 75, 76, 77, 78, 79, 80, 81, 82, 83, 84, 85, 86, 87, 88, 89, 90, 91, 92, 93, 94, 95, 96, 97, 98, 99, 100, 101, 102, 103, 104, 105, 106, 107, 108, 109, 110, 111, 112, 113, 114, 115, 116, 117, 118, 119, 120, 121, 122, 123, 124, 125, 126, 127, 128, 129, 130, 131, 132, 133, 134, 135, 136, 137, 138, 139, 140, 141, 142, 143, 144, 145, 146, 147, 148, 149, 150, 151, 152, 153, 154, 155, 156, 157, 158, 159, 160, 161, 162, 163, 164, 165, 166, 167, 168, 169, 170, 171, 172, 173, 174, 175, 176, 177, 178, 179, 180, 181, 182, 183, 184, 185, 186, 187, 188, 189, 190],
      "AcquisitionTime": ["132941.717500", "132943.207500", "132944.697500", "132946.187500", "132947.677500", "132949.167500", "132950.657500", "132952.147500", "132953.637500", "132955.127500", "132956.617500", "132958.107500", "132959.597500", "133001.087500", "133002.577500", "133004.067500", "133005.557500", "133007.047500", "133008.537500", "133010.027500", "133011.517500", "133013.007500", "133014.497500", "133015.987500", "133017.477500", "133018.967500", "133020.457500", "133021.947500", "133023.437500", "133024.927500", "133026.417500", "133027.907500", "133029.397500", "133030.887500", "133032.377500", "133033.867500", "133035.357500", "133036.847500", "133038.337500", "133039.827500", "133041.317500", "133042.807500", "133044.297500", "133045.787500", "133047.277500", "133048.767500", "133050.257500", "133051.747500", "133053.237500", "133054.727500", "133056.217500", "133057.707500", "133059.197500", "133100.687500", "133102.177500", "133103.667500", "133105.157500", "133106.647500", "133108.137500", "133109.627500", "133111.117500", "133112.607500", "133114.097500", "133115.587500", "133117.077500", "133118.567500", "133120.057500", "133121.547500", "133123.037500", "133124.527500", "133126.017500", "133127.507500", "133128.997500", "133130.487500", "133131.977500", "133133.467500", "133134.957500", "133136.447500", "133137.937500", "133139.427500", "133140.917500", "133142.407500", "133143.897500", "133145.387500", "133146.877500", "133148.367500", "133149.857500", "133151.347500", "133152.837500", "133154.327500", "133155.817500", "133157.307500", "133158.797500", "133200.287500", "133201.777500", "133203.267500", "133204.757500", "133206.247500", "133207.737500", "133209.227500", "133210.717500", "133212.207500", "133213.697500", "133215.187500", "133216.677500", "133218.167500", "133219.657500", "133221.147500", "133222.637500", "133224.127500", "133225.617500", "133227.107500", "133228.597500", "133230.087500", "133231.577500", "133233.067500", "133234.557500", "133236.047500", "133237.537500", "133239.027500", "133240.517500", "133242.007500", "133243.497500", "133244.987500", "133246.477500", "133247.967500", "133249.457500", "133250.947500", "133252.437500", "133253.927500", "133255.417500", "133256.907500", "133258.397500", "133259.887500", "133301.377500", "133302.867500", "133304.357500", "133305.847500", "133307.337500", "133308.827500", "133310.317500", "133311.807500", "133313.297500", "133314.787500", "133316.277500", "133317.767500", "133319.257500", "133320.747500", "133322.237500", "133323.727500", "133325.217500", "133326.707500", "133328.197500", "133329.687500", "133331.177500", "133332.667500", "133334.157500", "133335.647500", "133337.137500", "133338.627500", "133340.117500", "133341.607500", "133343.097500", "133344.587500", "133346.077500", "133347.567500", "133349.057500", "133350.547500", "133352.037500", "133353.527500", "133355.017500", "133356.507500", "133357.997500", "133359.487500", "133400.977500", "133402.467500", "133403.957500", "133405.447500", "133406.937500", "133408.427500", "133409.917500", "133411.407500", "133412.897500", "133414.387500", "133415.877500", "133417.367500", "133418.857500", "133420.347500", "133421.837500", "133423.327500"],
      "ContentTime": ["133100.874000", "133100.877000", "133100.879000", "133100.881000", "133100.884000", "133100.886000", "133100.889000", "133100.891000", "133100.894000", "133100.896000", "133100.899000", "133100.901000", "133100.904000", "133100.906000", "133100.908000", "133100.911000", "133100.913000", "133100.924000", "133100.927000", "133100.929000", "133100.931000", "133100.934000", "133100.936000", "133100.939000", "133100.941000", "133100.944000", "133120.797000", "133120.799000", "133120.802000", "133120.804000", "133120.807000", "133120.809000", "133120.812000", "133120.814000", "133120.817000", "133120.819000", "133120.822000", "133120.825000", "133120.827000", "133120.829000", "133120.832000", "133120.834000", "133120.837000", "133120.839000", "133120.842000", "133120.844000", "133140.813000", "133140.815000", "133140.818000", "133140.831000", "133140.833000", "133140.851000", "133140.853000", "133140.856000", "133140.858000", "133140.861000", "133140.863000", "133140.866000", "133140.868000", "133140.871000", "133140.873000", "133140.875000", "133140.878000", "133140.880000", "133140.883000", "133140.885000", "133200.800000", "133200.803000", "133200.805000", "133200.808000", "133200.810000", "133200.843000", "133200.845000", "133200.848000", "133200.850000", "133200.853000", "133200.859000", "133200.861000", "133200.863000", "133200.866000", "133200.868000", "133200.871000", "133200.873000", "133200.876000", "133200.878000", "133200.881000", "133220.805000", "133220.807000", "133220.810000", "133220.812000", "133220.815000", "133220.817000", "133220.820000", "133220.837000", "133220.840000", "133220.842000", "133220.844000", "133220.847000", "133220.849000", "133220.852000", "133220.859000", "133220.861000", "133220.864000", "133220.866000", "133220.869000", "133220.871000", "133300.847000", "133300.849000", "133300.852000", "133300.854000", "133300.857000", "133300.859000", "133300.862000", "133300.864000", "133300.867000", "133300.869000", "133300.872000", "133300.874000", "133300.877000", "133300.879000", "133300.881000", "133300.884000", "133300.886000", "133300.889000", "133300.891000", "133300.894000", "133300.896000", "133300.899000", "133300.901000", "133300.904000", "133300.906000", "133300.909000", "133300.911000", "133340.844000", "133340.847000", "133340.849000", "133340.852000", "133340.854000", "133340.857000", "133340.859000", "133340.862000", "133340.864000", "133340.867000", "133340.869000", "133340.872000", "133340.874000", "133340.877000", "133340.879000", "133340.882000", "133340.884000", "133340.886000", "133340.889000", "133340.891000", "133340.894000", "133340.896000", "133340.899000", "133340.901000", "133340.904000", "133340.906000", "133340.909000", "133420.852000", "133420.854000", "133420.857000", "133420.859000", "133420.862000", "133420.864000", "133420.867000", "133420.869000", "133420.872000", "133420.874000", "133420.877000", "133420.879000", "133420.882000", "133420.884000", "133420.887000", "133420.889000", "133420.892000", "133420.894000", "133420.897000", "133420.899000", "133420.901000", "133420.904000", "133420.906000", "133420.909000", "133420.911000", "133420.914000", "133420.916000", "133425.203000", "133425.206000", "133425.209000"],
      "InstanceCreationTime": ["133100.874000", "133100.877000", "133100.879000", "133100.881000", "133100.884000", "133100.886000", "133100.889000", "133100.891000", "133100.894000", "133100.896000", "133100.899000", "133100.901000", "133100.904000", "133100.906000", "133100.908000", "133100.911000", "133100.913000", "133100.924000", "133100.927000", "133100.929000", "133100.931000", "133100.934000", "133100.936000", "133100.939000", "133100.941000", "133100.944000", "133120.797000", "133120.799000", "133120.802000", "133120.804000", "133120.807000", "133120.809000", "133120.812000", "133120.814000", "133120.817000", "133120.819000", "133120.822000", "133120.825000", "133120.827000", "133120.829000", "133120.832000", "133120.834000", "133120.837000", "133120.839000", "133120.842000", "133120.844000", "133140.813000", "133140.815000", "133140.818000", "133140.831000", "133140.833000", "133140.851000", "133140.853000", "133140.856000", "133140.858000", "133140.861000", "133140.863000", "133140.866000", "133140.868000", "133140.871000", "133140.873000", "133140.875000", "133140.878000", "133140.880000", "133140.883000", "133140.885000", "133200.800000", "133200.803000", "133200.805000", "133200.808000", "133200.810000", "133200.843000", "133200.845000", "133200.848000", "133200.850000", "133200.853000", "133200.859000", "133200.861000", "133200.863000", "133200.866000", "133200.868000", "133200.871000", "133200.873000", "133200.876000", "133200.878000", "133200.881000", "133220.805000", "133220.807000", "133220.810000", "133220.812000", "133220.815000", "133220.817000", "133220.820000", "133220.837000", "133220.840000", "133220.842000", "133220.844000", "133220.847000", "133220.849000", "133220.852000", "133220.859000", "133220.861000", "133220.864000", "133220.866000", "133220.869000", "133220.871000", "133300.847000", "133300.849000", "133300.852000", "133300.854000", "133300.857000", "133300.859000", "133300.862000", "133300.864000", "133300.867000", "133300.869000", "133300.872000", "133300.874000", "133300.877000", "133300.879000", "133300.881000", "133300.884000", "133300.886000", "133300.889000", "133300.891000", "133300.894000", "133300.896000", "133300.899000", "133300.901000", "133300.904000", "133300.906000", "133300.909000", "133300.911000", "133340.844000", "133340.847000", "133340.849000", "133340.852000", "133340.854000", "133340.857000", "133340.859000", "133340.862000", "133340.864000", "133340.867000", "133340.869000", "133340.872000", "133340.874000", "133340.877000", "133340.879000", "133340.882000", "133340.884000", "133340.886000", "133340.889000", "133340.891000", "133340.894000", "133340.896000", "133340.899000", "133340.901000", "133340.904000", "133340.906000", "133340.909000", "133420.852000", "133420.854000", "133420.857000", "133420.859000", "133420.862000", "133420.864000", "133420.867000", "133420.869000", "133420.872000", "133420.874000", "133420.877000", "133420.879000", "133420.882000", "133420.884000", "133420.887000", "133420.889000", "133420.892000", "133420.894000", "133420.897000", "133420.899000", "133420.901000", "133420.904000", "133420.906000", "133420.909000", "133420.911000", "133420.914000", "133420.916000", "133425.203000", "133425.206000", "133425.209000"],
      "InstanceNumber": [1, 2, 3, 4, 5, 6, 7, 8, 9, 10, 11, 12, 13, 14, 15, 16, 17, 18, 19, 20, 21, 22, 23, 24, 25, 26, 27, 28, 29, 30, 31, 32, 33, 34, 35, 36, 37, 38, 39, 40, 41, 42, 43, 44, 45, 46, 47, 48, 49, 50, 51, 52, 53, 54, 55, 56, 57, 58, 59, 60, 61, 62, 63, 64, 65, 66, 67, 68, 69, 70, 71, 72, 73, 74, 75, 76, 77, 78, 79, 80, 81, 82, 83, 84, 85, 86, 87, 88, 89, 90, 91, 92, 93, 94, 95, 96, 97, 98, 99, 100, 101, 102, 103, 104, 105, 106, 107, 108, 109, 110, 111, 112, 113, 114, 115, 116, 117, 118, 119, 120, 121, 122, 123, 124, 125, 126, 127, 128, 129, 130, 131, 132, 133, 134, 135, 136, 137, 138, 139, 140, 141, 142, 143, 144, 145, 146, 147, 148, 149, 150, 151, 152, 153, 154, 155, 156, 157, 158, 159, 160, 161, 162, 163, 164, 165, 166, 167, 168, 169, 170, 171, 172, 173, 174, 175, 176, 177, 178, 179, 180, 181, 182, 183, 184, 185, 186, 187, 188, 189, 190],
      "WindowCenter": [4870.0, 4862.0, 4868.0, 4866.0, 4870.0, 4866.0, 4866.0, 4868.0, 4868.0, 4870.0, 4866.0, 4868.0, 4868.0, 4866.0, 4868.0, 4864.0, 4864.0, 4868.0, 4864.0, 4868.0, 4870.0, 4866.0, 4866.0, 4868.0, 4866.0, 4868.0, 4870.0, 4866.0, 4868.0, 4868.0, 4866.0, 4868.0, 4866.0, 4866.0, 4868.0, 4868.0, 4866.0, 4868.0, 4868.0, 4866.0, 4864.0, 4860.0, 4868.0, 4868.0, 4866.0, 4866.0, 4870.0, 4868.0, 4864.0, 4866.0, 4864.0, 4864.0, 4866.0, 4864.0, 4866.0, 4870.0, 4870.0, 4864.0, 4868.0, 4866.0, 4864.0, 4868.0, 4866.0, 4864.0, 4868.0, 4866.0, 4866.0, 4870.0, 4868.0, 4866.0, 4868.0, 4868.0, 4866.0, 4868.0, 4864.0, 4868.0, 4868.0, 4864.0, 4866.0, 4864.0, 4868.0, 4864.0, 4862.0, 4864.0, 4870.0, 4864.0, 4864.0, 4864.0, 4866.0, 4866.0, 4868.0, 4862.0, 4866.0, 4864.0, 4864.0, 4864.0, 4866.0, 4872.0, 4868.0, 4866.0, 4864.0, 4864.0, 4864.0, 4866.0, 4868.0, 4862.0, 4866.0, 4868.0, 4868.0, 4870.0, 4864.0, 4868.0, 4864.0, 4868.0, 4864.0, 4868.0, 4866.0, 4868.0, 4866.0, 4868.0, 4866.0, 4870.0, 4868.0, 4866.0, 4868.0, 4866.0, 4866.0, 4866.0, 4864.0, 4866.0, 4868.0, 4866.0, 4870.0, 4866.0, 4870.0, 4864.0, 4866.0, 4864.0, 4868.0, 4868.0, 4864.0, 4864.0, 4864.0, 4868.0, 4868.0, 4866.0, 4868.0, 4868.0, 4866.0, 4868.0, 4868.0, 4868.0, 4868.0, 4864.0, 4864.0, 4864.0, 4866.0, 4862.0, 4866.0, 4868.0, 4868.0, 4868.0, 4866.0, 4868.0, 4866.0, 4864.0, 4866.0, 4866.0, 4864.0, 4868.0, 4864.0, 4868.0, 4866.0, 4868.0, 4864.0, 4868.0, 4866.0, 4866.0, 4866.0, 4868.0, 4862.0, 4864.0, 4868.0, 4864.0, 4868.0, 4868.0, 4866.0, 4866.0, 4866.0, 4862.0],
      "WindowWidth": [18684.0, 18684.0, 18684.0, 18684.0, 18686.0, 18686.0, 18690.0, 18692.0, 18688.0, 18690.0, 18682.0, 18686.0, 18690.0, 18682.0, 18684.0, 18688.0, 18688.0, 18684.0, 18686.0, 18688.0, 18690.0, 18686.0, 18684.0, 18686.0, 18684.0, 18684.0, 18692.0, 18686.0, 18686.0, 18684.0, 18688.0, 18688.0, 18694.0, 18688.0, 18688.0, 18690.0, 18686.0, 18688.0, 18686.0, 18690.0, 18690.0, 18682.0, 18694.0, 18688.0, 18684.0, 18682.0, 18690.0, 18690.0, 18688.0, 18684.0, 18688.0, 18684.0, 18684.0, 18686.0, 18686.0, 18692.0, 18690.0, 18684.0, 18688.0, 18684.0, 18686.0, 18686.0, 18684.0, 18684.0, 18688.0, 18688.0, 18686.0, 18686.0, 18690.0, 18686.0, 18688.0, 18686.0, 18686.0, 18686.0, 18688.0, 18686.0, 18686.0, 18688.0, 18682.0, 18686.0, 18688.0, 18682.0, 18684.0, 18690.0, 18688.0, 18682.0, 18686.0, 18684.0, 18686.0, 18684.0, 18682.0, 18680.0, 18682.0, 18690.0, 18690.0, 18684.0, 18690.0, 18694.0, 18690.0, 18688.0, 18684.0, 18682.0, 18684.0, 18684.0, 18684.0, 18684.0, 18688.0, 18682.0, 18692.0, 18686.0, 18688.0, 18688.0, 18686.0, 18684.0, 18688.0, 18684.0, 18682.0, 18694.0, 18686.0, 18684.0, 18690.0, 18690.0, 18690.0, 18688.0, 18690.0, 18682.0, 18688.0, 18680.0, 18686.0, 18688.0, 18684.0, 18686.0, 18690.0, 18686.0, 18686.0, 18682.0, 18682.0, 18688.0, 18686.0, 18692.0, 18688.0, 18682.0, 18684.0, 18688.0, 18688.0, 18686.0, 18688.0, 18688.0, 18686.0, 18690.0, 18686.0, 18684.0, 18686.0, 18684.0, 18692.0, 18684.0, 18688.0, 18686.0, 18688.0, 18692.0, 18686.0, 18680.0, 18686.0, 18688.0, 18690.0, 18684.0, 18686.0, 18692.0, 18690.0, 18688.0, 18688.0, 18684.0, 18686.0, 18688.0, 18686.0, 18688.0, 18684.0, 18688.0, 18690.0, 18688.0, 18688.0, 18688.0, 18688.0, 18682.0, 18686.0, 18688.0, 18688.0, 18688.0, 18692.0, 18680.0]
    },
    "slices": {}
  }
}