{
  "AcquisitionMatrixPE": 104,
  "AcquisitionNumber": 1,
  "AcquisitionTime": "13:47:50.450000",
  "BandwidthPerPixelPhaseEncode": 17.17,
  "BaseResolution": 104,
  "BodyPartExamined": "BRAIN",
  "CoilString": "HC1-7;NC1_2",
  "ConsistencyInfo": "N4_VE11C_LATEST_20160120",
  "ConversionSoftware": "dcm2niix",
  "ConversionSoftwareVersion": "v1.0.20190902",
  "DerivedVendorReportedEchoSpacing": 0.000560011,
  "DeviceSerialNumber": "167006",
  "DwellTime": 2.1e-06,
  "EchoTime": 0.037,
  "EchoTrainLength": 104,
  "EffectiveEchoSpacing": 0.000560011,
  "FlipAngle": 52,
  "ImageComments": "Unaliased_MB4_PE3_LB",
  "ImageOrientationPatientDICOM": [0.999155, 0.0187248, 0.0366019, -0.00959144, 0.971861, -0.235359],
  "ImageType": [
    "ORIGINAL",
    "PRIMARY",
    "P",
    "MB",
    "ND",
    "MOSAIC"
],
  "ImagingFrequency": 123.259,
  "InPlanePhaseEncodingDirectionDICOM": "COL",
  "InstitutionAddress": "Chemin_Queen-Mary_4565_Montreal_District_CA_H3W_1W5",
  "InstitutionName": "IUGM",
  "InstitutionalDepartmentName": "Department",
  "MRAcquisitionType": "2D",
  "MagneticFieldStrength": 3,
  "Manufacturer": "Siemens",
  "ManufacturersModelName": "Prisma_fit",
  "Modality": "MR",
  "MultibandAccelerationFactor": 4,
  "PartialFourier": 1,
  "PatientPosition": "HFS",
  "PercentPhaseFOV": 100,
  "PhaseEncodingDirection": "j",
  "PhaseEncodingSteps": 104,
  "PhaseResolution": 1,
  "PixelBandwidth": 2290,
  "ProcedureStepDescription": "memory_things",
  "ProtocolName": "func_task-things_run-5",
  "PulseSequenceDetails": "%CustomerSeq%_cmrr_mbep2d_bold",
  "ReceiveCoilActiveElements": "HC1-7;NC1,2",
  "ReceiveCoilName": "HeadNeck_64",
  "ReconMatrixPE": 104,
  "RepetitionTime": 1.49,
  "SAR": 0.0481416,
  "ScanOptions": "FS",
  "ScanningSequence": "EP",
  "SequenceName": "epfid2d1_104",
  "SequenceVariant": "SK_SS",
  "SeriesDescription": "func_task-things_run-5",
  "SeriesNumber": 23,
  "ShimSetting": [648, -7213, -8771, 732, 81, 6, 83, 5],
  "SliceThickness": 2,
  "SliceTiming": [0, 0.7825, 0.0975, 0.8825, 0.195, 0.98, 0.2925, 1.0775, 0.3925, 1.175, 0.49, 1.2725, 0.5875, 1.3725, 0.685, 0, 0.7825, 0.0975, 0.8825, 0.195, 0.98, 0.2925, 1.0775, 0.3925, 1.175, 0.49, 1.2725, 0.5875, 1.3725, 0.685, 0, 0.7825, 0.0975, 0.8825, 0.195, 0.98, 0.2925, 1.0775, 0.3925, 1.175, 0.49, 1.2725, 0.5875, 1.3725, 0.685, 0, 0.7825, 0.0975, 0.8825, 0.195, 0.98, 0.2925, 1.0775, 0.3925, 1.175, 0.49, 1.2725, 0.5875, 1.3725, 0.685],
  "SoftwareVersions": "syngo_MR_E11",
  "SpacingBetweenSlices": 2,
  "StationName": "MRC35049",
  "TaskName": "things",
  "TotalReadoutTime": 0.0576811,
  "TxRefAmp": 233.086,
  "WipMemBlock": "b06b5f28-3ad5-458f-b37b-02991f6b1cb9||Sequence: R016 ve11c/master r/e634e98; Dec 19 2017 11:00:25 by eja",
  "dcmmeta_affine": [
    [-1.9983090162277222, -0.01918288879096508, 0.07995805889368057, 107.88721466064453],
    [-0.037449631839990616, 1.9437223672866821, -0.4696178138256073, -73.95667266845703],
    [0.07320381700992584, 0.4707179367542267, 1.9424381256103516, -59.23091506958008],
    [0.0, 0.0, 0.0, 1.0]
],
  "dcmmeta_reorient_transform": [
    [0.0, -1.0, 0.0, 103.0],
    [1.0, 0.0, 0.0, 0.0],
    [0.0, 0.0, 1.0, 0.0],
    [0.0, 0.0, 0.0, 1.0]
],
  "dcmmeta_shape": [104, 104, 60, 190],
  "dcmmeta_slice_dim": 2,
  "dcmmeta_version": 0.6,
  "global": {
    "const": {
      "AcquisitionMatrix": [104, 0, 0, 104],
      "AngioFlag": "N",
      "BitsAllocated": 16,
      "BitsStored": 16,
      "BodyPartExamined": "BRAIN",
      "Columns": 832,
      "EchoNumbers": 1,
      "EchoTime": 37.0,
      "EchoTrainLength": 104,
      "FlipAngle": 52.0,
      "HighBit": 15,
      "ImageOrientationPatient": [0.99915448329896, 0.01872481630172, 0.03660190921334, -0.0095914440018, 0.97186118204875, -0.235358974821],
      "ImagePositionPatient": [-826.31326842982, -847.3933368367, 133.94817877169],
      "ImageType": [
        "ORIGINAL",
        "PRIMARY",
        "P",
        "MB",
        "ND",
        "MOSAIC"
],
      "ImagedNucleus": "1H",
      "ImagingFrequency": 123.258914,
      "InPlanePhaseEncodingDirection": "COL",
      "LargestImagePixelValue": 4095,
      "MRAcquisitionType": "2D",
      "MagneticFieldStrength": 3.0,
      "Manufacturer": "SIEMENS",
      "ManufacturerModelName": "Prisma_fit",
      "Modality": "MR",
      "NumberOfAverages": 1.0,
      "NumberOfPhaseEncodingSteps": 104,
      "PercentPhaseFieldOfView": 100.0,
      "PercentSampling": 100.0,
      "PerformedProcedureStepStartTime": "131951.839000",
      "PhotometricInterpretation": "MONOCHROME2",
      "PixelBandwidth": 2290.0,
      "PixelRepresentation": 0,
      "PixelSpacing": [2.0, 2.0],
      "ProtocolName": "func_task-things_run-5",
      "RepetitionTime": 1490.0,
      "RescaleIntercept": -4096.0,
      "RescaleSlope": 2.0,
      "RescaleType": "US",
      "Rows": 832,
      "SAR": 0.04814159345807,
      "SamplesPerPixel": 1,
      "ScanOptions": "FS",
      "ScanningSequence": "EP",
      "SequenceName": "epfid2d1_104",
      "SequenceVariant": [
        "SK",
        "SS"
],
      "SeriesDescription": "func_task-things_run-5",
      "SeriesNumber": 23,
      "SeriesTime": "134900.811000",
      "SliceLocation": -35.847280326213,
      "SliceThickness": 2.0,
      "SmallestImagePixelValue": 0,
      "SoftwareVersions": "syngo MR E11",
      "SpacingBetweenSlices": 2.000000013737,
      "SpecificCharacterSet": "ISO_IR 100",
      "StudyID": "1",
      "StudyTime": "131951.754000",
      "TransmitCoilName": "Body",
      "VariableFlipAngleFlag": "N",
      "WindowCenterWidthExplanation": "Algo1",
      "dBdt": 0.0},
    "slices": {}
  },
  "time": {
    "samples": {
      "AcquisitionNumber": [1, 2, 3, 4, 5, 6, 7, 8, 9, 10, 11, 12, 13, 14, 15, 16, 17, 18, 19, 20, 21, 22, 23, 24, 25, 26, 27, 28, 29, 30, 31, 32, 33, 34, 35, 36, 37, 38, 39, 40, 41, 42, 43, 44, 45, 46, 47, 48, 49, 50, 51, 52, 53, 54, 55, 56, 57, 58, 59, 60, 61, 62, 63, 64, 65, 66, 67, 68, 69, 70, 71, 72, 73, 74, 75, 76, 77, 78, 79, 80, 81, 82, 83, 84, 85, 86, 87, 88, 89, 90, 91, 92, 93, 94, 95, 96, 97, 98, 99, 100, 101, 102, 103, 104, 105, 106, 107, 108, 109, 110, 111, 112, 113, 114, 115, 116, 117, 118, 119, 120, 121, 122, 123, 124, 125, 126, 127, 128, 129, 130, 131, 132, 133, 134, 135, 136, 137, 138, 139, 140, 141, 142, 143, 144, 145, 146, 147, 148, 149, 150, 151, 152, 153, 154, 155, 156, 157, 158, 159, 160, 161, 162, 163, 164, 165, 166, 167, 168, 169, 170, 171, 172, 173, 174, 175, 176, 177, 178, 179, 180, 181, 182, 183, 184, 185, 186, 187, 188, 189, 190],
      "AcquisitionTime": ["134750.450000", "134751.940000", "134753.430000", "134754.920000", "134756.410000", "134757.900000", "134759.390000", "134800.880000", "134802.370000", "134803.860000", "134805.350000", "134806.840000", "134808.330000", "134809.820000", "134811.310000", "134812.800000", "134814.290000", "134815.780000", "134817.270000", "134818.760000", "134820.250000", "134821.740000", "134823.230000", "134824.720000", "134826.210000", "134827.700000", "134829.190000", "134830.680000", "134832.170000", "134833.660000", "134835.150000", "134836.640000", "134838.130000", "134839.620000", "134841.110000", "134842.600000", "134844.090000", "134845.580000", "134847.070000", "134848.560000", "134850.050000", "134851.540000", "134853.030000", "134854.520000", "134856.010000", "134857.500000", "134858.990000", "134900.480000", "134901.970000", "134903.460000", "134904.950000", "134906.440000", "134907.930000", "134909.420000", "134910.910000", "134912.400000", "134913.890000", "134915.380000", "134916.870000", "134918.360000", "134919.850000", "134921.340000", "134922.830000", "134924.320000", "134925.810000", "134927.300000", "134928.790000", "134930.280000", "134931.770000", "134933.260000", "134934.750000", "134936.240000", "134937.730000", "134939.220000", "134940.710000", "134942.200000", "134943.690000", "134945.180000", "134946.670000", "134948.160000", "134949.650000", "134951.140000", "134952.630000", "134954.120000", "134955.610000", "134957.100000", "134958.590000", "135000.080000", "135001.570000", "135003.060000", "135004.550000", "135006.040000", "135007.530000", "135009.020000", "135010.510000", "135012.000000", "135013.490000", "135014.980000", "135016.470000", "135017.960000", "135019.450000", "135020.940000", "135022.430000", "135023.920000", "135025.410000", "135026.900000", "135028.390000", "135029.880000", "135031.370000", "135032.860000", "135034.350000", "135035.840000", "135037.330000", "135038.820000", "135040.310000", "135041.800000", "135043.290000", "135044.780000", "135046.270000", "135047.760000", "135049.250000", "135050.740000", "135052.230000", "135053.720000", "135055.210000", "135056.700000", "135058.190000", "135059.680000", "135101.170000", "135102.660000", "135104.150000", "135105.640000", "135107.130000", "135108.620000", "135110.110000", "135111.600000", "135113.090000", "135114.580000", "135116.070000", "135117.560000", "135119.050000", "135120.540000", "135122.030000", "135123.520000", "135125.010000", "135126.500000", "135127.990000", "135129.480000", "135130.970000", "135132.460000", "135133.950000", "135135.440000", "135136.930000", "135138.420000", "135139.910000", "135141.400000", "135142.890000", "135144.380000", "135145.870000", "135147.360000", "135148.850000", "135150.340000", "135151.830000", "135153.320000", "135154.810000", "135156.300000", "135157.790000", "135159.280000", "135200.770000", "135202.260000", "135203.750000", "135205.240000", "135206.730000", "135208.220000", "135209.710000", "135211.200000", "135212.690000", "135214.180000", "135215.670000", "135217.160000", "135218.650000", "135220.140000", "135221.630000", "135223.120000", "135224.610000", "135226.100000", "135227.590000", "135229.080000", "135230.570000", "135232.060000"],
      "ContentTime": ["134900.813000", "134900.815000", "134900.818000", "134900.828000", "134900.830000", "134900.833000", "134900.835000", "134900.845000", "134900.848000", "134900.850000", "134900.853000", "134900.855000", "134900.858000", "134900.860000", "134900.863000", "134900.865000", "134900.867000", "134920.806000", "134920.808000", "134920.811000", "134920.813000", "134920.816000", "134920.818000", "134920.821000", "134920.823000", "134920.826000", "134920.828000", "134920.830000", "134920.833000", "134920.835000", "134920.838000", "134920.840000", "134920.843000", "134920.845000", "134920.848000", "134920.850000", "134920.853000", "134940.799000", "134940.801000", "134940.804000", "134940.806000", "134940.809000", "134940.811000", "134940.814000", "134940.816000", "134940.819000", "134940.821000", "134940.823000", "134940.826000", "134940.828000", "134940.831000", "134940.833000", "134940.836000", "134940.838000", "134940.841000", "134940.843000", "134940.846000", "135000.856000", "135000.859000", "135000.861000", "135000.864000", "135000.866000", "135000.869000", "135000.871000", "135000.874000", "135000.876000", "135000.879000", "135000.881000", "135000.883000", "135000.886000", "135000.888000", "135000.891000", "135000.893000", "135000.896000", "135000.898000", "135000.901000", "135000.903000", "135020.825000", "135020.828000", "135020.830000", "135020.833000", "135020.835000", "135020.838000", "135020.840000", "135020.843000", "135020.845000", "135020.847000", "135020.850000", "135020.852000", "135020.855000", "135020.857000", "135020.860000", "135020.862000", "135020.865000", "135020.867000", "135020.870000", "135020.872000", "135100.833000", "135100.836000", "135100.839000", "135100.841000", "135100.843000", "135100.846000", "135100.848000", "135100.851000", "135100.853000", "135100.856000", "135100.858000", "135100.861000", "135100.863000", "135100.866000", "135100.868000", "135100.871000", "135100.873000", "135100.876000", "135100.878000", "135100.881000", "135100.884000", "135100.886000", "135100.889000", "135100.891000", "135100.893000", "135100.896000", "135100.898000", "135100.901000", "135100.903000", "135100.906000", "135140.842000", "135140.844000", "135140.847000", "135140.849000", "135140.852000", "135140.854000", "135140.857000", "135140.859000", "135140.862000", "135140.864000", "135140.867000", "135140.869000", "135140.872000", "135140.874000", "135140.877000", "135140.879000", "135140.882000", "135140.884000", "135140.887000", "135140.889000", "135140.892000", "135140.894000", "135140.897000", "135140.899000", "135140.902000", "135140.904000", "135140.907000", "135220.820000", "135220.823000", "135220.825000", "135220.828000", "135220.830000", "135220.833000", "135220.835000", "135220.838000", "135220.841000", "135220.843000", "135220.846000", "135220.848000", "135220.851000", "135220.853000", "135220.856000", "135220.859000", "135220.862000", "135220.864000", "135220.867000", "135220.870000", "135220.872000", "135220.875000", "135220.877000", "135220.880000", "135220.882000", "135220.885000", "135234.402000", "135234.405000", "135234.407000", "135234.410000", "135234.412000", "135234.415000", "135234.417000", "135234.420000", "135234.423000", "135234.426000"],
      "InstanceCreationTime": ["134900.813000", "134900.815000", "134900.818000", "134900.828000", "134900.830000", "134900.833000", "134900.835000", "134900.845000", "134900.848000", "134900.850000", "134900.853000", "134900.855000", "134900.858000", "134900.860000", "134900.863000", "134900.865000", "134900.867000", "134920.806000", "134920.808000", "134920.811000", "134920.813000", "134920.816000", "134920.818000", "134920.821000", "134920.823000", "134920.826000", "134920.828000", "134920.830000", "134920.833000", "134920.835000", "134920.838000", "134920.840000", "134920.843000", "134920.845000", "134920.848000", "134920.850000", "134920.853000", "134940.799000", "134940.801000", "134940.804000", "134940.806000", "134940.809000", "134940.811000", "134940.814000", "134940.816000", "134940.819000", "134940.821000", "134940.823000", "134940.826000", "134940.828000", "134940.831000", "134940.833000", "134940.836000", "134940.838000", "134940.841000", "134940.843000", "134940.846000", "135000.856000", "135000.859000", "135000.861000", "135000.864000", "135000.866000", "135000.869000", "135000.871000", "135000.874000", "135000.876000", "135000.879000", "135000.881000", "135000.883000", "135000.886000", "135000.888000", "135000.891000", "135000.893000", "135000.896000", "135000.898000", "135000.901000", "135000.903000", "135020.825000", "135020.828000", "135020.830000", "135020.833000", "135020.835000", "135020.838000", "135020.840000", "135020.843000", "135020.845000", "135020.847000", "135020.850000", "135020.852000", "135020.855000", "135020.857000", "135020.860000", "135020.862000", "135020.865000", "135020.867000", "135020.870000", "135020.872000", "135100.833000", "135100.836000", "135100.839000", "135100.841000", "135100.843000", "135100.846000", "135100.848000", "135100.851000", "135100.853000", "135100.856000", "135100.858000", "135100.861000", "135100.863000", "135100.866000", "135100.868000", "135100.871000", "135100.873000", "135100.876000", "135100.878000", "135100.881000", "135100.884000", "135100.886000", "135100.889000", "135100.891000", "135100.893000", "135100.896000", "135100.898000", "135100.901000", "135100.903000", "135100.906000", "135140.842000", "135140.844000", "135140.847000", "135140.849000", "135140.852000", "135140.854000", "135140.857000", "135140.859000", "135140.862000", "135140.864000", "135140.867000", "135140.869000", "135140.872000", "135140.874000", "135140.877000", "135140.879000", "135140.882000", "135140.884000", "135140.887000", "135140.889000", "135140.892000", "135140.894000", "135140.897000", "135140.899000", "135140.902000", "135140.904000", "135140.907000", "135220.820000", "135220.823000", "135220.825000", "135220.828000", "135220.830000", "135220.833000", "135220.835000", "135220.838000", "135220.841000", "135220.843000", "135220.846000", "135220.848000", "135220.851000", "135220.853000", "135220.856000", "135220.859000", "135220.862000", "135220.864000", "135220.867000", "135220.870000", "135220.872000", "135220.875000", "135220.877000", "135220.880000", "135220.882000", "135220.885000", "135234.402000", "135234.405000", "135234.407000", "135234.410000", "135234.412000", "135234.415000", "135234.417000", "135234.420000", "135234.423000", "135234.426000"],
      "InstanceNumber": [1, 2, 3, 4, 5, 6, 7, 8, 9, 10, 11, 12, 13, 14, 15, 16, 17, 18, 19, 20, 21, 22, 23, 24, 25, 26, 27, 28, 29, 30, 31, 32, 33, 34, 35, 36, 37, 38, 39, 40, 41, 42, 43, 44, 45, 46, 47, 48, 49, 50, 51, 52, 53, 54, 55, 56, 57, 58, 59, 60, 61, 62, 63, 64, 65, 66, 67, 68, 69, 70, 71, 72, 73, 74, 75, 76, 77, 78, 79, 80, 81, 82, 83, 84, 85, 86, 87, 88, 89, 90, 91, 92, 93, 94, 95, 96, 97, 98, 99, 100, 101, 102, 103, 104, 105, 106, 107, 108, 109, 110, 111, 112, 113, 114, 115, 116, 117, 118, 119, 120, 121, 122, 123, 124, 125, 126, 127, 128, 129, 130, 131, 132, 133, 134, 135, 136, 137, 138, 139, 140, 141, 142, 143, 144, 145, 146, 147, 148, 149, 150, 151, 152, 153, 154, 155, 156, 157, 158, 159, 160, 161, 162, 163, 164, 165, 166, 167, 168, 169, 170, 171, 172, 173, 174, 175, 176, 177, 178, 179, 180, 181, 182, 183, 184, 185, 186, 187, 188, 189, 190],
      "WindowCenter": [4876.0, 4870.0, 4874.0, 4874.0, 4874.0, 4876.0, 4874.0, 4872.0, 4872.0, 4876.0, 4898.0, 4874.0, 4874.0, 4876.0, 4870.0, 4870.0, 4896.0, 4894.0, 4872.0, 4872.0, 4874.0, 4896.0, 4874.0, 4898.0, 4874.0, 4874.0, 4872.0, 4870.0, 4874.0, 4894.0, 4872.0, 4874.0, 4872.0, 4874.0, 4874.0, 4874.0, 4876.0, 4872.0, 4894.0, 4872.0, 4898.0, 4874.0, 4896.0, 4872.0, 4872.0, 4898.0, 4874.0, 4898.0, 4870.0, 4872.0, 4872.0, 4874.0, 4874.0, 4874.0, 4874.0, 4874.0, 4874.0, 4876.0, 4870.0, 4872.0, 4872.0, 4898.0, 4872.0, 4896.0, 4872.0, 4874.0, 4874.0, 4870.0, 4874.0, 4868.0, 4872.0, 4874.0, 4872.0, 4874.0, 4874.0, 4870.0, 4874.0, 4874.0, 4872.0, 4874.0, 4874.0, 4874.0, 4874.0, 4876.0, 4868.0, 4870.0, 4870.0, 4870.0, 4872.0, 4872.0, 4898.0, 4868.0, 4896.0, 4872.0, 4876.0, 4894.0, 4874.0, 4872.0, 4894.0, 4870.0, 4872.0, 4870.0, 4872.0, 4874.0, 4874.0, 4896.0, 4870.0, 4874.0, 4870.0, 4896.0, 4872.0, 4874.0, 4872.0, 4874.0, 4874.0, 4898.0, 4872.0, 4872.0, 4868.0, 4872.0, 4868.0, 4874.0, 4874.0, 4872.0, 4874.0, 4874.0, 4876.0, 4872.0, 4876.0, 4872.0, 4872.0, 4892.0, 4872.0, 4874.0, 4896.0, 4872.0, 4894.0, 4872.0, 4874.0, 4894.0, 4874.0, 4894.0, 4874.0, 4872.0, 4872.0, 4868.0, 4872.0, 4872.0, 4870.0, 4872.0, 4872.0, 4894.0, 4872.0, 4870.0, 4872.0, 4874.0, 4872.0, 4870.0, 4872.0, 4872.0, 4870.0, 4870.0, 4872.0, 4872.0, 4874.0, 4874.0, 4870.0, 4872.0, 4894.0, 4874.0, 4874.0, 4894.0, 4872.0, 4870.0, 4872.0, 4872.0, 4872.0, 4874.0, 4870.0, 4870.0, 4872.0, 4872.0, 4872.0, 4872.0, 4872.0, 4870.0, 4874.0, 4872.0, 4874.0, 4872.0],
      "WindowWidth": [18686.0, 18688.0, 18692.0, 18688.0, 18688.0, 18692.0, 18688.0, 18690.0, 18688.0, 18690.0, 18714.0, 18688.0, 18684.0, 18688.0, 18686.0, 18686.0, 18720.0, 18720.0, 18686.0, 18690.0, 18682.0, 18722.0, 18684.0, 18718.0, 18684.0, 18690.0, 18688.0, 18686.0, 18690.0, 18718.0, 18686.0, 18688.0, 18684.0, 18686.0, 18688.0, 18684.0, 18686.0, 18692.0, 18724.0, 18686.0, 18718.0, 18692.0, 18716.0, 18684.0, 18690.0, 18722.0, 18690.0, 18714.0, 18688.0, 18682.0, 18690.0, 18686.0, 18694.0, 18684.0, 18688.0, 18686.0, 18688.0, 18686.0, 18690.0, 18686.0, 18688.0, 18718.0, 18686.0, 18718.0, 18684.0, 18692.0, 18686.0, 18686.0, 18688.0, 18684.0, 18692.0, 18684.0, 18686.0, 18690.0, 18690.0, 18684.0, 18694.0, 18686.0, 18688.0, 18684.0, 18692.0, 18692.0, 18690.0, 18684.0, 18688.0, 18682.0, 18682.0, 18684.0, 18684.0, 18690.0, 18720.0, 18680.0, 18720.0, 18686.0, 18690.0, 18720.0, 18686.0, 18692.0, 18716.0, 18686.0, 18682.0, 18688.0, 18686.0, 18686.0, 18686.0, 18716.0, 18684.0, 18692.0, 18686.0, 18720.0, 18690.0, 18692.0, 18686.0, 18690.0, 18688.0, 18718.0, 18690.0, 18688.0, 18690.0, 18686.0, 18684.0, 18694.0, 18684.0, 18688.0, 18686.0, 18690.0, 18692.0, 18684.0, 18686.0, 18694.0, 18688.0, 18720.0, 18680.0, 18686.0, 18718.0, 18688.0, 18716.0, 18690.0, 18688.0, 18718.0, 18690.0, 18720.0, 18690.0, 18690.0, 18686.0, 18682.0, 18686.0, 18688.0, 18686.0, 18688.0, 18688.0, 18716.0, 18684.0, 18686.0, 18688.0, 18688.0, 18690.0, 18686.0, 18694.0, 18690.0, 18686.0, 18692.0, 18692.0, 18684.0, 18690.0, 18686.0, 18688.0, 18682.0, 18720.0, 18688.0, 18692.0, 18718.0, 18688.0, 18690.0, 18686.0, 18688.0, 18688.0, 18688.0, 18690.0, 18688.0, 18682.0, 18688.0, 18690.0, 18686.0, 18690.0, 18688.0, 18688.0, 18688.0, 18686.0, 18690.0]
    },
    "slices": {}
  }
}