{
  "AcquisitionMatrixPE": 104,
  "AcquisitionNumber": 1,
  "AcquisitionTime": "13:23:36.330000",
  "BandwidthPerPixelPhaseEncode": 17.17,
  "BaseResolution": 104,
  "BodyPartExamined": "BRAIN",
  "CoilString": "HC1-7;NC1_2",
  "ConsistencyInfo": "N4_VE11C_LATEST_20160120",
  "ConversionSoftware": "dcm2niix",
  "ConversionSoftwareVersion": "v1.0.20190902",
  "DerivedVendorReportedEchoSpacing": 0.000560011,
  "DeviceSerialNumber": "167006",
  "DwellTime": 2.1e-06,
  "EchoTime": 0.037,
  "EchoTrainLength": 104,
  "EffectiveEchoSpacing": 0.000560011,
  "FlipAngle": 52,
  "ImageComments": "Unaliased_MB4_PE3_LB",
  "ImageOrientationPatientDICOM": [0.999155, 0.0187248, 0.0366019, -0.00959144, 0.971861, -0.235359],
  "ImageType": [
    "ORIGINAL",
    "PRIMARY",
    "P",
    "MB",
    "ND",
    "MOSAIC"
],
  "ImagingFrequency": 123.259,
  "InPlanePhaseEncodingDirectionDICOM": "COL",
  "InstitutionAddress": "Chemin_Queen-Mary_4565_Montreal_District_CA_H3W_1W5",
  "InstitutionName": "IUGM",
  "InstitutionalDepartmentName": "Department",
  "MRAcquisitionType": "2D",
  "MagneticFieldStrength": 3,
  "Manufacturer": "Siemens",
  "ManufacturersModelName": "Prisma_fit",
  "Modality": "MR",
  "MultibandAccelerationFactor": 4,
  "PartialFourier": 1,
  "PatientPosition": "HFS",
  "PercentPhaseFOV": 100,
  "PhaseEncodingDirection": "j",
  "PhaseEncodingSteps": 104,
  "PhaseResolution": 1,
  "PixelBandwidth": 2290,
  "ProcedureStepDescription": "memory_things",
  "ProtocolName": "func_task-things_run-1",
  "PulseSequenceDetails": "%CustomerSeq%_cmrr_mbep2d_bold",
  "ReceiveCoilActiveElements": "HC1-7;NC1,2",
  "ReceiveCoilName": "HeadNeck_64",
  "ReconMatrixPE": 104,
  "RepetitionTime": 1.49,
  "SAR": 0.0481416,
  "ScanOptions": "FS",
  "ScanningSequence": "EP",
  "SequenceName": "epfid2d1_104",
  "SequenceVariant": "SK_SS",
  "SeriesDescription": "func_task-things_run-1",
  "SeriesNumber": 11,
  "ShimSetting": [648, -7213, -8771, 732, 81, 6, 83, 5],
  "SliceThickness": 2,
  "SliceTiming": [0, 0.7825, 0.0975, 0.8825, 0.195, 0.98, 0.295, 1.0775, 0.3925, 1.175, 0.49, 1.2725, 0.5875, 1.3725, 0.685, 0, 0.7825, 0.0975, 0.8825, 0.195, 0.98, 0.295, 1.0775, 0.3925, 1.175, 0.49, 1.2725, 0.5875, 1.3725, 0.685, 0, 0.7825, 0.0975, 0.8825, 0.195, 0.98, 0.295, 1.0775, 0.3925, 1.175, 0.49, 1.2725, 0.5875, 1.3725, 0.685, 0, 0.7825, 0.0975, 0.8825, 0.195, 0.98, 0.295, 1.0775, 0.3925, 1.175, 0.49, 1.2725, 0.5875, 1.3725, 0.685],
  "SoftwareVersions": "syngo_MR_E11",
  "SpacingBetweenSlices": 2,
  "StationName": "MRC35049",
  "TaskName": "things",
  "TotalReadoutTime": 0.0576811,
  "TxRefAmp": 233.086,
  "WipMemBlock": "ffe51621-3b49-4725-bed6-5c46646fc84d||Sequence: R016 ve11c/master r/e634e98; Dec 19 2017 11:00:25 by eja",
  "dcmmeta_affine": [
    [-1.9983090162277222, -0.01918288879096508, 0.07995805889368057, 107.88721466064453],
    [-0.037449631839990616, 1.9437223672866821, -0.4696178138256073, -73.95667266845703],
    [0.07320381700992584, 0.4707179367542267, 1.9424381256103516, -59.23091506958008],
    [0.0, 0.0, 0.0, 1.0]
],
  "dcmmeta_reorient_transform": [
    [0.0, -1.0, 0.0, 103.0],
    [1.0, 0.0, 0.0, 0.0],
    [0.0, 0.0, 1.0, 0.0],
    [0.0, 0.0, 0.0, 1.0]
],
  "dcmmeta_shape": [104, 104, 60, 190],
  "dcmmeta_slice_dim": 2,
  "dcmmeta_version": 0.6,
  "global": {
    "const": {
      "AcquisitionMatrix": [104, 0, 0, 104],
      "AngioFlag": "N",
      "BitsAllocated": 16,
      "BitsStored": 16,
      "BodyPartExamined": "BRAIN",
      "Columns": 832,
      "EchoNumbers": 1,
      "EchoTime": 37.0,
      "EchoTrainLength": 104,
      "FlipAngle": 52.0,
      "HighBit": 15,
      "ImageOrientationPatient": [0.99915448329896, 0.01872481630172, 0.03660190921334, -0.0095914440018, 0.97186118204875, -0.235358974821],
      "ImagePositionPatient": [-826.31326842982, -847.3933368367, 133.94817877169],
      "ImageType": [
        "ORIGINAL",
        "PRIMARY",
        "P",
        "MB",
        "ND",
        "MOSAIC"
],
      "ImagedNucleus": "1H",
      "ImagingFrequency": 123.258902,
      "InPlanePhaseEncodingDirection": "COL",
      "LargestImagePixelValue": 4095,
      "MRAcquisitionType": "2D",
      "MagneticFieldStrength": 3.0,
      "Manufacturer": "SIEMENS",
      "ManufacturerModelName": "Prisma_fit",
      "Modality": "MR",
      "NumberOfAverages": 1.0,
      "NumberOfPhaseEncodingSteps": 104,
      "PercentPhaseFieldOfView": 100.0,
      "PercentSampling": 100.0,
      "PerformedProcedureStepStartTime": "131951.839000",
      "PhotometricInterpretation": "MONOCHROME2",
      "PixelBandwidth": 2290.0,
      "PixelRepresentation": 0,
      "PixelSpacing": [2.0, 2.0],
      "ProtocolName": "func_task-things_run-1",
      "RepetitionTime": 1490.0,
      "RescaleIntercept": -4096.0,
      "RescaleSlope": 2.0,
      "RescaleType": "US",
      "Rows": 832,
      "SAR": 0.04814159345807,
      "SamplesPerPixel": 1,
      "ScanOptions": "FS",
      "ScanningSequence": "EP",
      "SequenceName": "epfid2d1_104",
      "SequenceVariant": [
        "SK",
        "SS"
],
      "SeriesDescription": "func_task-things_run-1",
      "SeriesNumber": 11,
      "SeriesTime": "132502.283000",
      "SliceLocation": -35.847280326213,
      "SliceThickness": 2.0,
      "SmallestImagePixelValue": 0,
      "SoftwareVersions": "syngo MR E11",
      "SpacingBetweenSlices": 2.000000013737,
      "SpecificCharacterSet": "ISO_IR 100",
      "StudyID": "1",
      "StudyTime": "131951.754000",
      "TransmitCoilName": "Body",
      "VariableFlipAngleFlag": "N",
      "WindowCenterWidthExplanation": "Algo1",
      "dBdt": 0.0},
    "slices": {}
  },
  "time": {
    "samples": {
      "AcquisitionNumber": [1, 2, 3, 4, 5, 6, 7, 8, 9, 10, 11, 12, 13, 14, 15, 16, 17, 18, 19, 20, 21, 22, 23, 24, 25, 26, 27, 28, 29, 30, 31, 32, 33, 34, 35, 36, 37, 38, 39, 40, 41, 42, 43, 44, 45, 46, 47, 48, 49, 50, 51, 52, 53, 54, 55, 56, 57, 58, 59, 60, 61, 62, 63, 64, 65, 66, 67, 68, 69, 70, 71, 72, 73, 74, 75, 76, 77, 78, 79, 80, 81, 82, 83, 84, 85, 86, 87, 88, 89, 90, 91, 92, 93, 94, 95, 96, 97, 98, 99, 100, 101, 102, 103, 104, 105, 106, 107, 108, 109, 110, 111, 112, 113, 114, 115, 116, 117, 118, 119, 120, 121, 122, 123, 124, 125, 126, 127, 128, 129, 130, 131, 132, 133, 134, 135, 136, 137, 138, 139, 140, 141, 142, 143, 144, 145, 146, 147, 148, 149, 150, 151, 152, 153, 154, 155, 156, 157, 158, 159, 160, 161, 162, 163, 164, 165, 166, 167, 168, 169, 170, 171, 172, 173, 174, 175, 176, 177, 178, 179, 180, 181, 182, 183, 184, 185, 186, 187, 188, 189, 190],
      "AcquisitionTime": ["132336.330000", "132337.820000", "132339.310000", "132340.800000", "132342.290000", "132343.780000", "132345.270000", "132346.760000", "132348.250000", "132349.740000", "132351.230000", "132352.720000", "132354.210000", "132355.700000", "132357.190000", "132358.680000", "132400.170000", "132401.660000", "132403.150000", "132404.640000", "132406.130000", "132407.620000", "132409.110000", "132410.600000", "132412.090000", "132413.580000", "132415.070000", "132416.560000", "132418.050000", "132419.540000", "132421.030000", "132422.520000", "132424.010000", "132425.500000", "132426.990000", "132428.480000", "132429.970000", "132431.460000", "132432.950000", "132434.440000", "132435.930000", "132437.420000", "132438.910000", "132440.400000", "132441.890000", "132443.380000", "132444.870000", "132446.360000", "132447.850000", "132449.340000", "132450.830000", "132452.320000", "132453.810000", "132455.300000", "132456.790000", "132458.280000", "132459.770000", "132501.260000", "132502.750000", "132504.240000", "132505.730000", "132507.220000", "132508.710000", "132510.200000", "132511.690000", "132513.180000", "132514.670000", "132516.160000", "132517.650000", "132519.140000", "132520.630000", "132522.120000", "132523.610000", "132525.100000", "132526.590000", "132528.080000", "132529.570000", "132531.060000", "132532.550000", "132534.040000", "132535.530000", "132537.020000", "132538.510000", "132540.000000", "132541.490000", "132542.980000", "132544.470000", "132545.960000", "132547.450000", "132548.940000", "132550.430000", "132551.920000", "132553.410000", "132554.900000", "132556.390000", "132557.880000", "132559.370000", "132600.860000", "132602.350000", "132603.840000", "132605.330000", "132606.820000", "132608.310000", "132609.800000", "132611.290000", "132612.780000", "132614.270000", "132615.760000", "132617.250000", "132618.740000", "132620.230000", "132621.720000", "132623.210000", "132624.700000", "132626.190000", "132627.680000", "132629.170000", "132630.660000", "132632.150000", "132633.640000", "132635.130000", "132636.620000", "132638.110000", "132639.600000", "132641.090000", "132642.580000", "132644.070000", "132645.560000", "132647.050000", "132648.540000", "132650.030000", "132651.520000", "132653.010000", "132654.500000", "132655.990000", "132657.480000", "132658.970000", "132700.460000", "132701.950000", "132703.440000", "132704.930000", "132706.420000", "132707.910000", "132709.400000", "132710.890000", "132712.380000", "132713.870000", "132715.360000", "132716.850000", "132718.340000", "132719.830000", "132721.320000", "132722.810000", "132724.300000", "132725.790000", "132727.280000", "132728.770000", "132730.260000", "132731.750000", "132733.240000", "132734.730000", "132736.220000", "132737.710000", "132739.200000", "132740.690000", "132742.180000", "132743.670000", "132745.160000", "132746.650000", "132748.140000", "132749.630000", "132751.120000", "132752.610000", "132754.100000", "132755.590000", "132757.080000", "132758.570000", "132800.060000", "132801.550000", "132803.040000", "132804.530000", "132806.020000", "132807.510000", "132809.000000", "132810.490000", "132811.980000", "132813.470000", "132814.960000", "132816.450000", "132817.940000"],
      "ContentTime": ["132502.286000", "132502.288000", "132502.291000", "132502.293000", "132502.296000", "132502.298000", "132502.301000", "132502.303000", "132502.306000", "132502.317000", "132502.320000", "132502.322000", "132502.325000", "132502.327000", "132502.329000", "132502.332000", "132502.334000", "132502.337000", "132502.339000", "132502.342000", "132502.344000", "132502.347000", "132502.349000", "132502.352000", "132502.354000", "132502.357000", "132502.359000", "132502.362000", "132502.364000", "132502.366000", "132502.369000", "132502.371000", "132502.374000", "132522.186000", "132522.188000", "132522.191000", "132522.193000", "132522.196000", "132522.198000", "132522.201000", "132522.203000", "132522.206000", "132522.208000", "132522.210000", "132522.213000", "132522.215000", "132522.218000", "132522.220000", "132522.223000", "132522.225000", "132522.228000", "132522.230000", "132522.233000", "132542.184000", "132542.187000", "132542.189000", "132542.192000", "132542.194000", "132542.197000", "132542.199000", "132542.202000", "132542.204000", "132542.207000", "132542.209000", "132542.211000", "132542.214000", "132542.216000", "132542.219000", "132542.221000", "132542.224000", "132542.226000", "132542.229000", "132542.231000", "132602.190000", "132602.193000", "132602.195000", "132602.198000", "132602.200000", "132602.203000", "132602.205000", "132602.208000", "132602.210000", "132602.213000", "132602.215000", "132602.218000", "132602.220000", "132602.223000", "132602.226000", "132602.228000", "132602.231000", "132602.233000", "132602.236000", "132602.238000", "132602.241000", "132642.255000", "132642.258000", "132642.261000", "132642.263000", "132642.265000", "132642.268000", "132642.270000", "132642.273000", "132642.275000", "132642.278000", "132642.280000", "132642.283000", "132642.285000", "132642.288000", "132642.290000", "132642.293000", "132642.295000", "132642.298000", "132642.300000", "132642.302000", "132642.305000", "132642.307000", "132642.310000", "132642.312000", "132642.315000", "132642.317000", "132642.320000", "132642.322000", "132642.325000", "132642.327000", "132722.217000", "132722.220000", "132722.222000", "132722.225000", "132722.227000", "132722.230000", "132722.232000", "132722.235000", "132722.237000", "132722.240000", "132722.242000", "132722.245000", "132722.247000", "132722.250000", "132722.252000", "132722.255000", "132722.257000", "132722.260000", "132722.262000", "132722.265000", "132722.267000", "132722.270000", "132722.272000", "132722.275000", "132722.277000", "132722.280000", "132722.282000", "132802.213000", "132802.215000", "132802.218000", "132802.220000", "132802.223000", "132802.225000", "132802.228000", "132802.230000", "132802.233000", "132802.235000", "132802.238000", "132802.240000", "132802.242000", "132802.254000", "132802.256000", "132802.259000", "132802.261000", "132802.264000", "132802.266000", "132802.269000", "132802.271000", "132802.274000", "132802.276000", "132802.278000", "132802.281000", "132802.283000", "132802.286000", "132820.043000", "132820.046000", "132820.049000", "132820.051000", "132820.054000", "132820.056000", "132820.059000", "132820.061000", "132820.064000", "132820.066000", "132820.069000", "132820.071000"],
      "InstanceCreationTime": ["132502.286000", "132502.288000", "132502.291000", "132502.293000", "132502.296000", "132502.298000", "132502.301000", "132502.303000", "132502.306000", "132502.317000", "132502.320000", "132502.322000", "132502.325000", "132502.327000", "132502.329000", "132502.332000", "132502.334000", "132502.337000", "132502.339000", "132502.342000", "132502.344000", "132502.347000", "132502.349000", "132502.352000", "132502.354000", "132502.357000", "132502.359000", "132502.362000", "132502.364000", "132502.366000", "132502.369000", "132502.371000", "132502.374000", "132522.186000", "132522.188000", "132522.191000", "132522.193000", "132522.196000", "132522.198000", "132522.201000", "132522.203000", "132522.206000", "132522.208000", "132522.210000", "132522.213000", "132522.215000", "132522.218000", "132522.220000", "132522.223000", "132522.225000", "132522.228000", "132522.230000", "132522.233000", "132542.184000", "132542.187000", "132542.189000", "132542.192000", "132542.194000", "132542.197000", "132542.199000", "132542.202000", "132542.204000", "132542.207000", "132542.209000", "132542.211000", "132542.214000", "132542.216000", "132542.219000", "132542.221000", "132542.224000", "132542.226000", "132542.229000", "132542.231000", "132602.190000", "132602.193000", "132602.195000", "132602.198000", "132602.200000", "132602.203000", "132602.205000", "132602.208000", "132602.210000", "132602.213000", "132602.215000", "132602.218000", "132602.220000", "132602.223000", "132602.226000", "132602.228000", "132602.231000", "132602.233000", "132602.236000", "132602.238000", "132602.241000", "132642.255000", "132642.258000", "132642.261000", "132642.263000", "132642.265000", "132642.268000", "132642.270000", "132642.273000", "132642.275000", "132642.278000", "132642.280000", "132642.283000", "132642.285000", "132642.288000", "132642.290000", "132642.293000", "132642.295000", "132642.298000", "132642.300000", "132642.302000", "132642.305000", "132642.307000", "132642.310000", "132642.312000", "132642.315000", "132642.317000", "132642.320000", "132642.322000", "132642.325000", "132642.327000", "132722.217000", "132722.220000", "132722.222000", "132722.225000", "132722.227000", "132722.230000", "132722.232000", "132722.235000", "132722.237000", "132722.240000", "132722.242000", "132722.245000", "132722.247000", "132722.250000", "132722.252000", "132722.255000", "132722.257000", "132722.260000", "132722.262000", "132722.265000", "132722.267000", "132722.270000", "132722.272000", "132722.275000", "132722.277000", "132722.280000", "132722.282000", "132802.213000", "132802.215000", "132802.218000", "132802.220000", "132802.223000", "132802.225000", "132802.228000", "132802.230000", "132802.233000", "132802.235000", "132802.238000", "132802.240000", "132802.242000", "132802.254000", "132802.256000", "132802.259000", "132802.261000", "132802.264000", "132802.266000", "132802.269000", "132802.271000", "132802.274000", "132802.276000", "132802.278000", "132802.281000", "132802.283000", "132802.286000", "132820.043000", "132820.046000", "132820.049000", "132820.051000", "132820.054000", "132820.056000", "132820.059000", "132820.061000", "132820.064000", "132820.066000", "132820.069000", "132820.071000"],
      "InstanceNumber": [1, 2, 3, 4, 5, 6, 7, 8, 9, 10, 11, 12, 13, 14, 15, 16, 17, 18, 19, 20, 21, 22, 23, 24, 25, 26, 27, 28, 29, 30, 31, 32, 33, 34, 35, 36, 37, 38, 39, 40, 41, 42, 43, 44, 45, 46, 47, 48, 49, 50, 51, 52, 53, 54, 55, 56, 57, 58, 59, 60, 61, 62, 63, 64, 65, 66, 67, 68, 69, 70, 71, 72, 73, 74, 75, 76, 77, 78, 79, 80, 81, 82, 83, 84, 85, 86, 87, 88, 89, 90, 91, 92, 93, 94, 95, 96, 97, 98, 99, 100, 101, 102, 103, 104, 105, 106, 107, 108, 109, 110, 111, 112, 113, 114, 115, 116, 117, 118, 119, 120, 121, 122, 123, 124, 125, 126, 127, 128, 129, 130, 131, 132, 133, 134, 135, 136, 137, 138, 139, 140, 141, 142, 143, 144, 145, 146, 147, 148, 149, 150, 151, 152, 153, 154, 155, 156, 157, 158, 159, 160, 161, 162, 163, 164, 165, 166, 167, 168, 169, 170, 171, 172, 173, 174, 175, 176, 177, 178, 179, 180, 181, 182, 183, 184, 185, 186, 187, 188, 189, 190],
      "WindowCenter": [4864.0, 4862.0, 4864.0, 4862.0, 4866.0, 4864.0, 4860.0, 4864.0, 4862.0, 4862.0, 4860.0, 4862.0, 4864.0, 4866.0, 4866.0, 4862.0, 4862.0, 4862.0, 4866.0, 4858.0, 4862.0, 4864.0, 4866.0, 4864.0, 4864.0, 4862.0, 4864.0, 4860.0, 4860.0, 4866.0, 4862.0, 4860.0, 4864.0, 4862.0, 4862.0, 4864.0, 4864.0, 4858.0, 4860.0, 4862.0, 4864.0, 4864.0, 4860.0, 4866.0, 4860.0, 4864.0, 4860.0, 4864.0, 4864.0, 4862.0, 4860.0, 4864.0, 4860.0, 4862.0, 4860.0, 4858.0, 4860.0, 4862.0, 4862.0, 4862.0, 4864.0, 4862.0, 4862.0, 4862.0, 4862.0, 4862.0, 4860.0, 4860.0, 4860.0, 4862.0, 4864.0, 4862.0, 4862.0, 4860.0, 4860.0, 4858.0, 4864.0, 4862.0, 4862.0, 4860.0, 4860.0, 4862.0, 4862.0, 4860.0, 4862.0, 4858.0, 4860.0, 4864.0, 4862.0, 4860.0, 4864.0, 4860.0, 4862.0, 4860.0, 4860.0, 4864.0, 4856.0, 4862.0, 4856.0, 4860.0, 4862.0, 4862.0, 4862.0, 4864.0, 4860.0, 4862.0, 4858.0, 4860.0, 4860.0, 4858.0, 4858.0, 4864.0, 4858.0, 4860.0, 4860.0, 4860.0, 4866.0, 4864.0, 4862.0, 4860.0, 4864.0, 4856.0, 4858.0, 4834.0, 4858.0, 4860.0, 4860.0, 4858.0, 4862.0, 4858.0, 4864.0, 4858.0, 4860.0, 4860.0, 4862.0, 4862.0, 4860.0, 4860.0, 4860.0, 4862.0, 4862.0, 4862.0, 4860.0, 4858.0, 4836.0, 4858.0, 4860.0, 4866.0, 4860.0, 4862.0, 4858.0, 4860.0, 4856.0, 4860.0, 4862.0, 4864.0, 4862.0, 4860.0, 4858.0, 4860.0, 4862.0, 4860.0, 4862.0, 4860.0, 4860.0, 4832.0, 4862.0, 4856.0, 4862.0, 4860.0, 4858.0, 4834.0, 4858.0, 4856.0, 4860.0, 4860.0, 4862.0, 4860.0, 4862.0, 4858.0, 4860.0, 4858.0, 4836.0, 4858.0, 4862.0, 4860.0, 4856.0, 4862.0, 4860.0, 4860.0],
      "WindowWidth": [18684.0, 18688.0, 18686.0, 18686.0, 18684.0, 18692.0, 18684.0, 18688.0, 18684.0, 18690.0, 18684.0, 18684.0, 18688.0, 18688.0, 18686.0, 18682.0, 18686.0, 18688.0, 18688.0, 18682.0, 18692.0, 18688.0, 18690.0, 18686.0, 18686.0, 18686.0, 18690.0, 18692.0, 18684.0, 18692.0, 18684.0, 18686.0, 18688.0, 18688.0, 18688.0, 18684.0, 18688.0, 18688.0, 18684.0, 18684.0, 18686.0, 18694.0, 18684.0, 18692.0, 18688.0, 18688.0, 18688.0, 18694.0, 18692.0, 18688.0, 18682.0, 18690.0, 18688.0, 18686.0, 18692.0, 18688.0, 18688.0, 18688.0, 18684.0, 18690.0, 18694.0, 18690.0, 18688.0, 18684.0, 18688.0, 18690.0, 18686.0, 18688.0, 18692.0, 18686.0, 18690.0, 18692.0, 18690.0, 18688.0, 18686.0, 18684.0, 18692.0, 18690.0, 18684.0, 18688.0, 18686.0, 18688.0, 18690.0, 18688.0, 18684.0, 18686.0, 18684.0, 18692.0, 18692.0, 18688.0, 18692.0, 18688.0, 18686.0, 18690.0, 18688.0, 18690.0, 18686.0, 18686.0, 18692.0, 18682.0, 18692.0, 18688.0, 18688.0, 18694.0, 18692.0, 18690.0, 18688.0, 18684.0, 18686.0, 18686.0, 18684.0, 18692.0, 18690.0, 18688.0, 18688.0, 18684.0, 18690.0, 18686.0, 18688.0, 18688.0, 18688.0, 18690.0, 18686.0, 18658.0, 18688.0, 18688.0, 18684.0, 18692.0, 18688.0, 18684.0, 18688.0, 18688.0, 18682.0, 18688.0, 18692.0, 18694.0, 18690.0, 18690.0, 18686.0, 18688.0, 18688.0, 18688.0, 18686.0, 18688.0, 18658.0, 18688.0, 18688.0, 18690.0, 18692.0, 18690.0, 18688.0, 18686.0, 18686.0, 18688.0, 18684.0, 18690.0, 18690.0, 18694.0, 18688.0, 18692.0, 18688.0, 18692.0, 18688.0, 18686.0, 18690.0, 18654.0, 18692.0, 18684.0, 18686.0, 18688.0, 18688.0, 18654.0, 18688.0, 18686.0, 18690.0, 18690.0, 18686.0, 18690.0, 18684.0, 18690.0, 18692.0, 18684.0, 18650.0, 18688.0, 18692.0, 18686.0, 18684.0, 18692.0, 18694.0, 18686.0]
    },
    "slices": {}
  }
}