{
  "AcquisitionMatrixPE": 104,
  "AcquisitionNumber": 1,
  "AcquisitionTime": "13:55:7.677500",
  "BandwidthPerPixelPhaseEncode": 17.17,
  "BaseResolution": 104,
  "BodyPartExamined": "BRAIN",
  "CoilString": "HC1-7;NC1_2",
  "ConsistencyInfo": "N4_VE11C_LATEST_20160120",
  "ConversionSoftware": "dcm2niix",
  "ConversionSoftwareVersion": "v1.0.20190902",
  "DerivedVendorReportedEchoSpacing": 0.000560011,
  "DeviceSerialNumber": "167006",
  "DwellTime": 2.1e-06,
  "EchoTime": 0.037,
  "EchoTrainLength": 104,
  "EffectiveEchoSpacing": 0.000560011,
  "FlipAngle": 52,
  "ImageComments": "Unaliased_MB4_PE3_LB",
  "ImageOrientationPatientDICOM": [0.999155, 0.0187248, 0.0366019, -0.00959144, 0.971861, -0.235359],
  "ImageType": [
    "ORIGINAL",
    "PRIMARY",
    "M",
    "MB",
    "ND",
    "MOSAIC"
],
  "ImagingFrequency": 123.259,
  "InPlanePhaseEncodingDirectionDICOM": "COL",
  "InstitutionAddress": "Chemin_Queen-Mary_4565_Montreal_District_CA_H3W_1W5",
  "InstitutionName": "IUGM",
  "InstitutionalDepartmentName": "Department",
  "MRAcquisitionType": "2D",
  "MagneticFieldStrength": 3,
  "Manufacturer": "Siemens",
  "ManufacturersModelName": "Prisma_fit",
  "Modality": "MR",
  "MultibandAccelerationFactor": 4,
  "PartialFourier": 1,
  "PatientPosition": "HFS",
  "PercentPhaseFOV": 100,
  "PhaseEncodingDirection": "j",
  "PhaseEncodingSteps": 104,
  "PhaseResolution": 1,
  "PixelBandwidth": 2290,
  "ProcedureStepDescription": "memory_things",
  "ProtocolName": "func_task-things_run-6",
  "PulseSequenceDetails": "%CustomerSeq%_cmrr_mbep2d_bold",
  "ReceiveCoilActiveElements": "HC1-7;NC1,2",
  "ReceiveCoilName": "HeadNeck_64",
  "ReconMatrixPE": 104,
  "RepetitionTime": 1.49,
  "SAR": 0.0481416,
  "ScanOptions": "FS",
  "ScanningSequence": "EP",
  "SequenceName": "epfid2d1_104",
  "SequenceVariant": "SK_SS",
  "SeriesDescription": "func_task-things_run-6",
  "SeriesNumber": 25,
  "ShimSetting": [648, -7213, -8771, 732, 81, 6, 83, 5],
  "SliceThickness": 2,
  "SliceTiming": [0, 0.785, 0.0975, 0.8825, 0.195, 0.98, 0.295, 1.0775, 0.3925, 1.175, 0.49, 1.2725, 0.5875, 1.3725, 0.685, 0, 0.785, 0.0975, 0.8825, 0.195, 0.98, 0.295, 1.0775, 0.3925, 1.175, 0.49, 1.2725, 0.5875, 1.3725, 0.685, 0, 0.785, 0.0975, 0.8825, 0.195, 0.98, 0.295, 1.0775, 0.3925, 1.175, 0.49, 1.2725, 0.5875, 1.3725, 0.685, 0, 0.785, 0.0975, 0.8825, 0.195, 0.98, 0.295, 1.0775, 0.3925, 1.175, 0.49, 1.2725, 0.5875, 1.3725, 0.685],
  "SoftwareVersions": "syngo_MR_E11",
  "SpacingBetweenSlices": 2,
  "StationName": "MRC35049",
  "TaskName": "things",
  "TotalReadoutTime": 0.0576811,
  "TxRefAmp": 233.086,
  "WipMemBlock": "c4570bb1-da8a-4be1-83fa-c1a18de9e7d4||Sequence: R016 ve11c/master r/e634e98; Dec 19 2017 11:00:25 by eja",
  "dcmmeta_affine": [
    [-1.9983090162277222, -0.01918288879096508, 0.07995805889368057, 107.88721466064453],
    [-0.037449631839990616, 1.9437223672866821, -0.4696178138256073, -73.95667266845703],
    [0.07320381700992584, 0.4707179367542267, 1.9424381256103516, -59.23091506958008],
    [0.0, 0.0, 0.0, 1.0]
],
  "dcmmeta_reorient_transform": [
    [0.0, -1.0, 0.0, 103.0],
    [1.0, 0.0, 0.0, 0.0],
    [0.0, 0.0, 1.0, 0.0],
    [0.0, 0.0, 0.0, 1.0]
],
  "dcmmeta_shape": [104, 104, 60, 190],
  "dcmmeta_slice_dim": 2,
  "dcmmeta_version": 0.6,
  "global": {
    "const": {
      "AcquisitionMatrix": [104, 0, 0, 104],
      "AngioFlag": "N",
      "BitsAllocated": 16,
      "BitsStored": 16,
      "BodyPartExamined": "BRAIN",
      "Columns": 832,
      "EchoNumbers": 1,
      "EchoTime": 37.0,
      "EchoTrainLength": 104,
      "FlipAngle": 52.0,
      "HighBit": 15,
      "ImageOrientationPatient": [0.99915448329896, 0.01872481630172, 0.03660190921334, -0.0095914440018, 0.97186118204875, -0.235358974821],
      "ImagePositionPatient": [-826.31326842982, -847.3933368367, 133.94817877169],
      "ImageType": [
        "ORIGINAL",
        "PRIMARY",
        "M",
        "MB",
        "ND",
        "MOSAIC"
],
      "ImagedNucleus": "1H",
      "ImagingFrequency": 123.258916,
      "InPlanePhaseEncodingDirection": "COL",
      "MRAcquisitionType": "2D",
      "MagneticFieldStrength": 3.0,
      "Manufacturer": "SIEMENS",
      "ManufacturerModelName": "Prisma_fit",
      "Modality": "MR",
      "NumberOfAverages": 1.0,
      "NumberOfPhaseEncodingSteps": 104,
      "PercentPhaseFieldOfView": 100.0,
      "PercentSampling": 100.0,
      "PerformedProcedureStepStartTime": "131951.839000",
      "PhotometricInterpretation": "MONOCHROME2",
      "PixelBandwidth": 2290.0,
      "PixelRepresentation": 0,
      "PixelSpacing": [2.0, 2.0],
      "ProtocolName": "func_task-things_run-6",
      "RepetitionTime": 1490.0,
      "Rows": 832,
      "SAR": 0.04814159345807,
      "SamplesPerPixel": 1,
      "ScanOptions": "FS",
      "ScanningSequence": "EP",
      "SequenceName": "epfid2d1_104",
      "SequenceVariant": [
        "SK",
        "SS"
],
      "SeriesDescription": "func_task-things_run-6",
      "SeriesNumber": 25,
      "SeriesTime": "135637.976000",
      "SliceLocation": -35.847280326213,
      "SliceThickness": 2.0,
      "SmallestImagePixelValue": 0,
      "SoftwareVersions": "syngo MR E11",
      "SpacingBetweenSlices": 2.000000013737,
      "SpecificCharacterSet": "ISO_IR 100",
      "StudyID": "1",
      "StudyTime": "131951.754000",
      "TransmitCoilName": "Body",
      "VariableFlipAngleFlag": "N",
      "WindowCenterWidthExplanation": "Algo1",
      "dBdt": 0.0},
    "slices": {}
  },
  "time": {
    "samples": {
      "AcquisitionNumber": [1, 2, 3, 4, 5, 6, 7, 8, 9, 10, 11, 12, 13, 14, 15, 16, 17, 18, 19, 20, 21, 22, 23, 24, 25, 26, 27, 28, 29, 30, 31, 32, 33, 34, 35, 36, 37, 38, 39, 40, 41, 42, 43, 44, 45, 46, 47, 48, 49, 50, 51, 52, 53, 54, 55, 56, 57, 58, 59, 60, 61, 62, 63, 64, 65, 66, 67, 68, 69, 70, 71, 72, 73, 74, 75, 76, 77, 78, 79, 80, 81, 82, 83, 84, 85, 86, 87, 88, 89, 90, 91, 92, 93, 94, 95, 96, 97, 98, 99, 100, 101, 102, 103, 104, 105, 106, 107, 108, 109, 110, 111, 112, 113, 114, 115, 116, 117, 118, 119, 120, 121, 122, 123, 124, 125, 126, 127, 128, 129, 130, 131, 132, 133, 134, 135, 136, 137, 138, 139, 140, 141, 142, 143, 144, 145, 146, 147, 148, 149, 150, 151, 152, 153, 154, 155, 156, 157, 158, 159, 160, 161, 162, 163, 164, 165, 166, 167, 168, 169, 170, 171, 172, 173, 174, 175, 176, 177, 178, 179, 180, 181, 182, 183, 184, 185, 186, 187, 188, 189, 190],
      "AcquisitionTime": ["135507.677500", "135509.167500", "135510.657500", "135512.147500", "135513.637500", "135515.127500", "135516.617500", "135518.107500", "135519.597500", "135521.087500", "135522.577500", "135524.067500", "135525.557500", "135527.047500", "135528.537500", "135530.027500", "135531.517500", "135533.007500", "135534.497500", "135535.987500", "135537.477500", "135538.967500", "135540.457500", "135541.947500", "135543.437500", "135544.927500", "135546.417500", "135547.907500", "135549.397500", "135550.887500", "135552.377500", "135553.867500", "135555.357500", "135556.847500", "135558.337500", "135559.827500", "135601.317500", "135602.807500", "135604.297500", "135605.787500", "135607.277500", "135608.767500", "135610.257500", "135611.747500", "135613.237500", "135614.727500", "135616.217500", "135617.707500", "135619.197500", "135620.687500", "135622.177500", "135623.667500", "135625.157500", "135626.647500", "135628.137500", "135629.627500", "135631.117500", "135632.607500", "135634.097500", "135635.587500", "135637.077500", "135638.567500", "135640.057500", "135641.547500", "135643.037500", "135644.527500", "135646.017500", "135647.507500", "135648.997500", "135650.487500", "135651.977500", "135653.467500", "135654.957500", "135656.447500", "135657.937500", "135659.427500", "135700.917500", "135702.407500", "135703.897500", "135705.387500", "135706.877500", "135708.367500", "135709.857500", "135711.347500", "135712.837500", "135714.327500", "135715.817500", "135717.307500", "135718.797500", "135720.287500", "135721.777500", "135723.267500", "135724.757500", "135726.247500", "135727.737500", "135729.227500", "135730.717500", "135732.207500", "135733.697500", "135735.187500", "135736.677500", "135738.167500", "135739.657500", "135741.147500", "135742.637500", "135744.127500", "135745.617500", "135747.107500", "135748.597500", "135750.087500", "135751.577500", "135753.067500", "135754.557500", "135756.047500", "135757.537500", "135759.027500", "135800.517500", "135802.007500", "135803.497500", "135804.987500", "135806.477500", "135807.967500", "135809.457500", "135810.947500", "135812.437500", "135813.927500", "135815.417500", "135816.907500", "135818.397500", "135819.887500", "135821.377500", "135822.867500", "135824.357500", "135825.847500", "135827.337500", "135828.827500", "135830.317500", "135831.807500", "135833.297500", "135834.787500", "135836.277500", "135837.767500", "135839.257500", "135840.747500", "135842.237500", "135843.727500", "135845.217500", "135846.707500", "135848.197500", "135849.687500", "135851.177500", "135852.667500", "135854.157500", "135855.647500", "135857.137500", "135858.627500", "135900.117500", "135901.607500", "135903.097500", "135904.587500", "135906.077500", "135907.567500", "135909.057500", "135910.547500", "135912.037500", "135913.527500", "135915.017500", "135916.507500", "135917.997500", "135919.487500", "135920.977500", "135922.467500", "135923.957500", "135925.447500", "135926.937500", "135928.427500", "135929.917500", "135931.407500", "135932.897500", "135934.387500", "135935.877500", "135937.367500", "135938.857500", "135940.347500", "135941.837500", "135943.327500", "135944.817500", "135946.307500", "135947.797500", "135949.287500"],
      "ContentTime": ["135637.979000", "135637.983000", "135637.986000", "135637.989000", "135637.992000", "135637.996000", "135638.007000", "135638.010000", "135638.014000", "135638.018000", "135638.022000", "135638.025000", "135638.029000", "135638.032000", "135638.036000", "135638.039000", "135638.042000", "135638.046000", "135638.049000", "135638.052000", "135638.056000", "135638.059000", "135638.062000", "135638.065000", "135638.069000", "135638.072000", "135638.075000", "135638.078000", "135638.082000", "135638.085000", "135638.088000", "135638.091000", "135638.094000", "135638.098000", "135638.101000", "135657.911000", "135657.915000", "135657.918000", "135657.921000", "135657.924000", "135657.928000", "135657.931000", "135657.934000", "135657.937000", "135657.941000", "135657.944000", "135657.947000", "135657.950000", "135657.954000", "135657.957000", "135657.960000", "135657.963000", "135657.967000", "135657.970000", "135657.973000", "135657.977000", "135717.911000", "135717.915000", "135717.918000", "135717.921000", "135717.924000", "135717.928000", "135717.931000", "135717.934000", "135717.937000", "135717.941000", "135717.944000", "135717.947000", "135717.950000", "135717.954000", "135717.957000", "135717.960000", "135717.963000", "135717.967000", "135717.970000", "135717.973000", "135737.911000", "135737.915000", "135737.918000", "135737.921000", "135737.924000", "135737.928000", "135737.931000", "135737.934000", "135737.937000", "135737.941000", "135737.944000", "135737.947000", "135737.950000", "135737.954000", "135737.957000", "135737.960000", "135737.963000", "135737.967000", "135737.970000", "135737.973000", "135817.910000", "135817.914000", "135817.917000", "135817.921000", "135817.924000", "135817.927000", "135817.930000", "135817.934000", "135817.937000", "135817.940000", "135817.944000", "135817.956000", "135817.960000", "135817.963000", "135817.966000", "135817.969000", "135817.973000", "135817.976000", "135817.979000", "135817.983000", "135817.986000", "135817.989000", "135817.992000", "135817.996000", "135818.000000", "135818.003000", "135818.007000", "135818.010000", "135818.013000", "135818.016000", "135818.020000", "135857.911000", "135857.915000", "135857.918000", "135857.921000", "135857.925000", "135857.928000", "135857.931000", "135857.935000", "135857.938000", "135857.941000", "135857.944000", "135857.948000", "135857.951000", "135857.954000", "135857.958000", "135857.961000", "135857.964000", "135857.967000", "135857.971000", "135857.974000", "135857.977000", "135857.980000", "135857.984000", "135857.987000", "135857.990000", "135857.993000", "135937.911000", "135937.915000", "135937.918000", "135937.922000", "135937.925000", "135937.928000", "135937.932000", "135937.935000", "135937.938000", "135937.941000", "135937.945000", "135937.948000", "135937.951000", "135937.954000", "135937.958000", "135937.961000", "135937.964000", "135937.967000", "135937.971000", "135937.974000", "135937.977000", "135937.980000", "135937.984000", "135937.987000", "135937.990000", "135937.993000", "135937.997000", "135951.699000", "135951.703000", "135951.706000", "135951.709000", "135951.713000", "135951.716000", "135951.719000", "135951.722000", "135951.726000", "135951.729000"],
      "InstanceCreationTime": ["135637.979000", "135637.983000", "135637.986000", "135637.989000", "135637.992000", "135637.996000", "135638.007000", "135638.010000", "135638.014000", "135638.018000", "135638.022000", "135638.025000", "135638.029000", "135638.032000", "135638.036000", "135638.039000", "135638.042000", "135638.046000", "135638.049000", "135638.052000", "135638.056000", "135638.059000", "135638.062000", "135638.065000", "135638.069000", "135638.072000", "135638.075000", "135638.078000", "135638.082000", "135638.085000", "135638.088000", "135638.091000", "135638.094000", "135638.098000", "135638.101000", "135657.911000", "135657.915000", "135657.918000", "135657.921000", "135657.924000", "135657.928000", "135657.931000", "135657.934000", "135657.937000", "135657.941000", "135657.944000", "135657.947000", "135657.950000", "135657.954000", "135657.957000", "135657.960000", "135657.963000", "135657.967000", "135657.970000", "135657.973000", "135657.977000", "135717.911000", "135717.915000", "135717.918000", "135717.921000", "135717.924000", "135717.928000", "135717.931000", "135717.934000", "135717.937000", "135717.941000", "135717.944000", "135717.947000", "135717.950000", "135717.954000", "135717.957000", "135717.960000", "135717.963000", "135717.967000", "135717.970000", "135717.973000", "135737.911000", "135737.915000", "135737.918000", "135737.921000", "135737.924000", "135737.928000", "135737.931000", "135737.934000", "135737.937000", "135737.941000", "135737.944000", "135737.947000", "135737.950000", "135737.954000", "135737.957000", "135737.960000", "135737.963000", "135737.967000", "135737.970000", "135737.973000", "135817.910000", "135817.914000", "135817.917000", "135817.921000", "135817.924000", "135817.927000", "135817.930000", "135817.934000", "135817.937000", "135817.940000", "135817.944000", "135817.956000", "135817.960000", "135817.963000", "135817.966000", "135817.969000", "135817.973000", "135817.976000", "135817.979000", "135817.983000", "135817.986000", "135817.989000", "135817.992000", "135817.996000", "135818.000000", "135818.003000", "135818.007000", "135818.010000", "135818.013000", "135818.016000", "135818.020000", "135857.911000", "135857.915000", "135857.918000", "135857.921000", "135857.925000", "135857.928000", "135857.931000", "135857.935000", "135857.938000", "135857.941000", "135857.944000", "135857.948000", "135857.951000", "135857.954000", "135857.958000", "135857.961000", "135857.964000", "135857.967000", "135857.971000", "135857.974000", "135857.977000", "135857.980000", "135857.984000", "135857.987000", "135857.990000", "135857.993000", "135937.911000", "135937.915000", "135937.918000", "135937.922000", "135937.925000", "135937.928000", "135937.932000", "135937.935000", "135937.938000", "135937.941000", "135937.945000", "135937.948000", "135937.951000", "135937.954000", "135937.958000", "135937.961000", "135937.964000", "135937.967000", "135937.971000", "135937.974000", "135937.977000", "135937.980000", "135937.984000", "135937.987000", "135937.990000", "135937.993000", "135937.997000", "135951.699000", "135951.703000", "135951.706000", "135951.709000", "135951.713000", "135951.716000", "135951.719000", "135951.722000", "135951.726000", "135951.729000"],
      "InstanceNumber": [1, 2, 3, 4, 5, 6, 7, 8, 9, 10, 11, 12, 13, 14, 15, 16, 17, 18, 19, 20, 21, 22, 23, 24, 25, 26, 27, 28, 29, 30, 31, 32, 33, 34, 35, 36, 37, 38, 39, 40, 41, 42, 43, 44, 45, 46, 47, 48, 49, 50, 51, 52, 53, 54, 55, 56, 57, 58, 59, 60, 61, 62, 63, 64, 65, 66, 67, 68, 69, 70, 71, 72, 73, 74, 75, 76, 77, 78, 79, 80, 81, 82, 83, 84, 85, 86, 87, 88, 89, 90, 91, 92, 93, 94, 95, 96, 97, 98, 99, 100, 101, 102, 103, 104, 105, 106, 107, 108, 109, 110, 111, 112, 113, 114, 115, 116, 117, 118, 119, 120, 121, 122, 123, 124, 125, 126, 127, 128, 129, 130, 131, 132, 133, 134, 135, 136, 137, 138, 139, 140, 141, 142, 143, 144, 145, 146, 147, 148, 149, 150, 151, 152, 153, 154, 155, 156, 157, 158, 159, 160, 161, 162, 163, 164, 165, 166, 167, 168, 169, 170, 171, 172, 173, 174, 175, 176, 177, 178, 179, 180, 181, 182, 183, 184, 185, 186, 187, 188, 189, 190],
      "LargestImagePixelValue": [42496, 41831, 41237, 40934, 40488, 40735, 40653, 40706, 40105, 40511, 40490, 40337, 39797, 39919, 40067, 40002, 40554, 40326, 40348, 40639, 40225, 40144, 40317, 40114, 40554, 40156, 40584, 40194, 40011, 39989, 40555, 40089, 40390, 40175, 39911, 40366, 40504, 40293, 40024, 40139, 39996, 40561, 40269, 40353, 39946, 40520, 40223, 40172, 40756, 39856, 40158, 40150, 40223, 40279, 40068, 40253, 40165, 40015, 40315, 39709, 40049, 40040, 40624, 39955, 40625, 40279, 40305, 39927, 40563, 40254, 40123, 39962, 40133, 40381, 40202, 40299, 40377, 40259, 40103, 39973, 40244, 40225, 39872, 40070, 39735, 40042, 39946, 39818, 40263, 40082, 39942, 40459, 39469, 40132, 39906, 40024, 40229, 39896, 39806, 39945, 40109, 40236, 39861, 39961, 39981, 39448, 40237, 39923, 40503, 39886, 40224, 40052, 40006, 39960, 40202, 39658, 39851, 39966, 40217, 39655, 40060, 39828, 40407, 40058, 40048, 39925, 39615, 39963, 39869, 40050, 39733, 40102, 39622, 39935, 39663, 39877, 39805, 38955, 39628, 40147, 39379, 39918, 39774, 39942, 39995, 39727, 40069, 39423, 39752, 39530, 39939, 39521, 40047, 39833, 39503, 40052, 39772, 39529, 40010, 39979, 39584, 40198, 40288, 39737, 40402, 40481, 39895, 39913, 39918, 40190, 39599, 39829, 39861, 40274, 40074, 40233, 40004, 39899, 40129, 40569, 39588, 40297, 40051, 39812, 40005, 40661, 39601, 39694, 39550, 40580],
      "WindowCenter": [10244.0, 10221.0, 10212.0, 10204.0, 10187.0, 10170.0, 10168.0, 10174.0, 10172.0, 10178.0, 10188.0, 10188.0, 10182.0, 10166.0, 10165.0, 10170.0, 10184.0, 10180.0, 10181.0, 10170.0, 10161.0, 10162.0, 10168.0, 10173.0, 10179.0, 10186.0, 10185.0, 10188.0, 10179.0, 10174.0, 10167.0, 10154.0, 10160.0, 10178.0, 10174.0, 10170.0, 10160.0, 10151.0, 10146.0, 10152.0, 10153.0, 10165.0, 10162.0, 10166.0, 10161.0, 10152.0, 10151.0, 10157.0, 10166.0, 10163.0, 10154.0, 10151.0, 10150.0, 10150.0, 10151.0, 10160.0, 10162.0, 10154.0, 10154.0, 10155.0, 10159.0, 10168.0, 10169.0, 10165.0, 10159.0, 10154.0, 10159.0, 10161.0, 10172.0, 10168.0, 10155.0, 10159.0, 10149.0, 10159.0, 10160.0, 10169.0, 10173.0, 10170.0, 10164.0, 10162.0, 10177.0, 10175.0, 10164.0, 10155.0, 10156.0, 10170.0, 10174.0, 10168.0, 10163.0, 10147.0, 10139.0, 10142.0, 10146.0, 10153.0, 10163.0, 10170.0, 10173.0, 10172.0, 10166.0, 10162.0, 10156.0, 10169.0, 10163.0, 10158.0, 10164.0, 10166.0, 10169.0, 10163.0, 10167.0, 10168.0, 10163.0, 10157.0, 10152.0, 10144.0, 10143.0, 10155.0, 10161.0, 10157.0, 10152.0, 10155.0, 10168.0, 10173.0, 10173.0, 10171.0, 10165.0, 10171.0, 10173.0, 10171.0, 10172.0, 10164.0, 10165.0, 10158.0, 10164.0, 10170.0, 10168.0, 10174.0, 10180.0, 10170.0, 10160.0, 10155.0, 10149.0, 10154.0, 10156.0, 10164.0, 10162.0, 10157.0, 10162.0, 10173.0, 10160.0, 10144.0, 10130.0, 10123.0, 10134.0, 10146.0, 10156.0, 10164.0, 10158.0, 10164.0, 10171.0, 10164.0, 10155.0, 10177.0, 10199.0, 10193.0, 10174.0, 10153.0, 10128.0, 10120.0, 10127.0, 10134.0, 10138.0, 10146.0, 10155.0, 10161.0, 10156.0, 10160.0, 10158.0, 10153.0, 10156.0, 10169.0, 10172.0, 10171.0, 10173.0, 10172.0, 10167.0, 10167.0, 10172.0, 10191.0, 10194.0, 10173.0],
      "WindowWidth": [21828.0, 21752.0, 21721.0, 21696.0, 21652.0, 21612.0, 21606.0, 21617.0, 21616.0, 21629.0, 21653.0, 21653.0, 21640.0, 21604.0, 21603.0, 21610.0, 21639.0, 21635.0, 21637.0, 21610.0, 21590.0, 21594.0, 21605.0, 21620.0, 21634.0, 21647.0, 21642.0, 21650.0, 21631.0, 21620.0, 21601.0, 21572.0, 21587.0, 21627.0, 21620.0, 21609.0, 21582.0, 21564.0, 21557.0, 21568.0, 21571.0, 21595.0, 21594.0, 21600.0, 21589.0, 21567.0, 21564.0, 21574.0, 21599.0, 21594.0, 21574.0, 21564.0, 21561.0, 21562.0, 21566.0, 21586.0, 21593.0, 21574.0, 21575.0, 21578.0, 21583.0, 21602.0, 21608.0, 21599.0, 21582.0, 21572.0, 21582.0, 21589.0, 21608.0, 21605.0, 21577.0, 21582.0, 21562.0, 21580.0, 21586.0, 21607.0, 21617.0, 21610.0, 21594.0, 21592.0, 21623.0, 21619.0, 21595.0, 21575.0, 21579.0, 21606.0, 21620.0, 21607.0, 21593.0, 21554.0, 21537.0, 21544.0, 21557.0, 21572.0, 21595.0, 21613.0, 21620.0, 21615.0, 21603.0, 21589.0, 21579.0, 21606.0, 21595.0, 21586.0, 21597.0, 21603.0, 21606.0, 21594.0, 21600.0, 21603.0, 21595.0, 21581.0, 21568.0, 21550.0, 21545.0, 21575.0, 21589.0, 21579.0, 21567.0, 21575.0, 21603.0, 21617.0, 21616.0, 21611.0, 21597.0, 21612.0, 21617.0, 21609.0, 21611.0, 21594.0, 21599.0, 21584.0, 21596.0, 21609.0, 21608.0, 21621.0, 21633.0, 21615.0, 21588.0, 21574.0, 21561.0, 21571.0, 21579.0, 21595.0, 21590.0, 21580.0, 21589.0, 21616.0, 21586.0, 21550.0, 21514.0, 21500.0, 21525.0, 21553.0, 21580.0, 21597.0, 21584.0, 21597.0, 21611.0, 21598.0, 21576.0, 21626.0, 21676.0, 21662.0, 21615.0, 21565.0, 21509.0, 21493.0, 21507.0, 21524.0, 21537.0, 21555.0, 21575.0, 21587.0, 21578.0, 21585.0, 21583.0, 21568.0, 21580.0, 21607.0, 21615.0, 21610.0, 21615.0, 21613.0, 21604.0, 21599.0, 21614.0, 21658.0, 21665.0, 21611.0]
    },
    "slices": {}
  }
}