{
  "AcquisitionMatrixPE": 104,
  "AcquisitionNumber": 1,
  "AcquisitionTime": "13:55:7.677500",
  "BandwidthPerPixelPhaseEncode": 17.17,
  "BaseResolution": 104,
  "BodyPartExamined": "BRAIN",
  "CoilString": "HC1-7;NC1_2",
  "ConsistencyInfo": "N4_VE11C_LATEST_20160120",
  "ConversionSoftware": "dcm2niix",
  "ConversionSoftwareVersion": "v1.0.20190902",
  "DerivedVendorReportedEchoSpacing": 0.000560011,
  "DeviceSerialNumber": "167006",
  "DwellTime": 2.1e-06,
  "EchoTime": 0.037,
  "EchoTrainLength": 104,
  "EffectiveEchoSpacing": 0.000560011,
  "FlipAngle": 52,
  "ImageComments": "Unaliased_MB4_PE3_LB",
  "ImageOrientationPatientDICOM": [0.999155, 0.0187248, 0.0366019, -0.00959144, 0.971861, -0.235359],
  "ImageType": [
    "ORIGINAL",
    "PRIMARY",
    "P",
    "MB",
    "ND",
    "MOSAIC"
],
  "ImagingFrequency": 123.259,
  "InPlanePhaseEncodingDirectionDICOM": "COL",
  "InstitutionAddress": "Chemin_Queen-Mary_4565_Montreal_District_CA_H3W_1W5",
  "InstitutionName": "IUGM",
  "InstitutionalDepartmentName": "Department",
  "MRAcquisitionType": "2D",
  "MagneticFieldStrength": 3,
  "Manufacturer": "Siemens",
  "ManufacturersModelName": "Prisma_fit",
  "Modality": "MR",
  "MultibandAccelerationFactor": 4,
  "PartialFourier": 1,
  "PatientPosition": "HFS",
  "PercentPhaseFOV": 100,
  "PhaseEncodingDirection": "j",
  "PhaseEncodingSteps": 104,
  "PhaseResolution": 1,
  "PixelBandwidth": 2290,
  "ProcedureStepDescription": "memory_things",
  "ProtocolName": "func_task-things_run-6",
  "PulseSequenceDetails": "%CustomerSeq%_cmrr_mbep2d_bold",
  "ReceiveCoilActiveElements": "HC1-7;NC1,2",
  "ReceiveCoilName": "HeadNeck_64",
  "ReconMatrixPE": 104,
  "RepetitionTime": 1.49,
  "SAR": 0.0481416,
  "ScanOptions": "FS",
  "ScanningSequence": "EP",
  "SequenceName": "epfid2d1_104",
  "SequenceVariant": "SK_SS",
  "SeriesDescription": "func_task-things_run-6",
  "SeriesNumber": 26,
  "ShimSetting": [648, -7213, -8771, 732, 81, 6, 83, 5],
  "SliceThickness": 2,
  "SliceTiming": [0, 0.785, 0.0975, 0.8825, 0.195, 0.98, 0.295, 1.0775, 0.3925, 1.175, 0.49, 1.2725, 0.5875, 1.3725, 0.685, 0, 0.785, 0.0975, 0.8825, 0.195, 0.98, 0.295, 1.0775, 0.3925, 1.175, 0.49, 1.2725, 0.5875, 1.3725, 0.685, 0, 0.785, 0.0975, 0.8825, 0.195, 0.98, 0.295, 1.0775, 0.3925, 1.175, 0.49, 1.2725, 0.5875, 1.3725, 0.685, 0, 0.785, 0.0975, 0.8825, 0.195, 0.98, 0.295, 1.0775, 0.3925, 1.175, 0.49, 1.2725, 0.5875, 1.3725, 0.685],
  "SoftwareVersions": "syngo_MR_E11",
  "SpacingBetweenSlices": 2,
  "StationName": "MRC35049",
  "TaskName": "things",
  "TotalReadoutTime": 0.0576811,
  "TxRefAmp": 233.086,
  "WipMemBlock": "c4570bb1-da8a-4be1-83fa-c1a18de9e7d4||Sequence: R016 ve11c/master r/e634e98; Dec 19 2017 11:00:25 by eja",
  "dcmmeta_affine": [
    [-1.9983090162277222, -0.01918288879096508, 0.07995805889368057, 107.88721466064453],
    [-0.037449631839990616, 1.9437223672866821, -0.4696178138256073, -73.95667266845703],
    [0.07320381700992584, 0.4707179367542267, 1.9424381256103516, -59.23091506958008],
    [0.0, 0.0, 0.0, 1.0]
],
  "dcmmeta_reorient_transform": [
    [0.0, -1.0, 0.0, 103.0],
    [1.0, 0.0, 0.0, 0.0],
    [0.0, 0.0, 1.0, 0.0],
    [0.0, 0.0, 0.0, 1.0]
],
  "dcmmeta_shape": [104, 104, 60, 190],
  "dcmmeta_slice_dim": 2,
  "dcmmeta_version": 0.6,
  "global": {
    "const": {
      "AcquisitionMatrix": [104, 0, 0, 104],
      "AngioFlag": "N",
      "BitsAllocated": 16,
      "BitsStored": 16,
      "BodyPartExamined": "BRAIN",
      "Columns": 832,
      "EchoNumbers": 1,
      "EchoTime": 37.0,
      "EchoTrainLength": 104,
      "FlipAngle": 52.0,
      "HighBit": 15,
      "ImageOrientationPatient": [0.99915448329896, 0.01872481630172, 0.03660190921334, -0.0095914440018, 0.97186118204875, -0.235358974821],
      "ImagePositionPatient": [-826.31326842982, -847.3933368367, 133.94817877169],
      "ImageType": [
        "ORIGINAL",
        "PRIMARY",
        "P",
        "MB",
        "ND",
        "MOSAIC"
],
      "ImagedNucleus": "1H",
      "ImagingFrequency": 123.258916,
      "InPlanePhaseEncodingDirection": "COL",
      "LargestImagePixelValue": 4095,
      "MRAcquisitionType": "2D",
      "MagneticFieldStrength": 3.0,
      "Manufacturer": "SIEMENS",
      "ManufacturerModelName": "Prisma_fit",
      "Modality": "MR",
      "NumberOfAverages": 1.0,
      "NumberOfPhaseEncodingSteps": 104,
      "PercentPhaseFieldOfView": 100.0,
      "PercentSampling": 100.0,
      "PerformedProcedureStepStartTime": "131951.839000",
      "PhotometricInterpretation": "MONOCHROME2",
      "PixelBandwidth": 2290.0,
      "PixelRepresentation": 0,
      "PixelSpacing": [2.0, 2.0],
      "ProtocolName": "func_task-things_run-6",
      "RepetitionTime": 1490.0,
      "RescaleIntercept": -4096.0,
      "RescaleSlope": 2.0,
      "RescaleType": "US",
      "Rows": 832,
      "SAR": 0.04814159345807,
      "SamplesPerPixel": 1,
      "ScanOptions": "FS",
      "ScanningSequence": "EP",
      "SequenceName": "epfid2d1_104",
      "SequenceVariant": [
        "SK",
        "SS"
],
      "SeriesDescription": "func_task-things_run-6",
      "SeriesNumber": 26,
      "SeriesTime": "135638.152000",
      "SliceLocation": -35.847280326213,
      "SliceThickness": 2.0,
      "SmallestImagePixelValue": 0,
      "SoftwareVersions": "syngo MR E11",
      "SpacingBetweenSlices": 2.000000013737,
      "SpecificCharacterSet": "ISO_IR 100",
      "StudyID": "1",
      "StudyTime": "131951.754000",
      "TransmitCoilName": "Body",
      "VariableFlipAngleFlag": "N",
      "WindowCenterWidthExplanation": "Algo1",
      "dBdt": 0.0},
    "slices": {}
  },
  "time": {
    "samples": {
      "AcquisitionNumber": [1, 2, 3, 4, 5, 6, 7, 8, 9, 10, 11, 12, 13, 14, 15, 16, 17, 18, 19, 20, 21, 22, 23, 24, 25, 26, 27, 28, 29, 30, 31, 32, 33, 34, 35, 36, 37, 38, 39, 40, 41, 42, 43, 44, 45, 46, 47, 48, 49, 50, 51, 52, 53, 54, 55, 56, 57, 58, 59, 60, 61, 62, 63, 64, 65, 66, 67, 68, 69, 70, 71, 72, 73, 74, 75, 76, 77, 78, 79, 80, 81, 82, 83, 84, 85, 86, 87, 88, 89, 90, 91, 92, 93, 94, 95, 96, 97, 98, 99, 100, 101, 102, 103, 104, 105, 106, 107, 108, 109, 110, 111, 112, 113, 114, 115, 116, 117, 118, 119, 120, 121, 122, 123, 124, 125, 126, 127, 128, 129, 130, 131, 132, 133, 134, 135, 136, 137, 138, 139, 140, 141, 142, 143, 144, 145, 146, 147, 148, 149, 150, 151, 152, 153, 154, 155, 156, 157, 158, 159, 160, 161, 162, 163, 164, 165, 166, 167, 168, 169, 170, 171, 172, 173, 174, 175, 176, 177, 178, 179, 180, 181, 182, 183, 184, 185, 186, 187, 188, 189, 190],
      "AcquisitionTime": ["135507.677500", "135509.167500", "135510.657500", "135512.147500", "135513.637500", "135515.127500", "135516.617500", "135518.107500", "135519.597500", "135521.087500", "135522.577500", "135524.067500", "135525.557500", "135527.047500", "135528.537500", "135530.027500", "135531.517500", "135533.007500", "135534.497500", "135535.987500", "135537.477500", "135538.967500", "135540.457500", "135541.947500", "135543.437500", "135544.927500", "135546.417500", "135547.907500", "135549.397500", "135550.887500", "135552.377500", "135553.867500", "135555.357500", "135556.847500", "135558.337500", "135559.827500", "135601.317500", "135602.807500", "135604.297500", "135605.787500", "135607.277500", "135608.767500", "135610.257500", "135611.747500", "135613.237500", "135614.727500", "135616.217500", "135617.707500", "135619.197500", "135620.687500", "135622.177500", "135623.667500", "135625.157500", "135626.647500", "135628.137500", "135629.627500", "135631.117500", "135632.607500", "135634.097500", "135635.587500", "135637.077500", "135638.567500", "135640.057500", "135641.547500", "135643.037500", "135644.527500", "135646.017500", "135647.507500", "135648.997500", "135650.487500", "135651.977500", "135653.467500", "135654.957500", "135656.447500", "135657.937500", "135659.427500", "135700.917500", "135702.407500", "135703.897500", "135705.387500", "135706.877500", "135708.367500", "135709.857500", "135711.347500", "135712.837500", "135714.327500", "135715.817500", "135717.307500", "135718.797500", "135720.287500", "135721.777500", "135723.267500", "135724.757500", "135726.247500", "135727.737500", "135729.227500", "135730.717500", "135732.207500", "135733.697500", "135735.187500", "135736.677500", "135738.167500", "135739.657500", "135741.147500", "135742.637500", "135744.127500", "135745.617500", "135747.107500", "135748.597500", "135750.087500", "135751.577500", "135753.067500", "135754.557500", "135756.047500", "135757.537500", "135759.027500", "135800.517500", "135802.007500", "135803.497500", "135804.987500", "135806.477500", "135807.967500", "135809.457500", "135810.947500", "135812.437500", "135813.927500", "135815.417500", "135816.907500", "135818.397500", "135819.887500", "135821.377500", "135822.867500", "135824.357500", "135825.847500", "135827.337500", "135828.827500", "135830.317500", "135831.807500", "135833.297500", "135834.787500", "135836.277500", "135837.767500", "135839.257500", "135840.747500", "135842.237500", "135843.727500", "135845.217500", "135846.707500", "135848.197500", "135849.687500", "135851.177500", "135852.667500", "135854.157500", "135855.647500", "135857.137500", "135858.627500", "135900.117500", "135901.607500", "135903.097500", "135904.587500", "135906.077500", "135907.567500", "135909.057500", "135910.547500", "135912.037500", "135913.527500", "135915.017500", "135916.507500", "135917.997500", "135919.487500", "135920.977500", "135922.467500", "135923.957500", "135925.447500", "135926.937500", "135928.427500", "135929.917500", "135931.407500", "135932.897500", "135934.387500", "135935.877500", "135937.367500", "135938.857500", "135940.347500", "135941.837500", "135943.327500", "135944.817500", "135946.307500", "135947.797500", "135949.287500"],
      "ContentTime": ["135638.154000", "135638.157000", "135638.159000", "135638.162000", "135638.164000", "135638.167000", "135638.169000", "135638.172000", "135638.174000", "135638.176000", "135638.179000", "135638.181000", "135638.184000", "135638.186000", "135638.189000", "135638.191000", "135638.194000", "135638.202000", "135638.205000", "135638.207000", "135638.210000", "135638.212000", "135638.215000", "135638.217000", "135638.220000", "135638.222000", "135638.225000", "135638.227000", "135638.230000", "135638.232000", "135638.235000", "135638.237000", "135638.239000", "135638.242000", "135638.244000", "135658.037000", "135658.039000", "135658.042000", "135658.044000", "135658.047000", "135658.049000", "135658.052000", "135658.054000", "135658.057000", "135658.059000", "135658.062000", "135658.064000", "135658.067000", "135658.069000", "135658.072000", "135658.074000", "135658.077000", "135658.079000", "135658.082000", "135658.084000", "135658.087000", "135718.028000", "135718.031000", "135718.034000", "135718.036000", "135718.039000", "135718.041000", "135718.044000", "135718.046000", "135718.050000", "135718.052000", "135718.055000", "135718.057000", "135718.060000", "135718.062000", "135718.065000", "135718.067000", "135718.070000", "135718.072000", "135718.075000", "135718.077000", "135738.028000", "135738.030000", "135738.033000", "135738.035000", "135738.038000", "135738.040000", "135738.043000", "135738.045000", "135738.048000", "135738.050000", "135738.053000", "135738.055000", "135738.058000", "135738.060000", "135738.063000", "135738.065000", "135738.067000", "135738.070000", "135738.072000", "135738.075000", "135818.082000", "135818.084000", "135818.087000", "135818.089000", "135818.092000", "135818.094000", "135818.097000", "135818.099000", "135818.102000", "135818.104000", "135818.107000", "135818.109000", "135818.112000", "135818.114000", "135818.116000", "135818.119000", "135818.121000", "135818.124000", "135818.126000", "135818.129000", "135818.132000", "135818.134000", "135818.144000", "135818.146000", "135818.148000", "135818.151000", "135818.153000", "135818.156000", "135818.158000", "135818.161000", "135818.163000", "135858.050000", "135858.052000", "135858.055000", "135858.057000", "135858.060000", "135858.062000", "135858.065000", "135858.067000", "135858.070000", "135858.072000", "135858.075000", "135858.077000", "135858.079000", "135858.082000", "135858.084000", "135858.087000", "135858.089000", "135858.092000", "135858.094000", "135858.097000", "135858.099000", "135858.102000", "135858.104000", "135858.107000", "135858.109000", "135858.112000", "135938.051000", "135938.054000", "135938.057000", "135938.059000", "135938.062000", "135938.064000", "135938.067000", "135938.069000", "135938.072000", "135938.074000", "135938.077000", "135938.079000", "135938.081000", "135938.084000", "135938.086000", "135938.089000", "135938.091000", "135938.094000", "135938.096000", "135938.099000", "135938.101000", "135938.104000", "135938.107000", "135938.110000", "135938.113000", "135938.115000", "135938.118000", "135951.780000", "135951.784000", "135951.787000", "135951.789000", "135951.791000", "135951.794000", "135951.796000", "135951.799000", "135951.801000", "135951.804000"],
      "InstanceCreationTime": ["135638.154000", "135638.157000", "135638.159000", "135638.162000", "135638.164000", "135638.167000", "135638.169000", "135638.172000", "135638.174000", "135638.176000", "135638.179000", "135638.181000", "135638.184000", "135638.186000", "135638.189000", "135638.191000", "135638.194000", "135638.202000", "135638.205000", "135638.207000", "135638.210000", "135638.212000", "135638.215000", "135638.217000", "135638.220000", "135638.222000", "135638.225000", "135638.227000", "135638.230000", "135638.232000", "135638.235000", "135638.237000", "135638.239000", "135638.242000", "135638.244000", "135658.037000", "135658.039000", "135658.042000", "135658.044000", "135658.047000", "135658.049000", "135658.052000", "135658.054000", "135658.057000", "135658.059000", "135658.062000", "135658.064000", "135658.067000", "135658.069000", "135658.072000", "135658.074000", "135658.077000", "135658.079000", "135658.082000", "135658.084000", "135658.087000", "135718.028000", "135718.031000", "135718.034000", "135718.036000", "135718.039000", "135718.041000", "135718.044000", "135718.046000", "135718.050000", "135718.052000", "135718.055000", "135718.057000", "135718.060000", "135718.062000", "135718.065000", "135718.067000", "135718.070000", "135718.072000", "135718.075000", "135718.077000", "135738.028000", "135738.030000", "135738.033000", "135738.035000", "135738.038000", "135738.040000", "135738.043000", "135738.045000", "135738.048000", "135738.050000", "135738.053000", "135738.055000", "135738.058000", "135738.060000", "135738.063000", "135738.065000", "135738.067000", "135738.070000", "135738.072000", "135738.075000", "135818.082000", "135818.084000", "135818.087000", "135818.089000", "135818.092000", "135818.094000", "135818.097000", "135818.099000", "135818.102000", "135818.104000", "135818.107000", "135818.109000", "135818.112000", "135818.114000", "135818.116000", "135818.119000", "135818.121000", "135818.124000", "135818.126000", "135818.129000", "135818.132000", "135818.134000", "135818.144000", "135818.146000", "135818.148000", "135818.151000", "135818.153000", "135818.156000", "135818.158000", "135818.161000", "135818.163000", "135858.050000", "135858.052000", "135858.055000", "135858.057000", "135858.060000", "135858.062000", "135858.065000", "135858.067000", "135858.070000", "135858.072000", "135858.075000", "135858.077000", "135858.079000", "135858.082000", "135858.084000", "135858.087000", "135858.089000", "135858.092000", "135858.094000", "135858.097000", "135858.099000", "135858.102000", "135858.104000", "135858.107000", "135858.109000", "135858.112000", "135938.051000", "135938.054000", "135938.057000", "135938.059000", "135938.062000", "135938.064000", "135938.067000", "135938.069000", "135938.072000", "135938.074000", "135938.077000", "135938.079000", "135938.081000", "135938.084000", "135938.086000", "135938.089000", "135938.091000", "135938.094000", "135938.096000", "135938.099000", "135938.101000", "135938.104000", "135938.107000", "135938.110000", "135938.113000", "135938.115000", "135938.118000", "135951.780000", "135951.784000", "135951.787000", "135951.789000", "135951.791000", "135951.794000", "135951.796000", "135951.799000", "135951.801000", "135951.804000"],
      "InstanceNumber": [1, 2, 3, 4, 5, 6, 7, 8, 9, 10, 11, 12, 13, 14, 15, 16, 17, 18, 19, 20, 21, 22, 23, 24, 25, 26, 27, 28, 29, 30, 31, 32, 33, 34, 35, 36, 37, 38, 39, 40, 41, 42, 43, 44, 45, 46, 47, 48, 49, 50, 51, 52, 53, 54, 55, 56, 57, 58, 59, 60, 61, 62, 63, 64, 65, 66, 67, 68, 69, 70, 71, 72, 73, 74, 75, 76, 77, 78, 79, 80, 81, 82, 83, 84, 85, 86, 87, 88, 89, 90, 91, 92, 93, 94, 95, 96, 97, 98, 99, 100, 101, 102, 103, 104, 105, 106, 107, 108, 109, 110, 111, 112, 113, 114, 115, 116, 117, 118, 119, 120, 121, 122, 123, 124, 125, 126, 127, 128, 129, 130, 131, 132, 133, 134, 135, 136, 137, 138, 139, 140, 141, 142, 143, 144, 145, 146, 147, 148, 149, 150, 151, 152, 153, 154, 155, 156, 157, 158, 159, 160, 161, 162, 163, 164, 165, 166, 167, 168, 169, 170, 171, 172, 173, 174, 175, 176, 177, 178, 179, 180, 181, 182, 183, 184, 185, 186, 187, 188, 189, 190],
      "WindowCenter": [4874.0, 4876.0, 4876.0, 4872.0, 4876.0, 4876.0, 4878.0, 4874.0, 4878.0, 4876.0, 4878.0, 4878.0, 4878.0, 4872.0, 4878.0, 4878.0, 4872.0, 4880.0, 4876.0, 4876.0, 4876.0, 4878.0, 4874.0, 4900.0, 4874.0, 4878.0, 4880.0, 4876.0, 4878.0, 4876.0, 4876.0, 4876.0, 4876.0, 4880.0, 4874.0, 4876.0, 4874.0, 4878.0, 4874.0, 4878.0, 4876.0, 4876.0, 4876.0, 4874.0, 4876.0, 4876.0, 4878.0, 4874.0, 4876.0, 4878.0, 4878.0, 4878.0, 4880.0, 4874.0, 4876.0, 4900.0, 4876.0, 4874.0, 4876.0, 4902.0, 4876.0, 4876.0, 4876.0, 4878.0, 4878.0, 4878.0, 4876.0, 4876.0, 4874.0, 4874.0, 4874.0, 4876.0, 4874.0, 4874.0, 4876.0, 4876.0, 4876.0, 4874.0, 4878.0, 4880.0, 4876.0, 4876.0, 4876.0, 4876.0, 4874.0, 4878.0, 4874.0, 4878.0, 4876.0, 4878.0, 4878.0, 4876.0, 4876.0, 4876.0, 4874.0, 4876.0, 4872.0, 4876.0, 4876.0, 4876.0, 4874.0, 4878.0, 4874.0, 4878.0, 4878.0, 4878.0, 4874.0, 4878.0, 4874.0, 4876.0, 4874.0, 4878.0, 4872.0, 4876.0, 4874.0, 4878.0, 4874.0, 4874.0, 4874.0, 4872.0, 4874.0, 4874.0, 4878.0, 4876.0, 4878.0, 4876.0, 4876.0, 4872.0, 4876.0, 4878.0, 4872.0, 4874.0, 4874.0, 4876.0, 4876.0, 4876.0, 4874.0, 4878.0, 4874.0, 4876.0, 4874.0, 4874.0, 4878.0, 4874.0, 4874.0, 4874.0, 4874.0, 4874.0, 4874.0, 4876.0, 4874.0, 4878.0, 4876.0, 4878.0, 4874.0, 4878.0, 4876.0, 4874.0, 4876.0, 4874.0, 4880.0, 4878.0, 4876.0, 4878.0, 4878.0, 4876.0, 4874.0, 4874.0, 4876.0, 4874.0, 4880.0, 4878.0, 4876.0, 4874.0, 4872.0, 4876.0, 4874.0, 4878.0, 4872.0, 4878.0, 4876.0, 4876.0, 4874.0, 4872.0, 4876.0, 4874.0, 4874.0, 4878.0, 4874.0, 4878.0],
      "WindowWidth": [18668.0, 18678.0, 18676.0, 18668.0, 18670.0, 18672.0, 18680.0, 18672.0, 18680.0, 18672.0, 18680.0, 18676.0, 18676.0, 18668.0, 18676.0, 18674.0, 18674.0, 18674.0, 18674.0, 18674.0, 18674.0, 18680.0, 18668.0, 18712.0, 18670.0, 18678.0, 18672.0, 18682.0, 18678.0, 18678.0, 18672.0, 18672.0, 18672.0, 18682.0, 18676.0, 18674.0, 18674.0, 18678.0, 18676.0, 18676.0, 18672.0, 18672.0, 18678.0, 18672.0, 18678.0, 18670.0, 18678.0, 18668.0, 18678.0, 18670.0, 18674.0, 18672.0, 18678.0, 18678.0, 18676.0, 18708.0, 18680.0, 18678.0, 18670.0, 18706.0, 18670.0, 18678.0, 18672.0, 18680.0, 18678.0, 18684.0, 18674.0, 18680.0, 18668.0, 18680.0, 18676.0, 18676.0, 18674.0, 18680.0, 18674.0, 18678.0, 18676.0, 18674.0, 18678.0, 18682.0, 18680.0, 18674.0, 18678.0, 18672.0, 18676.0, 18676.0, 18676.0, 18678.0, 18680.0, 18674.0, 18682.0, 18674.0, 18676.0, 18676.0, 18676.0, 18674.0, 18674.0, 18680.0, 18678.0, 18676.0, 18678.0, 18680.0, 18678.0, 18682.0, 18678.0, 18678.0, 18676.0, 18680.0, 18674.0, 18676.0, 18676.0, 18674.0, 18674.0, 18676.0, 18672.0, 18684.0, 18674.0, 18688.0, 18676.0, 18674.0, 18678.0, 18674.0, 18684.0, 18676.0, 18678.0, 18676.0, 18680.0, 18670.0, 18682.0, 18676.0, 18674.0, 18674.0, 18676.0, 18674.0, 18678.0, 18680.0, 18676.0, 18676.0, 18676.0, 18682.0, 18676.0, 18678.0, 18674.0, 18680.0, 18674.0, 18676.0, 18670.0, 18680.0, 18674.0, 18678.0, 18680.0, 18676.0, 18678.0, 18680.0, 18680.0, 18680.0, 18680.0, 18676.0, 18684.0, 18672.0, 18680.0, 18678.0, 18680.0, 18674.0, 18678.0, 18672.0, 18674.0, 18676.0, 18678.0, 18680.0, 18684.0, 18682.0, 18682.0, 18672.0, 18680.0, 18682.0, 18672.0, 18680.0, 18684.0, 18678.0, 18680.0, 18680.0, 18678.0, 18674.0, 18680.0, 18676.0, 18676.0, 18678.0, 18676.0, 18678.0]
    },
    "slices": {}
  }
}