{
  "AcquisitionMatrixPE": 104,
  "AcquisitionNumber": 1,
  "AcquisitionTime": "13:23:36.330000",
  "BandwidthPerPixelPhaseEncode": 17.17,
  "BaseResolution": 104,
  "BodyPartExamined": "BRAIN",
  "CoilString": "HC1-7;NC1_2",
  "ConsistencyInfo": "N4_VE11C_LATEST_20160120",
  "ConversionSoftware": "dcm2niix",
  "ConversionSoftwareVersion": "v1.0.20190902",
  "DerivedVendorReportedEchoSpacing": 0.000560011,
  "DeviceSerialNumber": "167006",
  "DwellTime": 2.1e-06,
  "EchoTime": 0.037,
  "EchoTrainLength": 104,
  "EffectiveEchoSpacing": 0.000560011,
  "FlipAngle": 52,
  "ImageComments": "Unaliased_MB4_PE3_LB",
  "ImageOrientationPatientDICOM": [0.999155, 0.0187248, 0.0366019, -0.00959144, 0.971861, -0.235359],
  "ImageType": [
    "ORIGINAL",
    "PRIMARY",
    "M",
    "MB",
    "ND",
    "MOSAIC"
],
  "ImagingFrequency": 123.259,
  "InPlanePhaseEncodingDirectionDICOM": "COL",
  "InstitutionAddress": "Chemin_Queen-Mary_4565_Montreal_District_CA_H3W_1W5",
  "InstitutionName": "IUGM",
  "InstitutionalDepartmentName": "Department",
  "MRAcquisitionType": "2D",
  "MagneticFieldStrength": 3,
  "Manufacturer": "Siemens",
  "ManufacturersModelName": "Prisma_fit",
  "Modality": "MR",
  "MultibandAccelerationFactor": 4,
  "PartialFourier": 1,
  "PatientPosition": "HFS",
  "PercentPhaseFOV": 100,
  "PhaseEncodingDirection": "j",
  "PhaseEncodingSteps": 104,
  "PhaseResolution": 1,
  "PixelBandwidth": 2290,
  "ProcedureStepDescription": "memory_things",
  "ProtocolName": "func_task-things_run-1",
  "PulseSequenceDetails": "%CustomerSeq%_cmrr_mbep2d_bold",
  "ReceiveCoilActiveElements": "HC1-7;NC1,2",
  "ReceiveCoilName": "HeadNeck_64",
  "ReconMatrixPE": 104,
  "RepetitionTime": 1.49,
  "SAR": 0.0481416,
  "ScanOptions": "FS",
  "ScanningSequence": "EP",
  "SequenceName": "epfid2d1_104",
  "SequenceVariant": "SK_SS",
  "SeriesDescription": "func_task-things_run-1",
  "SeriesNumber": 10,
  "ShimSetting": [648, -7213, -8771, 732, 81, 6, 83, 5],
  "SliceThickness": 2,
  "SliceTiming": [0, 0.7825, 0.0975, 0.8825, 0.195, 0.98, 0.295, 1.0775, 0.3925, 1.175, 0.49, 1.2725, 0.5875, 1.3725, 0.685, 0, 0.7825, 0.0975, 0.8825, 0.195, 0.98, 0.295, 1.0775, 0.3925, 1.175, 0.49, 1.2725, 0.5875, 1.3725, 0.685, 0, 0.7825, 0.0975, 0.8825, 0.195, 0.98, 0.295, 1.0775, 0.3925, 1.175, 0.49, 1.2725, 0.5875, 1.3725, 0.685, 0, 0.7825, 0.0975, 0.8825, 0.195, 0.98, 0.295, 1.0775, 0.3925, 1.175, 0.49, 1.2725, 0.5875, 1.3725, 0.685],
  "SoftwareVersions": "syngo_MR_E11",
  "SpacingBetweenSlices": 2,
  "StationName": "MRC35049",
  "TaskName": "things",
  "TotalReadoutTime": 0.0576811,
  "TxRefAmp": 233.086,
  "WipMemBlock": "ffe51621-3b49-4725-bed6-5c46646fc84d||Sequence: R016 ve11c/master r/e634e98; Dec 19 2017 11:00:25 by eja",
  "dcmmeta_affine": [
    [-1.9983090162277222, -0.01918288879096508, 0.07995805889368057, 107.88721466064453],
    [-0.037449631839990616, 1.9437223672866821, -0.4696178138256073, -73.95667266845703],
    [0.07320381700992584, 0.4707179367542267, 1.9424381256103516, -59.23091506958008],
    [0.0, 0.0, 0.0, 1.0]
],
  "dcmmeta_reorient_transform": [
    [0.0, -1.0, 0.0, 103.0],
    [1.0, 0.0, 0.0, 0.0],
    [0.0, 0.0, 1.0, 0.0],
    [0.0, 0.0, 0.0, 1.0]
],
  "dcmmeta_shape": [104, 104, 60, 190],
  "dcmmeta_slice_dim": 2,
  "dcmmeta_version": 0.6,
  "global": {
    "const": {
      "AcquisitionMatrix": [104, 0, 0, 104],
      "AngioFlag": "N",
      "BitsAllocated": 16,
      "BitsStored": 16,
      "BodyPartExamined": "BRAIN",
      "Columns": 832,
      "EchoNumbers": 1,
      "EchoTime": 37.0,
      "EchoTrainLength": 104,
      "FlipAngle": 52.0,
      "HighBit": 15,
      "ImageOrientationPatient": [0.99915448329896, 0.01872481630172, 0.03660190921334, -0.0095914440018, 0.97186118204875, -0.235358974821],
      "ImagePositionPatient": [-826.31326842982, -847.3933368367, 133.94817877169],
      "ImageType": [
        "ORIGINAL",
        "PRIMARY",
        "M",
        "MB",
        "ND",
        "MOSAIC"
],
      "ImagedNucleus": "1H",
      "ImagingFrequency": 123.258902,
      "InPlanePhaseEncodingDirection": "COL",
      "MRAcquisitionType": "2D",
      "MagneticFieldStrength": 3.0,
      "Manufacturer": "SIEMENS",
      "ManufacturerModelName": "Prisma_fit",
      "Modality": "MR",
      "NumberOfAverages": 1.0,
      "NumberOfPhaseEncodingSteps": 104,
      "PercentPhaseFieldOfView": 100.0,
      "PercentSampling": 100.0,
      "PerformedProcedureStepStartTime": "131951.839000",
      "PhotometricInterpretation": "MONOCHROME2",
      "PixelBandwidth": 2290.0,
      "PixelRepresentation": 0,
      "PixelSpacing": [2.0, 2.0],
      "ProtocolName": "func_task-things_run-1",
      "RepetitionTime": 1490.0,
      "Rows": 832,
      "SAR": 0.04814159345807,
      "SamplesPerPixel": 1,
      "ScanOptions": "FS",
      "ScanningSequence": "EP",
      "SequenceName": "epfid2d1_104",
      "SequenceVariant": [
        "SK",
        "SS"
],
      "SeriesDescription": "func_task-things_run-1",
      "SeriesNumber": 10,
      "SeriesTime": "132502.119000",
      "SliceLocation": -35.847280326213,
      "SliceThickness": 2.0,
      "SmallestImagePixelValue": 0,
      "SoftwareVersions": "syngo MR E11",
      "SpacingBetweenSlices": 2.000000013737,
      "SpecificCharacterSet": "ISO_IR 100",
      "StudyID": "1",
      "StudyTime": "131951.754000",
      "TransmitCoilName": "Body",
      "VariableFlipAngleFlag": "N",
      "WindowCenterWidthExplanation": "Algo1",
      "dBdt": 0.0},
    "slices": {}
  },
  "time": {
    "samples": {
      "AcquisitionNumber": [1, 2, 3, 4, 5, 6, 7, 8, 9, 10, 11, 12, 13, 14, 15, 16, 17, 18, 19, 20, 21, 22, 23, 24, 25, 26, 27, 28, 29, 30, 31, 32, 33, 34, 35, 36, 37, 38, 39, 40, 41, 42, 43, 44, 45, 46, 47, 48, 49, 50, 51, 52, 53, 54, 55, 56, 57, 58, 59, 60, 61, 62, 63, 64, 65, 66, 67, 68, 69, 70, 71, 72, 73, 74, 75, 76, 77, 78, 79, 80, 81, 82, 83, 84, 85, 86, 87, 88, 89, 90, 91, 92, 93, 94, 95, 96, 97, 98, 99, 100, 101, 102, 103, 104, 105, 106, 107, 108, 109, 110, 111, 112, 113, 114, 115, 116, 117, 118, 119, 120, 121, 122, 123, 124, 125, 126, 127, 128, 129, 130, 131, 132, 133, 134, 135, 136, 137, 138, 139, 140, 141, 142, 143, 144, 145, 146, 147, 148, 149, 150, 151, 152, 153, 154, 155, 156, 157, 158, 159, 160, 161, 162, 163, 164, 165, 166, 167, 168, 169, 170, 171, 172, 173, 174, 175, 176, 177, 178, 179, 180, 181, 182, 183, 184, 185, 186, 187, 188, 189, 190],
      "AcquisitionTime": ["132336.330000", "132337.820000", "132339.310000", "132340.800000", "132342.290000", "132343.780000", "132345.270000", "132346.760000", "132348.250000", "132349.740000", "132351.230000", "132352.720000", "132354.210000", "132355.700000", "132357.190000", "132358.680000", "132400.170000", "132401.660000", "132403.150000", "132404.640000", "132406.130000", "132407.620000", "132409.110000", "132410.600000", "132412.090000", "132413.580000", "132415.070000", "132416.560000", "132418.050000", "132419.540000", "132421.030000", "132422.520000", "132424.010000", "132425.500000", "132426.990000", "132428.480000", "132429.970000", "132431.460000", "132432.950000", "132434.440000", "132435.930000", "132437.420000", "132438.910000", "132440.400000", "132441.890000", "132443.380000", "132444.870000", "132446.360000", "132447.850000", "132449.340000", "132450.830000", "132452.320000", "132453.810000", "132455.300000", "132456.790000", "132458.280000", "132459.770000", "132501.260000", "132502.750000", "132504.240000", "132505.730000", "132507.220000", "132508.710000", "132510.200000", "132511.690000", "132513.180000", "132514.670000", "132516.160000", "132517.650000", "132519.140000", "132520.630000", "132522.120000", "132523.610000", "132525.100000", "132526.590000", "132528.080000", "132529.570000", "132531.060000", "132532.550000", "132534.040000", "132535.530000", "132537.020000", "132538.510000", "132540.000000", "132541.490000", "132542.980000", "132544.470000", "132545.960000", "132547.450000", "132548.940000", "132550.430000", "132551.920000", "132553.410000", "132554.900000", "132556.390000", "132557.880000", "132559.370000", "132600.860000", "132602.350000", "132603.840000", "132605.330000", "132606.820000", "132608.310000", "132609.800000", "132611.290000", "132612.780000", "132614.270000", "132615.760000", "132617.250000", "132618.740000", "132620.230000", "132621.720000", "132623.210000", "132624.700000", "132626.190000", "132627.680000", "132629.170000", "132630.660000", "132632.150000", "132633.640000", "132635.130000", "132636.620000", "132638.110000", "132639.600000", "132641.090000", "132642.580000", "132644.070000", "132645.560000", "132647.050000", "132648.540000", "132650.030000", "132651.520000", "132653.010000", "132654.500000", "132655.990000", "132657.480000", "132658.970000", "132700.460000", "132701.950000", "132703.440000", "132704.930000", "132706.420000", "132707.910000", "132709.400000", "132710.890000", "132712.380000", "132713.870000", "132715.360000", "132716.850000", "132718.340000", "132719.830000", "132721.320000", "132722.810000", "132724.300000", "132725.790000", "132727.280000", "132728.770000", "132730.260000", "132731.750000", "132733.240000", "132734.730000", "132736.220000", "132737.710000", "132739.200000", "132740.690000", "132742.180000", "132743.670000", "132745.160000", "132746.650000", "132748.140000", "132749.630000", "132751.120000", "132752.610000", "132754.100000", "132755.590000", "132757.080000", "132758.570000", "132800.060000", "132801.550000", "132803.040000", "132804.530000", "132806.020000", "132807.510000", "132809.000000", "132810.490000", "132811.980000", "132813.470000", "132814.960000", "132816.450000", "132817.940000"],
      "ContentTime": ["132502.122000", "132502.126000", "132502.129000", "132502.132000", "132502.135000", "132502.139000", "132502.150000", "132502.154000", "132502.157000", "132502.160000", "132502.163000", "132502.167000", "132502.170000", "132502.173000", "132502.176000", "132502.180000", "132502.183000", "132502.186000", "132502.189000", "132502.193000", "132502.196000", "132502.199000", "132502.202000", "132502.206000", "132502.209000", "132502.212000", "132502.215000", "132502.219000", "132502.222000", "132502.225000", "132502.228000", "132502.232000", "132502.235000", "132522.073000", "132522.077000", "132522.080000", "132522.084000", "132522.087000", "132522.090000", "132522.093000", "132522.097000", "132522.100000", "132522.103000", "132522.106000", "132522.109000", "132522.113000", "132522.116000", "132522.119000", "132522.122000", "132522.126000", "132522.129000", "132522.132000", "132522.135000", "132542.072000", "132542.076000", "132542.079000", "132542.082000", "132542.085000", "132542.089000", "132542.092000", "132542.095000", "132542.099000", "132542.102000", "132542.105000", "132542.108000", "132542.111000", "132542.115000", "132542.118000", "132542.121000", "132542.125000", "132542.128000", "132542.131000", "132542.134000", "132602.073000", "132602.077000", "132602.080000", "132602.083000", "132602.086000", "132602.090000", "132602.093000", "132602.096000", "132602.099000", "132602.103000", "132602.106000", "132602.109000", "132602.112000", "132602.115000", "132602.119000", "132602.122000", "132602.125000", "132602.129000", "132602.132000", "132602.135000", "132602.138000", "132642.073000", "132642.077000", "132642.080000", "132642.083000", "132642.086000", "132642.090000", "132642.093000", "132642.096000", "132642.100000", "132642.103000", "132642.106000", "132642.109000", "132642.113000", "132642.116000", "132642.119000", "132642.122000", "132642.126000", "132642.129000", "132642.132000", "132642.135000", "132642.156000", "132642.159000", "132642.162000", "132642.166000", "132642.169000", "132642.172000", "132642.175000", "132642.179000", "132642.182000", "132642.185000", "132722.073000", "132722.077000", "132722.080000", "132722.083000", "132722.087000", "132722.090000", "132722.093000", "132722.097000", "132722.100000", "132722.103000", "132722.106000", "132722.110000", "132722.113000", "132722.116000", "132722.119000", "132722.123000", "132722.126000", "132722.129000", "132722.132000", "132722.136000", "132722.139000", "132722.142000", "132722.145000", "132722.149000", "132722.152000", "132722.155000", "132722.159000", "132802.072000", "132802.076000", "132802.079000", "132802.082000", "132802.086000", "132802.089000", "132802.092000", "132802.095000", "132802.099000", "132802.102000", "132802.105000", "132802.108000", "132802.112000", "132802.115000", "132802.118000", "132802.121000", "132802.125000", "132802.128000", "132802.131000", "132802.134000", "132802.138000", "132802.141000", "132802.144000", "132802.147000", "132802.151000", "132802.154000", "132802.157000", "132819.933000", "132819.937000", "132819.940000", "132819.944000", "132819.947000", "132819.950000", "132819.954000", "132819.957000", "132819.961000", "132819.964000", "132819.968000", "132819.971000"],
      "InstanceCreationTime": ["132502.122000", "132502.126000", "132502.129000", "132502.132000", "132502.135000", "132502.139000", "132502.150000", "132502.154000", "132502.157000", "132502.160000", "132502.163000", "132502.167000", "132502.170000", "132502.173000", "132502.176000", "132502.180000", "132502.183000", "132502.186000", "132502.189000", "132502.193000", "132502.196000", "132502.199000", "132502.202000", "132502.206000", "132502.209000", "132502.212000", "132502.215000", "132502.219000", "132502.222000", "132502.225000", "132502.228000", "132502.232000", "132502.235000", "132522.073000", "132522.077000", "132522.080000", "132522.084000", "132522.087000", "132522.090000", "132522.093000", "132522.097000", "132522.100000", "132522.103000", "132522.106000", "132522.109000", "132522.113000", "132522.116000", "132522.119000", "132522.122000", "132522.126000", "132522.129000", "132522.132000", "132522.135000", "132542.072000", "132542.076000", "132542.079000", "132542.082000", "132542.085000", "132542.089000", "132542.092000", "132542.095000", "132542.099000", "132542.102000", "132542.105000", "132542.108000", "132542.111000", "132542.115000", "132542.118000", "132542.121000", "132542.125000", "132542.128000", "132542.131000", "132542.134000", "132602.073000", "132602.077000", "132602.080000", "132602.083000", "132602.086000", "132602.090000", "132602.093000", "132602.096000", "132602.099000", "132602.103000", "132602.106000", "132602.109000", "132602.112000", "132602.115000", "132602.119000", "132602.122000", "132602.125000", "132602.129000", "132602.132000", "132602.135000", "132602.138000", "132642.073000", "132642.077000", "132642.080000", "132642.083000", "132642.086000", "132642.090000", "132642.093000", "132642.096000", "132642.100000", "132642.103000", "132642.106000", "132642.109000", "132642.113000", "132642.116000", "132642.119000", "132642.122000", "132642.126000", "132642.129000", "132642.132000", "132642.135000", "132642.156000", "132642.159000", "132642.162000", "132642.166000", "132642.169000", "132642.172000", "132642.175000", "132642.179000", "132642.182000", "132642.185000", "132722.073000", "132722.077000", "132722.080000", "132722.083000", "132722.087000", "132722.090000", "132722.093000", "132722.097000", "132722.100000", "132722.103000", "132722.106000", "132722.110000", "132722.113000", "132722.116000", "132722.119000", "132722.123000", "132722.126000", "132722.129000", "132722.132000", "132722.136000", "132722.139000", "132722.142000", "132722.145000", "132722.149000", "132722.152000", "132722.155000", "132722.159000", "132802.072000", "132802.076000", "132802.079000", "132802.082000", "132802.086000", "132802.089000", "132802.092000", "132802.095000", "132802.099000", "132802.102000", "132802.105000", "132802.108000", "132802.112000", "132802.115000", "132802.118000", "132802.121000", "132802.125000", "132802.128000", "132802.131000", "132802.134000", "132802.138000", "132802.141000", "132802.144000", "132802.147000", "132802.151000", "132802.154000", "132802.157000", "132819.933000", "132819.937000", "132819.940000", "132819.944000", "132819.947000", "132819.950000", "132819.954000", "132819.957000", "132819.961000", "132819.964000", "132819.968000", "132819.971000"],
      "InstanceNumber": [1, 2, 3, 4, 5, 6, 7, 8, 9, 10, 11, 12, 13, 14, 15, 16, 17, 18, 19, 20, 21, 22, 23, 24, 25, 26, 27, 28, 29, 30, 31, 32, 33, 34, 35, 36, 37, 38, 39, 40, 41, 42, 43, 44, 45, 46, 47, 48, 49, 50, 51, 52, 53, 54, 55, 56, 57, 58, 59, 60, 61, 62, 63, 64, 65, 66, 67, 68, 69, 70, 71, 72, 73, 74, 75, 76, 77, 78, 79, 80, 81, 82, 83, 84, 85, 86, 87, 88, 89, 90, 91, 92, 93, 94, 95, 96, 97, 98, 99, 100, 101, 102, 103, 104, 105, 106, 107, 108, 109, 110, 111, 112, 113, 114, 115, 116, 117, 118, 119, 120, 121, 122, 123, 124, 125, 126, 127, 128, 129, 130, 131, 132, 133, 134, 135, 136, 137, 138, 139, 140, 141, 142, 143, 144, 145, 146, 147, 148, 149, 150, 151, 152, 153, 154, 155, 156, 157, 158, 159, 160, 161, 162, 163, 164, 165, 166, 167, 168, 169, 170, 171, 172, 173, 174, 175, 176, 177, 178, 179, 180, 181, 182, 183, 184, 185, 186, 187, 188, 189, 190],
      "LargestImagePixelValue": [40763, 39644, 39660, 38257, 38416, 38714, 38677, 38629, 38180, 38991, 38042, 38269, 38829, 38582, 38259, 38928, 38248, 38312, 38499, 38811, 38037, 38805, 38475, 38392, 38108, 38825, 38551, 38762, 38551, 38833, 38395, 39348, 38896, 38718, 38687, 38846, 38490, 38742, 38906, 38481, 37994, 39026, 39025, 38682, 38319, 38772, 38542, 38357, 38736, 38579, 38534, 38274, 38969, 38371, 38392, 38557, 38831, 38329, 38664, 38999, 38902, 38749, 38794, 38314, 39227, 38674, 38722, 38696, 38735, 39058, 38969, 38556, 38279, 38908, 38864, 38428, 39130, 38608, 38928, 38986, 38966, 38452, 38586, 39156, 39244, 38326, 38747, 38616, 39524, 38611, 38977, 38831, 39165, 38843, 38385, 38442, 38470, 38950, 38805, 38876, 39145, 39271, 38522, 38864, 38450, 38763, 38430, 38449, 39360, 39268, 38633, 38648, 38769, 39378, 38711, 39413, 38662, 38656, 39055, 39015, 39183, 39226, 38695, 39171, 38797, 39068, 38403, 38848, 39368, 39753, 38941, 38951, 39276, 38910, 39957, 38980, 39470, 39112, 40172, 39632, 39475, 39592, 39494, 39468, 39420, 39068, 38907, 39286, 39381, 39015, 39599, 39103, 39348, 39477, 39244, 39262, 38960, 39368, 39524, 39691, 39545, 39785, 39418, 39523, 39398, 39466, 39295, 39277, 39368, 39566, 39722, 38284, 39129, 39192, 39638, 39619, 38961, 39073, 38993, 39123, 38971, 39458, 39867, 39730, 39478, 39846, 39766, 39278, 39046, 39823],
      "WindowCenter": [10252.0, 10216.0, 10209.0, 10186.0, 10186.0, 10186.0, 10190.0, 10184.0, 10194.0, 10201.0, 10204.0, 10204.0, 10203.0, 10201.0, 10194.0, 10200.0, 10176.0, 10170.0, 10174.0, 10181.0, 10168.0, 10173.0, 10150.0, 10157.0, 10167.0, 10181.0, 10182.0, 10183.0, 10175.0, 10174.0, 10167.0, 10187.0, 10202.0, 10201.0, 10194.0, 10183.0, 10173.0, 10175.0, 10189.0, 10185.0, 10179.0, 10184.0, 10195.0, 10192.0, 10194.0, 10190.0, 10175.0, 10173.0, 10183.0, 10195.0, 10191.0, 10183.0, 10188.0, 10181.0, 10176.0, 10168.0, 10174.0, 10175.0, 10191.0, 10197.0, 10190.0, 10176.0, 10175.0, 10173.0, 10187.0, 10190.0, 10190.0, 10182.0, 10182.0, 10187.0, 10189.0, 10192.0, 10193.0, 10207.0, 10211.0, 10204.0, 10192.0, 10182.0, 10181.0, 10188.0, 10196.0, 10194.0, 10191.0, 10182.0, 10172.0, 10166.0, 10180.0, 10185.0, 10204.0, 10191.0, 10182.0, 10168.0, 10175.0, 10181.0, 10183.0, 10177.0, 10191.0, 10197.0, 10193.0, 10191.0, 10192.0, 10197.0, 10193.0, 10185.0, 10179.0, 10167.0, 10175.0, 10184.0, 10205.0, 10201.0, 10193.0, 10185.0, 10191.0, 10199.0, 10209.0, 10215.0, 10202.0, 10187.0, 10183.0, 10186.0, 10183.0, 10206.0, 10203.0, 10195.0, 10176.0, 10173.0, 10166.0, 10183.0, 10205.0, 10217.0, 10209.0, 10201.0, 10189.0, 10182.0, 10195.0, 10197.0, 10206.0, 10208.0, 10211.0, 10196.0, 10189.0, 10195.0, 10198.0, 10193.0, 10185.0, 10188.0, 10193.0, 10191.0, 10190.0, 10180.0, 10179.0, 10174.0, 10182.0, 10189.0, 10190.0, 10201.0, 10197.0, 10203.0, 10199.0, 10191.0, 10188.0, 10191.0, 10197.0, 10198.0, 10185.0, 10176.0, 10180.0, 10191.0, 10192.0, 10199.0, 10199.0, 10187.0, 10191.0, 10202.0, 10215.0, 10206.0, 10185.0, 10169.0, 10172.0, 10182.0, 10193.0, 10202.0, 10199.0, 10181.0, 10157.0, 10170.0, 10197.0, 10192.0, 10179.0, 10166.0],
      "WindowWidth": [21862.0, 21758.0, 21728.0, 21671.0, 21667.0, 21666.0, 21670.0, 21659.0, 21682.0, 21697.0, 21707.0, 21705.0, 21702.0, 21697.0, 21680.0, 21690.0, 21636.0, 21625.0, 21631.0, 21646.0, 21620.0, 21628.0, 21577.0, 21594.0, 21618.0, 21649.0, 21647.0, 21652.0, 21636.0, 21632.0, 21617.0, 21659.0, 21694.0, 21694.0, 21678.0, 21650.0, 21628.0, 21632.0, 21664.0, 21659.0, 21648.0, 21654.0, 21677.0, 21673.0, 21681.0, 21667.0, 21635.0, 21630.0, 21654.0, 21680.0, 21672.0, 21653.0, 21661.0, 21647.0, 21636.0, 21621.0, 21632.0, 21633.0, 21671.0, 21682.0, 21665.0, 21635.0, 21632.0, 21628.0, 21658.0, 21668.0, 21669.0, 21649.0, 21648.0, 21659.0, 21665.0, 21674.0, 21675.0, 21706.0, 21717.0, 21701.0, 21669.0, 21644.0, 21641.0, 21657.0, 21678.0, 21676.0, 21668.0, 21646.0, 21623.0, 21612.0, 21643.0, 21656.0, 21695.0, 21669.0, 21646.0, 21617.0, 21634.0, 21646.0, 21649.0, 21640.0, 21668.0, 21678.0, 21673.0, 21669.0, 21670.0, 21680.0, 21675.0, 21657.0, 21643.0, 21613.0, 21631.0, 21654.0, 21700.0, 21693.0, 21675.0, 21654.0, 21668.0, 21687.0, 21709.0, 21721.0, 21693.0, 21661.0, 21646.0, 21652.0, 21649.0, 21699.0, 21697.0, 21677.0, 21633.0, 21624.0, 21610.0, 21650.0, 21698.0, 21726.0, 21706.0, 21687.0, 21659.0, 21646.0, 21673.0, 21681.0, 21702.0, 21706.0, 21708.0, 21673.0, 21661.0, 21672.0, 21681.0, 21670.0, 21652.0, 21657.0, 21671.0, 21666.0, 21659.0, 21636.0, 21634.0, 21625.0, 21644.0, 21659.0, 21664.0, 21689.0, 21684.0, 21699.0, 21686.0, 21665.0, 21655.0, 21664.0, 21676.0, 21680.0, 21649.0, 21630.0, 21638.0, 21664.0, 21667.0, 21683.0, 21683.0, 21662.0, 21666.0, 21695.0, 21718.0, 21696.0, 21650.0, 21614.0, 21618.0, 21642.0, 21670.0, 21691.0, 21682.0, 21637.0, 21583.0, 21611.0, 21673.0, 21664.0, 21634.0, 21601.0]
    },
    "slices": {}
  }
}