{
  "AcquisitionMatrixPE": 104,
  "AcquisitionNumber": 1,
  "AcquisitionTime": "13:41:48.072500",
  "BandwidthPerPixelPhaseEncode": 17.17,
  "BaseResolution": 104,
  "BodyPartExamined": "BRAIN",
  "CoilString": "HC1-7;NC1_2",
  "ConsistencyInfo": "N4_VE11C_LATEST_20160120",
  "ConversionSoftware": "dcm2niix",
  "ConversionSoftwareVersion": "v1.0.20190902",
  "DerivedVendorReportedEchoSpacing": 0.000560011,
  "DeviceSerialNumber": "167006",
  "DwellTime": 2.1e-06,
  "EchoTime": 0.037,
  "EchoTrainLength": 104,
  "EffectiveEchoSpacing": 0.000560011,
  "FlipAngle": 52,
  "ImageComments": "Unaliased_MB4_PE3_LB",
  "ImageOrientationPatientDICOM": [0.999155, 0.0187248, 0.0366019, -0.00959144, 0.971861, -0.235359],
  "ImageType": [
    "ORIGINAL",
    "PRIMARY",
    "M",
    "MB",
    "ND",
    "MOSAIC"
],
  "ImagingFrequency": 123.259,
  "InPlanePhaseEncodingDirectionDICOM": "COL",
  "InstitutionAddress": "Chemin_Queen-Mary_4565_Montreal_District_CA_H3W_1W5",
  "InstitutionName": "IUGM",
  "InstitutionalDepartmentName": "Department",
  "MRAcquisitionType": "2D",
  "MagneticFieldStrength": 3,
  "Manufacturer": "Siemens",
  "ManufacturersModelName": "Prisma_fit",
  "Modality": "MR",
  "MultibandAccelerationFactor": 4,
  "PartialFourier": 1,
  "PatientPosition": "HFS",
  "PercentPhaseFOV": 100,
  "PhaseEncodingDirection": "j",
  "PhaseEncodingSteps": 104,
  "PhaseResolution": 1,
  "PixelBandwidth": 2290,
  "ProcedureStepDescription": "memory_things",
  "ProtocolName": "func_task-things_run-4",
  "PulseSequenceDetails": "%CustomerSeq%_cmrr_mbep2d_bold",
  "ReceiveCoilActiveElements": "HC1-7;NC1,2",
  "ReceiveCoilName": "HeadNeck_64",
  "ReconMatrixPE": 104,
  "RepetitionTime": 1.49,
  "SAR": 0.0481416,
  "ScanOptions": "FS",
  "ScanningSequence": "EP",
  "SequenceName": "epfid2d1_104",
  "SequenceVariant": "SK_SS",
  "SeriesDescription": "func_task-things_run-4",
  "SeriesNumber": 19,
  "ShimSetting": [648, -7213, -8771, 732, 81, 6, 83, 5],
  "SliceThickness": 2,
  "SliceTiming": [0, 0.785, 0.0975, 0.8825, 0.195, 0.98, 0.295, 1.0775, 0.3925, 1.175, 0.49, 1.275, 0.5875, 1.3725, 0.685, 0, 0.785, 0.0975, 0.8825, 0.195, 0.98, 0.295, 1.0775, 0.3925, 1.175, 0.49, 1.275, 0.5875, 1.3725, 0.685, 0, 0.785, 0.0975, 0.8825, 0.195, 0.98, 0.295, 1.0775, 0.3925, 1.175, 0.49, 1.275, 0.5875, 1.3725, 0.685, 0, 0.785, 0.0975, 0.8825, 0.195, 0.98, 0.295, 1.0775, 0.3925, 1.175, 0.49, 1.275, 0.5875, 1.3725, 0.685],
  "SoftwareVersions": "syngo_MR_E11",
  "SpacingBetweenSlices": 2,
  "StationName": "MRC35049",
  "TaskName": "things",
  "TotalReadoutTime": 0.0576811,
  "TxRefAmp": 233.086,
  "WipMemBlock": "699d131c-3d58-4f8a-9e83-bae778fbeeb6||Sequence: R016 ve11c/master r/e634e98; Dec 19 2017 11:00:25 by eja",
  "dcmmeta_affine": [
    [-1.9983090162277222, -0.01918288879096508, 0.07995805889368057, 107.88721466064453],
    [-0.037449631839990616, 1.9437223672866821, -0.4696178138256073, -73.95667266845703],
    [0.07320381700992584, 0.4707179367542267, 1.9424381256103516, -59.23091506958008],
    [0.0, 0.0, 0.0, 1.0]
],
  "dcmmeta_reorient_transform": [
    [0.0, -1.0, 0.0, 103.0],
    [1.0, 0.0, 0.0, 0.0],
    [0.0, 0.0, 1.0, 0.0],
    [0.0, 0.0, 0.0, 1.0]
],
  "dcmmeta_shape": [104, 104, 60, 190],
  "dcmmeta_slice_dim": 2,
  "dcmmeta_version": 0.6,
  "global": {
    "const": {
      "AcquisitionMatrix": [104, 0, 0, 104],
      "AngioFlag": "N",
      "BitsAllocated": 16,
      "BitsStored": 16,
      "BodyPartExamined": "BRAIN",
      "Columns": 832,
      "EchoNumbers": 1,
      "EchoTime": 37.0,
      "EchoTrainLength": 104,
      "FlipAngle": 52.0,
      "HighBit": 15,
      "ImageOrientationPatient": [0.99915448329896, 0.01872481630172, 0.03660190921334, -0.0095914440018, 0.97186118204875, -0.235358974821],
      "ImagePositionPatient": [-826.31326842982, -847.3933368367, 133.94817877169],
      "ImageType": [
        "ORIGINAL",
        "PRIMARY",
        "M",
        "MB",
        "ND",
        "MOSAIC"
],
      "ImagedNucleus": "1H",
      "ImagingFrequency": 123.258912,
      "InPlanePhaseEncodingDirection": "COL",
      "MRAcquisitionType": "2D",
      "MagneticFieldStrength": 3.0,
      "Manufacturer": "SIEMENS",
      "ManufacturerModelName": "Prisma_fit",
      "Modality": "MR",
      "NumberOfAverages": 1.0,
      "NumberOfPhaseEncodingSteps": 104,
      "PercentPhaseFieldOfView": 100.0,
      "PercentSampling": 100.0,
      "PerformedProcedureStepStartTime": "131951.839000",
      "PhotometricInterpretation": "MONOCHROME2",
      "PixelBandwidth": 2290.0,
      "PixelRepresentation": 0,
      "PixelSpacing": [2.0, 2.0],
      "ProtocolName": "func_task-things_run-4",
      "RepetitionTime": 1490.0,
      "Rows": 832,
      "SAR": 0.04814159345807,
      "SamplesPerPixel": 1,
      "ScanOptions": "FS",
      "ScanningSequence": "EP",
      "SequenceName": "epfid2d1_104",
      "SequenceVariant": [
        "SK",
        "SS"
],
      "SeriesDescription": "func_task-things_run-4",
      "SeriesNumber": 19,
      "SeriesTime": "134322.108000",
      "SliceLocation": -35.847280326213,
      "SliceThickness": 2.0,
      "SmallestImagePixelValue": 0,
      "SoftwareVersions": "syngo MR E11",
      "SpacingBetweenSlices": 2.000000013737,
      "SpecificCharacterSet": "ISO_IR 100",
      "StudyID": "1",
      "StudyTime": "131951.754000",
      "TransmitCoilName": "Body",
      "VariableFlipAngleFlag": "N",
      "WindowCenterWidthExplanation": "Algo1",
      "dBdt": 0.0},
    "slices": {}
  },
  "time": {
    "samples": {
      "AcquisitionNumber": [1, 2, 3, 4, 5, 6, 7, 8, 9, 10, 11, 12, 13, 14, 15, 16, 17, 18, 19, 20, 21, 22, 23, 24, 25, 26, 27, 28, 29, 30, 31, 32, 33, 34, 35, 36, 37, 38, 39, 40, 41, 42, 43, 44, 45, 46, 47, 48, 49, 50, 51, 52, 53, 54, 55, 56, 57, 58, 59, 60, 61, 62, 63, 64, 65, 66, 67, 68, 69, 70, 71, 72, 73, 74, 75, 76, 77, 78, 79, 80, 81, 82, 83, 84, 85, 86, 87, 88, 89, 90, 91, 92, 93, 94, 95, 96, 97, 98, 99, 100, 101, 102, 103, 104, 105, 106, 107, 108, 109, 110, 111, 112, 113, 114, 115, 116, 117, 118, 119, 120, 121, 122, 123, 124, 125, 126, 127, 128, 129, 130, 131, 132, 133, 134, 135, 136, 137, 138, 139, 140, 141, 142, 143, 144, 145, 146, 147, 148, 149, 150, 151, 152, 153, 154, 155, 156, 157, 158, 159, 160, 161, 162, 163, 164, 165, 166, 167, 168, 169, 170, 171, 172, 173, 174, 175, 176, 177, 178, 179, 180, 181, 182, 183, 184, 185, 186, 187, 188, 189, 190],
      "AcquisitionTime": ["134148.072500", "134149.562500", "134151.052500", "134152.542500", "134154.032500", "134155.522500", "134157.012500", "134158.502500", "134159.992500", "134201.482500", "134202.972500", "134204.462500", "134205.952500", "134207.442500", "134208.932500", "134210.422500", "134211.912500", "134213.402500", "134214.892500", "134216.382500", "134217.872500", "134219.362500", "134220.852500", "134222.342500", "134223.832500", "134225.322500", "134226.812500", "134228.302500", "134229.792500", "134231.282500", "134232.772500", "134234.262500", "134235.752500", "134237.242500", "134238.732500", "134240.222500", "134241.712500", "134243.202500", "134244.692500", "134246.182500", "134247.672500", "134249.162500", "134250.652500", "134252.142500", "134253.632500", "134255.122500", "134256.612500", "134258.102500", "134259.592500", "134301.082500", "134302.572500", "134304.062500", "134305.552500", "134307.042500", "134308.532500", "134310.022500", "134311.512500", "134313.002500", "134314.492500", "134315.982500", "134317.472500", "134318.962500", "134320.452500", "134321.942500", "134323.432500", "134324.922500", "134326.412500", "134327.902500", "134329.392500", "134330.882500", "134332.372500", "134333.862500", "134335.352500", "134336.842500", "134338.332500", "134339.822500", "134341.312500", "134342.802500", "134344.292500", "134345.782500", "134347.272500", "134348.762500", "134350.252500", "134351.742500", "134353.232500", "134354.722500", "134356.212500", "134357.702500", "134359.192500", "134400.682500", "134402.172500", "134403.662500", "134405.152500", "134406.642500", "134408.132500", "134409.622500", "134411.112500", "134412.602500", "134414.092500", "134415.582500", "134417.072500", "134418.562500", "134420.052500", "134421.542500", "134423.032500", "134424.522500", "134426.012500", "134427.502500", "134428.992500", "134430.482500", "134431.972500", "134433.462500", "134434.952500", "134436.442500", "134437.932500", "134439.422500", "134440.912500", "134442.402500", "134443.892500", "134445.382500", "134446.872500", "134448.362500", "134449.852500", "134451.342500", "134452.832500", "134454.322500", "134455.812500", "134457.302500", "134458.792500", "134500.282500", "134501.772500", "134503.262500", "134504.752500", "134506.242500", "134507.732500", "134509.222500", "134510.712500", "134512.202500", "134513.692500", "134515.182500", "134516.672500", "134518.162500", "134519.652500", "134521.142500", "134522.632500", "134524.122500", "134525.612500", "134527.102500", "134528.592500", "134530.082500", "134531.572500", "134533.062500", "134534.552500", "134536.042500", "134537.532500", "134539.022500", "134540.512500", "134542.002500", "134543.492500", "134544.982500", "134546.472500", "134547.962500", "134549.452500", "134550.942500", "134552.432500", "134553.922500", "134555.412500", "134556.902500", "134558.392500", "134559.882500", "134601.372500", "134602.862500", "134604.352500", "134605.842500", "134607.332500", "134608.822500", "134610.312500", "134611.802500", "134613.292500", "134614.782500", "134616.272500", "134617.762500", "134619.252500", "134620.742500", "134622.232500", "134623.722500", "134625.212500", "134626.702500", "134628.192500", "134629.682500"],
      "ContentTime": ["134322.111000", "134322.115000", "134322.118000", "134322.122000", "134322.125000", "134322.128000", "134322.131000", "134322.135000", "134322.138000", "134322.141000", "134322.144000", "134322.148000", "134322.151000", "134322.154000", "134322.157000", "134322.161000", "134322.164000", "134322.167000", "134322.177000", "134322.181000", "134322.184000", "134322.187000", "134322.190000", "134322.194000", "134322.197000", "134322.200000", "134322.203000", "134322.207000", "134322.210000", "134322.213000", "134322.216000", "134322.220000", "134322.223000", "134322.226000", "134322.229000", "134322.233000", "134322.236000", "134342.073000", "134342.077000", "134342.080000", "134342.083000", "134342.087000", "134342.090000", "134342.093000", "134342.096000", "134342.100000", "134342.103000", "134342.106000", "134342.110000", "134342.113000", "134342.116000", "134342.119000", "134342.123000", "134342.126000", "134342.129000", "134342.132000", "134342.136000", "134342.139000", "134402.073000", "134402.077000", "134402.080000", "134402.083000", "134402.086000", "134402.090000", "134402.093000", "134402.096000", "134402.099000", "134402.103000", "134402.106000", "134402.109000", "134402.112000", "134402.116000", "134402.119000", "134402.122000", "134402.126000", "134402.129000", "134402.132000", "134402.135000", "134422.072000", "134422.076000", "134422.079000", "134422.082000", "134422.086000", "134422.089000", "134422.092000", "134422.095000", "134422.110000", "134422.113000", "134422.117000", "134422.120000", "134422.123000", "134422.126000", "134422.129000", "134422.133000", "134422.136000", "134422.139000", "134422.143000", "134422.146000", "134502.073000", "134502.077000", "134502.080000", "134502.083000", "134502.086000", "134502.090000", "134502.093000", "134502.096000", "134502.099000", "134502.103000", "134502.106000", "134502.109000", "134502.112000", "134502.116000", "134502.119000", "134502.122000", "134502.125000", "134502.129000", "134502.132000", "134502.135000", "134502.138000", "134502.142000", "134502.145000", "134502.148000", "134502.152000", "134502.155000", "134502.158000", "134502.161000", "134502.164000", "134502.168000", "134502.171000", "134502.174000", "134542.073000", "134542.077000", "134542.080000", "134542.083000", "134542.087000", "134542.090000", "134542.093000", "134542.096000", "134542.100000", "134542.103000", "134542.106000", "134542.109000", "134542.113000", "134542.116000", "134542.119000", "134542.123000", "134542.126000", "134542.129000", "134542.133000", "134542.136000", "134542.139000", "134542.143000", "134542.146000", "134542.149000", "134542.153000", "134542.156000", "134622.073000", "134622.077000", "134622.080000", "134622.083000", "134622.087000", "134622.090000", "134622.093000", "134622.097000", "134622.100000", "134622.103000", "134622.106000", "134622.110000", "134622.113000", "134622.116000", "134622.119000", "134622.123000", "134622.126000", "134622.129000", "134622.132000", "134622.136000", "134622.139000", "134622.142000", "134622.145000", "134622.149000", "134622.152000", "134622.155000", "134622.159000", "134631.369000", "134631.372000", "134631.375000", "134631.388000", "134631.392000", "134631.395000", "134631.398000"],
      "InstanceCreationTime": ["134322.111000", "134322.115000", "134322.118000", "134322.122000", "134322.125000", "134322.128000", "134322.131000", "134322.135000", "134322.138000", "134322.141000", "134322.144000", "134322.148000", "134322.151000", "134322.154000", "134322.157000", "134322.161000", "134322.164000", "134322.167000", "134322.177000", "134322.181000", "134322.184000", "134322.187000", "134322.190000", "134322.194000", "134322.197000", "134322.200000", "134322.203000", "134322.207000", "134322.210000", "134322.213000", "134322.216000", "134322.220000", "134322.223000", "134322.226000", "134322.229000", "134322.233000", "134322.236000", "134342.073000", "134342.077000", "134342.080000", "134342.083000", "134342.087000", "134342.090000", "134342.093000", "134342.096000", "134342.100000", "134342.103000", "134342.106000", "134342.110000", "134342.113000", "134342.116000", "134342.119000", "134342.123000", "134342.126000", "134342.129000", "134342.132000", "134342.136000", "134342.139000", "134402.073000", "134402.077000", "134402.080000", "134402.083000", "134402.086000", "134402.090000", "134402.093000", "134402.096000", "134402.099000", "134402.103000", "134402.106000", "134402.109000", "134402.112000", "134402.116000", "134402.119000", "134402.122000", "134402.126000", "134402.129000", "134402.132000", "134402.135000", "134422.072000", "134422.076000", "134422.079000", "134422.082000", "134422.086000", "134422.089000", "134422.092000", "134422.095000", "134422.110000", "134422.113000", "134422.117000", "134422.120000", "134422.123000", "134422.126000", "134422.129000", "134422.133000", "134422.136000", "134422.139000", "134422.143000", "134422.146000", "134502.073000", "134502.077000", "134502.080000", "134502.083000", "134502.086000", "134502.090000", "134502.093000", "134502.096000", "134502.099000", "134502.103000", "134502.106000", "134502.109000", "134502.112000", "134502.116000", "134502.119000", "134502.122000", "134502.125000", "134502.129000", "134502.132000", "134502.135000", "134502.138000", "134502.142000", "134502.145000", "134502.148000", "134502.152000", "134502.155000", "134502.158000", "134502.161000", "134502.164000", "134502.168000", "134502.171000", "134502.174000", "134542.073000", "134542.077000", "134542.080000", "134542.083000", "134542.087000", "134542.090000", "134542.093000", "134542.096000", "134542.100000", "134542.103000", "134542.106000", "134542.109000", "134542.113000", "134542.116000", "134542.119000", "134542.123000", "134542.126000", "134542.129000", "134542.133000", "134542.136000", "134542.139000", "134542.143000", "134542.146000", "134542.149000", "134542.153000", "134542.156000", "134622.073000", "134622.077000", "134622.080000", "134622.083000", "134622.087000", "134622.090000", "134622.093000", "134622.097000", "134622.100000", "134622.103000", "134622.106000", "134622.110000", "134622.113000", "134622.116000", "134622.119000", "134622.123000", "134622.126000", "134622.129000", "134622.132000", "134622.136000", "134622.139000", "134622.142000", "134622.145000", "134622.149000", "134622.152000", "134622.155000", "134622.159000", "134631.369000", "134631.372000", "134631.375000", "134631.388000", "134631.392000", "134631.395000", "134631.398000"],
      "InstanceNumber": [1, 2, 3, 4, 5, 6, 7, 8, 9, 10, 11, 12, 13, 14, 15, 16, 17, 18, 19, 20, 21, 22, 23, 24, 25, 26, 27, 28, 29, 30, 31, 32, 33, 34, 35, 36, 37, 38, 39, 40, 41, 42, 43, 44, 45, 46, 47, 48, 49, 50, 51, 52, 53, 54, 55, 56, 57, 58, 59, 60, 61, 62, 63, 64, 65, 66, 67, 68, 69, 70, 71, 72, 73, 74, 75, 76, 77, 78, 79, 80, 81, 82, 83, 84, 85, 86, 87, 88, 89, 90, 91, 92, 93, 94, 95, 96, 97, 98, 99, 100, 101, 102, 103, 104, 105, 106, 107, 108, 109, 110, 111, 112, 113, 114, 115, 116, 117, 118, 119, 120, 121, 122, 123, 124, 125, 126, 127, 128, 129, 130, 131, 132, 133, 134, 135, 136, 137, 138, 139, 140, 141, 142, 143, 144, 145, 146, 147, 148, 149, 150, 151, 152, 153, 154, 155, 156, 157, 158, 159, 160, 161, 162, 163, 164, 165, 166, 167, 168, 169, 170, 171, 172, 173, 174, 175, 176, 177, 178, 179, 180, 181, 182, 183, 184, 185, 186, 187, 188, 189, 190],
      "LargestImagePixelValue": [41066, 40729, 40078, 39451, 39331, 39494, 39477, 39794, 39289, 39690, 39574, 38952, 39231, 39744, 39243, 39599, 39243, 39641, 39863, 39871, 40054, 39411, 39645, 39794, 39751, 39844, 39371, 39971, 39149, 39579, 39604, 39902, 39854, 39867, 39339, 40041, 39868, 39727, 39215, 39528, 39332, 39685, 39489, 39259, 39422, 39595, 39478, 39489, 39807, 39616, 39201, 39441, 39718, 39592, 39385, 39336, 39800, 39748, 39419, 39226, 39941, 39345, 39918, 39196, 39273, 39538, 40306, 39042, 39793, 39762, 39368, 39525, 39504, 40136, 39422, 39356, 39426, 39804, 39316, 39694, 39844, 40069, 39976, 40106, 39676, 40045, 39445, 39387, 39983, 40160, 39814, 39293, 39958, 39872, 39990, 39248, 39716, 40150, 39987, 39854, 39496, 39557, 40149, 39508, 39312, 39744, 40017, 39519, 39270, 39739, 39526, 39532, 40207, 39816, 39630, 39431, 39660, 39721, 39743, 39433, 39685, 39984, 39804, 39474, 40232, 40207, 39883, 39572, 40023, 39937, 40462, 39568, 39768, 39873, 40075, 40607, 39682, 40012, 40028, 39884, 39795, 40104, 39891, 40218, 40041, 39614, 39601, 39825, 40094, 39780, 39422, 40037, 40064, 40030, 39802, 40315, 40154, 39708, 39315, 39832, 39808, 39737, 39612, 40056, 39832, 39959, 39560, 39696, 39488, 39782, 39541, 39919, 39680, 40076, 39602, 39855, 40118, 40057, 39785, 39944, 40034, 39999, 40059, 39500, 39568, 39906, 39972, 39976, 40127, 40093],
      "WindowCenter": [10239.0, 10212.0, 10204.0, 10189.0, 10187.0, 10179.0, 10180.0, 10193.0, 10204.0, 10197.0, 10187.0, 10178.0, 10176.0, 10183.0, 10179.0, 10183.0, 10177.0, 10174.0, 10182.0, 10192.0, 10193.0, 10169.0, 10156.0, 10140.0, 10139.0, 10169.0, 10184.0, 10182.0, 10167.0, 10159.0, 10164.0, 10170.0, 10188.0, 10183.0, 10176.0, 10182.0, 10184.0, 10169.0, 10146.0, 10140.0, 10140.0, 10149.0, 10156.0, 10158.0, 10166.0, 10157.0, 10148.0, 10151.0, 10163.0, 10166.0, 10165.0, 10167.0, 10175.0, 10175.0, 10161.0, 10158.0, 10131.0, 10109.0, 10154.0, 10207.0, 10212.0, 10180.0, 10151.0, 10117.0, 10120.0, 10144.0, 10168.0, 10168.0, 10175.0, 10177.0, 10160.0, 10141.0, 10125.0, 10144.0, 10159.0, 10167.0, 10176.0, 10168.0, 10145.0, 10146.0, 10156.0, 10181.0, 10200.0, 10199.0, 10178.0, 10158.0, 10142.0, 10141.0, 10172.0, 10189.0, 10186.0, 10185.0, 10193.0, 10184.0, 10164.0, 10151.0, 10166.0, 10183.0, 10185.0, 10161.0, 10143.0, 10125.0, 10124.0, 10132.0, 10151.0, 10167.0, 10183.0, 10177.0, 10168.0, 10160.0, 10166.0, 10167.0, 10182.0, 10186.0, 10171.0, 10152.0, 10132.0, 10141.0, 10157.0, 10167.0, 10177.0, 10200.0, 10186.0, 10163.0, 10156.0, 10151.0, 10150.0, 10163.0, 10174.0, 10174.0, 10172.0, 10175.0, 10175.0, 10174.0, 10167.0, 10181.0, 10192.0, 10192.0, 10178.0, 10159.0, 10145.0, 10148.0, 10155.0, 10158.0, 10158.0, 10153.0, 10153.0, 10159.0, 10176.0, 10180.0, 10178.0, 10168.0, 10160.0, 10157.0, 10166.0, 10182.0, 10179.0, 10167.0, 10145.0, 10136.0, 10150.0, 10165.0, 10185.0, 10193.0, 10188.0, 10168.0, 10159.0, 10152.0, 10153.0, 10160.0, 10167.0, 10168.0, 10170.0, 10184.0, 10194.0, 10194.0, 10171.0, 10152.0, 10143.0, 10148.0, 10149.0, 10150.0, 10157.0, 10153.0, 10144.0, 10147.0, 10154.0, 10173.0, 10168.0, 10159.0],
      "WindowWidth": [21827.0, 21741.0, 21711.0, 21672.0, 21662.0, 21640.0, 21642.0, 21670.0, 21697.0, 21679.0, 21655.0, 21633.0, 21630.0, 21645.0, 21639.0, 21642.0, 21631.0, 21624.0, 21642.0, 21666.0, 21666.0, 21612.0, 21579.0, 21544.0, 21543.0, 21609.0, 21647.0, 21640.0, 21608.0, 21588.0, 21600.0, 21611.0, 21655.0, 21644.0, 21626.0, 21638.0, 21644.0, 21608.0, 21559.0, 21543.0, 21546.0, 21568.0, 21582.0, 21589.0, 21605.0, 21581.0, 21562.0, 21572.0, 21597.0, 21605.0, 21602.0, 21609.0, 21626.0, 21623.0, 21593.0, 21585.0, 21520.0, 21468.0, 21578.0, 21701.0, 21714.0, 21637.0, 21565.0, 21493.0, 21498.0, 21553.0, 21608.0, 21613.0, 21626.0, 21629.0, 21591.0, 21545.0, 21512.0, 21552.0, 21590.0, 21608.0, 21629.0, 21609.0, 21556.0, 21553.0, 21581.0, 21637.0, 21681.0, 21675.0, 21629.0, 21582.0, 21547.0, 21547.0, 21616.0, 21656.0, 21652.0, 21649.0, 21667.0, 21644.0, 21598.0, 21571.0, 21605.0, 21642.0, 21648.0, 21593.0, 21551.0, 21509.0, 21508.0, 21529.0, 21572.0, 21609.0, 21643.0, 21628.0, 21606.0, 21591.0, 21602.0, 21606.0, 21640.0, 21651.0, 21615.0, 21568.0, 21524.0, 21546.0, 21584.0, 21608.0, 21631.0, 21680.0, 21653.0, 21597.0, 21576.0, 21569.0, 21566.0, 21596.0, 21620.0, 21620.0, 21614.0, 21623.0, 21623.0, 21622.0, 21606.0, 21635.0, 21662.0, 21662.0, 21629.0, 21585.0, 21556.0, 21559.0, 21573.0, 21583.0, 21584.0, 21574.0, 21576.0, 21588.0, 21628.0, 21639.0, 21633.0, 21606.0, 21588.0, 21579.0, 21602.0, 21637.0, 21633.0, 21603.0, 21556.0, 21534.0, 21567.0, 21604.0, 21653.0, 21667.0, 21655.0, 21607.0, 21587.0, 21571.0, 21574.0, 21591.0, 21607.0, 21607.0, 21613.0, 21645.0, 21668.0, 21664.0, 21612.0, 21568.0, 21546.0, 21558.0, 21560.0, 21567.0, 21580.0, 21575.0, 21554.0, 21558.0, 21574.0, 21617.0, 21606.0, 21584.0]
    },
    "slices": {}
  }
}