{
  "AcquisitionMatrixPE": 104,
  "AcquisitionNumber": 1,
  "AcquisitionTime": "13:29:41.717500",
  "BandwidthPerPixelPhaseEncode": 17.17,
  "BaseResolution": 104,
  "BodyPartExamined": "BRAIN",
  "CoilString": "HC1-7;NC1_2",
  "ConsistencyInfo": "N4_VE11C_LATEST_20160120",
  "ConversionSoftware": "dcm2niix",
  "ConversionSoftwareVersion": "v1.0.20190902",
  "DerivedVendorReportedEchoSpacing": 0.000560011,
  "DeviceSerialNumber": "167006",
  "DwellTime": 2.1e-06,
  "EchoTime": 0.037,
  "EchoTrainLength": 104,
  "EffectiveEchoSpacing": 0.000560011,
  "FlipAngle": 52,
  "ImageComments": "Unaliased_MB4_PE3_LB",
  "ImageOrientationPatientDICOM": [0.999155, 0.0187248, 0.0366019, -0.00959144, 0.971861, -0.235359],
  "ImageType": [
    "ORIGINAL",
    "PRIMARY",
    "M",
    "MB",
    "ND",
    "MOSAIC"
],
  "ImagingFrequency": 123.259,
  "InPlanePhaseEncodingDirectionDICOM": "COL",
  "InstitutionAddress": "Chemin_Queen-Mary_4565_Montreal_District_CA_H3W_1W5",
  "InstitutionName": "IUGM",
  "InstitutionalDepartmentName": "Department",
  "MRAcquisitionType": "2D",
  "MagneticFieldStrength": 3,
  "Manufacturer": "Siemens",
  "ManufacturersModelName": "Prisma_fit",
  "Modality": "MR",
  "MultibandAccelerationFactor": 4,
  "PartialFourier": 1,
  "PatientPosition": "HFS",
  "PercentPhaseFOV": 100,
  "PhaseEncodingDirection": "j",
  "PhaseEncodingSteps": 104,
  "PhaseResolution": 1,
  "PixelBandwidth": 2290,
  "ProcedureStepDescription": "memory_things",
  "ProtocolName": "func_task-things_run-2",
  "PulseSequenceDetails": "%CustomerSeq%_cmrr_mbep2d_bold",
  "ReceiveCoilActiveElements": "HC1-7;NC1,2",
  "ReceiveCoilName": "HeadNeck_64",
  "ReconMatrixPE": 104,
  "RepetitionTime": 1.49,
  "SAR": 0.0481416,
  "ScanOptions": "FS",
  "ScanningSequence": "EP",
  "SequenceName": "epfid2d1_104",
  "SequenceVariant": "SK_SS",
  "SeriesDescription": "func_task-things_run-2",
  "SeriesNumber": 13,
  "ShimSetting": [648, -7213, -8771, 732, 81, 6, 83, 5],
  "SliceThickness": 2,
  "SliceTiming": [0, 0.785, 0.0975, 0.8825, 0.195, 0.98, 0.295, 1.0775, 0.3925, 1.175, 0.49, 1.275, 0.5875, 1.3725, 0.685, 0, 0.785, 0.0975, 0.8825, 0.195, 0.98, 0.295, 1.0775, 0.3925, 1.175, 0.49, 1.275, 0.5875, 1.3725, 0.685, 0, 0.785, 0.0975, 0.8825, 0.195, 0.98, 0.295, 1.0775, 0.3925, 1.175, 0.49, 1.275, 0.5875, 1.3725, 0.685, 0, 0.785, 0.0975, 0.8825, 0.195, 0.98, 0.295, 1.0775, 0.3925, 1.175, 0.49, 1.275, 0.5875, 1.3725, 0.685],
  "SoftwareVersions": "syngo_MR_E11",
  "SpacingBetweenSlices": 2,
  "StationName": "MRC35049",
  "TaskName": "things",
  "TotalReadoutTime": 0.0576811,
  "TxRefAmp": 233.086,
  "WipMemBlock": "0ac2d1da-4d26-418c-9bb4-8df18bd47168||Sequence: R016 ve11c/master r/e634e98; Dec 19 2017 11:00:25 by eja",
  "dcmmeta_affine": [
    [-1.9983090162277222, -0.01918288879096508, 0.07995805889368057, 107.88721466064453],
    [-0.037449631839990616, 1.9437223672866821, -0.4696178138256073, -73.95667266845703],
    [0.07320381700992584, 0.4707179367542267, 1.9424381256103516, -59.23091506958008],
    [0.0, 0.0, 0.0, 1.0]
],
  "dcmmeta_reorient_transform": [
    [0.0, -1.0, 0.0, 103.0],
    [1.0, 0.0, 0.0, 0.0],
    [0.0, 0.0, 1.0, 0.0],
    [0.0, 0.0, 0.0, 1.0]
],
  "dcmmeta_shape": [104, 104, 60, 190],
  "dcmmeta_slice_dim": 2,
  "dcmmeta_version": 0.6,
  "global": {
    "const": {
      "AcquisitionMatrix": [104, 0, 0, 104],
      "AngioFlag": "N",
      "BitsAllocated": 16,
      "BitsStored": 16,
      "BodyPartExamined": "BRAIN",
      "Columns": 832,
      "EchoNumbers": 1,
      "EchoTime": 37.0,
      "EchoTrainLength": 104,
      "FlipAngle": 52.0,
      "HighBit": 15,
      "ImageOrientationPatient": [0.99915448329896, 0.01872481630172, 0.03660190921334, -0.0095914440018, 0.97186118204875, -0.235358974821],
      "ImagePositionPatient": [-826.31326842982, -847.3933368367, 133.94817877169],
      "ImageType": [
        "ORIGINAL",
        "PRIMARY",
        "M",
        "MB",
        "ND",
        "MOSAIC"
],
      "ImagedNucleus": "1H",
      "ImagingFrequency": 123.258906,
      "InPlanePhaseEncodingDirection": "COL",
      "MRAcquisitionType": "2D",
      "MagneticFieldStrength": 3.0,
      "Manufacturer": "SIEMENS",
      "ManufacturerModelName": "Prisma_fit",
      "Modality": "MR",
      "NumberOfAverages": 1.0,
      "NumberOfPhaseEncodingSteps": 104,
      "PercentPhaseFieldOfView": 100.0,
      "PercentSampling": 100.0,
      "PerformedProcedureStepStartTime": "131951.839000",
      "PhotometricInterpretation": "MONOCHROME2",
      "PixelBandwidth": 2290.0,
      "PixelRepresentation": 0,
      "PixelSpacing": [2.0, 2.0],
      "ProtocolName": "func_task-things_run-2",
      "RepetitionTime": 1490.0,
      "Rows": 832,
      "SAR": 0.04814159345807,
      "SamplesPerPixel": 1,
      "ScanOptions": "FS",
      "ScanningSequence": "EP",
      "SequenceName": "epfid2d1_104",
      "SequenceVariant": [
        "SK",
        "SS"
],
      "SeriesDescription": "func_task-things_run-2",
      "SeriesNumber": 13,
      "SeriesTime": "133100.719000",
      "SliceLocation": -35.847280326213,
      "SliceThickness": 2.0,
      "SmallestImagePixelValue": 0,
      "SoftwareVersions": "syngo MR E11",
      "SpacingBetweenSlices": 2.000000013737,
      "SpecificCharacterSet": "ISO_IR 100",
      "StudyID": "1",
      "StudyTime": "131951.754000",
      "TransmitCoilName": "Body",
      "VariableFlipAngleFlag": "N",
      "WindowCenterWidthExplanation": "Algo1",
      "dBdt": 0.0},
    "slices": {}
  },
  "time": {
    "samples": {
      "AcquisitionNumber": [1, 2, 3, 4, 5, 6, 7, 8, 9, 10, 11, 12, 13, 14, 15, 16, 17, 18, 19, 20, 21, 22, 23, 24, 25, 26, 27, 28, 29, 30, 31, 32, 33, 34, 35, 36, 37, 38, 39, 40, 41, 42, 43, 44, 45, 46, 47, 48, 49, 50, 51, 52, 53, 54, 55, 56, 57, 58, 59, 60, 61, 62, 63, 64, 65, 66, 67, 68, 69, 70, 71, 72, 73, 74, 75, 76, 77, 78, 79, 80, 81, 82, 83, 84, 85, 86, 87, 88, 89, 90, 91, 92, 93, 94, 95, 96, 97, 98, 99, 100, 101, 102, 103, 104, 105, 106, 107, 108, 109, 110, 111, 112, 113, 114, 115, 116, 117, 118, 119, 120, 121, 122, 123, 124, 125, 126, 127, 128, 129, 130, 131, 132, 133, 134, 135, 136, 137, 138, 139, 140, 141, 142, 143, 144, 145, 146, 147, 148, 149, 150, 151, 152, 153, 154, 155, 156, 157, 158, 159, 160, 161, 162, 163, 164, 165, 166, 167, 168, 169, 170, 171, 172, 173, 174, 175, 176, 177, 178, 179, 180, 181, 182, 183, 184, 185, 186, 187, 188, 189, 190],
      "AcquisitionTime": ["132941.717500", "132943.207500", "132944.697500", "132946.187500", "132947.677500", "132949.167500", "132950.657500", "132952.147500", "132953.637500", "132955.127500", "132956.617500", "132958.107500", "132959.597500", "133001.087500", "133002.577500", "133004.067500", "133005.557500", "133007.047500", "133008.537500", "133010.027500", "133011.517500", "133013.007500", "133014.497500", "133015.987500", "133017.477500", "133018.967500", "133020.457500", "133021.947500", "133023.437500", "133024.927500", "133026.417500", "133027.907500", "133029.397500", "133030.887500", "133032.377500", "133033.867500", "133035.357500", "133036.847500", "133038.337500", "133039.827500", "133041.317500", "133042.807500", "133044.297500", "133045.787500", "133047.277500", "133048.767500", "133050.257500", "133051.747500", "133053.237500", "133054.727500", "133056.217500", "133057.707500", "133059.197500", "133100.687500", "133102.177500", "133103.667500", "133105.157500", "133106.647500", "133108.137500", "133109.627500", "133111.117500", "133112.607500", "133114.097500", "133115.587500", "133117.077500", "133118.567500", "133120.057500", "133121.547500", "133123.037500", "133124.527500", "133126.017500", "133127.507500", "133128.997500", "133130.487500", "133131.977500", "133133.467500", "133134.957500", "133136.447500", "133137.937500", "133139.427500", "133140.917500", "133142.407500", "133143.897500", "133145.387500", "133146.877500", "133148.367500", "133149.857500", "133151.347500", "133152.837500", "133154.327500", "133155.817500", "133157.307500", "133158.797500", "133200.287500", "133201.777500", "133203.267500", "133204.757500", "133206.247500", "133207.737500", "133209.227500", "133210.717500", "133212.207500", "133213.697500", "133215.187500", "133216.677500", "133218.167500", "133219.657500", "133221.147500", "133222.637500", "133224.127500", "133225.617500", "133227.107500", "133228.597500", "133230.087500", "133231.577500", "133233.067500", "133234.557500", "133236.047500", "133237.537500", "133239.027500", "133240.517500", "133242.007500", "133243.497500", "133244.987500", "133246.477500", "133247.967500", "133249.457500", "133250.947500", "133252.437500", "133253.927500", "133255.417500", "133256.907500", "133258.397500", "133259.887500", "133301.377500", "133302.867500", "133304.357500", "133305.847500", "133307.337500", "133308.827500", "133310.317500", "133311.807500", "133313.297500", "133314.787500", "133316.277500", "133317.767500", "133319.257500", "133320.747500", "133322.237500", "133323.727500", "133325.217500", "133326.707500", "133328.197500", "133329.687500", "133331.177500", "133332.667500", "133334.157500", "133335.647500", "133337.137500", "133338.627500", "133340.117500", "133341.607500", "133343.097500", "133344.587500", "133346.077500", "133347.567500", "133349.057500", "133350.547500", "133352.037500", "133353.527500", "133355.017500", "133356.507500", "133357.997500", "133359.487500", "133400.977500", "133402.467500", "133403.957500", "133405.447500", "133406.937500", "133408.427500", "133409.917500", "133411.407500", "133412.897500", "133414.387500", "133415.877500", "133417.367500", "133418.857500", "133420.347500", "133421.837500", "133423.327500"],
      "ContentTime": ["133100.722000", "133100.726000", "133100.729000", "133100.738000", "133100.741000", "133100.744000", "133100.748000", "133100.751000", "133100.754000", "133100.757000", "133100.761000", "133100.764000", "133100.767000", "133100.771000", "133100.774000", "133100.777000", "133100.780000", "133100.784000", "133100.787000", "133100.791000", "133100.794000", "133100.808000", "133100.811000", "133100.815000", "133100.818000", "133100.822000", "133120.685000", "133120.689000", "133120.692000", "133120.695000", "133120.698000", "133120.702000", "133120.705000", "133120.708000", "133120.711000", "133120.715000", "133120.718000", "133120.721000", "133120.724000", "133120.727000", "133120.731000", "133120.734000", "133120.737000", "133120.740000", "133120.743000", "133120.747000", "133140.685000", "133140.689000", "133140.692000", "133140.695000", "133140.698000", "133140.702000", "133140.705000", "133140.708000", "133140.711000", "133140.715000", "133140.718000", "133140.721000", "133140.724000", "133140.728000", "133140.731000", "133140.734000", "133140.737000", "133140.741000", "133140.744000", "133140.747000", "133200.685000", "133200.689000", "133200.692000", "133200.695000", "133200.698000", "133200.702000", "133200.705000", "133200.708000", "133200.711000", "133200.715000", "133200.718000", "133200.721000", "133200.724000", "133200.728000", "133200.731000", "133200.734000", "133200.737000", "133200.741000", "133200.744000", "133200.747000", "133220.685000", "133220.689000", "133220.692000", "133220.695000", "133220.698000", "133220.701000", "133220.705000", "133220.708000", "133220.711000", "133220.715000", "133220.718000", "133220.721000", "133220.724000", "133220.728000", "133220.731000", "133220.734000", "133220.737000", "133220.741000", "133220.744000", "133220.747000", "133300.684000", "133300.688000", "133300.691000", "133300.694000", "133300.697000", "133300.700000", "133300.704000", "133300.707000", "133300.710000", "133300.713000", "133300.717000", "133300.720000", "133300.723000", "133300.726000", "133300.742000", "133300.745000", "133300.749000", "133300.752000", "133300.755000", "133300.758000", "133300.762000", "133300.765000", "133300.768000", "133300.771000", "133300.775000", "133300.778000", "133300.781000", "133340.685000", "133340.689000", "133340.692000", "133340.695000", "133340.698000", "133340.702000", "133340.705000", "133340.708000", "133340.711000", "133340.715000", "133340.718000", "133340.721000", "133340.724000", "133340.728000", "133340.731000", "133340.734000", "133340.738000", "133340.741000", "133340.744000", "133340.747000", "133340.751000", "133340.754000", "133340.757000", "133340.761000", "133340.764000", "133340.767000", "133340.771000", "133420.685000", "133420.689000", "133420.692000", "133420.695000", "133420.698000", "133420.701000", "133420.705000", "133420.708000", "133420.711000", "133420.715000", "133420.718000", "133420.721000", "133420.724000", "133420.727000", "133420.731000", "133420.734000", "133420.737000", "133420.741000", "133420.744000", "133420.747000", "133420.750000", "133420.764000", "133420.768000", "133420.771000", "133420.774000", "133420.778000", "133420.781000", "133425.140000", "133425.144000", "133425.147000"],
      "InstanceCreationTime": ["133100.722000", "133100.726000", "133100.729000", "133100.738000", "133100.741000", "133100.744000", "133100.748000", "133100.751000", "133100.754000", "133100.757000", "133100.761000", "133100.764000", "133100.767000", "133100.771000", "133100.774000", "133100.777000", "133100.780000", "133100.784000", "133100.787000", "133100.791000", "133100.794000", "133100.808000", "133100.811000", "133100.815000", "133100.818000", "133100.822000", "133120.685000", "133120.689000", "133120.692000", "133120.695000", "133120.698000", "133120.702000", "133120.705000", "133120.708000", "133120.711000", "133120.715000", "133120.718000", "133120.721000", "133120.724000", "133120.727000", "133120.731000", "133120.734000", "133120.737000", "133120.740000", "133120.743000", "133120.747000", "133140.685000", "133140.689000", "133140.692000", "133140.695000", "133140.698000", "133140.702000", "133140.705000", "133140.708000", "133140.711000", "133140.715000", "133140.718000", "133140.721000", "133140.724000", "133140.728000", "133140.731000", "133140.734000", "133140.737000", "133140.741000", "133140.744000", "133140.747000", "133200.685000", "133200.689000", "133200.692000", "133200.695000", "133200.698000", "133200.702000", "133200.705000", "133200.708000", "133200.711000", "133200.715000", "133200.718000", "133200.721000", "133200.724000", "133200.728000", "133200.731000", "133200.734000", "133200.737000", "133200.741000", "133200.744000", "133200.747000", "133220.685000", "133220.689000", "133220.692000", "133220.695000", "133220.698000", "133220.701000", "133220.705000", "133220.708000", "133220.711000", "133220.715000", "133220.718000", "133220.721000", "133220.724000", "133220.728000", "133220.731000", "133220.734000", "133220.737000", "133220.741000", "133220.744000", "133220.747000", "133300.684000", "133300.688000", "133300.691000", "133300.694000", "133300.697000", "133300.700000", "133300.704000", "133300.707000", "133300.710000", "133300.713000", "133300.717000", "133300.720000", "133300.723000", "133300.726000", "133300.742000", "133300.745000", "133300.749000", "133300.752000", "133300.755000", "133300.758000", "133300.762000", "133300.765000", "133300.768000", "133300.771000", "133300.775000", "133300.778000", "133300.781000", "133340.685000", "133340.689000", "133340.692000", "133340.695000", "133340.698000", "133340.702000", "133340.705000", "133340.708000", "133340.711000", "133340.715000", "133340.718000", "133340.721000", "133340.724000", "133340.728000", "133340.731000", "133340.734000", "133340.738000", "133340.741000", "133340.744000", "133340.747000", "133340.751000", "133340.754000", "133340.757000", "133340.761000", "133340.764000", "133340.767000", "133340.771000", "133420.685000", "133420.689000", "133420.692000", "133420.695000", "133420.698000", "133420.701000", "133420.705000", "133420.708000", "133420.711000", "133420.715000", "133420.718000", "133420.721000", "133420.724000", "133420.727000", "133420.731000", "133420.734000", "133420.737000", "133420.741000", "133420.744000", "133420.747000", "133420.750000", "133420.764000", "133420.768000", "133420.771000", "133420.774000", "133420.778000", "133420.781000", "133425.140000", "133425.144000", "133425.147000"],
      "InstanceNumber": [1, 2, 3, 4, 5, 6, 7, 8, 9, 10, 11, 12, 13, 14, 15, 16, 17, 18, 19, 20, 21, 22, 23, 24, 25, 26, 27, 28, 29, 30, 31, 32, 33, 34, 35, 36, 37, 38, 39, 40, 41, 42, 43, 44, 45, 46, 47, 48, 49, 50, 51, 52, 53, 54, 55, 56, 57, 58, 59, 60, 61, 62, 63, 64, 65, 66, 67, 68, 69, 70, 71, 72, 73, 74, 75, 76, 77, 78, 79, 80, 81, 82, 83, 84, 85, 86, 87, 88, 89, 90, 91, 92, 93, 94, 95, 96, 97, 98, 99, 100, 101, 102, 103, 104, 105, 106, 107, 108, 109, 110, 111, 112, 113, 114, 115, 116, 117, 118, 119, 120, 121, 122, 123, 124, 125, 126, 127, 128, 129, 130, 131, 132, 133, 134, 135, 136, 137, 138, 139, 140, 141, 142, 143, 144, 145, 146, 147, 148, 149, 150, 151, 152, 153, 154, 155, 156, 157, 158, 159, 160, 161, 162, 163, 164, 165, 166, 167, 168, 169, 170, 171, 172, 173, 174, 175, 176, 177, 178, 179, 180, 181, 182, 183, 184, 185, 186, 187, 188, 189, 190],
      "LargestImagePixelValue": [42519, 40901, 39968, 40034, 39647, 39364, 39974, 39737, 39590, 39498, 39980, 39037, 39636, 39907, 39736, 39406, 39456, 39857, 39880, 39552, 39382, 39797, 39917, 39906, 39728, 39840, 39957, 39519, 39614, 39930, 39124, 39720, 39555, 39427, 39868, 39910, 39424, 39560, 39626, 39400, 39341, 39962, 39615, 39709, 39763, 39536, 39671, 39481, 39878, 39390, 39787, 39416, 40229, 39507, 39996, 39538, 39794, 39810, 39757, 39669, 39499, 39455, 39801, 39751, 39871, 39409, 39895, 39349, 39754, 39360, 39930, 39944, 39724, 39801, 39380, 39317, 39451, 39587, 39574, 39779, 39148, 39263, 39429, 39911, 39380, 39477, 39345, 39436, 38899, 39511, 39110, 39506, 40106, 39724, 39931, 39613, 39762, 39667, 39454, 39400, 40157, 39453, 39665, 39562, 39832, 39766, 39172, 39844, 39189, 40027, 39627, 39775, 39487, 39521, 39448, 39983, 39726, 39102, 39500, 39357, 40079, 39968, 39673, 39934, 39511, 40248, 39656, 39512, 39932, 39424, 39696, 39560, 39633, 39904, 39551, 39162, 39386, 39549, 39122, 39201, 39333, 39709, 39476, 39544, 39934, 39500, 39640, 39410, 39511, 39961, 39359, 39731, 39749, 39894, 39539, 39487, 39832, 39568, 39879, 40004, 39484, 39300, 39548, 39319, 39487, 39691, 39743, 39330, 39301, 39219, 39406, 39611, 39490, 39476, 39678, 39983, 39760, 39822, 39148, 39352, 39581, 39342, 39419, 39211, 39987, 39431, 38842, 38975, 39347, 39215],
      "WindowCenter": [10273.0, 10245.0, 10216.0, 10206.0, 10195.0, 10202.0, 10209.0, 10226.0, 10228.0, 10212.0, 10186.0, 10170.0, 10166.0, 10171.0, 10181.0, 10186.0, 10195.0, 10201.0, 10205.0, 10193.0, 10193.0, 10205.0, 10230.0, 10218.0, 10193.0, 10165.0, 10150.0, 10157.0, 10188.0, 10206.0, 10202.0, 10199.0, 10182.0, 10175.0, 10181.0, 10198.0, 10207.0, 10214.0, 10194.0, 10177.0, 10174.0, 10186.0, 10191.0, 10184.0, 10182.0, 10189.0, 10199.0, 10201.0, 10201.0, 10178.0, 10182.0, 10169.0, 10181.0, 10174.0, 10181.0, 10174.0, 10177.0, 10183.0, 10183.0, 10193.0, 10192.0, 10195.0, 10192.0, 10176.0, 10174.0, 10183.0, 10210.0, 10204.0, 10194.0, 10184.0, 10197.0, 10202.0, 10202.0, 10210.0, 10211.0, 10196.0, 10178.0, 10184.0, 10199.0, 10218.0, 10216.0, 10207.0, 10203.0, 10195.0, 10188.0, 10202.0, 10210.0, 10214.0, 10199.0, 10197.0, 10174.0, 10168.0, 10167.0, 10173.0, 10182.0, 10175.0, 10182.0, 10175.0, 10178.0, 10186.0, 10200.0, 10188.0, 10179.0, 10168.0, 10184.0, 10194.0, 10190.0, 10194.0, 10196.0, 10202.0, 10197.0, 10188.0, 10185.0, 10198.0, 10222.0, 10245.0, 10238.0, 10200.0, 10188.0, 10194.0, 10213.0, 10211.0, 10190.0, 10176.0, 10160.0, 10157.0, 10158.0, 10169.0, 10193.0, 10197.0, 10178.0, 10167.0, 10173.0, 10204.0, 10204.0, 10186.0, 10172.0, 10169.0, 10170.0, 10187.0, 10187.0, 10186.0, 10178.0, 10187.0, 10195.0, 10198.0, 10193.0, 10173.0, 10163.0, 10175.0, 10176.0, 10194.0, 10204.0, 10219.0, 10222.0, 10199.0, 10180.0, 10176.0, 10194.0, 10209.0, 10223.0, 10231.0, 10216.0, 10184.0, 10166.0, 10176.0, 10195.0, 10212.0, 10216.0, 10214.0, 10202.0, 10200.0, 10191.0, 10171.0, 10154.0, 10158.0, 10160.0, 10169.0, 10187.0, 10205.0, 10209.0, 10195.0, 10183.0, 10181.0, 10170.0, 10162.0, 10166.0, 10174.0, 10175.0, 10173.0],
      "WindowWidth": [21902.0, 21815.0, 21741.0, 21711.0, 21683.0, 21694.0, 21707.0, 21747.0, 21750.0, 21714.0, 21650.0, 21614.0, 21606.0, 21615.0, 21639.0, 21654.0, 21677.0, 21689.0, 21695.0, 21668.0, 21672.0, 21696.0, 21750.0, 21724.0, 21666.0, 21599.0, 21567.0, 21585.0, 21655.0, 21697.0, 21690.0, 21681.0, 21643.0, 21627.0, 21638.0, 21677.0, 21699.0, 21714.0, 21670.0, 21630.0, 21622.0, 21648.0, 21661.0, 21648.0, 21641.0, 21657.0, 21681.0, 21688.0, 21686.0, 21634.0, 21640.0, 21611.0, 21635.0, 21624.0, 21636.0, 21620.0, 21632.0, 21646.0, 21646.0, 21668.0, 21664.0, 21673.0, 21663.0, 21625.0, 21622.0, 21645.0, 21705.0, 21692.0, 21668.0, 21644.0, 21672.0, 21687.0, 21689.0, 21708.0, 21708.0, 21672.0, 21630.0, 21646.0, 21680.0, 21725.0, 21726.0, 21703.0, 21691.0, 21674.0, 21658.0, 21687.0, 21707.0, 21717.0, 21685.0, 21675.0, 21624.0, 21607.0, 21606.0, 21619.0, 21641.0, 21627.0, 21641.0, 21626.0, 21633.0, 21653.0, 21683.0, 21657.0, 21636.0, 21608.0, 21648.0, 21671.0, 21665.0, 21667.0, 21675.0, 21687.0, 21676.0, 21655.0, 21646.0, 21675.0, 21736.0, 21787.0, 21771.0, 21685.0, 21655.0, 21668.0, 21713.0, 21706.0, 21660.0, 21625.0, 21590.0, 21582.0, 21586.0, 21614.0, 21667.0, 21678.0, 21633.0, 21605.0, 21619.0, 21686.0, 21692.0, 21658.0, 21620.0, 21610.0, 21615.0, 21652.0, 21652.0, 21647.0, 21631.0, 21653.0, 21672.0, 21678.0, 21663.0, 21619.0, 21598.0, 21624.0, 21628.0, 21668.0, 21693.0, 21725.0, 21734.0, 21683.0, 21635.0, 21626.0, 21668.0, 21703.0, 21738.0, 21755.0, 21719.0, 21646.0, 21604.0, 21625.0, 21672.0, 21712.0, 21723.0, 21718.0, 21691.0, 21682.0, 21659.0, 21612.0, 21574.0, 21581.0, 21590.0, 21611.0, 21654.0, 21696.0, 21706.0, 21676.0, 21647.0, 21640.0, 21611.0, 21594.0, 21605.0, 21624.0, 21627.0, 21619.0]
    },
    "slices": {}
  }
}