{
  "AcquisitionMatrixPE": 104,
  "AcquisitionNumber": 1,
  "AcquisitionTime": "17:20:39.665000",
  "BandwidthPerPixelPhaseEncode": 17.17,
  "BaseResolution": 104,
  "BodyPartExamined": "BRAIN",
  "CoilString": "HC1-7;NC1_2",
  "ConsistencyInfo": "N4_VE11C_LATEST_20160120",
  "ConversionSoftware": "dcm2niix",
  "ConversionSoftwareVersion": "v1.0.20190902",
  "DerivedVendorReportedEchoSpacing": 0.000560011,
  "DeviceSerialNumber": "167006",
  "DwellTime": 2.1e-06,
  "EchoTime": 0.037,
  "EchoTrainLength": 104,
  "EffectiveEchoSpacing": 0.000560011,
  "FlipAngle": 52,
  "HeudiconvVersion": "0.10.0",
  "ImageComments": "Unaliased_MB4_PE3_LB",
  "ImageOrientationPatientDICOM": [0.997154, 0.06863, 0.0312145, -0.0557495, 0.949894, -0.307561],
  "ImageType": [
    "ORIGINAL",
    "PRIMARY",
    "P",
    "MB",
    "ND",
    "MOSAIC"
],
  "ImagingFrequency": 123.259,
  "InPlanePhaseEncodingDirectionDICOM": "COL",
  "InstitutionAddress": "Chemin_Queen-Mary_4565_Montreal_District_CA_H3W_1W5",
  "InstitutionName": "IUGM",
  "InstitutionalDepartmentName": "Department",
  "MRAcquisitionType": "2D",
  "MagneticFieldStrength": 3,
  "Manufacturer": "Siemens",
  "ManufacturersModelName": "Prisma_fit",
  "Modality": "MR",
  "MultibandAccelerationFactor": 4,
  "PartialFourier": 1,
  "PatientPosition": "HFS",
  "PercentPhaseFOV": 100,
  "PhaseEncodingDirection": "j",
  "PhaseEncodingSteps": 104,
  "PhaseResolution": 1,
  "PixelBandwidth": 2290,
  "ProcedureStepDescription": "memory_things",
  "ProtocolName": "func_task-things_run-1",
  "PulseSequenceDetails": "%CustomerSeq%_cmrr_mbep2d_bold",
  "ReceiveCoilActiveElements": "HC1-7;NC1,2",
  "ReceiveCoilName": "HeadNeck_64",
  "ReconMatrixPE": 104,
  "RepetitionTime": 1.49,
  "SAR": 0.0532952,
  "ScanOptions": "FS",
  "ScanningSequence": "EP",
  "SequenceName": "epfid2d1_104",
  "SequenceVariant": "SK_SS",
  "SeriesDescription": "func_task-things_run-1",
  "SeriesNumber": 11,
  "ShimSetting": [631, -7192, -8806, 691, 81, 23, -13, -19],
  "SliceThickness": 2,
  "SliceTiming": [0, 0.785, 0.0975, 0.8825, 0.195, 0.98, 0.295, 1.0775, 0.3925, 1.175, 0.49, 1.275, 0.5875, 1.3725, 0.685, 0, 0.785, 0.0975, 0.8825, 0.195, 0.98, 0.295, 1.0775, 0.3925, 1.175, 0.49, 1.275, 0.5875, 1.3725, 0.685, 0, 0.785, 0.0975, 0.8825, 0.195, 0.98, 0.295, 1.0775, 0.3925, 1.175, 0.49, 1.275, 0.5875, 1.3725, 0.685, 0, 0.785, 0.0975, 0.8825, 0.195, 0.98, 0.295, 1.0775, 0.3925, 1.175, 0.49, 1.275, 0.5875, 1.3725, 0.685],
  "SoftwareVersions": "syngo_MR_E11",
  "SpacingBetweenSlices": 2,
  "StationName": "MRC35049",
  "TaskName": "things",
  "TotalReadoutTime": 0.0576811,
  "TxRefAmp": 278.891,
  "WipMemBlock": "2bca23a7-f83f-4f91-8f10-553cc87d4387||Sequence: R016 ve11c/master r/e634e98; Dec 19 2017 11:00:25 by eja",
  "dcmmeta_affine": [
    [-1.994307518005371, -0.11149906367063522, 0.10151665657758713, 109.61216735839844],
    [-0.13725996017456055, 1.8997877836227417, -0.6098901629447937, -55.64427185058594],
    [0.06242895871400833, 0.6151213645935059, 1.902032732963562, -59.24467086791992],
    [0.0, 0.0, 0.0, 1.0]
],
  "dcmmeta_reorient_transform": [
    [0.0, -1.0, 0.0, 103.0],
    [1.0, 0.0, 0.0, 0.0],
    [0.0, 0.0, 1.0, 0.0],
    [0.0, 0.0, 0.0, 1.0]
],
  "dcmmeta_shape": [104, 104, 60, 190],
  "dcmmeta_slice_dim": 2,
  "dcmmeta_version": 0.6,
  "global": {
    "const": {
      "AcquisitionMatrix": [104, 0, 0, 104],
      "AngioFlag": "N",
      "BitsAllocated": 16,
      "BitsStored": 16,
      "BodyPartExamined": "BRAIN",
      "Columns": 832,
      "EchoNumbers": 1,
      "EchoTime": 37.0,
      "EchoTrainLength": 104,
      "FlipAngle": 52.0,
      "HighBit": 15,
      "ImageOrientationPatient": [0.99715374030191, 0.06862998234462, 0.03121447941721, -0.0557495329898, 0.94989390053875, -0.3075606725358],
      "ImagePositionPatient": [-783.47002474058, -881.51925810169, 205.29285448256],
      "ImageType": [
        "ORIGINAL",
        "PRIMARY",
        "P",
        "MB",
        "ND",
        "MOSAIC"
],
      "ImagedNucleus": "1H",
      "ImagingFrequency": 123.259082,
      "InPlanePhaseEncodingDirection": "COL",
      "LargestImagePixelValue": 4095,
      "MRAcquisitionType": "2D",
      "MagneticFieldStrength": 3.0,
      "Manufacturer": "SIEMENS",
      "ManufacturerModelName": "Prisma_fit",
      "Modality": "MR",
      "NumberOfAverages": 1.0,
      "NumberOfPhaseEncodingSteps": 104,
      "PercentPhaseFieldOfView": 100.0,
      "PercentSampling": 100.0,
      "PerformedProcedureStepStartTime": "165311.059000",
      "PhotometricInterpretation": "MONOCHROME2",
      "PixelBandwidth": 2290.0,
      "PixelRepresentation": 0,
      "PixelSpacing": [2.0, 2.0],
      "ProtocolName": "func_task-things_run-1",
      "RepetitionTime": 1490.0,
      "RescaleIntercept": -4096.0,
      "RescaleSlope": 2.0,
      "RescaleType": "US",
      "Rows": 832,
      "SAR": 0.05329517935743,
      "SamplesPerPixel": 1,
      "ScanOptions": "FS",
      "ScanningSequence": "EP",
      "SequenceName": "epfid2d1_104",
      "SequenceVariant": [
        "SK",
        "SS"
],
      "SeriesDescription": "func_task-things_run-1",
      "SeriesNumber": 11,
      "SeriesTime": "172200.490000",
      "SliceLocation": -33.810474748989,
      "SliceThickness": 2.0,
      "SmallestImagePixelValue": 0,
      "SoftwareVersions": "syngo MR E11",
      "SpacingBetweenSlices": 2.0000000086385,
      "SpecificCharacterSet": "ISO_IR 100",
      "StudyID": "1",
      "StudyTime": "165310.912000",
      "TransmitCoilName": "Body",
      "VariableFlipAngleFlag": "N",
      "WindowCenterWidthExplanation": "Algo1",
      "dBdt": 0.0},
    "slices": {}
  },
  "time": {
    "samples": {
      "AcquisitionNumber": [1, 2, 3, 4, 5, 6, 7, 8, 9, 10, 11, 12, 13, 14, 15, 16, 17, 18, 19, 20, 21, 22, 23, 24, 25, 26, 27, 28, 29, 30, 31, 32, 33, 34, 35, 36, 37, 38, 39, 40, 41, 42, 43, 44, 45, 46, 47, 48, 49, 50, 51, 52, 53, 54, 55, 56, 57, 58, 59, 60, 61, 62, 63, 64, 65, 66, 67, 68, 69, 70, 71, 72, 73, 74, 75, 76, 77, 78, 79, 80, 81, 82, 83, 84, 85, 86, 87, 88, 89, 90, 91, 92, 93, 94, 95, 96, 97, 98, 99, 100, 101, 102, 103, 104, 105, 106, 107, 108, 109, 110, 111, 112, 113, 114, 115, 116, 117, 118, 119, 120, 121, 122, 123, 124, 125, 126, 127, 128, 129, 130, 131, 132, 133, 134, 135, 136, 137, 138, 139, 140, 141, 142, 143, 144, 145, 146, 147, 148, 149, 150, 151, 152, 153, 154, 155, 156, 157, 158, 159, 160, 161, 162, 163, 164, 165, 166, 167, 168, 169, 170, 171, 172, 173, 174, 175, 176, 177, 178, 179, 180, 181, 182, 183, 184, 185, 186, 187, 188, 189, 190],
      "AcquisitionTime": ["172039.665000", "172041.155000", "172042.645000", "172044.135000", "172045.625000", "172047.115000", "172048.605000", "172050.095000", "172051.585000", "172053.075000", "172054.565000", "172056.055000", "172057.545000", "172059.035000", "172100.525000", "172102.015000", "172103.505000", "172104.995000", "172106.485000", "172107.975000", "172109.465000", "172110.955000", "172112.445000", "172113.935000", "172115.425000", "172116.915000", "172118.405000", "172119.895000", "172121.385000", "172122.875000", "172124.365000", "172125.855000", "172127.345000", "172128.835000", "172130.325000", "172131.815000", "172133.305000", "172134.795000", "172136.285000", "172137.775000", "172139.265000", "172140.755000", "172142.245000", "172143.735000", "172145.225000", "172146.715000", "172148.205000", "172149.695000", "172151.185000", "172152.675000", "172154.165000", "172155.655000", "172157.145000", "172158.635000", "172200.125000", "172201.615000", "172203.105000", "172204.595000", "172206.085000", "172207.575000", "172209.065000", "172210.555000", "172212.045000", "172213.535000", "172215.025000", "172216.515000", "172218.005000", "172219.495000", "172220.985000", "172222.475000", "172223.965000", "172225.455000", "172226.945000", "172228.435000", "172229.925000", "172231.415000", "172232.905000", "172234.395000", "172235.885000", "172237.375000", "172238.865000", "172240.355000", "172241.845000", "172243.335000", "172244.825000", "172246.315000", "172247.805000", "172249.295000", "172250.785000", "172252.275000", "172253.765000", "172255.255000", "172256.745000", "172258.235000", "172259.725000", "172301.215000", "172302.705000", "172304.195000", "172305.685000", "172307.175000", "172308.665000", "172310.155000", "172311.645000", "172313.135000", "172314.625000", "172316.115000", "172317.605000", "172319.095000", "172320.585000", "172322.075000", "172323.565000", "172325.055000", "172326.545000", "172328.035000", "172329.525000", "172331.015000", "172332.505000", "172333.995000", "172335.485000", "172336.975000", "172338.465000", "172339.955000", "172341.445000", "172342.935000", "172344.425000", "172345.915000", "172347.405000", "172348.895000", "172350.385000", "172351.875000", "172353.365000", "172354.855000", "172356.345000", "172357.835000", "172359.325000", "172400.815000", "172402.305000", "172403.795000", "172405.285000", "172406.775000", "172408.265000", "172409.755000", "172411.245000", "172412.735000", "172414.225000", "172415.715000", "172417.205000", "172418.695000", "172420.185000", "172421.675000", "172423.165000", "172424.655000", "172426.145000", "172427.635000", "172429.125000", "172430.615000", "172432.105000", "172433.595000", "172435.085000", "172436.575000", "172438.065000", "172439.555000", "172441.045000", "172442.535000", "172444.025000", "172445.515000", "172447.005000", "172448.495000", "172449.985000", "172451.475000", "172452.965000", "172454.455000", "172455.945000", "172457.435000", "172458.925000", "172500.415000", "172501.905000", "172503.395000", "172504.885000", "172506.375000", "172507.865000", "172509.355000", "172510.845000", "172512.335000", "172513.825000", "172515.315000", "172516.805000", "172518.295000", "172519.785000", "172521.275000"],
      "ContentTime": ["172200.492000", "172200.494000", "172200.497000", "172200.499000", "172200.502000", "172200.504000", "172200.507000", "172200.509000", "172200.512000", "172200.514000", "172200.517000", "172200.519000", "172200.522000", "172200.529000", "172200.532000", "172200.534000", "172200.537000", "172200.539000", "172200.542000", "172200.544000", "172200.547000", "172200.549000", "172200.552000", "172200.554000", "172200.557000", "172200.559000", "172220.466000", "172220.469000", "172220.471000", "172220.474000", "172220.476000", "172220.479000", "172220.481000", "172220.484000", "172220.486000", "172220.488000", "172220.491000", "172220.493000", "172220.496000", "172220.498000", "172220.501000", "172220.503000", "172220.506000", "172220.508000", "172220.511000", "172220.513000", "172240.454000", "172240.456000", "172240.459000", "172240.461000", "172240.464000", "172240.466000", "172240.469000", "172240.471000", "172240.474000", "172240.476000", "172240.479000", "172240.481000", "172240.484000", "172240.486000", "172240.489000", "172240.491000", "172240.494000", "172240.496000", "172240.498000", "172240.501000", "172300.441000", "172300.444000", "172300.446000", "172300.449000", "172300.451000", "172300.454000", "172300.456000", "172300.459000", "172300.461000", "172300.464000", "172300.466000", "172300.469000", "172300.471000", "172300.474000", "172300.476000", "172300.479000", "172300.481000", "172300.484000", "172300.486000", "172300.489000", "172300.491000", "172320.446000", "172320.449000", "172320.451000", "172320.454000", "172320.456000", "172320.458000", "172320.461000", "172320.463000", "172320.466000", "172320.468000", "172320.471000", "172320.473000", "172320.476000", "172320.478000", "172320.481000", "172320.483000", "172320.486000", "172320.488000", "172320.491000", "172320.493000", "172400.471000", "172400.474000", "172400.476000", "172400.479000", "172400.481000", "172400.484000", "172400.486000", "172400.489000", "172400.491000", "172400.493000", "172400.496000", "172400.498000", "172400.501000", "172400.503000", "172400.506000", "172400.508000", "172400.511000", "172400.513000", "172400.516000", "172400.518000", "172400.521000", "172400.523000", "172400.526000", "172400.528000", "172400.531000", "172400.533000", "172400.535000", "172440.461000", "172440.463000", "172440.466000", "172440.469000", "172440.471000", "172440.473000", "172440.476000", "172440.478000", "172440.481000", "172440.483000", "172440.486000", "172440.488000", "172440.491000", "172440.493000", "172440.496000", "172440.498000", "172440.501000", "172440.503000", "172440.506000", "172440.508000", "172440.510000", "172440.513000", "172440.516000", "172440.518000", "172440.521000", "172440.523000", "172440.526000", "172520.462000", "172520.465000", "172520.467000", "172520.470000", "172520.472000", "172520.475000", "172520.477000", "172520.480000", "172520.482000", "172520.485000", "172520.487000", "172520.490000", "172520.492000", "172520.495000", "172520.497000", "172520.500000", "172520.502000", "172520.505000", "172520.507000", "172520.510000", "172520.512000", "172520.515000", "172520.517000", "172520.520000", "172520.522000", "172520.525000", "172520.527000", "172523.211000", "172523.214000"],
      "InstanceCreationTime": ["172200.492000", "172200.494000", "172200.497000", "172200.499000", "172200.502000", "172200.504000", "172200.507000", "172200.509000", "172200.512000", "172200.514000", "172200.517000", "172200.519000", "172200.522000", "172200.529000", "172200.532000", "172200.534000", "172200.537000", "172200.539000", "172200.542000", "172200.544000", "172200.547000", "172200.549000", "172200.552000", "172200.554000", "172200.557000", "172200.559000", "172220.466000", "172220.469000", "172220.471000", "172220.474000", "172220.476000", "172220.479000", "172220.481000", "172220.484000", "172220.486000", "172220.488000", "172220.491000", "172220.493000", "172220.496000", "172220.498000", "172220.501000", "172220.503000", "172220.506000", "172220.508000", "172220.511000", "172220.513000", "172240.454000", "172240.456000", "172240.459000", "172240.461000", "172240.464000", "172240.466000", "172240.469000", "172240.471000", "172240.474000", "172240.476000", "172240.479000", "172240.481000", "172240.484000", "172240.486000", "172240.489000", "172240.491000", "172240.494000", "172240.496000", "172240.498000", "172240.501000", "172300.441000", "172300.444000", "172300.446000", "172300.449000", "172300.451000", "172300.454000", "172300.456000", "172300.459000", "172300.461000", "172300.464000", "172300.466000", "172300.469000", "172300.471000", "172300.474000", "172300.476000", "172300.479000", "172300.481000", "172300.484000", "172300.486000", "172300.489000", "172300.491000", "172320.446000", "172320.449000", "172320.451000", "172320.454000", "172320.456000", "172320.458000", "172320.461000", "172320.463000", "172320.466000", "172320.468000", "172320.471000", "172320.473000", "172320.476000", "172320.478000", "172320.481000", "172320.483000", "172320.486000", "172320.488000", "172320.491000", "172320.493000", "172400.471000", "172400.474000", "172400.476000", "172400.479000", "172400.481000", "172400.484000", "172400.486000", "172400.489000", "172400.491000", "172400.493000", "172400.496000", "172400.498000", "172400.501000", "172400.503000", "172400.506000", "172400.508000", "172400.511000", "172400.513000", "172400.516000", "172400.518000", "172400.521000", "172400.523000", "172400.526000", "172400.528000", "172400.531000", "172400.533000", "172400.535000", "172440.461000", "172440.463000", "172440.466000", "172440.469000", "172440.471000", "172440.473000", "172440.476000", "172440.478000", "172440.481000", "172440.483000", "172440.486000", "172440.488000", "172440.491000", "172440.493000", "172440.496000", "172440.498000", "172440.501000", "172440.503000", "172440.506000", "172440.508000", "172440.510000", "172440.513000", "172440.516000", "172440.518000", "172440.521000", "172440.523000", "172440.526000", "172520.462000", "172520.465000", "172520.467000", "172520.470000", "172520.472000", "172520.475000", "172520.477000", "172520.480000", "172520.482000", "172520.485000", "172520.487000", "172520.490000", "172520.492000", "172520.495000", "172520.497000", "172520.500000", "172520.502000", "172520.505000", "172520.507000", "172520.510000", "172520.512000", "172520.515000", "172520.517000", "172520.520000", "172520.522000", "172520.525000", "172520.527000", "172523.211000", "172523.214000"],
      "InstanceNumber": [1, 2, 3, 4, 5, 6, 7, 8, 9, 10, 11, 12, 13, 14, 15, 16, 17, 18, 19, 20, 21, 22, 23, 24, 25, 26, 27, 28, 29, 30, 31, 32, 33, 34, 35, 36, 37, 38, 39, 40, 41, 42, 43, 44, 45, 46, 47, 48, 49, 50, 51, 52, 53, 54, 55, 56, 57, 58, 59, 60, 61, 62, 63, 64, 65, 66, 67, 68, 69, 70, 71, 72, 73, 74, 75, 76, 77, 78, 79, 80, 81, 82, 83, 84, 85, 86, 87, 88, 89, 90, 91, 92, 93, 94, 95, 96, 97, 98, 99, 100, 101, 102, 103, 104, 105, 106, 107, 108, 109, 110, 111, 112, 113, 114, 115, 116, 117, 118, 119, 120, 121, 122, 123, 124, 125, 126, 127, 128, 129, 130, 131, 132, 133, 134, 135, 136, 137, 138, 139, 140, 141, 142, 143, 144, 145, 146, 147, 148, 149, 150, 151, 152, 153, 154, 155, 156, 157, 158, 159, 160, 161, 162, 163, 164, 165, 166, 167, 168, 169, 170, 171, 172, 173, 174, 175, 176, 177, 178, 179, 180, 181, 182, 183, 184, 185, 186, 187, 188, 189, 190],
      "WindowCenter": [4814.0, 4816.0, 4812.0, 4812.0, 4812.0, 4810.0, 4814.0, 4816.0, 4812.0, 4814.0, 4810.0, 4814.0, 4814.0, 4814.0, 4814.0, 4812.0, 4814.0, 4814.0, 4810.0, 4810.0, 4812.0, 4812.0, 4812.0, 4812.0, 4810.0, 4810.0, 4812.0, 4814.0, 4812.0, 4812.0, 4812.0, 4812.0, 4814.0, 4810.0, 4810.0, 4814.0, 4814.0, 4814.0, 4814.0, 4812.0, 4810.0, 4816.0, 4814.0, 4816.0, 4814.0, 4814.0, 4808.0, 4806.0, 4810.0, 4812.0, 4814.0, 4812.0, 4814.0, 4814.0, 4814.0, 4810.0, 4810.0, 4812.0, 4816.0, 4814.0, 4808.0, 4808.0, 4816.0, 4814.0, 4812.0, 4812.0, 4812.0, 4810.0, 4812.0, 4810.0, 4814.0, 4836.0, 4814.0, 4814.0, 4812.0, 4812.0, 4814.0, 4812.0, 4810.0, 4810.0, 4816.0, 4812.0, 4814.0, 4814.0, 4814.0, 4816.0, 4816.0, 4816.0, 4814.0, 4812.0, 4816.0, 4810.0, 4814.0, 4810.0, 4812.0, 4838.0, 4810.0, 4814.0, 4812.0, 4810.0, 4812.0, 4810.0, 4812.0, 4812.0, 4838.0, 4814.0, 4812.0, 4814.0, 4838.0, 4812.0, 4814.0, 4810.0, 4814.0, 4810.0, 4838.0, 4814.0, 4812.0, 4814.0, 4836.0, 4838.0, 4812.0, 4810.0, 4814.0, 4814.0, 4812.0, 4812.0, 4812.0, 4814.0, 4812.0, 4812.0, 4812.0, 4810.0, 4810.0, 4814.0, 4838.0, 4814.0, 4812.0, 4810.0, 4812.0, 4812.0, 4812.0, 4810.0, 4812.0, 4838.0, 4814.0, 4814.0, 4810.0, 4812.0, 4814.0, 4814.0, 4812.0, 4810.0, 4838.0, 4812.0, 4812.0, 4812.0, 4814.0, 4810.0, 4812.0, 4812.0, 4812.0, 4810.0, 4814.0, 4810.0, 4814.0, 4812.0, 4814.0, 4814.0, 4812.0, 4812.0, 4812.0, 4810.0, 4810.0, 4812.0, 4812.0, 4812.0, 4812.0, 4808.0, 4812.0, 4812.0, 4814.0, 4816.0, 4816.0, 4812.0, 4810.0, 4814.0, 4816.0, 4810.0, 4812.0, 4814.0],
      "WindowWidth": [18610.0, 18616.0, 18612.0, 18614.0, 18604.0, 18602.0, 18612.0, 18612.0, 18614.0, 18610.0, 18610.0, 18612.0, 18616.0, 18614.0, 18612.0, 18612.0, 18616.0, 18616.0, 18610.0, 18604.0, 18616.0, 18612.0, 18614.0, 18608.0, 18608.0, 18612.0, 18610.0, 18612.0, 18612.0, 18614.0, 18614.0, 18612.0, 18610.0, 18600.0, 18610.0, 18616.0, 18614.0, 18614.0, 18612.0, 18604.0, 18608.0, 18616.0, 18614.0, 18614.0, 18614.0, 18612.0, 18600.0, 18602.0, 18610.0, 18618.0, 18614.0, 18610.0, 18616.0, 18610.0, 18616.0, 18602.0, 18610.0, 18618.0, 18618.0, 18614.0, 18610.0, 18608.0, 18620.0, 18612.0, 18612.0, 18610.0, 18614.0, 18602.0, 18606.0, 18610.0, 18610.0, 18642.0, 18616.0, 18612.0, 18608.0, 18614.0, 18610.0, 18614.0, 18608.0, 18612.0, 18616.0, 18608.0, 18614.0, 18616.0, 18612.0, 18612.0, 18614.0, 18610.0, 18606.0, 18606.0, 18618.0, 18614.0, 18614.0, 18606.0, 18614.0, 18642.0, 18610.0, 18610.0, 18612.0, 18608.0, 18610.0, 18606.0, 18616.0, 18610.0, 18648.0, 18608.0, 18608.0, 18616.0, 18644.0, 18616.0, 18614.0, 18602.0, 18616.0, 18614.0, 18646.0, 18612.0, 18610.0, 18616.0, 18646.0, 18642.0, 18608.0, 18610.0, 18614.0, 18616.0, 18610.0, 18614.0, 18614.0, 18612.0, 18614.0, 18616.0, 18622.0, 18612.0, 18608.0, 18612.0, 18646.0, 18614.0, 18610.0, 18606.0, 18614.0, 18614.0, 18612.0, 18612.0, 18618.0, 18648.0, 18614.0, 18614.0, 18608.0, 18612.0, 18616.0, 18612.0, 18608.0, 18612.0, 18640.0, 18612.0, 18612.0, 18608.0, 18618.0, 18612.0, 18608.0, 18608.0, 18606.0, 18606.0, 18604.0, 18612.0, 18616.0, 18614.0, 18610.0, 18616.0, 18614.0, 18614.0, 18608.0, 18610.0, 18606.0, 18612.0, 18608.0, 18614.0, 18610.0, 18602.0, 18612.0, 18614.0, 18612.0, 18616.0, 18618.0, 18610.0, 18610.0, 18614.0, 18610.0, 18614.0, 18612.0, 18618.0]
    },
    "slices": {}
  }
}