{
  "AcquisitionMatrixPE": 104,
  "AcquisitionNumber": 1,
  "AcquisitionTime": "17:51:44.090000",
  "BandwidthPerPixelPhaseEncode": 17.17,
  "BaseResolution": 104,
  "BodyPartExamined": "BRAIN",
  "CoilString": "HC1-7;NC1_2",
  "ConsistencyInfo": "N4_VE11C_LATEST_20160120",
  "ConversionSoftware": "dcm2niix",
  "ConversionSoftwareVersion": "v1.0.20190902",
  "DerivedVendorReportedEchoSpacing": 0.000560011,
  "DeviceSerialNumber": "167006",
  "DwellTime": 2.1e-06,
  "EchoTime": 0.037,
  "EchoTrainLength": 104,
  "EffectiveEchoSpacing": 0.000560011,
  "FlipAngle": 52,
  "HeudiconvVersion": "0.10.0",
  "ImageComments": "Unaliased_MB4_PE3_LB",
  "ImageOrientationPatientDICOM": [0.995411, 0.0912882, 0.0287105, -0.0737971, 0.923261, -0.377018],
  "ImageType": [
    "ORIGINAL",
    "PRIMARY",
    "P",
    "MB",
    "ND",
    "MOSAIC"
],
  "ImagingFrequency": 123.259,
  "InPlanePhaseEncodingDirectionDICOM": "COL",
  "InstitutionAddress": "Chemin_Queen-Mary_4565_Montreal_District_CA_H3W_1W5",
  "InstitutionName": "IUGM",
  "InstitutionalDepartmentName": "Department",
  "MRAcquisitionType": "2D",
  "MagneticFieldStrength": 3,
  "Manufacturer": "Siemens",
  "ManufacturersModelName": "Prisma_fit",
  "Modality": "MR",
  "MultibandAccelerationFactor": 4,
  "PartialFourier": 1,
  "PatientPosition": "HFS",
  "PercentPhaseFOV": 100,
  "PhaseEncodingDirection": "j",
  "PhaseEncodingSteps": 104,
  "PhaseResolution": 1,
  "PixelBandwidth": 2290,
  "ProcedureStepDescription": "memory_things",
  "ProtocolName": "func_task-things_run-4",
  "PulseSequenceDetails": "%CustomerSeq%_cmrr_mbep2d_bold",
  "ReceiveCoilActiveElements": "HC1-7;NC1,2",
  "ReceiveCoilName": "HeadNeck_64",
  "ReconMatrixPE": 104,
  "RepetitionTime": 1.49,
  "SAR": 0.0469176,
  "ScanOptions": "FS",
  "ScanningSequence": "EP",
  "SequenceName": "epfid2d1_104",
  "SequenceVariant": "SK_SS",
  "SeriesDescription": "func_task-things_run-4",
  "SeriesNumber": 28,
  "ShimSetting": [631, -7185, -8809, 650, 81, 17, -101, 2],
  "SliceThickness": 2,
  "SliceTiming": [0, 0.785, 0.0975, 0.8825, 0.1975, 0.98, 0.295, 1.0775, 0.3925, 1.1775, 0.49, 1.275, 0.5875, 1.3725, 0.6875, 0, 0.785, 0.0975, 0.8825, 0.1975, 0.98, 0.295, 1.0775, 0.3925, 1.1775, 0.49, 1.275, 0.5875, 1.3725, 0.6875, 0, 0.785, 0.0975, 0.8825, 0.1975, 0.98, 0.295, 1.0775, 0.3925, 1.1775, 0.49, 1.275, 0.5875, 1.3725, 0.6875, 0, 0.785, 0.0975, 0.8825, 0.1975, 0.98, 0.295, 1.0775, 0.3925, 1.1775, 0.49, 1.275, 0.5875, 1.3725, 0.6875],
  "SoftwareVersions": "syngo_MR_E11",
  "SpacingBetweenSlices": 2,
  "StationName": "MRC35049",
  "TaskName": "things",
  "TotalReadoutTime": 0.0576811,
  "TxRefAmp": 263.015,
  "WipMemBlock": "d3a87609-c1ab-46b1-a1d6-7df5bd2ef2ec||Sequence: R016 ve11c/master r/e634e98; Dec 19 2017 11:00:25 by eja",
  "dcmmeta_affine": [
    [-1.990821123123169, -0.14759425818920135, 0.12184923887252808, 110.03850555419922],
    [-0.18257637321949005, 1.8465222120285034, -0.7463387250900269, -48.30487060546875],
    [0.057421013712882996, 0.7540368437767029, 1.8515212535858154, -63.184730529785156],
    [0.0, 0.0, 0.0, 1.0]
],
  "dcmmeta_reorient_transform": [
    [0.0, -1.0, 0.0, 103.0],
    [1.0, 0.0, 0.0, 0.0],
    [0.0, 0.0, 1.0, 0.0],
    [0.0, 0.0, 0.0, 1.0]
],
  "dcmmeta_shape": [104, 104, 60, 190],
  "dcmmeta_slice_dim": 2,
  "dcmmeta_version": 0.6,
  "global": {
    "const": {
      "AcquisitionMatrix": [104, 0, 0, 104],
      "AngioFlag": "N",
      "BitsAllocated": 16,
      "BitsStored": 16,
      "BodyPartExamined": "BRAIN",
      "Columns": 832,
      "EchoNumbers": 1,
      "EchoTime": 37.0,
      "EchoTrainLength": 104,
      "FlipAngle": 52.0,
      "HighBit": 15,
      "ImageOrientationPatient": [0.99541055546089, 0.09128818585408, 0.02871050679667, -0.0737971305338, 0.92326111904668, -0.3770184207458],
      "ImagePositionPatient": [-765.77087275702, -880.4788124184, 268.04922442948],
      "ImageType": [
        "ORIGINAL",
        "PRIMARY",
        "P",
        "MB",
        "ND",
        "MOSAIC"
],
      "ImagedNucleus": "1H",
      "ImagingFrequency": 123.259085,
      "InPlanePhaseEncodingDirection": "COL",
      "LargestImagePixelValue": 4095,
      "MRAcquisitionType": "2D",
      "MagneticFieldStrength": 3.0,
      "Manufacturer": "SIEMENS",
      "ManufacturerModelName": "Prisma_fit",
      "Modality": "MR",
      "NumberOfAverages": 1.0,
      "NumberOfPhaseEncodingSteps": 104,
      "PercentPhaseFieldOfView": 100.0,
      "PercentSampling": 100.0,
      "PerformedProcedureStepStartTime": "165311.059000",
      "PhotometricInterpretation": "MONOCHROME2",
      "PixelBandwidth": 2290.0,
      "PixelRepresentation": 0,
      "PixelSpacing": [2.0, 2.0],
      "ProtocolName": "func_task-things_run-4",
      "RepetitionTime": 1490.0,
      "RescaleIntercept": -4096.0,
      "RescaleSlope": 2.0,
      "RescaleType": "US",
      "Rows": 832,
      "SAR": 0.04691755967296,
      "SamplesPerPixel": 1,
      "ScanOptions": "FS",
      "ScanningSequence": "EP",
      "SequenceName": "epfid2d1_104",
      "SequenceVariant": [
        "SK",
        "SS"
],
      "SeriesDescription": "func_task-things_run-4",
      "SeriesNumber": 28,
      "SeriesTime": "175300.477000",
      "SliceLocation": -33.763986550181,
      "SliceThickness": 2.0,
      "SmallestImagePixelValue": 0,
      "SoftwareVersions": "syngo MR E11",
      "SpacingBetweenSlices": 1.9999999556735,
      "SpecificCharacterSet": "ISO_IR 100",
      "StudyID": "1",
      "StudyTime": "165310.912000",
      "TransmitCoilName": "Body",
      "VariableFlipAngleFlag": "N",
      "WindowCenterWidthExplanation": "Algo1",
      "dBdt": 0.0},
    "slices": {}
  },
  "time": {
    "samples": {
      "AcquisitionNumber": [1, 2, 3, 4, 5, 6, 7, 8, 9, 10, 11, 12, 13, 14, 15, 16, 17, 18, 19, 20, 21, 22, 23, 24, 25, 26, 27, 28, 29, 30, 31, 32, 33, 34, 35, 36, 37, 38, 39, 40, 41, 42, 43, 44, 45, 46, 47, 48, 49, 50, 51, 52, 53, 54, 55, 56, 57, 58, 59, 60, 61, 62, 63, 64, 65, 66, 67, 68, 69, 70, 71, 72, 73, 74, 75, 76, 77, 78, 79, 80, 81, 82, 83, 84, 85, 86, 87, 88, 89, 90, 91, 92, 93, 94, 95, 96, 97, 98, 99, 100, 101, 102, 103, 104, 105, 106, 107, 108, 109, 110, 111, 112, 113, 114, 115, 116, 117, 118, 119, 120, 121, 122, 123, 124, 125, 126, 127, 128, 129, 130, 131, 132, 133, 134, 135, 136, 137, 138, 139, 140, 141, 142, 143, 144, 145, 146, 147, 148, 149, 150, 151, 152, 153, 154, 155, 156, 157, 158, 159, 160, 161, 162, 163, 164, 165, 166, 167, 168, 169, 170, 171, 172, 173, 174, 175, 176, 177, 178, 179, 180, 181, 182, 183, 184, 185, 186, 187, 188, 189, 190],
      "AcquisitionTime": ["175144.090000", "175145.580000", "175147.070000", "175148.560000", "175150.050000", "175151.540000", "175153.030000", "175154.520000", "175156.010000", "175157.500000", "175158.990000", "175200.480000", "175201.970000", "175203.460000", "175204.950000", "175206.440000", "175207.930000", "175209.420000", "175210.910000", "175212.400000", "175213.890000", "175215.380000", "175216.870000", "175218.360000", "175219.850000", "175221.340000", "175222.830000", "175224.320000", "175225.810000", "175227.300000", "175228.790000", "175230.280000", "175231.770000", "175233.260000", "175234.750000", "175236.240000", "175237.730000", "175239.220000", "175240.710000", "175242.200000", "175243.690000", "175245.180000", "175246.670000", "175248.160000", "175249.650000", "175251.140000", "175252.630000", "175254.120000", "175255.610000", "175257.100000", "175258.590000", "175300.080000", "175301.570000", "175303.060000", "175304.550000", "175306.040000", "175307.530000", "175309.020000", "175310.510000", "175312.000000", "175313.490000", "175314.980000", "175316.470000", "175317.960000", "175319.450000", "175320.940000", "175322.430000", "175323.920000", "175325.410000", "175326.900000", "175328.390000", "175329.880000", "175331.370000", "175332.860000", "175334.350000", "175335.840000", "175337.330000", "175338.820000", "175340.310000", "175341.800000", "175343.290000", "175344.780000", "175346.270000", "175347.760000", "175349.250000", "175350.740000", "175352.230000", "175353.720000", "175355.210000", "175356.700000", "175358.190000", "175359.680000", "175401.170000", "175402.660000", "175404.150000", "175405.640000", "175407.130000", "175408.620000", "175410.110000", "175411.600000", "175413.090000", "175414.580000", "175416.070000", "175417.560000", "175419.050000", "175420.540000", "175422.030000", "175423.520000", "175425.010000", "175426.500000", "175427.990000", "175429.480000", "175430.970000", "175432.460000", "175433.950000", "175435.440000", "175436.930000", "175438.420000", "175439.910000", "175441.400000", "175442.890000", "175444.380000", "175445.870000", "175447.360000", "175448.850000", "175450.340000", "175451.830000", "175453.320000", "175454.810000", "175456.300000", "175457.790000", "175459.280000", "175500.770000", "175502.260000", "175503.750000", "175505.240000", "175506.730000", "175508.220000", "175509.710000", "175511.200000", "175512.690000", "175514.180000", "175515.670000", "175517.160000", "175518.650000", "175520.140000", "175521.630000", "175523.120000", "175524.610000", "175526.100000", "175527.590000", "175529.080000", "175530.570000", "175532.060000", "175533.550000", "175535.040000", "175536.530000", "175538.020000", "175539.510000", "175541.000000", "175542.490000", "175543.980000", "175545.470000", "175546.960000", "175548.450000", "175549.940000", "175551.430000", "175552.920000", "175554.410000", "175555.900000", "175557.390000", "175558.880000", "175600.370000", "175601.860000", "175603.350000", "175604.840000", "175606.330000", "175607.820000", "175609.310000", "175610.800000", "175612.290000", "175613.780000", "175615.270000", "175616.760000", "175618.250000", "175619.740000", "175621.230000", "175622.720000", "175624.210000", "175625.700000"],
      "ContentTime": ["175300.479000", "175300.482000", "175300.484000", "175300.487000", "175300.489000", "175300.492000", "175300.494000", "175300.497000", "175300.499000", "175300.502000", "175300.504000", "175300.507000", "175300.509000", "175300.512000", "175300.514000", "175300.517000", "175300.519000", "175300.522000", "175300.524000", "175300.527000", "175300.529000", "175300.532000", "175320.436000", "175320.439000", "175320.441000", "175320.444000", "175320.447000", "175320.449000", "175320.451000", "175320.454000", "175320.457000", "175320.459000", "175320.461000", "175320.464000", "175320.467000", "175320.469000", "175320.471000", "175320.474000", "175320.476000", "175320.479000", "175320.481000", "175320.487000", "175340.436000", "175340.439000", "175340.442000", "175340.444000", "175340.447000", "175340.449000", "175340.452000", "175340.454000", "175340.457000", "175340.459000", "175340.462000", "175340.464000", "175340.467000", "175340.477000", "175340.480000", "175340.483000", "175340.485000", "175340.488000", "175340.490000", "175340.493000", "175340.495000", "175400.441000", "175400.444000", "175400.446000", "175400.449000", "175400.451000", "175400.454000", "175400.456000", "175400.459000", "175400.461000", "175400.464000", "175400.466000", "175400.469000", "175400.471000", "175400.474000", "175400.476000", "175400.479000", "175400.481000", "175400.484000", "175400.487000", "175400.489000", "175420.446000", "175420.449000", "175420.451000", "175420.454000", "175420.456000", "175420.459000", "175420.461000", "175420.464000", "175420.466000", "175420.469000", "175420.471000", "175420.474000", "175420.476000", "175420.479000", "175420.481000", "175420.484000", "175420.486000", "175420.489000", "175420.492000", "175420.494000", "175500.465000", "175500.467000", "175500.470000", "175500.472000", "175500.475000", "175500.478000", "175500.487000", "175500.490000", "175500.492000", "175500.495000", "175500.498000", "175500.500000", "175500.502000", "175500.505000", "175500.508000", "175500.510000", "175500.513000", "175500.515000", "175500.518000", "175500.520000", "175500.523000", "175500.525000", "175500.528000", "175500.530000", "175500.533000", "175500.535000", "175500.538000", "175500.540000", "175540.466000", "175540.469000", "175540.486000", "175540.488000", "175540.491000", "175540.493000", "175540.496000", "175540.498000", "175540.501000", "175540.503000", "175540.506000", "175540.509000", "175540.511000", "175540.514000", "175540.516000", "175540.519000", "175540.521000", "175540.524000", "175540.526000", "175540.529000", "175540.531000", "175540.534000", "175540.536000", "175540.539000", "175540.541000", "175540.544000", "175620.481000", "175620.483000", "175620.486000", "175620.489000", "175620.491000", "175620.494000", "175620.496000", "175620.499000", "175620.501000", "175620.504000", "175620.506000", "175620.509000", "175620.511000", "175620.514000", "175620.517000", "175620.519000", "175620.522000", "175620.524000", "175620.527000", "175620.529000", "175620.532000", "175620.534000", "175620.537000", "175620.540000", "175620.542000", "175620.545000", "175620.548000", "175628.100000", "175628.103000", "175628.105000", "175628.108000", "175628.110000", "175628.120000"],
      "InstanceCreationTime": ["175300.479000", "175300.482000", "175300.484000", "175300.487000", "175300.489000", "175300.492000", "175300.494000", "175300.497000", "175300.499000", "175300.502000", "175300.504000", "175300.507000", "175300.509000", "175300.512000", "175300.514000", "175300.517000", "175300.519000", "175300.522000", "175300.524000", "175300.527000", "175300.529000", "175300.532000", "175320.436000", "175320.439000", "175320.441000", "175320.444000", "175320.447000", "175320.449000", "175320.451000", "175320.454000", "175320.457000", "175320.459000", "175320.461000", "175320.464000", "175320.467000", "175320.469000", "175320.471000", "175320.474000", "175320.476000", "175320.479000", "175320.481000", "175320.487000", "175340.436000", "175340.439000", "175340.442000", "175340.444000", "175340.447000", "175340.449000", "175340.452000", "175340.454000", "175340.457000", "175340.459000", "175340.462000", "175340.464000", "175340.467000", "175340.477000", "175340.480000", "175340.483000", "175340.485000", "175340.488000", "175340.490000", "175340.493000", "175340.495000", "175400.441000", "175400.444000", "175400.446000", "175400.449000", "175400.451000", "175400.454000", "175400.456000", "175400.459000", "175400.461000", "175400.464000", "175400.466000", "175400.469000", "175400.471000", "175400.474000", "175400.476000", "175400.479000", "175400.481000", "175400.484000", "175400.487000", "175400.489000", "175420.446000", "175420.449000", "175420.451000", "175420.454000", "175420.456000", "175420.459000", "175420.461000", "175420.464000", "175420.466000", "175420.469000", "175420.471000", "175420.474000", "175420.476000", "175420.479000", "175420.481000", "175420.484000", "175420.486000", "175420.489000", "175420.492000", "175420.494000", "175500.465000", "175500.467000", "175500.470000", "175500.472000", "175500.475000", "175500.478000", "175500.487000", "175500.490000", "175500.492000", "175500.495000", "175500.498000", "175500.500000", "175500.502000", "175500.505000", "175500.508000", "175500.510000", "175500.513000", "175500.515000", "175500.518000", "175500.520000", "175500.523000", "175500.525000", "175500.528000", "175500.530000", "175500.533000", "175500.535000", "175500.538000", "175500.540000", "175540.466000", "175540.469000", "175540.486000", "175540.488000", "175540.491000", "175540.493000", "175540.496000", "175540.498000", "175540.501000", "175540.503000", "175540.506000", "175540.509000", "175540.511000", "175540.514000", "175540.516000", "175540.519000", "175540.521000", "175540.524000", "175540.526000", "175540.529000", "175540.531000", "175540.534000", "175540.536000", "175540.539000", "175540.541000", "175540.544000", "175620.481000", "175620.483000", "175620.486000", "175620.489000", "175620.491000", "175620.494000", "175620.496000", "175620.499000", "175620.501000", "175620.504000", "175620.506000", "175620.509000", "175620.511000", "175620.514000", "175620.517000", "175620.519000", "175620.522000", "175620.524000", "175620.527000", "175620.529000", "175620.532000", "175620.534000", "175620.537000", "175620.540000", "175620.542000", "175620.545000", "175620.548000", "175628.100000", "175628.103000", "175628.105000", "175628.108000", "175628.110000", "175628.120000"],
      "InstanceNumber": [1, 2, 3, 4, 5, 6, 7, 8, 9, 10, 11, 12, 13, 14, 15, 16, 17, 18, 19, 20, 21, 22, 23, 24, 25, 26, 27, 28, 29, 30, 31, 32, 33, 34, 35, 36, 37, 38, 39, 40, 41, 42, 43, 44, 45, 46, 47, 48, 49, 50, 51, 52, 53, 54, 55, 56, 57, 58, 59, 60, 61, 62, 63, 64, 65, 66, 67, 68, 69, 70, 71, 72, 73, 74, 75, 76, 77, 78, 79, 80, 81, 82, 83, 84, 85, 86, 87, 88, 89, 90, 91, 92, 93, 94, 95, 96, 97, 98, 99, 100, 101, 102, 103, 104, 105, 106, 107, 108, 109, 110, 111, 112, 113, 114, 115, 116, 117, 118, 119, 120, 121, 122, 123, 124, 125, 126, 127, 128, 129, 130, 131, 132, 133, 134, 135, 136, 137, 138, 139, 140, 141, 142, 143, 144, 145, 146, 147, 148, 149, 150, 151, 152, 153, 154, 155, 156, 157, 158, 159, 160, 161, 162, 163, 164, 165, 166, 167, 168, 169, 170, 171, 172, 173, 174, 175, 176, 177, 178, 179, 180, 181, 182, 183, 184, 185, 186, 187, 188, 189, 190],
      "WindowCenter": [4844.0, 4840.0, 4842.0, 4838.0, 4840.0, 4842.0, 4846.0, 4846.0, 4846.0, 4842.0, 4844.0, 4844.0, 4840.0, 4814.0, 4842.0, 4846.0, 4844.0, 4844.0, 4848.0, 4842.0, 4842.0, 4840.0, 4814.0, 4808.0, 4814.0, 4840.0, 4842.0, 4842.0, 4842.0, 4846.0, 4846.0, 4840.0, 4840.0, 4812.0, 4816.0, 4838.0, 4844.0, 4844.0, 4842.0, 4842.0, 4842.0, 4840.0, 4840.0, 4838.0, 4840.0, 4842.0, 4842.0, 4840.0, 4842.0, 4840.0, 4842.0, 4842.0, 4842.0, 4840.0, 4844.0, 4840.0, 4844.0, 4842.0, 4814.0, 4816.0, 4840.0, 4840.0, 4842.0, 4842.0, 4840.0, 4840.0, 4844.0, 4836.0, 4812.0, 4840.0, 4838.0, 4840.0, 4818.0, 4816.0, 4818.0, 4842.0, 4842.0, 4844.0, 4842.0, 4818.0, 4838.0, 4838.0, 4816.0, 4814.0, 4814.0, 4842.0, 4844.0, 4840.0, 4842.0, 4840.0, 4816.0, 4814.0, 4840.0, 4838.0, 4838.0, 4814.0, 4836.0, 4840.0, 4840.0, 4840.0, 4842.0, 4842.0, 4838.0, 4840.0, 4842.0, 4816.0, 4814.0, 4814.0, 4838.0, 4838.0, 4816.0, 4838.0, 4840.0, 4836.0, 4840.0, 4838.0, 4838.0, 4840.0, 4838.0, 4814.0, 4816.0, 4814.0, 4816.0, 4816.0, 4838.0, 4838.0, 4838.0, 4840.0, 4836.0, 4814.0, 4838.0, 4812.0, 4814.0, 4836.0, 4836.0, 4812.0, 4814.0, 4834.0, 4814.0, 4840.0, 4836.0, 4816.0, 4814.0, 4838.0, 4838.0, 4814.0, 4812.0, 4812.0, 4836.0, 4838.0, 4838.0, 4844.0, 4836.0, 4812.0, 4810.0, 4812.0, 4840.0, 4840.0, 4838.0, 4812.0, 4838.0, 4844.0, 4842.0, 4834.0, 4814.0, 4814.0, 4840.0, 4838.0, 4812.0, 4816.0, 4812.0, 4840.0, 4842.0, 4842.0, 4842.0, 4818.0, 4818.0, 4844.0, 4840.0, 4840.0, 4840.0, 4814.0, 4842.0, 4814.0, 4844.0, 4844.0, 4842.0, 4844.0, 4844.0, 4816.0],
      "WindowWidth": [18654.0, 18648.0, 18654.0, 18644.0, 18640.0, 18650.0, 18656.0, 18656.0, 18654.0, 18654.0, 18654.0, 18652.0, 18640.0, 18598.0, 18642.0, 18656.0, 18654.0, 18654.0, 18656.0, 18656.0, 18658.0, 18650.0, 18606.0, 18594.0, 18602.0, 18650.0, 18654.0, 18654.0, 18648.0, 18656.0, 18656.0, 18650.0, 18642.0, 18608.0, 18616.0, 18652.0, 18650.0, 18652.0, 18652.0, 18662.0, 18652.0, 18648.0, 18654.0, 18648.0, 18646.0, 18652.0, 18654.0, 18654.0, 18648.0, 18644.0, 18654.0, 18652.0, 18648.0, 18650.0, 18656.0, 18648.0, 18658.0, 18650.0, 18610.0, 18612.0, 18646.0, 18652.0, 18650.0, 18652.0, 18650.0, 18650.0, 18652.0, 18648.0, 18604.0, 18646.0, 18650.0, 18654.0, 18612.0, 18606.0, 18614.0, 18654.0, 18658.0, 18660.0, 18654.0, 18616.0, 18648.0, 18644.0, 18616.0, 18602.0, 18608.0, 18652.0, 18658.0, 18654.0, 18656.0, 18652.0, 18614.0, 18614.0, 18648.0, 18648.0, 18650.0, 18612.0, 18644.0, 18650.0, 18642.0, 18648.0, 18656.0, 18656.0, 18644.0, 18648.0, 18652.0, 18618.0, 18608.0, 18618.0, 18650.0, 18648.0, 18604.0, 18646.0, 18652.0, 18650.0, 18650.0, 18650.0, 18652.0, 18642.0, 18648.0, 18620.0, 18612.0, 18616.0, 18612.0, 18608.0, 18650.0, 18648.0, 18650.0, 18654.0, 18646.0, 18616.0, 18646.0, 18614.0, 18616.0, 18648.0, 18642.0, 18610.0, 18614.0, 18648.0, 18608.0, 18644.0, 18646.0, 18610.0, 18612.0, 18648.0, 18646.0, 18614.0, 18600.0, 18612.0, 18650.0, 18650.0, 18650.0, 18652.0, 18650.0, 18608.0, 18604.0, 18612.0, 18652.0, 18654.0, 18644.0, 18608.0, 18644.0, 18658.0, 18654.0, 18648.0, 18604.0, 18610.0, 18654.0, 18650.0, 18612.0, 18606.0, 18602.0, 18652.0, 18658.0, 18658.0, 18646.0, 18604.0, 18612.0, 18658.0, 18654.0, 18650.0, 18642.0, 18596.0, 18644.0, 18612.0, 18652.0, 18656.0, 18652.0, 18658.0, 18656.0, 18600.0]
    },
    "slices": {}
  }
}