{
  "AcquisitionMatrixPE": 104,
  "AcquisitionNumber": 1,
  "AcquisitionTime": "17:34:17.562500",
  "BandwidthPerPixelPhaseEncode": 17.17,
  "BaseResolution": 104,
  "BodyPartExamined": "BRAIN",
  "CoilString": "HC1-7;NC1_2",
  "ConsistencyInfo": "N4_VE11C_LATEST_20160120",
  "ConversionSoftware": "dcm2niix",
  "ConversionSoftwareVersion": "v1.0.20190902",
  "DerivedVendorReportedEchoSpacing": 0.000560011,
  "DeviceSerialNumber": "167006",
  "DwellTime": 2.1e-06,
  "EchoTime": 0.037,
  "EchoTrainLength": 104,
  "EffectiveEchoSpacing": 0.000560011,
  "FlipAngle": 52,
  "HeudiconvVersion": "0.10.0",
  "ImageComments": "Unaliased_MB4_PE3_LB",
  "ImageOrientationPatientDICOM": [0.997154, 0.06863, 0.0312145, -0.0557495, 0.949894, -0.307561],
  "ImageType": [
    "ORIGINAL",
    "PRIMARY",
    "M",
    "MB",
    "ND",
    "MOSAIC"
],
  "ImagingFrequency": 123.259,
  "InPlanePhaseEncodingDirectionDICOM": "COL",
  "InstitutionAddress": "Chemin_Queen-Mary_4565_Montreal_District_CA_H3W_1W5",
  "InstitutionName": "IUGM",
  "InstitutionalDepartmentName": "Department",
  "MRAcquisitionType": "2D",
  "MagneticFieldStrength": 3,
  "Manufacturer": "Siemens",
  "ManufacturersModelName": "Prisma_fit",
  "Modality": "MR",
  "MultibandAccelerationFactor": 4,
  "PartialFourier": 1,
  "PatientPosition": "HFS",
  "PercentPhaseFOV": 100,
  "PhaseEncodingDirection": "j",
  "PhaseEncodingSteps": 104,
  "PhaseResolution": 1,
  "PixelBandwidth": 2290,
  "ProcedureStepDescription": "memory_things",
  "ProtocolName": "func_task-things_run-3",
  "PulseSequenceDetails": "%CustomerSeq%_cmrr_mbep2d_bold",
  "ReceiveCoilActiveElements": "HC1-7;NC1,2",
  "ReceiveCoilName": "HeadNeck_64",
  "ReconMatrixPE": 104,
  "RepetitionTime": 1.49,
  "SAR": 0.0532952,
  "ScanOptions": "FS",
  "ScanningSequence": "EP",
  "SequenceName": "epfid2d1_104",
  "SequenceVariant": "SK_SS",
  "SeriesDescription": "func_task-things_run-3",
  "SeriesNumber": 16,
  "ShimSetting": [631, -7192, -8806, 691, 81, 23, -13, -19],
  "SliceThickness": 2,
  "SliceTiming": [0, 0.7825, 0.0975, 0.88, 0.195, 0.98, 0.2925, 1.0775, 0.3925, 1.175, 0.49, 1.2725, 0.5875, 1.37, 0.685, 0, 0.7825, 0.0975, 0.88, 0.195, 0.98, 0.2925, 1.0775, 0.3925, 1.175, 0.49, 1.2725, 0.5875, 1.37, 0.685, 0, 0.7825, 0.0975, 0.88, 0.195, 0.98, 0.2925, 1.0775, 0.3925, 1.175, 0.49, 1.2725, 0.5875, 1.37, 0.685, 0, 0.7825, 0.0975, 0.88, 0.195, 0.98, 0.2925, 1.0775, 0.3925, 1.175, 0.49, 1.2725, 0.5875, 1.37, 0.685],
  "SoftwareVersions": "syngo_MR_E11",
  "SpacingBetweenSlices": 2,
  "StationName": "MRC35049",
  "TaskName": "things",
  "TotalReadoutTime": 0.0576811,
  "TxRefAmp": 278.891,
  "WipMemBlock": "942064c7-8fdd-4007-bd02-2d28b6df6849||Sequence: R016 ve11c/master r/e634e98; Dec 19 2017 11:00:25 by eja",
  "dcmmeta_affine": [
    [-1.994307518005371, -0.11149906367063522, 0.10151665657758713, 109.61216735839844],
    [-0.13725996017456055, 1.8997877836227417, -0.6098901629447937, -55.64427185058594],
    [0.06242895871400833, 0.6151213645935059, 1.902032732963562, -59.24467086791992],
    [0.0, 0.0, 0.0, 1.0]
],
  "dcmmeta_reorient_transform": [
    [0.0, -1.0, 0.0, 103.0],
    [1.0, 0.0, 0.0, 0.0],
    [0.0, 0.0, 1.0, 0.0],
    [0.0, 0.0, 0.0, 1.0]
],
  "dcmmeta_shape": [104, 104, 60, 190],
  "dcmmeta_slice_dim": 2,
  "dcmmeta_version": 0.6,
  "global": {
    "const": {
      "AcquisitionMatrix": [104, 0, 0, 104],
      "AngioFlag": "N",
      "BitsAllocated": 16,
      "BitsStored": 16,
      "BodyPartExamined": "BRAIN",
      "Columns": 832,
      "EchoNumbers": 1,
      "EchoTime": 37.0,
      "EchoTrainLength": 104,
      "FlipAngle": 52.0,
      "HighBit": 15,
      "ImageOrientationPatient": [0.99715374030191, 0.06862998234462, 0.03121447941721, -0.0557495329898, 0.94989390053875, -0.3075606725358],
      "ImagePositionPatient": [-783.47002474058, -881.51925810169, 205.29285448256],
      "ImageType": [
        "ORIGINAL",
        "PRIMARY",
        "M",
        "MB",
        "ND",
        "MOSAIC"
],
      "ImagedNucleus": "1H",
      "ImagingFrequency": 123.25909,
      "InPlanePhaseEncodingDirection": "COL",
      "MRAcquisitionType": "2D",
      "MagneticFieldStrength": 3.0,
      "Manufacturer": "SIEMENS",
      "ManufacturerModelName": "Prisma_fit",
      "Modality": "MR",
      "NumberOfAverages": 1.0,
      "NumberOfPhaseEncodingSteps": 104,
      "PercentPhaseFieldOfView": 100.0,
      "PercentSampling": 100.0,
      "PerformedProcedureStepStartTime": "165311.059000",
      "PhotometricInterpretation": "MONOCHROME2",
      "PixelBandwidth": 2290.0,
      "PixelRepresentation": 0,
      "PixelSpacing": [2.0, 2.0],
      "ProtocolName": "func_task-things_run-3",
      "RepetitionTime": 1490.0,
      "Rows": 832,
      "SAR": 0.05329517935743,
      "SamplesPerPixel": 1,
      "ScanOptions": "FS",
      "ScanningSequence": "EP",
      "SequenceName": "epfid2d1_104",
      "SequenceVariant": [
        "SK",
        "SS"
],
      "SeriesDescription": "func_task-things_run-3",
      "SeriesNumber": 16,
      "SeriesTime": "173549.598000",
      "SliceLocation": -33.810474748989,
      "SliceThickness": 2.0,
      "SmallestImagePixelValue": 0,
      "SoftwareVersions": "syngo MR E11",
      "SpacingBetweenSlices": 2.0000000086385,
      "SpecificCharacterSet": "ISO_IR 100",
      "StudyID": "1",
      "StudyTime": "165310.912000",
      "TransmitCoilName": "Body",
      "VariableFlipAngleFlag": "N",
      "WindowCenterWidthExplanation": "Algo1",
      "dBdt": 0.0},
    "slices": {}
  },
  "time": {
    "samples": {
      "AcquisitionNumber": [1, 2, 3, 4, 5, 6, 7, 8, 9, 10, 11, 12, 13, 14, 15, 16, 17, 18, 19, 20, 21, 22, 23, 24, 25, 26, 27, 28, 29, 30, 31, 32, 33, 34, 35, 36, 37, 38, 39, 40, 41, 42, 43, 44, 45, 46, 47, 48, 49, 50, 51, 52, 53, 54, 55, 56, 57, 58, 59, 60, 61, 62, 63, 64, 65, 66, 67, 68, 69, 70, 71, 72, 73, 74, 75, 76, 77, 78, 79, 80, 81, 82, 83, 84, 85, 86, 87, 88, 89, 90, 91, 92, 93, 94, 95, 96, 97, 98, 99, 100, 101, 102, 103, 104, 105, 106, 107, 108, 109, 110, 111, 112, 113, 114, 115, 116, 117, 118, 119, 120, 121, 122, 123, 124, 125, 126, 127, 128, 129, 130, 131, 132, 133, 134, 135, 136, 137, 138, 139, 140, 141, 142, 143, 144, 145, 146, 147, 148, 149, 150, 151, 152, 153, 154, 155, 156, 157, 158, 159, 160, 161, 162, 163, 164, 165, 166, 167, 168, 169, 170, 171, 172, 173, 174, 175, 176, 177, 178, 179, 180, 181, 182, 183, 184, 185, 186, 187, 188, 189, 190],
      "AcquisitionTime": ["173417.562500", "173419.052500", "173420.542500", "173422.032500", "173423.522500", "173425.012500", "173426.502500", "173427.992500", "173429.482500", "173430.972500", "173432.462500", "173433.952500", "173435.442500", "173436.932500", "173438.422500", "173439.912500", "173441.402500", "173442.892500", "173444.382500", "173445.872500", "173447.362500", "173448.852500", "173450.342500", "173451.832500", "173453.322500", "173454.812500", "173456.302500", "173457.792500", "173459.282500", "173500.772500", "173502.262500", "173503.752500", "173505.242500", "173506.732500", "173508.222500", "173509.712500", "173511.202500", "173512.692500", "173514.182500", "173515.672500", "173517.162500", "173518.652500", "173520.142500", "173521.632500", "173523.122500", "173524.612500", "173526.102500", "173527.592500", "173529.082500", "173530.572500", "173532.062500", "173533.552500", "173535.042500", "173536.532500", "173538.022500", "173539.512500", "173541.002500", "173542.492500", "173543.982500", "173545.472500", "173546.962500", "173548.452500", "173549.942500", "173551.432500", "173552.922500", "173554.412500", "173555.902500", "173557.392500", "173558.882500", "173600.372500", "173601.862500", "173603.352500", "173604.842500", "173606.332500", "173607.822500", "173609.312500", "173610.802500", "173612.292500", "173613.782500", "173615.272500", "173616.762500", "173618.252500", "173619.742500", "173621.232500", "173622.722500", "173624.212500", "173625.702500", "173627.192500", "173628.682500", "173630.172500", "173631.662500", "173633.152500", "173634.642500", "173636.132500", "173637.622500", "173639.112500", "173640.602500", "173642.092500", "173643.582500", "173645.072500", "173646.562500", "173648.052500", "173649.542500", "173651.032500", "173652.522500", "173654.012500", "173655.502500", "173656.992500", "173658.482500", "173659.972500", "173701.462500", "173702.952500", "173704.442500", "173705.932500", "173707.422500", "173708.912500", "173710.402500", "173711.892500", "173713.382500", "173714.872500", "173716.362500", "173717.852500", "173719.342500", "173720.832500", "173722.322500", "173723.812500", "173725.302500", "173726.792500", "173728.282500", "173729.772500", "173731.262500", "173732.752500", "173734.242500", "173735.732500", "173737.222500", "173738.712500", "173740.202500", "173741.692500", "173743.182500", "173744.672500", "173746.162500", "173747.652500", "173749.142500", "173750.632500", "173752.122500", "173753.612500", "173755.102500", "173756.592500", "173758.082500", "173759.572500", "173801.062500", "173802.552500", "173804.042500", "173805.532500", "173807.022500", "173808.512500", "173810.002500", "173811.492500", "173812.982500", "173814.472500", "173815.962500", "173817.452500", "173818.942500", "173820.432500", "173821.922500", "173823.412500", "173824.902500", "173826.392500", "173827.882500", "173829.372500", "173830.862500", "173832.352500", "173833.842500", "173835.332500", "173836.822500", "173838.312500", "173839.802500", "173841.292500", "173842.782500", "173844.272500", "173845.762500", "173847.252500", "173848.742500", "173850.232500", "173851.722500", "173853.212500", "173854.702500", "173856.192500", "173857.682500", "173859.172500"],
      "ContentTime": ["173549.602000", "173549.605000", "173549.609000", "173549.612000", "173549.615000", "173549.618000", "173549.622000", "173549.627000", "173549.630000", "173549.633000", "173549.637000", "173549.640000", "173549.643000", "173549.647000", "173549.650000", "173549.653000", "173549.656000", "173549.659000", "173549.663000", "173549.666000", "173549.669000", "173549.672000", "173549.676000", "173549.679000", "173549.682000", "173549.685000", "173549.689000", "173549.692000", "173549.695000", "173549.698000", "173549.702000", "173549.705000", "173549.708000", "173549.711000", "173549.715000", "173549.718000", "173549.721000", "173549.724000", "173549.728000", "173609.557000", "173609.561000", "173609.564000", "173609.567000", "173609.571000", "173609.574000", "173609.577000", "173609.580000", "173609.584000", "173609.587000", "173609.590000", "173609.594000", "173609.597000", "173609.600000", "173609.604000", "173609.607000", "173609.610000", "173609.619000", "173609.623000", "173609.626000", "173629.558000", "173629.562000", "173629.565000", "173629.568000", "173629.572000", "173629.575000", "173629.578000", "173629.582000", "173629.585000", "173629.588000", "173629.592000", "173629.595000", "173629.598000", "173629.602000", "173629.605000", "173629.608000", "173629.612000", "173629.615000", "173629.618000", "173629.622000", "173649.558000", "173649.562000", "173649.565000", "173649.569000", "173649.574000", "173649.578000", "173649.582000", "173649.586000", "173649.589000", "173649.592000", "173649.595000", "173649.599000", "173649.602000", "173649.605000", "173649.609000", "173649.612000", "173649.616000", "173649.619000", "173649.622000", "173649.625000", "173709.557000", "173709.561000", "173709.564000", "173709.568000", "173709.571000", "173709.574000", "173709.578000", "173709.581000", "173709.584000", "173709.587000", "173709.591000", "173709.594000", "173709.598000", "173709.601000", "173709.604000", "173749.557000", "173749.561000", "173749.564000", "173749.567000", "173749.571000", "173749.574000", "173749.578000", "173749.581000", "173749.584000", "173749.588000", "173749.591000", "173749.594000", "173749.598000", "173749.601000", "173749.604000", "173749.608000", "173749.611000", "173749.614000", "173749.618000", "173749.621000", "173749.624000", "173749.628000", "173749.631000", "173749.634000", "173749.637000", "173749.641000", "173749.644000", "173829.557000", "173829.561000", "173829.564000", "173829.567000", "173829.571000", "173829.574000", "173829.578000", "173829.581000", "173829.584000", "173829.587000", "173829.591000", "173829.594000", "173829.597000", "173829.601000", "173829.604000", "173829.607000", "173829.610000", "173829.614000", "173829.617000", "173829.620000", "173829.624000", "173829.627000", "173829.630000", "173829.634000", "173829.637000", "173829.640000", "173829.644000", "173901.594000", "173901.598000", "173901.601000", "173901.604000", "173901.621000", "173901.624000", "173901.628000", "173901.631000", "173901.634000", "173901.638000", "173901.641000", "173901.644000", "173901.647000", "173901.651000", "173901.654000", "173901.657000", "173901.661000", "173901.664000", "173901.667000", "173901.670000", "173901.674000", "173901.677000"],
      "InstanceCreationTime": ["173549.602000", "173549.605000", "173549.609000", "173549.612000", "173549.615000", "173549.618000", "173549.622000", "173549.627000", "173549.630000", "173549.633000", "173549.637000", "173549.640000", "173549.643000", "173549.647000", "173549.650000", "173549.653000", "173549.656000", "173549.659000", "173549.663000", "173549.666000", "173549.669000", "173549.672000", "173549.676000", "173549.679000", "173549.682000", "173549.685000", "173549.689000", "173549.692000", "173549.695000", "173549.698000", "173549.702000", "173549.705000", "173549.708000", "173549.711000", "173549.715000", "173549.718000", "173549.721000", "173549.724000", "173549.728000", "173609.557000", "173609.561000", "173609.564000", "173609.567000", "173609.571000", "173609.574000", "173609.577000", "173609.580000", "173609.584000", "173609.587000", "173609.590000", "173609.594000", "173609.597000", "173609.600000", "173609.604000", "173609.607000", "173609.610000", "173609.619000", "173609.623000", "173609.626000", "173629.558000", "173629.562000", "173629.565000", "173629.568000", "173629.572000", "173629.575000", "173629.578000", "173629.582000", "173629.585000", "173629.588000", "173629.592000", "173629.595000", "173629.598000", "173629.602000", "173629.605000", "173629.608000", "173629.612000", "173629.615000", "173629.618000", "173629.622000", "173649.558000", "173649.562000", "173649.565000", "173649.569000", "173649.574000", "173649.578000", "173649.582000", "173649.586000", "173649.589000", "173649.592000", "173649.595000", "173649.599000", "173649.602000", "173649.605000", "173649.609000", "173649.612000", "173649.616000", "173649.619000", "173649.622000", "173649.625000", "173709.557000", "173709.561000", "173709.564000", "173709.568000", "173709.571000", "173709.574000", "173709.578000", "173709.581000", "173709.584000", "173709.587000", "173709.591000", "173709.594000", "173709.598000", "173709.601000", "173709.604000", "173749.557000", "173749.561000", "173749.564000", "173749.567000", "173749.571000", "173749.574000", "173749.578000", "173749.581000", "173749.584000", "173749.588000", "173749.591000", "173749.594000", "173749.598000", "173749.601000", "173749.604000", "173749.608000", "173749.611000", "173749.614000", "173749.618000", "173749.621000", "173749.624000", "173749.628000", "173749.631000", "173749.634000", "173749.637000", "173749.641000", "173749.644000", "173829.557000", "173829.561000", "173829.564000", "173829.567000", "173829.571000", "173829.574000", "173829.578000", "173829.581000", "173829.584000", "173829.587000", "173829.591000", "173829.594000", "173829.597000", "173829.601000", "173829.604000", "173829.607000", "173829.610000", "173829.614000", "173829.617000", "173829.620000", "173829.624000", "173829.627000", "173829.630000", "173829.634000", "173829.637000", "173829.640000", "173829.644000", "173901.594000", "173901.598000", "173901.601000", "173901.604000", "173901.621000", "173901.624000", "173901.628000", "173901.631000", "173901.634000", "173901.638000", "173901.641000", "173901.644000", "173901.647000", "173901.651000", "173901.654000", "173901.657000", "173901.661000", "173901.664000", "173901.667000", "173901.670000", "173901.674000", "173901.677000"],
      "InstanceNumber": [1, 2, 3, 4, 5, 6, 7, 8, 9, 10, 11, 12, 13, 14, 15, 16, 17, 18, 19, 20, 21, 22, 23, 24, 25, 26, 27, 28, 29, 30, 31, 32, 33, 34, 35, 36, 37, 38, 39, 40, 41, 42, 43, 44, 45, 46, 47, 48, 49, 50, 51, 52, 53, 54, 55, 56, 57, 58, 59, 60, 61, 62, 63, 64, 65, 66, 67, 68, 69, 70, 71, 72, 73, 74, 75, 76, 77, 78, 79, 80, 81, 82, 83, 84, 85, 86, 87, 88, 89, 90, 91, 92, 93, 94, 95, 96, 97, 98, 99, 100, 101, 102, 103, 104, 105, 106, 107, 108, 109, 110, 111, 112, 113, 114, 115, 116, 117, 118, 119, 120, 121, 122, 123, 124, 125, 126, 127, 128, 129, 130, 131, 132, 133, 134, 135, 136, 137, 138, 139, 140, 141, 142, 143, 144, 145, 146, 147, 148, 149, 150, 151, 152, 153, 154, 155, 156, 157, 158, 159, 160, 161, 162, 163, 164, 165, 166, 167, 168, 169, 170, 171, 172, 173, 174, 175, 176, 177, 178, 179, 180, 181, 182, 183, 184, 185, 186, 187, 188, 189, 190],
      "LargestImagePixelValue": [45899, 43468, 45345, 44893, 44111, 41603, 40919, 39557, 39532, 39794, 40474, 41085, 41487, 40764, 40479, 40791, 40598, 40279, 40778, 43461, 40657, 41360, 40277, 40858, 45171, 40623, 41107, 41092, 40714, 40813, 40777, 41284, 40191, 40195, 39868, 40826, 39828, 40361, 40209, 39440, 39463, 40088, 39948, 39298, 40503, 41438, 40724, 41660, 40719, 39969, 39759, 43144, 40237, 39611, 39843, 40009, 40498, 39491, 39257, 39239, 40700, 40063, 39615, 42535, 41252, 41813, 45509, 39768, 39779, 40757, 39378, 39730, 39125, 39474, 39332, 40137, 38799, 39782, 38476, 39431, 38895, 38316, 43780, 38957, 38646, 38865, 38202, 38644, 40067, 38302, 39251, 39090, 38402, 38810, 40477, 40319, 38333, 38869, 38452, 43969, 38547, 37826, 40263, 40768, 39401, 37852, 38459, 39415, 37932, 41080, 38336, 38964, 39074, 38910, 39210, 39776, 39384, 45830, 39514, 39543, 39635, 45200, 38971, 39204, 38875, 38747, 39112, 39098, 39150, 38326, 41671, 38412, 40147, 45852, 37257, 38510, 38659, 38253, 38798, 48586, 42733, 40566, 39680, 39380, 40868, 40637, 41456, 41711, 41843, 41743, 41446, 41694, 39014, 38715, 40838, 40192, 39030, 38511, 38765, 39150, 46975, 39721, 38683, 38730, 38844, 40477, 41527, 40980, 38653, 41797, 41835, 40879, 38795, 38418, 38736, 44827, 39009, 39527, 39881, 38533, 38942, 41916, 40694, 40078, 38794, 38638, 42312, 39039, 38662, 40460],
      "WindowCenter": [10511.0, 10463.0, 10455.0, 10420.0, 10403.0, 10382.0, 10403.0, 10420.0, 10427.0, 10417.0, 10399.0, 10390.0, 10391.0, 10395.0, 10406.0, 10415.0, 10406.0, 10387.0, 10382.0, 10416.0, 10400.0, 10427.0, 10427.0, 10435.0, 10486.0, 10427.0, 10423.0, 10433.0, 10442.0, 10451.0, 10454.0, 10450.0, 10430.0, 10418.0, 10427.0, 10449.0, 10463.0, 10457.0, 10449.0, 10437.0, 10437.0, 10446.0, 10456.0, 10444.0, 10450.0, 10454.0, 10452.0, 10477.0, 10479.0, 10465.0, 10436.0, 10456.0, 10426.0, 10423.0, 10420.0, 10437.0, 10464.0, 10428.0, 10419.0, 10421.0, 10416.0, 10420.0, 10410.0, 10446.0, 10457.0, 10445.0, 10455.0, 10407.0, 10400.0, 10429.0, 10441.0, 10438.0, 10427.0, 10401.0, 10396.0, 10410.0, 10415.0, 10438.0, 10423.0, 10431.0, 10426.0, 10407.0, 10460.0, 10402.0, 10412.0, 10419.0, 10451.0, 10467.0, 10476.0, 10435.0, 10426.0, 10416.0, 10412.0, 10428.0, 10456.0, 10453.0, 10419.0, 10434.0, 10422.0, 10486.0, 10429.0, 10417.0, 10445.0, 10443.0, 10421.0, 10392.0, 10414.0, 10435.0, 10418.0, 10433.0, 10390.0, 10420.0, 10415.0, 10425.0, 10453.0, 10448.0, 10437.0, 10505.0, 10431.0, 10422.0, 10429.0, 10493.0, 10452.0, 10448.0, 10426.0, 10418.0, 10398.0, 10405.0, 10435.0, 10440.0, 10475.0, 10437.0, 10434.0, 10469.0, 10378.0, 10402.0, 10430.0, 10442.0, 10430.0, 10473.0, 10489.0, 10453.0, 10450.0, 10469.0, 10474.0, 10466.0, 10465.0, 10455.0, 10465.0, 10459.0, 10460.0, 10452.0, 10433.0, 10427.0, 10457.0, 10462.0, 10441.0, 10429.0, 10433.0, 10439.0, 10525.0, 10456.0, 10435.0, 10454.0, 10446.0, 10473.0, 10463.0, 10450.0, 10417.0, 10468.0, 10496.0, 10476.0, 10440.0, 10427.0, 10433.0, 10501.0, 10448.0, 10447.0, 10451.0, 10436.0, 10448.0, 10491.0, 10479.0, 10451.0, 10416.0, 10406.0, 10459.0, 10439.0, 10420.0, 10401.0],
      "WindowWidth": [22340.0, 22217.0, 22182.0, 22094.0, 22056.0, 22017.0, 22067.0, 22107.0, 22124.0, 22094.0, 22055.0, 22029.0, 22032.0, 22046.0, 22073.0, 22091.0, 22071.0, 22026.0, 22010.0, 22090.0, 22058.0, 22123.0, 22124.0, 22140.0, 22249.0, 22123.0, 22113.0, 22137.0, 22159.0, 22177.0, 22189.0, 22179.0, 22130.0, 22101.0, 22127.0, 22175.0, 22219.0, 22194.0, 22178.0, 22153.0, 22154.0, 22168.0, 22195.0, 22169.0, 22173.0, 22183.0, 22181.0, 22237.0, 22248.0, 22212.0, 22146.0, 22182.0, 22122.0, 22123.0, 22110.0, 22149.0, 22217.0, 22128.0, 22105.0, 22118.0, 22095.0, 22114.0, 22083.0, 22146.0, 22185.0, 22150.0, 22175.0, 22075.0, 22062.0, 22130.0, 22163.0, 22147.0, 22127.0, 22068.0, 22057.0, 22092.0, 22105.0, 22154.0, 22126.0, 22138.0, 22124.0, 22089.0, 22198.0, 22074.0, 22099.0, 22115.0, 22193.0, 22228.0, 22241.0, 22151.0, 22125.0, 22103.0, 22100.0, 22135.0, 22205.0, 22193.0, 22118.0, 22157.0, 22124.0, 22256.0, 22140.0, 22114.0, 22174.0, 22170.0, 22113.0, 22058.0, 22108.0, 22155.0, 22114.0, 22141.0, 22047.0, 22111.0, 22100.0, 22127.0, 22197.0, 22174.0, 22147.0, 22294.0, 22147.0, 22112.0, 22128.0, 22259.0, 22180.0, 22168.0, 22122.0, 22111.0, 22055.0, 22076.0, 22150.0, 22159.0, 22237.0, 22163.0, 22147.0, 22197.0, 22022.0, 22071.0, 22141.0, 22168.0, 22132.0, 22217.0, 22272.0, 22176.0, 22174.0, 22218.0, 22224.0, 22206.0, 22202.0, 22179.0, 22201.0, 22185.0, 22198.0, 22175.0, 22141.0, 22132.0, 22196.0, 22212.0, 22156.0, 22135.0, 22142.0, 22153.0, 22341.0, 22201.0, 22149.0, 22198.0, 22173.0, 22241.0, 22206.0, 22187.0, 22107.0, 22221.0, 22293.0, 22248.0, 22163.0, 22132.0, 22145.0, 22291.0, 22185.0, 22175.0, 22191.0, 22154.0, 22175.0, 22269.0, 22256.0, 22197.0, 22100.0, 22078.0, 22188.0, 22158.0, 22113.0, 22070.0]
    },
    "slices": {}
  }
}