{
  "AcquisitionMatrixPE": 104,
  "AcquisitionNumber": 1,
  "AcquisitionTime": "17:20:39.665000",
  "BandwidthPerPixelPhaseEncode": 17.17,
  "BaseResolution": 104,
  "BodyPartExamined": "BRAIN",
  "CoilString": "HC1-7;NC1_2",
  "ConsistencyInfo": "N4_VE11C_LATEST_20160120",
  "ConversionSoftware": "dcm2niix",
  "ConversionSoftwareVersion": "v1.0.20190902",
  "DerivedVendorReportedEchoSpacing": 0.000560011,
  "DeviceSerialNumber": "167006",
  "DwellTime": 2.1e-06,
  "EchoTime": 0.037,
  "EchoTrainLength": 104,
  "EffectiveEchoSpacing": 0.000560011,
  "FlipAngle": 52,
  "HeudiconvVersion": "0.10.0",
  "ImageComments": "Unaliased_MB4_PE3_LB",
  "ImageOrientationPatientDICOM": [0.997154, 0.06863, 0.0312145, -0.0557495, 0.949894, -0.307561],
  "ImageType": [
    "ORIGINAL",
    "PRIMARY",
    "M",
    "MB",
    "ND",
    "MOSAIC"
],
  "ImagingFrequency": 123.259,
  "InPlanePhaseEncodingDirectionDICOM": "COL",
  "InstitutionAddress": "Chemin_Queen-Mary_4565_Montreal_District_CA_H3W_1W5",
  "InstitutionName": "IUGM",
  "InstitutionalDepartmentName": "Department",
  "MRAcquisitionType": "2D",
  "MagneticFieldStrength": 3,
  "Manufacturer": "Siemens",
  "ManufacturersModelName": "Prisma_fit",
  "Modality": "MR",
  "MultibandAccelerationFactor": 4,
  "PartialFourier": 1,
  "PatientPosition": "HFS",
  "PercentPhaseFOV": 100,
  "PhaseEncodingDirection": "j",
  "PhaseEncodingSteps": 104,
  "PhaseResolution": 1,
  "PixelBandwidth": 2290,
  "ProcedureStepDescription": "memory_things",
  "ProtocolName": "func_task-things_run-1",
  "PulseSequenceDetails": "%CustomerSeq%_cmrr_mbep2d_bold",
  "ReceiveCoilActiveElements": "HC1-7;NC1,2",
  "ReceiveCoilName": "HeadNeck_64",
  "ReconMatrixPE": 104,
  "RepetitionTime": 1.49,
  "SAR": 0.0532952,
  "ScanOptions": "FS",
  "ScanningSequence": "EP",
  "SequenceName": "epfid2d1_104",
  "SequenceVariant": "SK_SS",
  "SeriesDescription": "func_task-things_run-1",
  "SeriesNumber": 10,
  "ShimSetting": [631, -7192, -8806, 691, 81, 23, -13, -19],
  "SliceThickness": 2,
  "SliceTiming": [0, 0.785, 0.0975, 0.8825, 0.195, 0.98, 0.295, 1.0775, 0.3925, 1.175, 0.49, 1.275, 0.5875, 1.3725, 0.685, 0, 0.785, 0.0975, 0.8825, 0.195, 0.98, 0.295, 1.0775, 0.3925, 1.175, 0.49, 1.275, 0.5875, 1.3725, 0.685, 0, 0.785, 0.0975, 0.8825, 0.195, 0.98, 0.295, 1.0775, 0.3925, 1.175, 0.49, 1.275, 0.5875, 1.3725, 0.685, 0, 0.785, 0.0975, 0.8825, 0.195, 0.98, 0.295, 1.0775, 0.3925, 1.175, 0.49, 1.275, 0.5875, 1.3725, 0.685],
  "SoftwareVersions": "syngo_MR_E11",
  "SpacingBetweenSlices": 2,
  "StationName": "MRC35049",
  "TaskName": "things",
  "TotalReadoutTime": 0.0576811,
  "TxRefAmp": 278.891,
  "WipMemBlock": "2bca23a7-f83f-4f91-8f10-553cc87d4387||Sequence: R016 ve11c/master r/e634e98; Dec 19 2017 11:00:25 by eja",
  "dcmmeta_affine": [
    [-1.994307518005371, -0.11149906367063522, 0.10151665657758713, 109.61216735839844],
    [-0.13725996017456055, 1.8997877836227417, -0.6098901629447937, -55.64427185058594],
    [0.06242895871400833, 0.6151213645935059, 1.902032732963562, -59.24467086791992],
    [0.0, 0.0, 0.0, 1.0]
],
  "dcmmeta_reorient_transform": [
    [0.0, -1.0, 0.0, 103.0],
    [1.0, 0.0, 0.0, 0.0],
    [0.0, 0.0, 1.0, 0.0],
    [0.0, 0.0, 0.0, 1.0]
],
  "dcmmeta_shape": [104, 104, 60, 190],
  "dcmmeta_slice_dim": 2,
  "dcmmeta_version": 0.6,
  "global": {
    "const": {
      "AcquisitionMatrix": [104, 0, 0, 104],
      "AngioFlag": "N",
      "BitsAllocated": 16,
      "BitsStored": 16,
      "BodyPartExamined": "BRAIN",
      "Columns": 832,
      "EchoNumbers": 1,
      "EchoTime": 37.0,
      "EchoTrainLength": 104,
      "FlipAngle": 52.0,
      "HighBit": 15,
      "ImageOrientationPatient": [0.99715374030191, 0.06862998234462, 0.03121447941721, -0.0557495329898, 0.94989390053875, -0.3075606725358],
      "ImagePositionPatient": [-783.47002474058, -881.51925810169, 205.29285448256],
      "ImageType": [
        "ORIGINAL",
        "PRIMARY",
        "M",
        "MB",
        "ND",
        "MOSAIC"
],
      "ImagedNucleus": "1H",
      "ImagingFrequency": 123.259082,
      "InPlanePhaseEncodingDirection": "COL",
      "MRAcquisitionType": "2D",
      "MagneticFieldStrength": 3.0,
      "Manufacturer": "SIEMENS",
      "ManufacturerModelName": "Prisma_fit",
      "Modality": "MR",
      "NumberOfAverages": 1.0,
      "NumberOfPhaseEncodingSteps": 104,
      "PercentPhaseFieldOfView": 100.0,
      "PercentSampling": 100.0,
      "PerformedProcedureStepStartTime": "165311.059000",
      "PhotometricInterpretation": "MONOCHROME2",
      "PixelBandwidth": 2290.0,
      "PixelRepresentation": 0,
      "PixelSpacing": [2.0, 2.0],
      "ProtocolName": "func_task-things_run-1",
      "RepetitionTime": 1490.0,
      "Rows": 832,
      "SAR": 0.05329517935743,
      "SamplesPerPixel": 1,
      "ScanOptions": "FS",
      "ScanningSequence": "EP",
      "SequenceName": "epfid2d1_104",
      "SequenceVariant": [
        "SK",
        "SS"
],
      "SeriesDescription": "func_task-things_run-1",
      "SeriesNumber": 10,
      "SeriesTime": "172200.366000",
      "SliceLocation": -33.810474748989,
      "SliceThickness": 2.0,
      "SmallestImagePixelValue": 0,
      "SoftwareVersions": "syngo MR E11",
      "SpacingBetweenSlices": 2.0000000086385,
      "SpecificCharacterSet": "ISO_IR 100",
      "StudyID": "1",
      "StudyTime": "165310.912000",
      "TransmitCoilName": "Body",
      "VariableFlipAngleFlag": "N",
      "WindowCenter": 4419.0,
      "WindowCenterWidthExplanation": "WINDOW1",
      "WindowWidth": 14800.0,
      "dBdt": 0.0},
    "slices": {}
  },
  "time": {
    "samples": {
      "AcquisitionNumber": [1, 2, 3, 4, 5, 6, 7, 8, 9, 10, 11, 12, 13, 14, 15, 16, 17, 18, 19, 20, 21, 22, 23, 24, 25, 26, 27, 28, 29, 30, 31, 32, 33, 34, 35, 36, 37, 38, 39, 40, 41, 42, 43, 44, 45, 46, 47, 48, 49, 50, 51, 52, 53, 54, 55, 56, 57, 58, 59, 60, 61, 62, 63, 64, 65, 66, 67, 68, 69, 70, 71, 72, 73, 74, 75, 76, 77, 78, 79, 80, 81, 82, 83, 84, 85, 86, 87, 88, 89, 90, 91, 92, 93, 94, 95, 96, 97, 98, 99, 100, 101, 102, 103, 104, 105, 106, 107, 108, 109, 110, 111, 112, 113, 114, 115, 116, 117, 118, 119, 120, 121, 122, 123, 124, 125, 126, 127, 128, 129, 130, 131, 132, 133, 134, 135, 136, 137, 138, 139, 140, 141, 142, 143, 144, 145, 146, 147, 148, 149, 150, 151, 152, 153, 154, 155, 156, 157, 158, 159, 160, 161, 162, 163, 164, 165, 166, 167, 168, 169, 170, 171, 172, 173, 174, 175, 176, 177, 178, 179, 180, 181, 182, 183, 184, 185, 186, 187, 188, 189, 190],
      "AcquisitionTime": ["172039.665000", "172041.155000", "172042.645000", "172044.135000", "172045.625000", "172047.115000", "172048.605000", "172050.095000", "172051.585000", "172053.075000", "172054.565000", "172056.055000", "172057.545000", "172059.035000", "172100.525000", "172102.015000", "172103.505000", "172104.995000", "172106.485000", "172107.975000", "172109.465000", "172110.955000", "172112.445000", "172113.935000", "172115.425000", "172116.915000", "172118.405000", "172119.895000", "172121.385000", "172122.875000", "172124.365000", "172125.855000", "172127.345000", "172128.835000", "172130.325000", "172131.815000", "172133.305000", "172134.795000", "172136.285000", "172137.775000", "172139.265000", "172140.755000", "172142.245000", "172143.735000", "172145.225000", "172146.715000", "172148.205000", "172149.695000", "172151.185000", "172152.675000", "172154.165000", "172155.655000", "172157.145000", "172158.635000", "172200.125000", "172201.615000", "172203.105000", "172204.595000", "172206.085000", "172207.575000", "172209.065000", "172210.555000", "172212.045000", "172213.535000", "172215.025000", "172216.515000", "172218.005000", "172219.495000", "172220.985000", "172222.475000", "172223.965000", "172225.455000", "172226.945000", "172228.435000", "172229.925000", "172231.415000", "172232.905000", "172234.395000", "172235.885000", "172237.375000", "172238.865000", "172240.355000", "172241.845000", "172243.335000", "172244.825000", "172246.315000", "172247.805000", "172249.295000", "172250.785000", "172252.275000", "172253.765000", "172255.255000", "172256.745000", "172258.235000", "172259.725000", "172301.215000", "172302.705000", "172304.195000", "172305.685000", "172307.175000", "172308.665000", "172310.155000", "172311.645000", "172313.135000", "172314.625000", "172316.115000", "172317.605000", "172319.095000", "172320.585000", "172322.075000", "172323.565000", "172325.055000", "172326.545000", "172328.035000", "172329.525000", "172331.015000", "172332.505000", "172333.995000", "172335.485000", "172336.975000", "172338.465000", "172339.955000", "172341.445000", "172342.935000", "172344.425000", "172345.915000", "172347.405000", "172348.895000", "172350.385000", "172351.875000", "172353.365000", "172354.855000", "172356.345000", "172357.835000", "172359.325000", "172400.815000", "172402.305000", "172403.795000", "172405.285000", "172406.775000", "172408.265000", "172409.755000", "172411.245000", "172412.735000", "172414.225000", "172415.715000", "172417.205000", "172418.695000", "172420.185000", "172421.675000", "172423.165000", "172424.655000", "172426.145000", "172427.635000", "172429.125000", "172430.615000", "172432.105000", "172433.595000", "172435.085000", "172436.575000", "172438.065000", "172439.555000", "172441.045000", "172442.535000", "172444.025000", "172445.515000", "172447.005000", "172448.495000", "172449.985000", "172451.475000", "172452.965000", "172454.455000", "172455.945000", "172457.435000", "172458.925000", "172500.415000", "172501.905000", "172503.395000", "172504.885000", "172506.375000", "172507.865000", "172509.355000", "172510.845000", "172512.335000", "172513.825000", "172515.315000", "172516.805000", "172518.295000", "172519.785000", "172521.275000"],
      "ContentTime": ["172200.369000", "172200.373000", "172200.376000", "172200.380000", "172200.383000", "172200.386000", "172200.389000", "172200.393000", "172200.396000", "172200.399000", "172200.403000", "172200.406000", "172200.410000", "172200.413000", "172200.416000", "172200.419000", "172200.423000", "172200.426000", "172200.429000", "172200.433000", "172200.436000", "172200.439000", "172200.442000", "172200.446000", "172200.449000", "172200.452000", "172220.332000", "172220.336000", "172220.339000", "172220.342000", "172220.346000", "172220.349000", "172220.352000", "172220.356000", "172220.359000", "172220.362000", "172220.365000", "172220.369000", "172220.372000", "172220.375000", "172220.379000", "172220.382000", "172220.385000", "172220.389000", "172220.392000", "172220.418000", "172240.333000", "172240.337000", "172240.340000", "172240.344000", "172240.348000", "172240.370000", "172240.373000", "172240.377000", "172240.380000", "172240.383000", "172240.387000", "172240.390000", "172240.393000", "172240.396000", "172240.400000", "172240.403000", "172240.407000", "172240.410000", "172240.413000", "172240.416000", "172300.331000", "172300.335000", "172300.338000", "172300.341000", "172300.344000", "172300.348000", "172300.351000", "172300.354000", "172300.357000", "172300.361000", "172300.364000", "172300.367000", "172300.371000", "172300.374000", "172300.377000", "172300.380000", "172300.384000", "172300.387000", "172300.390000", "172300.394000", "172300.397000", "172320.331000", "172320.335000", "172320.338000", "172320.341000", "172320.344000", "172320.348000", "172320.368000", "172320.371000", "172320.375000", "172320.378000", "172320.381000", "172320.385000", "172320.388000", "172320.391000", "172320.395000", "172320.398000", "172320.401000", "172320.404000", "172320.408000", "172320.411000", "172400.332000", "172400.336000", "172400.339000", "172400.342000", "172400.346000", "172400.349000", "172400.352000", "172400.355000", "172400.358000", "172400.369000", "172400.372000", "172400.376000", "172400.379000", "172400.382000", "172400.385000", "172400.389000", "172400.392000", "172400.395000", "172400.398000", "172400.402000", "172400.405000", "172400.408000", "172400.412000", "172400.415000", "172400.418000", "172400.422000", "172400.425000", "172440.332000", "172440.336000", "172440.339000", "172440.342000", "172440.346000", "172440.349000", "172440.352000", "172440.356000", "172440.359000", "172440.362000", "172440.366000", "172440.369000", "172440.372000", "172440.376000", "172440.379000", "172440.382000", "172440.385000", "172440.389000", "172440.392000", "172440.395000", "172440.399000", "172440.402000", "172440.405000", "172440.408000", "172440.412000", "172440.415000", "172440.418000", "172520.331000", "172520.335000", "172520.338000", "172520.342000", "172520.345000", "172520.348000", "172520.356000", "172520.359000", "172520.362000", "172520.365000", "172520.369000", "172520.372000", "172520.375000", "172520.379000", "172520.382000", "172520.385000", "172520.389000", "172520.392000", "172520.395000", "172520.398000", "172520.402000", "172520.405000", "172520.408000", "172520.412000", "172520.415000", "172520.418000", "172520.422000", "172523.182000", "172523.186000"],
      "InstanceCreationTime": ["172200.369000", "172200.373000", "172200.376000", "172200.380000", "172200.383000", "172200.386000", "172200.389000", "172200.393000", "172200.396000", "172200.399000", "172200.403000", "172200.406000", "172200.410000", "172200.413000", "172200.416000", "172200.419000", "172200.423000", "172200.426000", "172200.429000", "172200.433000", "172200.436000", "172200.439000", "172200.442000", "172200.446000", "172200.449000", "172200.452000", "172220.332000", "172220.336000", "172220.339000", "172220.342000", "172220.346000", "172220.349000", "172220.352000", "172220.356000", "172220.359000", "172220.362000", "172220.365000", "172220.369000", "172220.372000", "172220.375000", "172220.379000", "172220.382000", "172220.385000", "172220.389000", "172220.392000", "172220.418000", "172240.333000", "172240.337000", "172240.340000", "172240.344000", "172240.348000", "172240.370000", "172240.373000", "172240.377000", "172240.380000", "172240.383000", "172240.387000", "172240.390000", "172240.393000", "172240.396000", "172240.400000", "172240.403000", "172240.407000", "172240.410000", "172240.413000", "172240.416000", "172300.331000", "172300.335000", "172300.338000", "172300.341000", "172300.344000", "172300.348000", "172300.351000", "172300.354000", "172300.357000", "172300.361000", "172300.364000", "172300.367000", "172300.371000", "172300.374000", "172300.377000", "172300.380000", "172300.384000", "172300.387000", "172300.390000", "172300.394000", "172300.397000", "172320.331000", "172320.335000", "172320.338000", "172320.341000", "172320.344000", "172320.348000", "172320.368000", "172320.371000", "172320.375000", "172320.378000", "172320.381000", "172320.385000", "172320.388000", "172320.391000", "172320.395000", "172320.398000", "172320.401000", "172320.404000", "172320.408000", "172320.411000", "172400.332000", "172400.336000", "172400.339000", "172400.342000", "172400.346000", "172400.349000", "172400.352000", "172400.355000", "172400.358000", "172400.369000", "172400.372000", "172400.376000", "172400.379000", "172400.382000", "172400.385000", "172400.389000", "172400.392000", "172400.395000", "172400.398000", "172400.402000", "172400.405000", "172400.408000", "172400.412000", "172400.415000", "172400.418000", "172400.422000", "172400.425000", "172440.332000", "172440.336000", "172440.339000", "172440.342000", "172440.346000", "172440.349000", "172440.352000", "172440.356000", "172440.359000", "172440.362000", "172440.366000", "172440.369000", "172440.372000", "172440.376000", "172440.379000", "172440.382000", "172440.385000", "172440.389000", "172440.392000", "172440.395000", "172440.399000", "172440.402000", "172440.405000", "172440.408000", "172440.412000", "172440.415000", "172440.418000", "172520.331000", "172520.335000", "172520.338000", "172520.342000", "172520.345000", "172520.348000", "172520.356000", "172520.359000", "172520.362000", "172520.365000", "172520.369000", "172520.372000", "172520.375000", "172520.379000", "172520.382000", "172520.385000", "172520.389000", "172520.392000", "172520.395000", "172520.398000", "172520.402000", "172520.405000", "172520.408000", "172520.412000", "172520.415000", "172520.418000", "172520.422000", "172523.182000", "172523.186000"],
      "InstanceNumber": [1, 2, 3, 4, 5, 6, 7, 8, 9, 10, 11, 12, 13, 14, 15, 16, 17, 18, 19, 20, 21, 22, 23, 24, 25, 26, 27, 28, 29, 30, 31, 32, 33, 34, 35, 36, 37, 38, 39, 40, 41, 42, 43, 44, 45, 46, 47, 48, 49, 50, 51, 52, 53, 54, 55, 56, 57, 58, 59, 60, 61, 62, 63, 64, 65, 66, 67, 68, 69, 70, 71, 72, 73, 74, 75, 76, 77, 78, 79, 80, 81, 82, 83, 84, 85, 86, 87, 88, 89, 90, 91, 92, 93, 94, 95, 96, 97, 98, 99, 100, 101, 102, 103, 104, 105, 106, 107, 108, 109, 110, 111, 112, 113, 114, 115, 116, 117, 118, 119, 120, 121, 122, 123, 124, 125, 126, 127, 128, 129, 130, 131, 132, 133, 134, 135, 136, 137, 138, 139, 140, 141, 142, 143, 144, 145, 146, 147, 148, 149, 150, 151, 152, 153, 154, 155, 156, 157, 158, 159, 160, 161, 162, 163, 164, 165, 166, 167, 168, 169, 170, 171, 172, 173, 174, 175, 176, 177, 178, 179, 180, 181, 182, 183, 184, 185, 186, 187, 188, 189, 190],
      "LargestImagePixelValue": [42784, 42261, 40996, 40835, 40462, 40737, 40605, 41002, 40993, 41163, 41112, 42000, 41770, 41805, 41172, 41187, 41030, 41115, 40888, 41107, 40524, 40518, 41029, 40511, 41149, 41258, 41591, 40935, 40903, 40495, 40688, 41092, 41098, 41282, 41096, 40964, 40818, 40112, 40442, 40992, 41032, 40974, 40082, 40451, 40858, 39998, 40372, 40813, 40893, 40268, 40180, 40459, 40602, 41092, 41361, 41719, 41698, 41054, 40608, 40477, 41339, 41252, 40496, 40484, 39853, 40042, 40458, 40546, 40876, 40898, 40308, 40118, 40156, 40271, 40167, 40456, 40379, 40336, 40418, 40829, 40708, 40728, 40136, 40425, 40359, 40593, 40602, 40055, 41002, 41421, 40805, 40181, 40248, 41448, 41831, 41006, 40553, 40535, 40629, 41066, 40537, 40400, 40547, 40618, 40384, 40095, 40119, 40350, 40161, 40194, 40013, 40865, 41127, 40624, 40062, 40061, 40136, 39994, 39532, 40074, 39763, 40114, 40181, 40124, 40147, 40510, 40554, 40125, 39927, 40331, 40214, 39657, 39684, 40260, 39954, 40005, 39481, 40159, 40225, 40376, 40105, 39912, 40118, 39857, 39847, 39497, 39889, 40327, 39563, 39950, 39951, 40113, 40328, 40073, 39490, 39517, 39909, 39653, 39319, 39877, 40362, 39754, 39610, 40372, 40215, 40029, 39945, 39595, 39792, 39716, 39909, 40215, 39781, 39290, 39777, 40091, 39558, 39614, 39887, 39698, 39658, 39486, 39724, 39915, 39593, 39656, 39436, 39405, 39517, 39699]
    },
    "slices": {}
  }
}