{
  "AcquisitionMatrixPE": 104,
  "AcquisitionNumber": 1,
  "AcquisitionTime": "18:04:10.497500",
  "BandwidthPerPixelPhaseEncode": 17.17,
  "BaseResolution": 104,
  "BodyPartExamined": "BRAIN",
  "CoilString": "HC1-7;NC1_2",
  "ConsistencyInfo": "N4_VE11C_LATEST_20160120",
  "ConversionSoftware": "dcm2niix",
  "ConversionSoftwareVersion": "v1.0.20190902",
  "DerivedVendorReportedEchoSpacing": 0.000560011,
  "DeviceSerialNumber": "167006",
  "DwellTime": 2.1e-06,
  "EchoTime": 0.037,
  "EchoTrainLength": 104,
  "EffectiveEchoSpacing": 0.000560011,
  "FlipAngle": 52,
  "HeudiconvVersion": "0.10.0",
  "ImageComments": "Unaliased_MB4_PE3_LB",
  "ImageOrientationPatientDICOM": [0.995411, 0.0912882, 0.0287105, -0.0737971, 0.923261, -0.377018],
  "ImageType": [
    "ORIGINAL",
    "PRIMARY",
    "M",
    "MB",
    "ND",
    "MOSAIC"
],
  "ImagingFrequency": 123.259,
  "InPlanePhaseEncodingDirectionDICOM": "COL",
  "InstitutionAddress": "Chemin_Queen-Mary_4565_Montreal_District_CA_H3W_1W5",
  "InstitutionName": "IUGM",
  "InstitutionalDepartmentName": "Department",
  "MRAcquisitionType": "2D",
  "MagneticFieldStrength": 3,
  "Manufacturer": "Siemens",
  "ManufacturersModelName": "Prisma_fit",
  "Modality": "MR",
  "MultibandAccelerationFactor": 4,
  "PartialFourier": 1,
  "PatientPosition": "HFS",
  "PercentPhaseFOV": 100,
  "PhaseEncodingDirection": "j",
  "PhaseEncodingSteps": 104,
  "PhaseResolution": 1,
  "PixelBandwidth": 2290,
  "ProcedureStepDescription": "memory_things",
  "ProtocolName": "func_task-things_run-6",
  "PulseSequenceDetails": "%CustomerSeq%_cmrr_mbep2d_bold",
  "ReceiveCoilActiveElements": "HC1-7;NC1,2",
  "ReceiveCoilName": "HeadNeck_64",
  "ReconMatrixPE": 104,
  "RepetitionTime": 1.49,
  "SAR": 0.0469176,
  "ScanOptions": "FS",
  "ScanningSequence": "EP",
  "SequenceName": "epfid2d1_104",
  "SequenceVariant": "SK_SS",
  "SeriesDescription": "func_task-things_run-6",
  "SeriesNumber": 33,
  "ShimSetting": [631, -7185, -8809, 650, 81, 17, -101, 2],
  "SliceThickness": 2,
  "SliceTiming": [0, 0.7825, 0.0975, 0.88, 0.195, 0.98, 0.2925, 1.0775, 0.39, 1.175, 0.49, 1.2725, 0.5875, 1.37, 0.685, 0, 0.7825, 0.0975, 0.88, 0.195, 0.98, 0.2925, 1.0775, 0.39, 1.175, 0.49, 1.2725, 0.5875, 1.37, 0.685, 0, 0.7825, 0.0975, 0.88, 0.195, 0.98, 0.2925, 1.0775, 0.39, 1.175, 0.49, 1.2725, 0.5875, 1.37, 0.685, 0, 0.7825, 0.0975, 0.88, 0.195, 0.98, 0.2925, 1.0775, 0.39, 1.175, 0.49, 1.2725, 0.5875, 1.37, 0.685],
  "SoftwareVersions": "syngo_MR_E11",
  "SpacingBetweenSlices": 2,
  "StationName": "MRC35049",
  "TaskName": "things",
  "TotalReadoutTime": 0.0576811,
  "TxRefAmp": 263.015,
  "WipMemBlock": "50e95fd0-a0fb-4498-98e2-596b33fcbc55||Sequence: R016 ve11c/master r/e634e98; Dec 19 2017 11:00:25 by eja",
  "dcmmeta_affine": [
    [-1.990821123123169, -0.14759425818920135, 0.12184923887252808, 110.03850555419922],
    [-0.18257637321949005, 1.8465222120285034, -0.7463387250900269, -48.30487060546875],
    [0.057421013712882996, 0.7540368437767029, 1.8515212535858154, -63.184730529785156],
    [0.0, 0.0, 0.0, 1.0]
],
  "dcmmeta_reorient_transform": [
    [0.0, -1.0, 0.0, 103.0],
    [1.0, 0.0, 0.0, 0.0],
    [0.0, 0.0, 1.0, 0.0],
    [0.0, 0.0, 0.0, 1.0]
],
  "dcmmeta_shape": [104, 104, 60, 190],
  "dcmmeta_slice_dim": 2,
  "dcmmeta_version": 0.6,
  "global": {
    "const": {
      "AcquisitionMatrix": [104, 0, 0, 104],
      "AngioFlag": "N",
      "BitsAllocated": 16,
      "BitsStored": 16,
      "BodyPartExamined": "BRAIN",
      "Columns": 832,
      "EchoNumbers": 1,
      "EchoTime": 37.0,
      "EchoTrainLength": 104,
      "FlipAngle": 52.0,
      "HighBit": 15,
      "ImageOrientationPatient": [0.99541055546089, 0.09128818585408, 0.02871050679667, -0.0737971305338, 0.92326111904668, -0.3770184207458],
      "ImagePositionPatient": [-765.77087275702, -880.4788124184, 268.04922442948],
      "ImageType": [
        "ORIGINAL",
        "PRIMARY",
        "M",
        "MB",
        "ND",
        "MOSAIC"
],
      "ImagedNucleus": "1H",
      "ImagingFrequency": 123.259091,
      "InPlanePhaseEncodingDirection": "COL",
      "MRAcquisitionType": "2D",
      "MagneticFieldStrength": 3.0,
      "Manufacturer": "SIEMENS",
      "ManufacturerModelName": "Prisma_fit",
      "Modality": "MR",
      "NumberOfAverages": 1.0,
      "NumberOfPhaseEncodingSteps": 104,
      "PercentPhaseFieldOfView": 100.0,
      "PercentSampling": 100.0,
      "PerformedProcedureStepStartTime": "165311.059000",
      "PhotometricInterpretation": "MONOCHROME2",
      "PixelBandwidth": 2290.0,
      "PixelRepresentation": 0,
      "PixelSpacing": [2.0, 2.0],
      "ProtocolName": "func_task-things_run-6",
      "RepetitionTime": 1490.0,
      "Rows": 832,
      "SAR": 0.04691755967296,
      "SamplesPerPixel": 1,
      "ScanOptions": "FS",
      "ScanningSequence": "EP",
      "SequenceName": "epfid2d1_104",
      "SequenceVariant": [
        "SK",
        "SS"
],
      "SeriesDescription": "func_task-things_run-6",
      "SeriesNumber": 33,
      "SeriesTime": "180529.591000",
      "SliceLocation": -33.763986550181,
      "SliceThickness": 2.0,
      "SmallestImagePixelValue": 0,
      "SoftwareVersions": "syngo MR E11",
      "SpacingBetweenSlices": 1.9999999556735,
      "SpecificCharacterSet": "ISO_IR 100",
      "StudyID": "1",
      "StudyTime": "165310.912000",
      "TransmitCoilName": "Body",
      "VariableFlipAngleFlag": "N",
      "WindowCenterWidthExplanation": "Algo1",
      "dBdt": 0.0},
    "slices": {}
  },
  "time": {
    "samples": {
      "AcquisitionNumber": [1, 2, 3, 4, 5, 6, 7, 8, 9, 10, 11, 12, 13, 14, 15, 16, 17, 18, 19, 20, 21, 22, 23, 24, 25, 26, 27, 28, 29, 30, 31, 32, 33, 34, 35, 36, 37, 38, 39, 40, 41, 42, 43, 44, 45, 46, 47, 48, 49, 50, 51, 52, 53, 54, 55, 56, 57, 58, 59, 60, 61, 62, 63, 64, 65, 66, 67, 68, 69, 70, 71, 72, 73, 74, 75, 76, 77, 78, 79, 80, 81, 82, 83, 84, 85, 86, 87, 88, 89, 90, 91, 92, 93, 94, 95, 96, 97, 98, 99, 100, 101, 102, 103, 104, 105, 106, 107, 108, 109, 110, 111, 112, 113, 114, 115, 116, 117, 118, 119, 120, 121, 122, 123, 124, 125, 126, 127, 128, 129, 130, 131, 132, 133, 134, 135, 136, 137, 138, 139, 140, 141, 142, 143, 144, 145, 146, 147, 148, 149, 150, 151, 152, 153, 154, 155, 156, 157, 158, 159, 160, 161, 162, 163, 164, 165, 166, 167, 168, 169, 170, 171, 172, 173, 174, 175, 176, 177, 178, 179, 180, 181, 182, 183, 184, 185, 186, 187, 188, 189, 190],
      "AcquisitionTime": ["180410.497500", "180411.987500", "180413.477500", "180414.967500", "180416.457500", "180417.947500", "180419.437500", "180420.927500", "180422.417500", "180423.907500", "180425.397500", "180426.887500", "180428.377500", "180429.867500", "180431.357500", "180432.847500", "180434.337500", "180435.827500", "180437.317500", "180438.807500", "180440.297500", "180441.787500", "180443.277500", "180444.767500", "180446.257500", "180447.747500", "180449.237500", "180450.727500", "180452.217500", "180453.707500", "180455.197500", "180456.687500", "180458.177500", "180459.667500", "180501.157500", "180502.647500", "180504.137500", "180505.627500", "180507.117500", "180508.607500", "180510.097500", "180511.587500", "180513.077500", "180514.567500", "180516.057500", "180517.547500", "180519.037500", "180520.527500", "180522.017500", "180523.507500", "180524.997500", "180526.487500", "180527.977500", "180529.467500", "180530.957500", "180532.447500", "180533.937500", "180535.427500", "180536.917500", "180538.407500", "180539.897500", "180541.387500", "180542.877500", "180544.367500", "180545.857500", "180547.347500", "180548.837500", "180550.327500", "180551.817500", "180553.307500", "180554.797500", "180556.287500", "180557.777500", "180559.267500", "180600.757500", "180602.247500", "180603.737500", "180605.227500", "180606.717500", "180608.207500", "180609.697500", "180611.187500", "180612.677500", "180614.167500", "180615.657500", "180617.147500", "180618.637500", "180620.127500", "180621.617500", "180623.107500", "180624.597500", "180626.087500", "180627.577500", "180629.067500", "180630.557500", "180632.047500", "180633.537500", "180635.027500", "180636.517500", "180638.007500", "180639.497500", "180640.987500", "180642.477500", "180643.967500", "180645.457500", "180646.947500", "180648.437500", "180649.927500", "180651.417500", "180652.907500", "180654.397500", "180655.887500", "180657.377500", "180658.867500", "180700.357500", "180701.847500", "180703.337500", "180704.827500", "180706.317500", "180707.807500", "180709.297500", "180710.787500", "180712.277500", "180713.767500", "180715.257500", "180716.747500", "180718.237500", "180719.727500", "180721.217500", "180722.707500", "180724.197500", "180725.687500", "180727.177500", "180728.667500", "180730.157500", "180731.647500", "180733.137500", "180734.627500", "180736.117500", "180737.607500", "180739.097500", "180740.587500", "180742.077500", "180743.567500", "180745.057500", "180746.547500", "180748.037500", "180749.527500", "180751.017500", "180752.507500", "180753.997500", "180755.487500", "180756.977500", "180758.467500", "180759.957500", "180801.447500", "180802.937500", "180804.427500", "180805.917500", "180807.407500", "180808.897500", "180810.387500", "180811.877500", "180813.367500", "180814.857500", "180816.347500", "180817.837500", "180819.327500", "180820.817500", "180822.307500", "180823.797500", "180825.287500", "180826.777500", "180828.267500", "180829.757500", "180831.247500", "180832.737500", "180834.227500", "180835.717500", "180837.207500", "180838.697500", "180840.187500", "180841.677500", "180843.167500", "180844.657500", "180846.147500", "180847.637500", "180849.127500", "180850.617500", "180852.107500"],
      "ContentTime": ["180529.594000", "180529.598000", "180529.601000", "180529.605000", "180529.608000", "180529.611000", "180529.615000", "180529.618000", "180529.621000", "180529.624000", "180529.628000", "180529.631000", "180529.635000", "180529.638000", "180529.642000", "180529.645000", "180529.648000", "180529.652000", "180529.655000", "180529.658000", "180529.661000", "180529.664000", "180529.668000", "180529.671000", "180529.674000", "180549.557000", "180549.561000", "180549.564000", "180549.567000", "180549.570000", "180549.574000", "180549.577000", "180549.580000", "180549.584000", "180549.587000", "180549.590000", "180549.593000", "180549.597000", "180549.600000", "180549.604000", "180549.607000", "180549.610000", "180549.614000", "180549.617000", "180549.620000", "180549.623000", "180609.557000", "180609.561000", "180609.564000", "180609.567000", "180609.571000", "180609.574000", "180609.577000", "180609.581000", "180609.584000", "180609.588000", "180609.591000", "180609.594000", "180609.597000", "180609.601000", "180609.604000", "180609.607000", "180609.610000", "180609.614000", "180609.617000", "180609.620000", "180629.558000", "180629.562000", "180629.565000", "180629.568000", "180629.572000", "180629.575000", "180629.578000", "180629.581000", "180629.585000", "180629.588000", "180629.591000", "180629.595000", "180629.598000", "180629.601000", "180629.615000", "180629.618000", "180629.622000", "180629.625000", "180629.628000", "180629.632000", "180649.558000", "180649.562000", "180649.565000", "180649.568000", "180649.572000", "180649.575000", "180649.578000", "180649.582000", "180649.585000", "180649.588000", "180649.592000", "180649.595000", "180649.598000", "180649.601000", "180649.605000", "180649.608000", "180649.611000", "180649.614000", "180649.618000", "180649.621000", "180709.557000", "180709.561000", "180709.564000", "180709.567000", "180709.571000", "180709.574000", "180709.577000", "180709.580000", "180709.584000", "180709.587000", "180709.590000", "180709.594000", "180709.597000", "180709.600000", "180749.557000", "180749.561000", "180749.564000", "180749.567000", "180749.571000", "180749.574000", "180749.577000", "180749.581000", "180749.584000", "180749.588000", "180749.592000", "180749.595000", "180749.599000", "180749.602000", "180749.605000", "180749.609000", "180749.612000", "180749.615000", "180749.618000", "180749.622000", "180749.625000", "180749.628000", "180749.631000", "180749.635000", "180749.638000", "180749.641000", "180829.557000", "180829.561000", "180829.564000", "180829.567000", "180829.571000", "180829.574000", "180829.577000", "180829.581000", "180829.584000", "180829.587000", "180829.590000", "180829.594000", "180829.597000", "180829.600000", "180829.604000", "180829.607000", "180829.610000", "180829.613000", "180829.617000", "180829.620000", "180829.623000", "180829.627000", "180829.630000", "180829.633000", "180829.637000", "180829.640000", "180829.643000", "180853.889000", "180853.893000", "180853.896000", "180853.899000", "180853.902000", "180853.906000", "180853.920000", "180853.923000", "180853.926000", "180853.930000", "180853.933000", "180853.936000", "180853.939000", "180853.943000", "180853.946000", "180853.949000", "180853.953000"],
      "InstanceCreationTime": ["180529.594000", "180529.598000", "180529.601000", "180529.605000", "180529.608000", "180529.611000", "180529.615000", "180529.618000", "180529.621000", "180529.624000", "180529.628000", "180529.631000", "180529.635000", "180529.638000", "180529.642000", "180529.645000", "180529.648000", "180529.652000", "180529.655000", "180529.658000", "180529.661000", "180529.664000", "180529.668000", "180529.671000", "180529.674000", "180549.557000", "180549.561000", "180549.564000", "180549.567000", "180549.570000", "180549.574000", "180549.577000", "180549.580000", "180549.584000", "180549.587000", "180549.590000", "180549.593000", "180549.597000", "180549.600000", "180549.604000", "180549.607000", "180549.610000", "180549.614000", "180549.617000", "180549.620000", "180549.623000", "180609.557000", "180609.561000", "180609.564000", "180609.567000", "180609.571000", "180609.574000", "180609.577000", "180609.581000", "180609.584000", "180609.588000", "180609.591000", "180609.594000", "180609.597000", "180609.601000", "180609.604000", "180609.607000", "180609.610000", "180609.614000", "180609.617000", "180609.620000", "180629.558000", "180629.562000", "180629.565000", "180629.568000", "180629.572000", "180629.575000", "180629.578000", "180629.581000", "180629.585000", "180629.588000", "180629.591000", "180629.595000", "180629.598000", "180629.601000", "180629.615000", "180629.618000", "180629.622000", "180629.625000", "180629.628000", "180629.632000", "180649.558000", "180649.562000", "180649.565000", "180649.568000", "180649.572000", "180649.575000", "180649.578000", "180649.582000", "180649.585000", "180649.588000", "180649.592000", "180649.595000", "180649.598000", "180649.601000", "180649.605000", "180649.608000", "180649.611000", "180649.614000", "180649.618000", "180649.621000", "180709.557000", "180709.561000", "180709.564000", "180709.567000", "180709.571000", "180709.574000", "180709.577000", "180709.580000", "180709.584000", "180709.587000", "180709.590000", "180709.594000", "180709.597000", "180709.600000", "180749.557000", "180749.561000", "180749.564000", "180749.567000", "180749.571000", "180749.574000", "180749.577000", "180749.581000", "180749.584000", "180749.588000", "180749.592000", "180749.595000", "180749.599000", "180749.602000", "180749.605000", "180749.609000", "180749.612000", "180749.615000", "180749.618000", "180749.622000", "180749.625000", "180749.628000", "180749.631000", "180749.635000", "180749.638000", "180749.641000", "180829.557000", "180829.561000", "180829.564000", "180829.567000", "180829.571000", "180829.574000", "180829.577000", "180829.581000", "180829.584000", "180829.587000", "180829.590000", "180829.594000", "180829.597000", "180829.600000", "180829.604000", "180829.607000", "180829.610000", "180829.613000", "180829.617000", "180829.620000", "180829.623000", "180829.627000", "180829.630000", "180829.633000", "180829.637000", "180829.640000", "180829.643000", "180853.889000", "180853.893000", "180853.896000", "180853.899000", "180853.902000", "180853.906000", "180853.920000", "180853.923000", "180853.926000", "180853.930000", "180853.933000", "180853.936000", "180853.939000", "180853.943000", "180853.946000", "180853.949000", "180853.953000"],
      "InstanceNumber": [1, 2, 3, 4, 5, 6, 7, 8, 9, 10, 11, 12, 13, 14, 15, 16, 17, 18, 19, 20, 21, 22, 23, 24, 25, 26, 27, 28, 29, 30, 31, 32, 33, 34, 35, 36, 37, 38, 39, 40, 41, 42, 43, 44, 45, 46, 47, 48, 49, 50, 51, 52, 53, 54, 55, 56, 57, 58, 59, 60, 61, 62, 63, 64, 65, 66, 67, 68, 69, 70, 71, 72, 73, 74, 75, 76, 77, 78, 79, 80, 81, 82, 83, 84, 85, 86, 87, 88, 89, 90, 91, 92, 93, 94, 95, 96, 97, 98, 99, 100, 101, 102, 103, 104, 105, 106, 107, 108, 109, 110, 111, 112, 113, 114, 115, 116, 117, 118, 119, 120, 121, 122, 123, 124, 125, 126, 127, 128, 129, 130, 131, 132, 133, 134, 135, 136, 137, 138, 139, 140, 141, 142, 143, 144, 145, 146, 147, 148, 149, 150, 151, 152, 153, 154, 155, 156, 157, 158, 159, 160, 161, 162, 163, 164, 165, 166, 167, 168, 169, 170, 171, 172, 173, 174, 175, 176, 177, 178, 179, 180, 181, 182, 183, 184, 185, 186, 187, 188, 189, 190],
      "LargestImagePixelValue": [46937, 46356, 45738, 45157, 44899, 44908, 44775, 43860, 44757, 44584, 44794, 44585, 43915, 44836, 44052, 44615, 44417, 44928, 45285, 45120, 45203, 44507, 45342, 44531, 44282, 45370, 44372, 44358, 44683, 44893, 44727, 44722, 44706, 44323, 45522, 43720, 44334, 43450, 42897, 44329, 43607, 44039, 43231, 43883, 43796, 43863, 43834, 44180, 44337, 44546, 44063, 43588, 43769, 43508, 43681, 44192, 43039, 43838, 44802, 43774, 44064, 44029, 44167, 43399, 44382, 44445, 44217, 44030, 45035, 44334, 44321, 44667, 44316, 44016, 44600, 44453, 44509, 44946, 44279, 44195, 44787, 44961, 43707, 44376, 44689, 44550, 44604, 45721, 44714, 44773, 45565, 44750, 44663, 45046, 44880, 44359, 45444, 42122, 45287, 44260, 44349, 44276, 44896, 44267, 45067, 44654, 44624, 44863, 44632, 44818, 44830, 43833, 45074, 44696, 44842, 43831, 45006, 44816, 44980, 45363, 44922, 45505, 45162, 44597, 45761, 44902, 44776, 45444, 44694, 44498, 45415, 45078, 44456, 45193, 44746, 45016, 44544, 45594, 44952, 44529, 45339, 44945, 45629, 43719, 43999, 45095, 44350, 45179, 44593, 44120, 44604, 42959, 44135, 43823, 44631, 44889, 45038, 45647, 44741, 45578, 43568, 44948, 45637, 44801, 45147, 45302, 43220, 44293, 43797, 43700, 43451, 44891, 41962, 43201, 42869, 41995, 42141, 42145, 41129, 40409, 41363, 38603, 41034, 39815, 38675, 39744, 39173, 38625, 40247, 40996],
      "WindowCenter": [10483.0, 10435.0, 10430.0, 10427.0, 10425.0, 10426.0, 10434.0, 10414.0, 10425.0, 10421.0, 10425.0, 10436.0, 10417.0, 10407.0, 10399.0, 10425.0, 10438.0, 10454.0, 10436.0, 10402.0, 10387.0, 10388.0, 10410.0, 10406.0, 10407.0, 10435.0, 10424.0, 10432.0, 10433.0, 10424.0, 10434.0, 10441.0, 10437.0, 10430.0, 10444.0, 10414.0, 10416.0, 10411.0, 10408.0, 10430.0, 10409.0, 10403.0, 10392.0, 10401.0, 10419.0, 10421.0, 10401.0, 10381.0, 10381.0, 10394.0, 10397.0, 10402.0, 10413.0, 10412.0, 10411.0, 10406.0, 10391.0, 10394.0, 10431.0, 10437.0, 10442.0, 10451.0, 10441.0, 10418.0, 10421.0, 10410.0, 10410.0, 10419.0, 10430.0, 10427.0, 10428.0, 10417.0, 10410.0, 10418.0, 10425.0, 10435.0, 10444.0, 10449.0, 10440.0, 10432.0, 10440.0, 10441.0, 10432.0, 10437.0, 10446.0, 10430.0, 10419.0, 10420.0, 10408.0, 10418.0, 10420.0, 10431.0, 10445.0, 10435.0, 10448.0, 10430.0, 10434.0, 10419.0, 10441.0, 10447.0, 10457.0, 10462.0, 10447.0, 10428.0, 10410.0, 10425.0, 10438.0, 10462.0, 10468.0, 10452.0, 10446.0, 10434.0, 10450.0, 10455.0, 10438.0, 10424.0, 10425.0, 10421.0, 10424.0, 10430.0, 10411.0, 10405.0, 10424.0, 10430.0, 10452.0, 10440.0, 10441.0, 10450.0, 10446.0, 10435.0, 10435.0, 10438.0, 10430.0, 10453.0, 10467.0, 10466.0, 10452.0, 10433.0, 10420.0, 10418.0, 10439.0, 10464.0, 10480.0, 10463.0, 10455.0, 10447.0, 10422.0, 10434.0, 10441.0, 10460.0, 10470.0, 10435.0, 10436.0, 10404.0, 10403.0, 10422.0, 10442.0, 10473.0, 10450.0, 10427.0, 10400.0, 10398.0, 10399.0, 10406.0, 10428.0, 10439.0, 10426.0, 10436.0, 10423.0, 10408.0, 10397.0, 10399.0, 10381.0, 10414.0, 10444.0, 10456.0, 10467.0, 10447.0, 10408.0, 10379.0, 10378.0, 10349.0, 10406.0, 10397.0, 10389.0, 10410.0, 10395.0, 10398.0, 10411.0, 10395.0],
      "WindowWidth": [22263.0, 22128.0, 22108.0, 22101.0, 22094.0, 22090.0, 22107.0, 22066.0, 22086.0, 22083.0, 22089.0, 22118.0, 22077.0, 22046.0, 22028.0, 22092.0, 22124.0, 22159.0, 22114.0, 22033.0, 21993.0, 22001.0, 22050.0, 22043.0, 22046.0, 22110.0, 22087.0, 22108.0, 22110.0, 22088.0, 22112.0, 22129.0, 22120.0, 22107.0, 22139.0, 22069.0, 22069.0, 22061.0, 22060.0, 22104.0, 22055.0, 22038.0, 22023.0, 22037.0, 22079.0, 22082.0, 22033.0, 21981.0, 21985.0, 22014.0, 22024.0, 22042.0, 22068.0, 22062.0, 22062.0, 22049.0, 22018.0, 22024.0, 22110.0, 22124.0, 22140.0, 22155.0, 22131.0, 22079.0, 22080.0, 22052.0, 22056.0, 22078.0, 22099.0, 22095.0, 22097.0, 22068.0, 22056.0, 22074.0, 22088.0, 22112.0, 22135.0, 22155.0, 22127.0, 22110.0, 22134.0, 22122.0, 22106.0, 22118.0, 22139.0, 22099.0, 22072.0, 22069.0, 22045.0, 22077.0, 22071.0, 22100.0, 22135.0, 22106.0, 22145.0, 22099.0, 22105.0, 22089.0, 22120.0, 22140.0, 22161.0, 22174.0, 22132.0, 22092.0, 22047.0, 22084.0, 22123.0, 22173.0, 22189.0, 22151.0, 22132.0, 22108.0, 22138.0, 22162.0, 22110.0, 22086.0, 22083.0, 22077.0, 22078.0, 22090.0, 22050.0, 22031.0, 22085.0, 22096.0, 22148.0, 22116.0, 22117.0, 22133.0, 22126.0, 22107.0, 22100.0, 22116.0, 22092.0, 22147.0, 22185.0, 22176.0, 22147.0, 22103.0, 22065.0, 22063.0, 22113.0, 22177.0, 22211.0, 22185.0, 22160.0, 22139.0, 22077.0, 22103.0, 22118.0, 22167.0, 22191.0, 22113.0, 22112.0, 22034.0, 22028.0, 22067.0, 22119.0, 22189.0, 22153.0, 22085.0, 22039.0, 22019.0, 22017.0, 22047.0, 22087.0, 22119.0, 22092.0, 22108.0, 22081.0, 22052.0, 22029.0, 22030.0, 22004.0, 22070.0, 22142.0, 22174.0, 22201.0, 22146.0, 22060.0, 21996.0, 21990.0, 21949.0, 22068.0, 22055.0, 22039.0, 22076.0, 22042.0, 22056.0, 22086.0, 22039.0]
    },
    "slices": {}
  }
}