{
  "AcquisitionMatrixPE": 104,
  "AcquisitionNumber": 1,
  "AcquisitionTime": "17:57:44.840000",
  "BandwidthPerPixelPhaseEncode": 17.17,
  "BaseResolution": 104,
  "BodyPartExamined": "BRAIN",
  "CoilString": "HC1-7;NC1_2",
  "ConsistencyInfo": "N4_VE11C_LATEST_20160120",
  "ConversionSoftware": "dcm2niix",
  "ConversionSoftwareVersion": "v1.0.20190902",
  "DerivedVendorReportedEchoSpacing": 0.000560011,
  "DeviceSerialNumber": "167006",
  "DwellTime": 2.1e-06,
  "EchoTime": 0.037,
  "EchoTrainLength": 104,
  "EffectiveEchoSpacing": 0.000560011,
  "FlipAngle": 52,
  "HeudiconvVersion": "0.10.0",
  "ImageComments": "Unaliased_MB4_PE3_LB",
  "ImageOrientationPatientDICOM": [0.995411, 0.0912882, 0.0287105, -0.0737971, 0.923261, -0.377018],
  "ImageType": [
    "ORIGINAL",
    "PRIMARY",
    "M",
    "MB",
    "ND",
    "MOSAIC"
],
  "ImagingFrequency": 123.259,
  "InPlanePhaseEncodingDirectionDICOM": "COL",
  "InstitutionAddress": "Chemin_Queen-Mary_4565_Montreal_District_CA_H3W_1W5",
  "InstitutionName": "IUGM",
  "InstitutionalDepartmentName": "Department",
  "MRAcquisitionType": "2D",
  "MagneticFieldStrength": 3,
  "Manufacturer": "Siemens",
  "ManufacturersModelName": "Prisma_fit",
  "Modality": "MR",
  "MultibandAccelerationFactor": 4,
  "PartialFourier": 1,
  "PatientPosition": "HFS",
  "PercentPhaseFOV": 100,
  "PhaseEncodingDirection": "j",
  "PhaseEncodingSteps": 104,
  "PhaseResolution": 1,
  "PixelBandwidth": 2290,
  "ProcedureStepDescription": "memory_things",
  "ProtocolName": "func_task-things_run-5",
  "PulseSequenceDetails": "%CustomerSeq%_cmrr_mbep2d_bold",
  "ReceiveCoilActiveElements": "HC1-7;NC1,2",
  "ReceiveCoilName": "HeadNeck_64",
  "ReconMatrixPE": 104,
  "RepetitionTime": 1.49,
  "SAR": 0.0469176,
  "ScanOptions": "FS",
  "ScanningSequence": "EP",
  "SequenceName": "epfid2d1_104",
  "SequenceVariant": "SK_SS",
  "SeriesDescription": "func_task-things_run-5",
  "SeriesNumber": 30,
  "ShimSetting": [631, -7185, -8809, 650, 81, 17, -101, 2],
  "SliceThickness": 2,
  "SliceTiming": [0, 0.785, 0.0975, 0.8825, 0.195, 0.98, 0.295, 1.0775, 0.3925, 1.175, 0.49, 1.275, 0.5875, 1.3725, 0.685, 0, 0.785, 0.0975, 0.8825, 0.195, 0.98, 0.295, 1.0775, 0.3925, 1.175, 0.49, 1.275, 0.5875, 1.3725, 0.685, 0, 0.785, 0.0975, 0.8825, 0.195, 0.98, 0.295, 1.0775, 0.3925, 1.175, 0.49, 1.275, 0.5875, 1.3725, 0.685, 0, 0.785, 0.0975, 0.8825, 0.195, 0.98, 0.295, 1.0775, 0.3925, 1.175, 0.49, 1.275, 0.5875, 1.3725, 0.685],
  "SoftwareVersions": "syngo_MR_E11",
  "SpacingBetweenSlices": 2,
  "StationName": "MRC35049",
  "TaskName": "things",
  "TotalReadoutTime": 0.0576811,
  "TxRefAmp": 263.015,
  "WipMemBlock": "50d23bec-f8ac-4e00-8455-97f72d6a433a||Sequence: R016 ve11c/master r/e634e98; Dec 19 2017 11:00:25 by eja",
  "dcmmeta_affine": [
    [-1.990821123123169, -0.14759425818920135, 0.12184923887252808, 110.03850555419922],
    [-0.18257637321949005, 1.8465222120285034, -0.7463387250900269, -48.30487060546875],
    [0.057421013712882996, 0.7540368437767029, 1.8515212535858154, -63.184730529785156],
    [0.0, 0.0, 0.0, 1.0]
],
  "dcmmeta_reorient_transform": [
    [0.0, -1.0, 0.0, 103.0],
    [1.0, 0.0, 0.0, 0.0],
    [0.0, 0.0, 1.0, 0.0],
    [0.0, 0.0, 0.0, 1.0]
],
  "dcmmeta_shape": [104, 104, 60, 190],
  "dcmmeta_slice_dim": 2,
  "dcmmeta_version": 0.6,
  "global": {
    "const": {
      "AcquisitionMatrix": [104, 0, 0, 104],
      "AngioFlag": "N",
      "BitsAllocated": 16,
      "BitsStored": 16,
      "BodyPartExamined": "BRAIN",
      "Columns": 832,
      "EchoNumbers": 1,
      "EchoTime": 37.0,
      "EchoTrainLength": 104,
      "FlipAngle": 52.0,
      "HighBit": 15,
      "ImageOrientationPatient": [0.99541055546089, 0.09128818585408, 0.02871050679667, -0.0737971305338, 0.92326111904668, -0.3770184207458],
      "ImagePositionPatient": [-765.77087275702, -880.4788124184, 268.04922442948],
      "ImageType": [
        "ORIGINAL",
        "PRIMARY",
        "M",
        "MB",
        "ND",
        "MOSAIC"
],
      "ImagedNucleus": "1H",
      "ImagingFrequency": 123.259091,
      "InPlanePhaseEncodingDirection": "COL",
      "MRAcquisitionType": "2D",
      "MagneticFieldStrength": 3.0,
      "Manufacturer": "SIEMENS",
      "ManufacturerModelName": "Prisma_fit",
      "Modality": "MR",
      "NumberOfAverages": 1.0,
      "NumberOfPhaseEncodingSteps": 104,
      "PercentPhaseFieldOfView": 100.0,
      "PercentSampling": 100.0,
      "PerformedProcedureStepStartTime": "165311.059000",
      "PhotometricInterpretation": "MONOCHROME2",
      "PixelBandwidth": 2290.0,
      "PixelRepresentation": 0,
      "PixelSpacing": [2.0, 2.0],
      "ProtocolName": "func_task-things_run-5",
      "RepetitionTime": 1490.0,
      "Rows": 832,
      "SAR": 0.04691755967296,
      "SamplesPerPixel": 1,
      "ScanOptions": "FS",
      "ScanningSequence": "EP",
      "SequenceName": "epfid2d1_104",
      "SequenceVariant": [
        "SK",
        "SS"
],
      "SeriesDescription": "func_task-things_run-5",
      "SeriesNumber": 30,
      "SeriesTime": "175856.241000",
      "SliceLocation": -33.763986550181,
      "SliceThickness": 2.0,
      "SmallestImagePixelValue": 0,
      "SoftwareVersions": "syngo MR E11",
      "SpacingBetweenSlices": 1.9999999556735,
      "SpecificCharacterSet": "ISO_IR 100",
      "StudyID": "1",
      "StudyTime": "165310.912000",
      "TransmitCoilName": "Body",
      "VariableFlipAngleFlag": "N",
      "WindowCenterWidthExplanation": "Algo1",
      "dBdt": 0.0},
    "slices": {}
  },
  "time": {
    "samples": {
      "AcquisitionNumber": [1, 2, 3, 4, 5, 6, 7, 8, 9, 10, 11, 12, 13, 14, 15, 16, 17, 18, 19, 20, 21, 22, 23, 24, 25, 26, 27, 28, 29, 30, 31, 32, 33, 34, 35, 36, 37, 38, 39, 40, 41, 42, 43, 44, 45, 46, 47, 48, 49, 50, 51, 52, 53, 54, 55, 56, 57, 58, 59, 60, 61, 62, 63, 64, 65, 66, 67, 68, 69, 70, 71, 72, 73, 74, 75, 76, 77, 78, 79, 80, 81, 82, 83, 84, 85, 86, 87, 88, 89, 90, 91, 92, 93, 94, 95, 96, 97, 98, 99, 100, 101, 102, 103, 104, 105, 106, 107, 108, 109, 110, 111, 112, 113, 114, 115, 116, 117, 118, 119, 120, 121, 122, 123, 124, 125, 126, 127, 128, 129, 130, 131, 132, 133, 134, 135, 136, 137, 138, 139, 140, 141, 142, 143, 144, 145, 146, 147, 148, 149, 150, 151, 152, 153, 154, 155, 156, 157, 158, 159, 160, 161, 162, 163, 164, 165, 166, 167, 168, 169, 170, 171, 172, 173, 174, 175, 176, 177, 178, 179, 180, 181, 182, 183, 184, 185, 186, 187, 188, 189, 190],
      "AcquisitionTime": ["175744.840000", "175746.330000", "175747.820000", "175749.310000", "175750.800000", "175752.290000", "175753.780000", "175755.270000", "175756.760000", "175758.250000", "175759.740000", "175801.230000", "175802.720000", "175804.210000", "175805.700000", "175807.190000", "175808.680000", "175810.170000", "175811.660000", "175813.150000", "175814.640000", "175816.130000", "175817.620000", "175819.110000", "175820.600000", "175822.090000", "175823.580000", "175825.070000", "175826.560000", "175828.050000", "175829.540000", "175831.030000", "175832.520000", "175834.010000", "175835.500000", "175836.990000", "175838.480000", "175839.970000", "175841.460000", "175842.950000", "175844.440000", "175845.930000", "175847.420000", "175848.910000", "175850.400000", "175851.890000", "175853.380000", "175854.870000", "175856.360000", "175857.850000", "175859.340000", "175900.830000", "175902.320000", "175903.810000", "175905.300000", "175906.790000", "175908.280000", "175909.770000", "175911.260000", "175912.750000", "175914.240000", "175915.730000", "175917.220000", "175918.710000", "175920.200000", "175921.690000", "175923.180000", "175924.670000", "175926.160000", "175927.650000", "175929.140000", "175930.630000", "175932.120000", "175933.610000", "175935.100000", "175936.590000", "175938.080000", "175939.570000", "175941.060000", "175942.550000", "175944.040000", "175945.530000", "175947.020000", "175948.510000", "175950.000000", "175951.490000", "175952.980000", "175954.470000", "175955.960000", "175957.450000", "175958.940000", "180000.430000", "180001.920000", "180003.410000", "180004.900000", "180006.390000", "180007.880000", "180009.370000", "180010.860000", "180012.350000", "180013.840000", "180015.330000", "180016.820000", "180018.310000", "180019.800000", "180021.290000", "180022.780000", "180024.270000", "180025.760000", "180027.250000", "180028.740000", "180030.230000", "180031.720000", "180033.210000", "180034.700000", "180036.190000", "180037.680000", "180039.170000", "180040.660000", "180042.150000", "180043.640000", "180045.130000", "180046.620000", "180048.110000", "180049.600000", "180051.090000", "180052.580000", "180054.070000", "180055.560000", "180057.050000", "180058.540000", "180100.030000", "180101.520000", "180103.010000", "180104.500000", "180105.990000", "180107.480000", "180108.970000", "180110.460000", "180111.950000", "180113.440000", "180114.930000", "180116.420000", "180117.910000", "180119.400000", "180120.890000", "180122.380000", "180123.870000", "180125.360000", "180126.850000", "180128.340000", "180129.830000", "180131.320000", "180132.810000", "180134.300000", "180135.790000", "180137.280000", "180138.770000", "180140.260000", "180141.750000", "180143.240000", "180144.730000", "180146.220000", "180147.710000", "180149.200000", "180150.690000", "180152.180000", "180153.670000", "180155.160000", "180156.650000", "180158.140000", "180159.630000", "180201.120000", "180202.610000", "180204.100000", "180205.590000", "180207.080000", "180208.570000", "180210.060000", "180211.550000", "180213.040000", "180214.530000", "180216.020000", "180217.510000", "180219.000000", "180220.490000", "180221.980000", "180223.470000", "180224.960000", "180226.450000"],
      "ContentTime": ["175856.244000", "175856.248000", "175856.251000", "175856.255000", "175856.258000", "175856.261000", "175856.264000", "175856.268000", "175856.271000", "175856.274000", "175856.278000", "175856.281000", "175856.284000", "175856.288000", "175856.291000", "175856.294000", "175856.297000", "175856.301000", "175916.198000", "175916.202000", "175916.205000", "175916.208000", "175916.211000", "175916.215000", "175916.218000", "175916.221000", "175916.224000", "175916.228000", "175916.231000", "175916.234000", "175916.237000", "175916.241000", "175916.244000", "175916.247000", "175916.250000", "175916.254000", "175916.257000", "175916.260000", "175916.264000", "175936.198000", "175936.202000", "175936.205000", "175936.208000", "175936.211000", "175936.215000", "175936.218000", "175936.221000", "175936.225000", "175936.228000", "175936.231000", "175936.234000", "175936.238000", "175936.241000", "175936.244000", "175936.247000", "175936.251000", "175936.261000", "175936.264000", "175936.267000", "175956.199000", "175956.202000", "175956.206000", "175956.209000", "175956.212000", "175956.215000", "175956.219000", "175956.228000", "175956.232000", "175956.235000", "175956.238000", "175956.242000", "175956.245000", "175956.248000", "175956.252000", "175956.255000", "175956.258000", "175956.261000", "175956.265000", "175956.268000", "180016.198000", "180016.202000", "180016.205000", "180016.208000", "180016.211000", "180016.215000", "180016.218000", "180016.221000", "180016.225000", "180016.228000", "180016.231000", "180016.234000", "180016.238000", "180016.241000", "180016.244000", "180016.247000", "180016.251000", "180016.254000", "180016.257000", "180016.261000", "180016.264000", "180056.198000", "180056.202000", "180056.205000", "180056.208000", "180056.212000", "180056.215000", "180056.218000", "180056.222000", "180056.225000", "180056.228000", "180056.233000", "180056.236000", "180056.240000", "180056.243000", "180056.246000", "180056.249000", "180056.253000", "180056.256000", "180056.259000", "180056.263000", "180056.266000", "180056.269000", "180056.273000", "180056.276000", "180056.279000", "180056.282000", "180056.286000", "180136.198000", "180136.202000", "180136.205000", "180136.208000", "180136.212000", "180136.215000", "180136.218000", "180136.222000", "180136.225000", "180136.228000", "180136.231000", "180136.235000", "180136.238000", "180136.241000", "180136.245000", "180136.248000", "180136.251000", "180136.254000", "180136.258000", "180136.261000", "180136.264000", "180136.268000", "180136.271000", "180136.274000", "180136.277000", "180136.281000", "180136.284000", "180216.198000", "180216.202000", "180216.205000", "180216.209000", "180216.212000", "180216.215000", "180216.218000", "180216.222000", "180216.225000", "180216.228000", "180216.232000", "180216.235000", "180216.238000", "180216.255000", "180216.259000", "180216.262000", "180216.265000", "180216.269000", "180216.272000", "180216.275000", "180216.279000", "180216.282000", "180216.292000", "180216.295000", "180216.298000", "180216.302000", "180216.305000", "180228.827000", "180228.831000", "180228.834000", "180228.837000", "180228.841000", "180228.844000", "180228.847000", "180228.851000", "180228.854000"],
      "InstanceCreationTime": ["175856.244000", "175856.248000", "175856.251000", "175856.255000", "175856.258000", "175856.261000", "175856.264000", "175856.268000", "175856.271000", "175856.274000", "175856.278000", "175856.281000", "175856.284000", "175856.288000", "175856.291000", "175856.294000", "175856.297000", "175856.301000", "175916.198000", "175916.202000", "175916.205000", "175916.208000", "175916.211000", "175916.215000", "175916.218000", "175916.221000", "175916.224000", "175916.228000", "175916.231000", "175916.234000", "175916.237000", "175916.241000", "175916.244000", "175916.247000", "175916.250000", "175916.254000", "175916.257000", "175916.260000", "175916.264000", "175936.198000", "175936.202000", "175936.205000", "175936.208000", "175936.211000", "175936.215000", "175936.218000", "175936.221000", "175936.225000", "175936.228000", "175936.231000", "175936.234000", "175936.238000", "175936.241000", "175936.244000", "175936.247000", "175936.251000", "175936.261000", "175936.264000", "175936.267000", "175956.199000", "175956.202000", "175956.206000", "175956.209000", "175956.212000", "175956.215000", "175956.219000", "175956.228000", "175956.232000", "175956.235000", "175956.238000", "175956.242000", "175956.245000", "175956.248000", "175956.252000", "175956.255000", "175956.258000", "175956.261000", "175956.265000", "175956.268000", "180016.198000", "180016.202000", "180016.205000", "180016.208000", "180016.211000", "180016.215000", "180016.218000", "180016.221000", "180016.225000", "180016.228000", "180016.231000", "180016.234000", "180016.238000", "180016.241000", "180016.244000", "180016.247000", "180016.251000", "180016.254000", "180016.257000", "180016.261000", "180016.264000", "180056.198000", "180056.202000", "180056.205000", "180056.208000", "180056.212000", "180056.215000", "180056.218000", "180056.222000", "180056.225000", "180056.228000", "180056.233000", "180056.236000", "180056.240000", "180056.243000", "180056.246000", "180056.249000", "180056.253000", "180056.256000", "180056.259000", "180056.263000", "180056.266000", "180056.269000", "180056.273000", "180056.276000", "180056.279000", "180056.282000", "180056.286000", "180136.198000", "180136.202000", "180136.205000", "180136.208000", "180136.212000", "180136.215000", "180136.218000", "180136.222000", "180136.225000", "180136.228000", "180136.231000", "180136.235000", "180136.238000", "180136.241000", "180136.245000", "180136.248000", "180136.251000", "180136.254000", "180136.258000", "180136.261000", "180136.264000", "180136.268000", "180136.271000", "180136.274000", "180136.277000", "180136.281000", "180136.284000", "180216.198000", "180216.202000", "180216.205000", "180216.209000", "180216.212000", "180216.215000", "180216.218000", "180216.222000", "180216.225000", "180216.228000", "180216.232000", "180216.235000", "180216.238000", "180216.255000", "180216.259000", "180216.262000", "180216.265000", "180216.269000", "180216.272000", "180216.275000", "180216.279000", "180216.282000", "180216.292000", "180216.295000", "180216.298000", "180216.302000", "180216.305000", "180228.827000", "180228.831000", "180228.834000", "180228.837000", "180228.841000", "180228.844000", "180228.847000", "180228.851000", "180228.854000"],
      "InstanceNumber": [1, 2, 3, 4, 5, 6, 7, 8, 9, 10, 11, 12, 13, 14, 15, 16, 17, 18, 19, 20, 21, 22, 23, 24, 25, 26, 27, 28, 29, 30, 31, 32, 33, 34, 35, 36, 37, 38, 39, 40, 41, 42, 43, 44, 45, 46, 47, 48, 49, 50, 51, 52, 53, 54, 55, 56, 57, 58, 59, 60, 61, 62, 63, 64, 65, 66, 67, 68, 69, 70, 71, 72, 73, 74, 75, 76, 77, 78, 79, 80, 81, 82, 83, 84, 85, 86, 87, 88, 89, 90, 91, 92, 93, 94, 95, 96, 97, 98, 99, 100, 101, 102, 103, 104, 105, 106, 107, 108, 109, 110, 111, 112, 113, 114, 115, 116, 117, 118, 119, 120, 121, 122, 123, 124, 125, 126, 127, 128, 129, 130, 131, 132, 133, 134, 135, 136, 137, 138, 139, 140, 141, 142, 143, 144, 145, 146, 147, 148, 149, 150, 151, 152, 153, 154, 155, 156, 157, 158, 159, 160, 161, 162, 163, 164, 165, 166, 167, 168, 169, 170, 171, 172, 173, 174, 175, 176, 177, 178, 179, 180, 181, 182, 183, 184, 185, 186, 187, 188, 189, 190],
      "LargestImagePixelValue": [41766, 41196, 40260, 40014, 40548, 40058, 40765, 40166, 39555, 40296, 40884, 39752, 39936, 39781, 39364, 39691, 39547, 40273, 39549, 39885, 39458, 39941, 39662, 39882, 40276, 40110, 39327, 40273, 39763, 39339, 40432, 40971, 40630, 41199, 40888, 40534, 41775, 42019, 40271, 40369, 40629, 39796, 40741, 39541, 39687, 40264, 41527, 41078, 40894, 41043, 41262, 40394, 39822, 39167, 39062, 39410, 39263, 39679, 39072, 39376, 39323, 40227, 40331, 41925, 40670, 42041, 43074, 42169, 40971, 41416, 41455, 42420, 41364, 42131, 42317, 42432, 41636, 42761, 42562, 43751, 42980, 43515, 42683, 42864, 42596, 42283, 42228, 42285, 42710, 42835, 42733, 43150, 43703, 43383, 43087, 42244, 42124, 42150, 41841, 42030, 42606, 42461, 42195, 42677, 42240, 41015, 42311, 42551, 42096, 42977, 42401, 42685, 42928, 43087, 43483, 42861, 43195, 42010, 42124, 42442, 42624, 42957, 43251, 42780, 42403, 42712, 42944, 43104, 42665, 43125, 42834, 42159, 40137, 40441, 40245, 39299, 39299, 38942, 40262, 41558, 41501, 41465, 41643, 42558, 41465, 41568, 41488, 42136, 41803, 42389, 42561, 43234, 43042, 43059, 43077, 42753, 43914, 43572, 42940, 43146, 42905, 42900, 43326, 42620, 43077, 42452, 43869, 43508, 42860, 42169, 42600, 41376, 42030, 42845, 42493, 42156, 42068, 43215, 42680, 43155, 42826, 42408, 42289, 42748, 42211, 42634, 42705, 42210, 42311, 43082],
      "WindowCenter": [10465.0, 10454.0, 10440.0, 10408.0, 10381.0, 10364.0, 10367.0, 10375.0, 10381.0, 10387.0, 10393.0, 10374.0, 10381.0, 10377.0, 10367.0, 10360.0, 10357.0, 10358.0, 10361.0, 10395.0, 10403.0, 10420.0, 10405.0, 10391.0, 10387.0, 10372.0, 10386.0, 10405.0, 10384.0, 10378.0, 10389.0, 10391.0, 10395.0, 10398.0, 10381.0, 10374.0, 10391.0, 10410.0, 10406.0, 10397.0, 10389.0, 10389.0, 10390.0, 10384.0, 10378.0, 10380.0, 10381.0, 10392.0, 10412.0, 10420.0, 10414.0, 10407.0, 10391.0, 10394.0, 10394.0, 10384.0, 10364.0, 10354.0, 10335.0, 10360.0, 10393.0, 10412.0, 10394.0, 10391.0, 10361.0, 10367.0, 10402.0, 10419.0, 10412.0, 10409.0, 10408.0, 10413.0, 10409.0, 10421.0, 10439.0, 10440.0, 10419.0, 10409.0, 10383.0, 10390.0, 10394.0, 10411.0, 10409.0, 10416.0, 10411.0, 10403.0, 10419.0, 10431.0, 10447.0, 10427.0, 10425.0, 10408.0, 10401.0, 10394.0, 10428.0, 10464.0, 10467.0, 10454.0, 10435.0, 10400.0, 10384.0, 10398.0, 10402.0, 10409.0, 10420.0, 10395.0, 10396.0, 10410.0, 10410.0, 10411.0, 10407.0, 10401.0, 10395.0, 10401.0, 10412.0, 10408.0, 10404.0, 10399.0, 10420.0, 10418.0, 10420.0, 10420.0, 10413.0, 10414.0, 10416.0, 10425.0, 10442.0, 10444.0, 10438.0, 10444.0, 10437.0, 10435.0, 10424.0, 10427.0, 10423.0, 10397.0, 10374.0, 10374.0, 10374.0, 10390.0, 10381.0, 10365.0, 10362.0, 10391.0, 10388.0, 10398.0, 10391.0, 10377.0, 10367.0, 10375.0, 10391.0, 10404.0, 10423.0, 10426.0, 10422.0, 10409.0, 10420.0, 10429.0, 10429.0, 10447.0, 10446.0, 10440.0, 10448.0, 10439.0, 10445.0, 10457.0, 10469.0, 10470.0, 10467.0, 10453.0, 10454.0, 10443.0, 10437.0, 10441.0, 10425.0, 10408.0, 10406.0, 10408.0, 10409.0, 10408.0, 10416.0, 10421.0, 10430.0, 10452.0, 10435.0, 10435.0, 10426.0, 10410.0, 10408.0, 10420.0],
      "WindowWidth": [22248.0, 22208.0, 22171.0, 22090.0, 22016.0, 21972.0, 21977.0, 21995.0, 22013.0, 22025.0, 22040.0, 22001.0, 22016.0, 22008.0, 21983.0, 21973.0, 21963.0, 21961.0, 21971.0, 22049.0, 22070.0, 22116.0, 22074.0, 22038.0, 22026.0, 21996.0, 22034.0, 22076.0, 22026.0, 22012.0, 22037.0, 22035.0, 22049.0, 22051.0, 22013.0, 21995.0, 22030.0, 22078.0, 22073.0, 22051.0, 22032.0, 22037.0, 22033.0, 22027.0, 22018.0, 22017.0, 22012.0, 22040.0, 22087.0, 22102.0, 22090.0, 22075.0, 22040.0, 22056.0, 22058.0, 22033.0, 21982.0, 21964.0, 21915.0, 21970.0, 22051.0, 22084.0, 22039.0, 22025.0, 21964.0, 21970.0, 22050.0, 22097.0, 22083.0, 22070.0, 22068.0, 22077.0, 22071.0, 22096.0, 22141.0, 22143.0, 22096.0, 22064.0, 22000.0, 22014.0, 22027.0, 22069.0, 22067.0, 22082.0, 22073.0, 22055.0, 22093.0, 22121.0, 22158.0, 22108.0, 22104.0, 22062.0, 22039.0, 22026.0, 22110.0, 22198.0, 22205.0, 22177.0, 22130.0, 22048.0, 22007.0, 22042.0, 22052.0, 22067.0, 22094.0, 22041.0, 22037.0, 22068.0, 22069.0, 22065.0, 22057.0, 22044.0, 22029.0, 22042.0, 22076.0, 22064.0, 22052.0, 22048.0, 22093.0, 22084.0, 22091.0, 22093.0, 22070.0, 22074.0, 22080.0, 22104.0, 22142.0, 22147.0, 22134.0, 22144.0, 22125.0, 22123.0, 22106.0, 22109.0, 22104.0, 22047.0, 21992.0, 21992.0, 21987.0, 22018.0, 21995.0, 21964.0, 21952.0, 22015.0, 22016.0, 22038.0, 22021.0, 21984.0, 21961.0, 21983.0, 22019.0, 22047.0, 22091.0, 22099.0, 22087.0, 22060.0, 22082.0, 22106.0, 22109.0, 22160.0, 22149.0, 22139.0, 22156.0, 22135.0, 22145.0, 22177.0, 22199.0, 22200.0, 22200.0, 22165.0, 22169.0, 22149.0, 22129.0, 22134.0, 22100.0, 22056.0, 22052.0, 22054.0, 22057.0, 22055.0, 22074.0, 22090.0, 22114.0, 22160.0, 22125.0, 22132.0, 22105.0, 22074.0, 22069.0, 22095.0]
    },
    "slices": {}
  }
}