{
  "AcquisitionMatrixPE": 104,
  "AcquisitionNumber": 1,
  "AcquisitionTime": "17:34:17.562500",
  "BandwidthPerPixelPhaseEncode": 17.17,
  "BaseResolution": 104,
  "BodyPartExamined": "BRAIN",
  "CoilString": "HC1-7;NC1_2",
  "ConsistencyInfo": "N4_VE11C_LATEST_20160120",
  "ConversionSoftware": "dcm2niix",
  "ConversionSoftwareVersion": "v1.0.20190902",
  "DerivedVendorReportedEchoSpacing": 0.000560011,
  "DeviceSerialNumber": "167006",
  "DwellTime": 2.1e-06,
  "EchoTime": 0.037,
  "EchoTrainLength": 104,
  "EffectiveEchoSpacing": 0.000560011,
  "FlipAngle": 52,
  "HeudiconvVersion": "0.10.0",
  "ImageComments": "Unaliased_MB4_PE3_LB",
  "ImageOrientationPatientDICOM": [0.997154, 0.06863, 0.0312145, -0.0557495, 0.949894, -0.307561],
  "ImageType": [
    "ORIGINAL",
    "PRIMARY",
    "P",
    "MB",
    "ND",
    "MOSAIC"
],
  "ImagingFrequency": 123.259,
  "InPlanePhaseEncodingDirectionDICOM": "COL",
  "InstitutionAddress": "Chemin_Queen-Mary_4565_Montreal_District_CA_H3W_1W5",
  "InstitutionName": "IUGM",
  "InstitutionalDepartmentName": "Department",
  "MRAcquisitionType": "2D",
  "MagneticFieldStrength": 3,
  "Manufacturer": "Siemens",
  "ManufacturersModelName": "Prisma_fit",
  "Modality": "MR",
  "MultibandAccelerationFactor": 4,
  "PartialFourier": 1,
  "PatientPosition": "HFS",
  "PercentPhaseFOV": 100,
  "PhaseEncodingDirection": "j",
  "PhaseEncodingSteps": 104,
  "PhaseResolution": 1,
  "PixelBandwidth": 2290,
  "ProcedureStepDescription": "memory_things",
  "ProtocolName": "func_task-things_run-3",
  "PulseSequenceDetails": "%CustomerSeq%_cmrr_mbep2d_bold",
  "ReceiveCoilActiveElements": "HC1-7;NC1,2",
  "ReceiveCoilName": "HeadNeck_64",
  "ReconMatrixPE": 104,
  "RepetitionTime": 1.49,
  "SAR": 0.0532952,
  "ScanOptions": "FS",
  "ScanningSequence": "EP",
  "SequenceName": "epfid2d1_104",
  "SequenceVariant": "SK_SS",
  "SeriesDescription": "func_task-things_run-3",
  "SeriesNumber": 17,
  "ShimSetting": [631, -7192, -8806, 691, 81, 23, -13, -19],
  "SliceThickness": 2,
  "SliceTiming": [0, 0.7825, 0.0975, 0.88, 0.195, 0.98, 0.2925, 1.0775, 0.3925, 1.175, 0.49, 1.2725, 0.5875, 1.37, 0.685, 0, 0.7825, 0.0975, 0.88, 0.195, 0.98, 0.2925, 1.0775, 0.3925, 1.175, 0.49, 1.2725, 0.5875, 1.37, 0.685, 0, 0.7825, 0.0975, 0.88, 0.195, 0.98, 0.2925, 1.0775, 0.3925, 1.175, 0.49, 1.2725, 0.5875, 1.37, 0.685, 0, 0.7825, 0.0975, 0.88, 0.195, 0.98, 0.2925, 1.0775, 0.3925, 1.175, 0.49, 1.2725, 0.5875, 1.37, 0.685],
  "SoftwareVersions": "syngo_MR_E11",
  "SpacingBetweenSlices": 2,
  "StationName": "MRC35049",
  "TaskName": "things",
  "TotalReadoutTime": 0.0576811,
  "TxRefAmp": 278.891,
  "WipMemBlock": "942064c7-8fdd-4007-bd02-2d28b6df6849||Sequence: R016 ve11c/master r/e634e98; Dec 19 2017 11:00:25 by eja",
  "dcmmeta_affine": [
    [-1.994307518005371, -0.11149906367063522, 0.10151665657758713, 109.61216735839844],
    [-0.13725996017456055, 1.8997877836227417, -0.6098901629447937, -55.64427185058594],
    [0.06242895871400833, 0.6151213645935059, 1.902032732963562, -59.24467086791992],
    [0.0, 0.0, 0.0, 1.0]
],
  "dcmmeta_reorient_transform": [
    [0.0, -1.0, 0.0, 103.0],
    [1.0, 0.0, 0.0, 0.0],
    [0.0, 0.0, 1.0, 0.0],
    [0.0, 0.0, 0.0, 1.0]
],
  "dcmmeta_shape": [104, 104, 60, 190],
  "dcmmeta_slice_dim": 2,
  "dcmmeta_version": 0.6,
  "global": {
    "const": {
      "AcquisitionMatrix": [104, 0, 0, 104],
      "AngioFlag": "N",
      "BitsAllocated": 16,
      "BitsStored": 16,
      "BodyPartExamined": "BRAIN",
      "Columns": 832,
      "EchoNumbers": 1,
      "EchoTime": 37.0,
      "EchoTrainLength": 104,
      "FlipAngle": 52.0,
      "HighBit": 15,
      "ImageOrientationPatient": [0.99715374030191, 0.06862998234462, 0.03121447941721, -0.0557495329898, 0.94989390053875, -0.3075606725358],
      "ImagePositionPatient": [-783.47002474058, -881.51925810169, 205.29285448256],
      "ImageType": [
        "ORIGINAL",
        "PRIMARY",
        "P",
        "MB",
        "ND",
        "MOSAIC"
],
      "ImagedNucleus": "1H",
      "ImagingFrequency": 123.25909,
      "InPlanePhaseEncodingDirection": "COL",
      "LargestImagePixelValue": 4095,
      "MRAcquisitionType": "2D",
      "MagneticFieldStrength": 3.0,
      "Manufacturer": "SIEMENS",
      "ManufacturerModelName": "Prisma_fit",
      "Modality": "MR",
      "NumberOfAverages": 1.0,
      "NumberOfPhaseEncodingSteps": 104,
      "PercentPhaseFieldOfView": 100.0,
      "PercentSampling": 100.0,
      "PerformedProcedureStepStartTime": "165311.059000",
      "PhotometricInterpretation": "MONOCHROME2",
      "PixelBandwidth": 2290.0,
      "PixelRepresentation": 0,
      "PixelSpacing": [2.0, 2.0],
      "ProtocolName": "func_task-things_run-3",
      "RepetitionTime": 1490.0,
      "RescaleIntercept": -4096.0,
      "RescaleSlope": 2.0,
      "RescaleType": "US",
      "Rows": 832,
      "SAR": 0.05329517935743,
      "SamplesPerPixel": 1,
      "ScanOptions": "FS",
      "ScanningSequence": "EP",
      "SequenceName": "epfid2d1_104",
      "SequenceVariant": [
        "SK",
        "SS"
],
      "SeriesDescription": "func_task-things_run-3",
      "SeriesNumber": 17,
      "SeriesTime": "173549.775000",
      "SliceLocation": -33.810474748989,
      "SliceThickness": 2.0,
      "SmallestImagePixelValue": 0,
      "SoftwareVersions": "syngo MR E11",
      "SpacingBetweenSlices": 2.0000000086385,
      "SpecificCharacterSet": "ISO_IR 100",
      "StudyID": "1",
      "StudyTime": "165310.912000",
      "TransmitCoilName": "Body",
      "VariableFlipAngleFlag": "N",
      "WindowCenterWidthExplanation": "Algo1",
      "dBdt": 0.0},
    "slices": {}
  },
  "time": {
    "samples": {
      "AcquisitionNumber": [1, 2, 3, 4, 5, 6, 7, 8, 9, 10, 11, 12, 13, 14, 15, 16, 17, 18, 19, 20, 21, 22, 23, 24, 25, 26, 27, 28, 29, 30, 31, 32, 33, 34, 35, 36, 37, 38, 39, 40, 41, 42, 43, 44, 45, 46, 47, 48, 49, 50, 51, 52, 53, 54, 55, 56, 57, 58, 59, 60, 61, 62, 63, 64, 65, 66, 67, 68, 69, 70, 71, 72, 73, 74, 75, 76, 77, 78, 79, 80, 81, 82, 83, 84, 85, 86, 87, 88, 89, 90, 91, 92, 93, 94, 95, 96, 97, 98, 99, 100, 101, 102, 103, 104, 105, 106, 107, 108, 109, 110, 111, 112, 113, 114, 115, 116, 117, 118, 119, 120, 121, 122, 123, 124, 125, 126, 127, 128, 129, 130, 131, 132, 133, 134, 135, 136, 137, 138, 139, 140, 141, 142, 143, 144, 145, 146, 147, 148, 149, 150, 151, 152, 153, 154, 155, 156, 157, 158, 159, 160, 161, 162, 163, 164, 165, 166, 167, 168, 169, 170, 171, 172, 173, 174, 175, 176, 177, 178, 179, 180, 181, 182, 183, 184, 185, 186, 187, 188, 189, 190],
      "AcquisitionTime": ["173417.562500", "173419.052500", "173420.542500", "173422.032500", "173423.522500", "173425.012500", "173426.502500", "173427.992500", "173429.482500", "173430.972500", "173432.462500", "173433.952500", "173435.442500", "173436.932500", "173438.422500", "173439.912500", "173441.402500", "173442.892500", "173444.382500", "173445.872500", "173447.362500", "173448.852500", "173450.342500", "173451.832500", "173453.322500", "173454.812500", "173456.302500", "173457.792500", "173459.282500", "173500.772500", "173502.262500", "173503.752500", "173505.242500", "173506.732500", "173508.222500", "173509.712500", "173511.202500", "173512.692500", "173514.182500", "173515.672500", "173517.162500", "173518.652500", "173520.142500", "173521.632500", "173523.122500", "173524.612500", "173526.102500", "173527.592500", "173529.082500", "173530.572500", "173532.062500", "173533.552500", "173535.042500", "173536.532500", "173538.022500", "173539.512500", "173541.002500", "173542.492500", "173543.982500", "173545.472500", "173546.962500", "173548.452500", "173549.942500", "173551.432500", "173552.922500", "173554.412500", "173555.902500", "173557.392500", "173558.882500", "173600.372500", "173601.862500", "173603.352500", "173604.842500", "173606.332500", "173607.822500", "173609.312500", "173610.802500", "173612.292500", "173613.782500", "173615.272500", "173616.762500", "173618.252500", "173619.742500", "173621.232500", "173622.722500", "173624.212500", "173625.702500", "173627.192500", "173628.682500", "173630.172500", "173631.662500", "173633.152500", "173634.642500", "173636.132500", "173637.622500", "173639.112500", "173640.602500", "173642.092500", "173643.582500", "173645.072500", "173646.562500", "173648.052500", "173649.542500", "173651.032500", "173652.522500", "173654.012500", "173655.502500", "173656.992500", "173658.482500", "173659.972500", "173701.462500", "173702.952500", "173704.442500", "173705.932500", "173707.422500", "173708.912500", "173710.402500", "173711.892500", "173713.382500", "173714.872500", "173716.362500", "173717.852500", "173719.342500", "173720.832500", "173722.322500", "173723.812500", "173725.302500", "173726.792500", "173728.282500", "173729.772500", "173731.262500", "173732.752500", "173734.242500", "173735.732500", "173737.222500", "173738.712500", "173740.202500", "173741.692500", "173743.182500", "173744.672500", "173746.162500", "173747.652500", "173749.142500", "173750.632500", "173752.122500", "173753.612500", "173755.102500", "173756.592500", "173758.082500", "173759.572500", "173801.062500", "173802.552500", "173804.042500", "173805.532500", "173807.022500", "173808.512500", "173810.002500", "173811.492500", "173812.982500", "173814.472500", "173815.962500", "173817.452500", "173818.942500", "173820.432500", "173821.922500", "173823.412500", "173824.902500", "173826.392500", "173827.882500", "173829.372500", "173830.862500", "173832.352500", "173833.842500", "173835.332500", "173836.822500", "173838.312500", "173839.802500", "173841.292500", "173842.782500", "173844.272500", "173845.762500", "173847.252500", "173848.742500", "173850.232500", "173851.722500", "173853.212500", "173854.702500", "173856.192500", "173857.682500", "173859.172500"],
      "ContentTime": ["173549.777000", "173549.780000", "173549.795000", "173549.797000", "173549.799000", "173549.802000", "173549.805000", "173549.807000", "173549.810000", "173549.812000", "173549.815000", "173549.817000", "173549.819000", "173549.822000", "173549.825000", "173549.827000", "173549.830000", "173549.832000", "173549.835000", "173549.837000", "173549.840000", "173549.842000", "173549.845000", "173549.847000", "173549.850000", "173549.852000", "173549.855000", "173549.857000", "173549.860000", "173549.862000", "173549.865000", "173549.867000", "173549.870000", "173549.872000", "173549.875000", "173549.877000", "173549.880000", "173549.882000", "173549.885000", "173609.666000", "173609.668000", "173609.671000", "173609.673000", "173609.676000", "173609.678000", "173609.681000", "173609.683000", "173609.686000", "173609.688000", "173609.691000", "173609.693000", "173609.696000", "173609.698000", "173609.701000", "173609.703000", "173609.705000", "173609.708000", "173609.710000", "173609.713000", "173629.666000", "173629.668000", "173629.671000", "173629.673000", "173629.676000", "173629.678000", "173629.681000", "173629.683000", "173629.686000", "173629.688000", "173629.691000", "173629.693000", "173629.696000", "173629.698000", "173629.701000", "173629.703000", "173629.706000", "173629.708000", "173629.711000", "173629.713000", "173649.665000", "173649.667000", "173649.675000", "173649.677000", "173649.680000", "173649.682000", "173649.685000", "173649.687000", "173649.690000", "173649.692000", "173649.695000", "173649.697000", "173649.700000", "173649.702000", "173649.705000", "173649.707000", "173649.709000", "173649.712000", "173649.714000", "173649.717000", "173709.652000", "173709.655000", "173709.658000", "173709.660000", "173709.663000", "173709.665000", "173709.668000", "173709.671000", "173709.673000", "173709.676000", "173709.678000", "173709.681000", "173709.683000", "173709.686000", "173709.688000", "173749.693000", "173749.696000", "173749.698000", "173749.701000", "173749.703000", "173749.706000", "173749.708000", "173749.711000", "173749.713000", "173749.716000", "173749.718000", "173749.721000", "173749.723000", "173749.726000", "173749.728000", "173749.731000", "173749.733000", "173749.736000", "173749.738000", "173749.741000", "173749.743000", "173749.746000", "173749.748000", "173749.751000", "173749.753000", "173749.756000", "173749.758000", "173829.690000", "173829.692000", "173829.695000", "173829.698000", "173829.700000", "173829.703000", "173829.705000", "173829.708000", "173829.710000", "173829.713000", "173829.715000", "173829.722000", "173829.725000", "173829.727000", "173829.729000", "173829.732000", "173829.735000", "173829.737000", "173829.740000", "173829.742000", "173829.745000", "173829.747000", "173829.750000", "173829.752000", "173829.755000", "173829.757000", "173829.760000", "173901.712000", "173901.714000", "173901.723000", "173901.726000", "173901.728000", "173901.731000", "173901.733000", "173901.736000", "173901.738000", "173901.741000", "173901.743000", "173901.746000", "173901.748000", "173901.751000", "173901.753000", "173901.756000", "173901.758000", "173901.761000", "173901.764000", "173901.766000", "173901.769000", "173901.771000"],
      "InstanceCreationTime": ["173549.777000", "173549.780000", "173549.795000", "173549.797000", "173549.799000", "173549.802000", "173549.805000", "173549.807000", "173549.810000", "173549.812000", "173549.815000", "173549.817000", "173549.819000", "173549.822000", "173549.825000", "173549.827000", "173549.830000", "173549.832000", "173549.835000", "173549.837000", "173549.840000", "173549.842000", "173549.845000", "173549.847000", "173549.850000", "173549.852000", "173549.855000", "173549.857000", "173549.860000", "173549.862000", "173549.865000", "173549.867000", "173549.870000", "173549.872000", "173549.875000", "173549.877000", "173549.880000", "173549.882000", "173549.885000", "173609.666000", "173609.668000", "173609.671000", "173609.673000", "173609.676000", "173609.678000", "173609.681000", "173609.683000", "173609.686000", "173609.688000", "173609.691000", "173609.693000", "173609.696000", "173609.698000", "173609.701000", "173609.703000", "173609.705000", "173609.708000", "173609.710000", "173609.713000", "173629.666000", "173629.668000", "173629.671000", "173629.673000", "173629.676000", "173629.678000", "173629.681000", "173629.683000", "173629.686000", "173629.688000", "173629.691000", "173629.693000", "173629.696000", "173629.698000", "173629.701000", "173629.703000", "173629.706000", "173629.708000", "173629.711000", "173629.713000", "173649.665000", "173649.667000", "173649.675000", "173649.677000", "173649.680000", "173649.682000", "173649.685000", "173649.687000", "173649.690000", "173649.692000", "173649.695000", "173649.697000", "173649.700000", "173649.702000", "173649.705000", "173649.707000", "173649.709000", "173649.712000", "173649.714000", "173649.717000", "173709.652000", "173709.655000", "173709.658000", "173709.660000", "173709.663000", "173709.665000", "173709.668000", "173709.671000", "173709.673000", "173709.676000", "173709.678000", "173709.681000", "173709.683000", "173709.686000", "173709.688000", "173749.693000", "173749.696000", "173749.698000", "173749.701000", "173749.703000", "173749.706000", "173749.708000", "173749.711000", "173749.713000", "173749.716000", "173749.718000", "173749.721000", "173749.723000", "173749.726000", "173749.728000", "173749.731000", "173749.733000", "173749.736000", "173749.738000", "173749.741000", "173749.743000", "173749.746000", "173749.748000", "173749.751000", "173749.753000", "173749.756000", "173749.758000", "173829.690000", "173829.692000", "173829.695000", "173829.698000", "173829.700000", "173829.703000", "173829.705000", "173829.708000", "173829.710000", "173829.713000", "173829.715000", "173829.722000", "173829.725000", "173829.727000", "173829.729000", "173829.732000", "173829.735000", "173829.737000", "173829.740000", "173829.742000", "173829.745000", "173829.747000", "173829.750000", "173829.752000", "173829.755000", "173829.757000", "173829.760000", "173901.712000", "173901.714000", "173901.723000", "173901.726000", "173901.728000", "173901.731000", "173901.733000", "173901.736000", "173901.738000", "173901.741000", "173901.743000", "173901.746000", "173901.748000", "173901.751000", "173901.753000", "173901.756000", "173901.758000", "173901.761000", "173901.764000", "173901.766000", "173901.769000", "173901.771000"],
      "InstanceNumber": [1, 2, 3, 4, 5, 6, 7, 8, 9, 10, 11, 12, 13, 14, 15, 16, 17, 18, 19, 20, 21, 22, 23, 24, 25, 26, 27, 28, 29, 30, 31, 32, 33, 34, 35, 36, 37, 38, 39, 40, 41, 42, 43, 44, 45, 46, 47, 48, 49, 50, 51, 52, 53, 54, 55, 56, 57, 58, 59, 60, 61, 62, 63, 64, 65, 66, 67, 68, 69, 70, 71, 72, 73, 74, 75, 76, 77, 78, 79, 80, 81, 82, 83, 84, 85, 86, 87, 88, 89, 90, 91, 92, 93, 94, 95, 96, 97, 98, 99, 100, 101, 102, 103, 104, 105, 106, 107, 108, 109, 110, 111, 112, 113, 114, 115, 116, 117, 118, 119, 120, 121, 122, 123, 124, 125, 126, 127, 128, 129, 130, 131, 132, 133, 134, 135, 136, 137, 138, 139, 140, 141, 142, 143, 144, 145, 146, 147, 148, 149, 150, 151, 152, 153, 154, 155, 156, 157, 158, 159, 160, 161, 162, 163, 164, 165, 166, 167, 168, 169, 170, 171, 172, 173, 174, 175, 176, 177, 178, 179, 180, 181, 182, 183, 184, 185, 186, 187, 188, 189, 190],
      "WindowCenter": [4818.0, 4814.0, 4838.0, 4838.0, 4838.0, 4836.0, 4840.0, 4806.0, 4800.0, 4800.0, 4804.0, 4834.0, 4842.0, 4844.0, 4840.0, 4840.0, 4838.0, 4810.0, 4832.0, 4808.0, 4804.0, 4808.0, 4830.0, 4834.0, 4838.0, 4838.0, 4840.0, 4836.0, 4836.0, 4832.0, 4830.0, 4832.0, 4810.0, 4834.0, 4810.0, 4834.0, 4834.0, 4834.0, 4832.0, 4834.0, 4810.0, 4832.0, 4810.0, 4834.0, 4830.0, 4834.0, 4812.0, 4836.0, 4836.0, 4838.0, 4812.0, 4836.0, 4836.0, 4834.0, 4836.0, 4836.0, 4832.0, 4834.0, 4830.0, 4834.0, 4832.0, 4832.0, 4808.0, 4802.0, 4828.0, 4806.0, 4834.0, 4836.0, 4834.0, 4830.0, 4810.0, 4808.0, 4832.0, 4808.0, 4808.0, 4832.0, 4836.0, 4834.0, 4836.0, 4836.0, 4838.0, 4838.0, 4834.0, 4836.0, 4808.0, 4806.0, 4810.0, 4812.0, 4810.0, 4812.0, 4836.0, 4838.0, 4838.0, 4834.0, 4836.0, 4836.0, 4834.0, 4834.0, 4808.0, 4834.0, 4838.0, 4836.0, 4834.0, 4840.0, 4840.0, 4834.0, 4812.0, 4832.0, 4838.0, 4834.0, 4832.0, 4808.0, 4832.0, 4808.0, 4834.0, 4832.0, 4832.0, 4832.0, 4840.0, 4834.0, 4836.0, 4806.0, 4808.0, 4804.0, 4804.0, 4804.0, 4808.0, 4836.0, 4810.0, 4832.0, 4838.0, 4834.0, 4836.0, 4808.0, 4808.0, 4808.0, 4812.0, 4806.0, 4808.0, 4836.0, 4842.0, 4838.0, 4840.0, 4838.0, 4838.0, 4840.0, 4818.0, 4836.0, 4838.0, 4840.0, 4838.0, 4836.0, 4840.0, 4838.0, 4838.0, 4842.0, 4838.0, 4838.0, 4838.0, 4838.0, 4838.0, 4838.0, 4836.0, 4840.0, 4834.0, 4840.0, 4836.0, 4836.0, 4836.0, 4816.0, 4836.0, 4838.0, 4840.0, 4838.0, 4840.0, 4842.0, 4838.0, 4838.0, 4836.0, 4840.0, 4814.0, 4840.0, 4842.0, 4840.0, 4840.0, 4840.0, 4838.0, 4838.0, 4836.0, 4840.0],
      "WindowWidth": [18610.0, 18610.0, 18648.0, 18650.0, 18650.0, 18646.0, 18654.0, 18618.0, 18606.0, 18602.0, 18618.0, 18656.0, 18662.0, 18658.0, 18658.0, 18660.0, 18656.0, 18620.0, 18650.0, 18616.0, 18612.0, 18620.0, 18650.0, 18654.0, 18660.0, 18662.0, 18660.0, 18654.0, 18656.0, 18654.0, 18654.0, 18652.0, 18624.0, 18656.0, 18622.0, 18658.0, 18654.0, 18648.0, 18654.0, 18656.0, 18620.0, 18650.0, 18626.0, 18654.0, 18650.0, 18656.0, 18616.0, 18654.0, 18656.0, 18660.0, 18622.0, 18654.0, 18656.0, 18654.0, 18658.0, 18654.0, 18650.0, 18654.0, 18648.0, 18652.0, 18652.0, 18652.0, 18618.0, 18616.0, 18650.0, 18616.0, 18650.0, 18656.0, 18652.0, 18652.0, 18622.0, 18616.0, 18648.0, 18620.0, 18622.0, 18650.0, 18658.0, 18654.0, 18654.0, 18658.0, 18650.0, 18654.0, 18650.0, 18658.0, 18616.0, 18614.0, 18618.0, 18616.0, 18622.0, 18616.0, 18658.0, 18654.0, 18652.0, 18650.0, 18648.0, 18646.0, 18648.0, 18650.0, 18620.0, 18648.0, 18652.0, 18650.0, 18650.0, 18656.0, 18654.0, 18648.0, 18616.0, 18646.0, 18654.0, 18648.0, 18648.0, 18616.0, 18650.0, 18620.0, 18650.0, 18652.0, 18650.0, 18650.0, 18656.0, 18648.0, 18650.0, 18612.0, 18620.0, 18610.0, 18616.0, 18614.0, 18616.0, 18656.0, 18622.0, 18650.0, 18656.0, 18652.0, 18652.0, 18620.0, 18618.0, 18608.0, 18614.0, 18616.0, 18614.0, 18644.0, 18650.0, 18638.0, 18644.0, 18644.0, 18642.0, 18652.0, 18614.0, 18642.0, 18646.0, 18642.0, 18646.0, 18644.0, 18648.0, 18642.0, 18646.0, 18654.0, 18652.0, 18648.0, 18646.0, 18642.0, 18644.0, 18646.0, 18646.0, 18648.0, 18644.0, 18648.0, 18644.0, 18642.0, 18644.0, 18614.0, 18642.0, 18646.0, 18648.0, 18648.0, 18646.0, 18648.0, 18650.0, 18640.0, 18640.0, 18646.0, 18608.0, 18646.0, 18648.0, 18650.0, 18654.0, 18648.0, 18646.0, 18650.0, 18644.0, 18648.0]
    },
    "slices": {}
  }
}