{
  "AcquisitionMatrixPE": 104,
  "AcquisitionNumber": 1,
  "AcquisitionTime": "13:47:30.280000",
  "BandwidthPerPixelPhaseEncode": 17.17,
  "BaseResolution": 104,
  "BodyPartExamined": "BRAIN",
  "CoilString": "HC1-7;NC1_2",
  "ConsistencyInfo": "N4_VE11C_LATEST_20160120",
  "ConversionSoftware": "dcm2niix",
  "ConversionSoftwareVersion": "v1.0.20190902",
  "DerivedVendorReportedEchoSpacing": 0.000560011,
  "DeviceSerialNumber": "167006",
  "DwellTime": 2.1e-06,
  "EchoTime": 0.037,
  "EchoTrainLength": 104,
  "EffectiveEchoSpacing": 0.000560011,
  "FlipAngle": 52,
  "HeudiconvVersion": "0.10.0",
  "ImageComments": "Unaliased_MB4_PE3_LB",
  "ImageOrientationPatientDICOM": [0.99875, 0.0226089, 0.0445805, -0.0104593, 0.966644, -0.25591],
  "ImageType": [
    "ORIGINAL",
    "PRIMARY",
    "P",
    "MB",
    "ND",
    "MOSAIC"
],
  "ImagingFrequency": 123.259,
  "InPlanePhaseEncodingDirectionDICOM": "COL",
  "InstitutionAddress": "Chemin_Queen-Mary_4565_Montreal_District_CA_H3W_1W5",
  "InstitutionName": "IUGM",
  "InstitutionalDepartmentName": "Department",
  "MRAcquisitionType": "2D",
  "MagneticFieldStrength": 3,
  "Manufacturer": "Siemens",
  "ManufacturersModelName": "Prisma_fit",
  "Modality": "MR",
  "MultibandAccelerationFactor": 4,
  "PartialFourier": 1,
  "PatientPosition": "HFS",
  "PercentPhaseFOV": 100,
  "PhaseEncodingDirection": "j",
  "PhaseEncodingSteps": 104,
  "PhaseResolution": 1,
  "PixelBandwidth": 2290,
  "ProcedureStepDescription": "memory_things",
  "ProtocolName": "func_task-things_run-4",
  "PulseSequenceDetails": "%CustomerSeq%_cmrr_mbep2d_bold",
  "ReceiveCoilActiveElements": "HC1-7;NC1,2",
  "ReceiveCoilName": "HeadNeck_64",
  "ReconMatrixPE": 104,
  "RepetitionTime": 1.49,
  "SAR": 0.0524241,
  "ScanOptions": "FS",
  "ScanningSequence": "EP",
  "SequenceName": "epfid2d1_104",
  "SequenceVariant": "SK_SS",
  "SeriesDescription": "func_task-things_run-4",
  "SeriesNumber": 20,
  "ShimSetting": [641, -7211, -8785, 710, 78, 10, 61, 12],
  "SliceThickness": 2,
  "SliceTiming": [0, 0.7825, 0.0975, 0.88, 0.195, 0.98, 0.2925, 1.0775, 0.39, 1.175, 0.49, 1.2725, 0.5875, 1.37, 0.685, 0, 0.7825, 0.0975, 0.88, 0.195, 0.98, 0.2925, 1.0775, 0.39, 1.175, 0.49, 1.2725, 0.5875, 1.37, 0.685, 0, 0.7825, 0.0975, 0.88, 0.195, 0.98, 0.2925, 1.0775, 0.39, 1.175, 0.49, 1.2725, 0.5875, 1.37, 0.685, 0, 0.7825, 0.0975, 0.88, 0.195, 0.98, 0.2925, 1.0775, 0.39, 1.175, 0.49, 1.2725, 0.5875, 1.37, 0.685],
  "SoftwareVersions": "syngo_MR_E11",
  "SpacingBetweenSlices": 2,
  "StationName": "MRC35049",
  "TaskName": "things",
  "TotalReadoutTime": 0.0576811,
  "TxRefAmp": 244.153,
  "WipMemBlock": "e10e9e2c-b7ef-4959-9605-5a8913084543||Sequence: R016 ve11c/master r/e634e98; Dec 19 2017 11:00:25 by eja",
  "dcmmeta_affine": [
    [-1.9974998235702515, -0.020918510854244232, 0.0977587103843689, 107.71434020996094],
    [-0.04521787911653519, 1.9332878589630127, -0.5102481842041016, -72.0320816040039],
    [0.08916104584932327, 0.5118205547332764, 1.9313441514968872, -65.43276977539062],
    [0.0, 0.0, 0.0, 1.0]
],
  "dcmmeta_reorient_transform": [
    [0.0, -1.0, 0.0, 103.0],
    [1.0, 0.0, 0.0, 0.0],
    [0.0, 0.0, 1.0, 0.0],
    [0.0, 0.0, 0.0, 1.0]
],
  "dcmmeta_shape": [104, 104, 60, 190],
  "dcmmeta_slice_dim": 2,
  "dcmmeta_version": 0.6,
  "global": {
    "const": {
      "AcquisitionMatrix": [104, 0, 0, 104],
      "AngioFlag": "N",
      "BitsAllocated": 16,
      "BitsStored": 16,
      "BodyPartExamined": "BRAIN",
      "Columns": 832,
      "EchoNumbers": 1,
      "EchoTime": 37.0,
      "EchoTrainLength": 104,
      "FlipAngle": 52.0,
      "HighBit": 15,
      "ImageOrientationPatient": [0.99874992502726, 0.02260893899848, 0.04458052417147, -0.0104592552988, 0.96664395699423, -0.2559102662754],
      "ImagePositionPatient": [-825.03533784351, -847.27268482604, 141.13279532058],
      "ImageType": [
        "ORIGINAL",
        "PRIMARY",
        "P",
        "MB",
        "ND",
        "MOSAIC"
],
      "ImagedNucleus": "1H",
      "ImagingFrequency": 123.258922,
      "InPlanePhaseEncodingDirection": "COL",
      "LargestImagePixelValue": 4095,
      "MRAcquisitionType": "2D",
      "MagneticFieldStrength": 3.0,
      "Manufacturer": "SIEMENS",
      "ManufacturerModelName": "Prisma_fit",
      "Modality": "MR",
      "NumberOfAverages": 1.0,
      "NumberOfPhaseEncodingSteps": 104,
      "PercentPhaseFieldOfView": 100.0,
      "PercentSampling": 100.0,
      "PerformedProcedureStepStartTime": "125517.273000",
      "PhotometricInterpretation": "MONOCHROME2",
      "PixelBandwidth": 2290.0,
      "PixelRepresentation": 0,
      "PixelSpacing": [2.0, 2.0],
      "ProtocolName": "func_task-things_run-4",
      "RepetitionTime": 1490.0,
      "RescaleIntercept": -4096.0,
      "RescaleSlope": 2.0,
      "RescaleType": "US",
      "Rows": 832,
      "SAR": 0.0524240833326,
      "SamplesPerPixel": 1,
      "ScanOptions": "FS",
      "ScanningSequence": "EP",
      "SequenceName": "epfid2d1_104",
      "SequenceVariant": [
        "SK",
        "SS"
],
      "SeriesDescription": "func_task-things_run-4",
      "SeriesNumber": 20,
      "SeriesTime": "134903.720000",
      "SliceLocation": -39.544474026219,
      "SliceThickness": 2.0,
      "SmallestImagePixelValue": 0,
      "SoftwareVersions": "syngo MR E11",
      "SpacingBetweenSlices": 2.0000000019252,
      "SpecificCharacterSet": "ISO_IR 100",
      "StudyID": "1",
      "StudyTime": "125517.171000",
      "TransmitCoilName": "Body",
      "VariableFlipAngleFlag": "N",
      "WindowCenterWidthExplanation": "Algo1",
      "dBdt": 0.0},
    "slices": {}
  },
  "time": {
    "samples": {
      "AcquisitionNumber": [1, 2, 3, 4, 5, 6, 7, 8, 9, 10, 11, 12, 13, 14, 15, 16, 17, 18, 19, 20, 21, 22, 23, 24, 25, 26, 27, 28, 29, 30, 31, 32, 33, 34, 35, 36, 37, 38, 39, 40, 41, 42, 43, 44, 45, 46, 47, 48, 49, 50, 51, 52, 53, 54, 55, 56, 57, 58, 59, 60, 61, 62, 63, 64, 65, 66, 67, 68, 69, 70, 71, 72, 73, 74, 75, 76, 77, 78, 79, 80, 81, 82, 83, 84, 85, 86, 87, 88, 89, 90, 91, 92, 93, 94, 95, 96, 97, 98, 99, 100, 101, 102, 103, 104, 105, 106, 107, 108, 109, 110, 111, 112, 113, 114, 115, 116, 117, 118, 119, 120, 121, 122, 123, 124, 125, 126, 127, 128, 129, 130, 131, 132, 133, 134, 135, 136, 137, 138, 139, 140, 141, 142, 143, 144, 145, 146, 147, 148, 149, 150, 151, 152, 153, 154, 155, 156, 157, 158, 159, 160, 161, 162, 163, 164, 165, 166, 167, 168, 169, 170, 171, 172, 173, 174, 175, 176, 177, 178, 179, 180, 181, 182, 183, 184, 185, 186, 187, 188, 189, 190],
      "AcquisitionTime": ["134730.280000", "134731.770000", "134733.260000", "134734.750000", "134736.240000", "134737.730000", "134739.220000", "134740.710000", "134742.200000", "134743.690000", "134745.180000", "134746.670000", "134748.160000", "134749.650000", "134751.140000", "134752.630000", "134754.120000", "134755.610000", "134757.100000", "134758.590000", "134800.080000", "134801.570000", "134803.060000", "134804.550000", "134806.040000", "134807.530000", "134809.020000", "134810.510000", "134812.000000", "134813.490000", "134814.980000", "134816.470000", "134817.960000", "134819.450000", "134820.940000", "134822.430000", "134823.920000", "134825.410000", "134826.900000", "134828.390000", "134829.880000", "134831.370000", "134832.860000", "134834.350000", "134835.840000", "134837.330000", "134838.820000", "134840.310000", "134841.800000", "134843.290000", "134844.780000", "134846.270000", "134847.760000", "134849.250000", "134850.740000", "134852.230000", "134853.720000", "134855.210000", "134856.700000", "134858.190000", "134859.680000", "134901.170000", "134902.660000", "134904.150000", "134905.640000", "134907.130000", "134908.620000", "134910.110000", "134911.600000", "134913.090000", "134914.580000", "134916.070000", "134917.560000", "134919.050000", "134920.540000", "134922.030000", "134923.520000", "134925.010000", "134926.500000", "134927.990000", "134929.480000", "134930.970000", "134932.460000", "134933.950000", "134935.440000", "134936.930000", "134938.420000", "134939.910000", "134941.400000", "134942.890000", "134944.380000", "134945.870000", "134947.360000", "134948.850000", "134950.340000", "134951.830000", "134953.320000", "134954.810000", "134956.300000", "134957.790000", "134959.280000", "135000.770000", "135002.260000", "135003.750000", "135005.240000", "135006.730000", "135008.220000", "135009.710000", "135011.200000", "135012.690000", "135014.180000", "135015.670000", "135017.160000", "135018.650000", "135020.140000", "135021.630000", "135023.120000", "135024.610000", "135026.100000", "135027.590000", "135029.080000", "135030.570000", "135032.060000", "135033.550000", "135035.040000", "135036.530000", "135038.020000", "135039.510000", "135041.000000", "135042.490000", "135043.980000", "135045.470000", "135046.960000", "135048.450000", "135049.940000", "135051.430000", "135052.920000", "135054.410000", "135055.900000", "135057.390000", "135058.880000", "135100.370000", "135101.860000", "135103.350000", "135104.840000", "135106.330000", "135107.820000", "135109.310000", "135110.800000", "135112.290000", "135113.780000", "135115.270000", "135116.760000", "135118.250000", "135119.740000", "135121.230000", "135122.720000", "135124.210000", "135125.700000", "135127.190000", "135128.680000", "135130.170000", "135131.660000", "135133.150000", "135134.640000", "135136.130000", "135137.620000", "135139.110000", "135140.600000", "135142.090000", "135143.580000", "135145.070000", "135146.560000", "135148.050000", "135149.540000", "135151.030000", "135152.520000", "135154.010000", "135155.500000", "135156.990000", "135158.480000", "135159.970000", "135201.460000", "135202.950000", "135204.440000", "135205.930000", "135207.420000", "135208.910000", "135210.400000", "135211.890000"],
      "ContentTime": ["134903.722000", "134903.725000", "134903.727000", "134903.730000", "134903.732000", "134903.735000", "134903.737000", "134903.740000", "134903.742000", "134903.749000", "134903.752000", "134903.754000", "134903.757000", "134903.759000", "134903.761000", "134903.764000", "134903.766000", "134903.769000", "134903.771000", "134903.774000", "134903.776000", "134903.779000", "134903.781000", "134903.784000", "134903.786000", "134903.789000", "134903.791000", "134903.794000", "134903.796000", "134903.799000", "134903.801000", "134903.804000", "134903.806000", "134903.809000", "134903.811000", "134903.819000", "134903.822000", "134903.824000", "134903.827000", "134923.582000", "134923.585000", "134923.588000", "134923.590000", "134923.592000", "134923.595000", "134923.597000", "134923.600000", "134923.602000", "134923.605000", "134923.608000", "134923.611000", "134923.613000", "134923.616000", "134923.618000", "134923.621000", "134923.623000", "134923.626000", "134923.628000", "134923.631000", "134923.633000", "134943.599000", "134943.601000", "134943.604000", "134943.606000", "134943.609000", "134943.611000", "134943.614000", "134943.616000", "134943.619000", "134943.621000", "134943.624000", "134943.626000", "134943.629000", "134943.631000", "134943.634000", "134943.636000", "134943.639000", "134943.641000", "134943.644000", "134943.646000", "135003.586000", "135003.590000", "135003.593000", "135003.595000", "135003.612000", "135003.615000", "135003.617000", "135003.620000", "135003.623000", "135003.625000", "135003.628000", "135003.630000", "135003.633000", "135003.635000", "135003.638000", "135003.640000", "135003.643000", "135003.645000", "135003.648000", "135003.650000", "135043.641000", "135043.644000", "135043.646000", "135043.649000", "135043.658000", "135043.660000", "135043.663000", "135043.665000", "135043.668000", "135043.670000", "135043.673000", "135043.675000", "135043.678000", "135043.680000", "135043.683000", "135043.685000", "135043.688000", "135043.690000", "135043.693000", "135043.695000", "135043.698000", "135043.700000", "135043.703000", "135043.705000", "135043.708000", "135043.710000", "135043.713000", "135043.715000", "135043.718000", "135123.648000", "135123.651000", "135123.653000", "135123.656000", "135123.658000", "135123.661000", "135123.663000", "135123.666000", "135123.668000", "135123.671000", "135123.673000", "135123.676000", "135123.678000", "135123.681000", "135123.683000", "135123.685000", "135123.688000", "135123.690000", "135123.693000", "135123.695000", "135123.716000", "135123.718000", "135123.720000", "135123.723000", "135123.725000", "135123.728000", "135123.731000", "135203.616000", "135203.624000", "135203.626000", "135203.629000", "135203.631000", "135203.634000", "135203.636000", "135203.639000", "135203.641000", "135203.644000", "135203.646000", "135203.649000", "135203.651000", "135203.654000", "135203.657000", "135203.659000", "135203.662000", "135203.665000", "135203.667000", "135203.670000", "135203.672000", "135203.675000", "135203.677000", "135203.679000", "135203.682000", "135203.685000", "135203.687000", "135213.735000", "135213.738000", "135213.740000", "135213.743000", "135213.745000", "135213.748000", "135213.750000"],
      "InstanceCreationTime": ["134903.722000", "134903.725000", "134903.727000", "134903.730000", "134903.732000", "134903.735000", "134903.737000", "134903.740000", "134903.742000", "134903.749000", "134903.752000", "134903.754000", "134903.757000", "134903.759000", "134903.761000", "134903.764000", "134903.766000", "134903.769000", "134903.771000", "134903.774000", "134903.776000", "134903.779000", "134903.781000", "134903.784000", "134903.786000", "134903.789000", "134903.791000", "134903.794000", "134903.796000", "134903.799000", "134903.801000", "134903.804000", "134903.806000", "134903.809000", "134903.811000", "134903.819000", "134903.822000", "134903.824000", "134903.827000", "134923.582000", "134923.585000", "134923.588000", "134923.590000", "134923.592000", "134923.595000", "134923.597000", "134923.600000", "134923.602000", "134923.605000", "134923.608000", "134923.611000", "134923.613000", "134923.616000", "134923.618000", "134923.621000", "134923.623000", "134923.626000", "134923.628000", "134923.631000", "134923.633000", "134943.599000", "134943.601000", "134943.604000", "134943.606000", "134943.609000", "134943.611000", "134943.614000", "134943.616000", "134943.619000", "134943.621000", "134943.624000", "134943.626000", "134943.629000", "134943.631000", "134943.634000", "134943.636000", "134943.639000", "134943.641000", "134943.644000", "134943.646000", "135003.586000", "135003.590000", "135003.593000", "135003.595000", "135003.612000", "135003.615000", "135003.617000", "135003.620000", "135003.623000", "135003.625000", "135003.628000", "135003.630000", "135003.633000", "135003.635000", "135003.638000", "135003.640000", "135003.643000", "135003.645000", "135003.648000", "135003.650000", "135043.641000", "135043.644000", "135043.646000", "135043.649000", "135043.658000", "135043.660000", "135043.663000", "135043.665000", "135043.668000", "135043.670000", "135043.673000", "135043.675000", "135043.678000", "135043.680000", "135043.683000", "135043.685000", "135043.688000", "135043.690000", "135043.693000", "135043.695000", "135043.698000", "135043.700000", "135043.703000", "135043.705000", "135043.708000", "135043.710000", "135043.713000", "135043.715000", "135043.718000", "135123.648000", "135123.651000", "135123.653000", "135123.656000", "135123.658000", "135123.661000", "135123.663000", "135123.666000", "135123.668000", "135123.671000", "135123.673000", "135123.676000", "135123.678000", "135123.681000", "135123.683000", "135123.685000", "135123.688000", "135123.690000", "135123.693000", "135123.695000", "135123.716000", "135123.718000", "135123.720000", "135123.723000", "135123.725000", "135123.728000", "135123.731000", "135203.616000", "135203.624000", "135203.626000", "135203.629000", "135203.631000", "135203.634000", "135203.636000", "135203.639000", "135203.641000", "135203.644000", "135203.646000", "135203.649000", "135203.651000", "135203.654000", "135203.657000", "135203.659000", "135203.662000", "135203.665000", "135203.667000", "135203.670000", "135203.672000", "135203.675000", "135203.677000", "135203.679000", "135203.682000", "135203.685000", "135203.687000", "135213.735000", "135213.738000", "135213.740000", "135213.743000", "135213.745000", "135213.748000", "135213.750000"],
      "InstanceNumber": [1, 2, 3, 4, 5, 6, 7, 8, 9, 10, 11, 12, 13, 14, 15, 16, 17, 18, 19, 20, 21, 22, 23, 24, 25, 26, 27, 28, 29, 30, 31, 32, 33, 34, 35, 36, 37, 38, 39, 40, 41, 42, 43, 44, 45, 46, 47, 48, 49, 50, 51, 52, 53, 54, 55, 56, 57, 58, 59, 60, 61, 62, 63, 64, 65, 66, 67, 68, 69, 70, 71, 72, 73, 74, 75, 76, 77, 78, 79, 80, 81, 82, 83, 84, 85, 86, 87, 88, 89, 90, 91, 92, 93, 94, 95, 96, 97, 98, 99, 100, 101, 102, 103, 104, 105, 106, 107, 108, 109, 110, 111, 112, 113, 114, 115, 116, 117, 118, 119, 120, 121, 122, 123, 124, 125, 126, 127, 128, 129, 130, 131, 132, 133, 134, 135, 136, 137, 138, 139, 140, 141, 142, 143, 144, 145, 146, 147, 148, 149, 150, 151, 152, 153, 154, 155, 156, 157, 158, 159, 160, 161, 162, 163, 164, 165, 166, 167, 168, 169, 170, 171, 172, 173, 174, 175, 176, 177, 178, 179, 180, 181, 182, 183, 184, 185, 186, 187, 188, 189, 190],
      "WindowCenter": [4832.0, 4836.0, 4832.0, 4834.0, 4832.0, 4834.0, 4808.0, 4830.0, 4828.0, 4832.0, 4832.0, 4834.0, 4834.0, 4836.0, 4834.0, 4834.0, 4806.0, 4832.0, 4832.0, 4830.0, 4832.0, 4834.0, 4832.0, 4832.0, 4834.0, 4832.0, 4832.0, 4832.0, 4832.0, 4832.0, 4834.0, 4832.0, 4834.0, 4834.0, 4834.0, 4836.0, 4830.0, 4830.0, 4832.0, 4830.0, 4830.0, 4834.0, 4832.0, 4832.0, 4832.0, 4810.0, 4836.0, 4832.0, 4834.0, 4810.0, 4832.0, 4832.0, 4832.0, 4834.0, 4834.0, 4832.0, 4832.0, 4830.0, 4830.0, 4832.0, 4832.0, 4832.0, 4828.0, 4832.0, 4808.0, 4828.0, 4834.0, 4828.0, 4832.0, 4808.0, 4832.0, 4806.0, 4828.0, 4806.0, 4806.0, 4808.0, 4810.0, 4832.0, 4828.0, 4828.0, 4830.0, 4834.0, 4832.0, 4808.0, 4832.0, 4806.0, 4806.0, 4830.0, 4830.0, 4832.0, 4830.0, 4830.0, 4830.0, 4832.0, 4808.0, 4832.0, 4806.0, 4830.0, 4830.0, 4828.0, 4830.0, 4830.0, 4830.0, 4828.0, 4806.0, 4810.0, 4808.0, 4830.0, 4806.0, 4830.0, 4804.0, 4832.0, 4830.0, 4834.0, 4832.0, 4832.0, 4830.0, 4830.0, 4806.0, 4832.0, 4830.0, 4830.0, 4830.0, 4834.0, 4828.0, 4830.0, 4806.0, 4832.0, 4810.0, 4830.0, 4832.0, 4832.0, 4828.0, 4830.0, 4832.0, 4830.0, 4832.0, 4828.0, 4830.0, 4830.0, 4832.0, 4832.0, 4830.0, 4830.0, 4832.0, 4832.0, 4834.0, 4830.0, 4834.0, 4832.0, 4830.0, 4830.0, 4830.0, 4808.0, 4830.0, 4830.0, 4830.0, 4832.0, 4834.0, 4832.0, 4832.0, 4834.0, 4828.0, 4832.0, 4828.0, 4830.0, 4830.0, 4830.0, 4830.0, 4832.0, 4828.0, 4830.0, 4834.0, 4836.0, 4830.0, 4806.0, 4808.0, 4832.0, 4830.0, 4832.0, 4830.0, 4832.0, 4832.0, 4832.0, 4834.0, 4806.0, 4808.0, 4832.0, 4806.0, 4830.0],
      "WindowWidth": [18578.0, 18572.0, 18578.0, 18576.0, 18578.0, 18578.0, 18546.0, 18570.0, 18572.0, 18576.0, 18572.0, 18580.0, 18574.0, 18578.0, 18576.0, 18574.0, 18542.0, 18578.0, 18578.0, 18580.0, 18580.0, 18576.0, 18576.0, 18572.0, 18574.0, 18576.0, 18578.0, 18582.0, 18574.0, 18578.0, 18580.0, 18574.0, 18578.0, 18574.0, 18574.0, 18576.0, 18576.0, 18578.0, 18578.0, 18576.0, 18574.0, 18578.0, 18578.0, 18572.0, 18574.0, 18546.0, 18574.0, 18574.0, 18578.0, 18548.0, 18576.0, 18574.0, 18578.0, 18572.0, 18574.0, 18568.0, 18576.0, 18576.0, 18576.0, 18578.0, 18580.0, 18576.0, 18578.0, 18578.0, 18554.0, 18584.0, 18578.0, 18572.0, 18578.0, 18546.0, 18574.0, 18544.0, 18580.0, 18544.0, 18546.0, 18544.0, 18550.0, 18578.0, 18574.0, 18574.0, 18578.0, 18574.0, 18580.0, 18546.0, 18574.0, 18544.0, 18544.0, 18572.0, 18576.0, 18576.0, 18580.0, 18574.0, 18570.0, 18576.0, 18546.0, 18576.0, 18544.0, 18574.0, 18580.0, 18574.0, 18576.0, 18574.0, 18576.0, 18570.0, 18546.0, 18546.0, 18544.0, 18572.0, 18544.0, 18574.0, 18540.0, 18572.0, 18572.0, 18574.0, 18580.0, 18574.0, 18576.0, 18574.0, 18538.0, 18574.0, 18576.0, 18578.0, 18574.0, 18578.0, 18576.0, 18574.0, 18550.0, 18572.0, 18544.0, 18570.0, 18576.0, 18578.0, 18574.0, 18578.0, 18576.0, 18574.0, 18576.0, 18572.0, 18574.0, 18576.0, 18574.0, 18576.0, 18576.0, 18578.0, 18574.0, 18576.0, 18580.0, 18572.0, 18572.0, 18574.0, 18578.0, 18574.0, 18576.0, 18546.0, 18578.0, 18572.0, 18576.0, 18578.0, 18576.0, 18574.0, 18576.0, 18578.0, 18574.0, 18572.0, 18574.0, 18574.0, 18570.0, 18574.0, 18576.0, 18574.0, 18574.0, 18578.0, 18570.0, 18568.0, 18578.0, 18552.0, 18552.0, 18580.0, 18578.0, 18578.0, 18570.0, 18568.0, 18568.0, 18574.0, 18574.0, 18544.0, 18544.0, 18582.0, 18546.0, 18578.0]
    },
    "slices": {}
  }
}