{
  "AcquisitionMatrixPE": 104,
  "AcquisitionNumber": 1,
  "AcquisitionTime": "13:47:30.280000",
  "BandwidthPerPixelPhaseEncode": 17.17,
  "BaseResolution": 104,
  "BodyPartExamined": "BRAIN",
  "CoilString": "HC1-7;NC1_2",
  "ConsistencyInfo": "N4_VE11C_LATEST_20160120",
  "ConversionSoftware": "dcm2niix",
  "ConversionSoftwareVersion": "v1.0.20190902",
  "DerivedVendorReportedEchoSpacing": 0.000560011,
  "DeviceSerialNumber": "167006",
  "DwellTime": 2.1e-06,
  "EchoTime": 0.037,
  "EchoTrainLength": 104,
  "EffectiveEchoSpacing": 0.000560011,
  "FlipAngle": 52,
  "HeudiconvVersion": "0.10.0",
  "ImageComments": "Unaliased_MB4_PE3_LB",
  "ImageOrientationPatientDICOM": [0.99875, 0.0226089, 0.0445805, -0.0104593, 0.966644, -0.25591],
  "ImageType": [
    "ORIGINAL",
    "PRIMARY",
    "M",
    "MB",
    "ND",
    "MOSAIC"
],
  "ImagingFrequency": 123.259,
  "InPlanePhaseEncodingDirectionDICOM": "COL",
  "InstitutionAddress": "Chemin_Queen-Mary_4565_Montreal_District_CA_H3W_1W5",
  "InstitutionName": "IUGM",
  "InstitutionalDepartmentName": "Department",
  "MRAcquisitionType": "2D",
  "MagneticFieldStrength": 3,
  "Manufacturer": "Siemens",
  "ManufacturersModelName": "Prisma_fit",
  "Modality": "MR",
  "MultibandAccelerationFactor": 4,
  "PartialFourier": 1,
  "PatientPosition": "HFS",
  "PercentPhaseFOV": 100,
  "PhaseEncodingDirection": "j",
  "PhaseEncodingSteps": 104,
  "PhaseResolution": 1,
  "PixelBandwidth": 2290,
  "ProcedureStepDescription": "memory_things",
  "ProtocolName": "func_task-things_run-4",
  "PulseSequenceDetails": "%CustomerSeq%_cmrr_mbep2d_bold",
  "ReceiveCoilActiveElements": "HC1-7;NC1,2",
  "ReceiveCoilName": "HeadNeck_64",
  "ReconMatrixPE": 104,
  "RepetitionTime": 1.49,
  "SAR": 0.0524241,
  "ScanOptions": "FS",
  "ScanningSequence": "EP",
  "SequenceName": "epfid2d1_104",
  "SequenceVariant": "SK_SS",
  "SeriesDescription": "func_task-things_run-4",
  "SeriesNumber": 19,
  "ShimSetting": [641, -7211, -8785, 710, 78, 10, 61, 12],
  "SliceThickness": 2,
  "SliceTiming": [0, 0.7825, 0.0975, 0.88, 0.195, 0.98, 0.2925, 1.0775, 0.39, 1.175, 0.49, 1.2725, 0.5875, 1.37, 0.685, 0, 0.7825, 0.0975, 0.88, 0.195, 0.98, 0.2925, 1.0775, 0.39, 1.175, 0.49, 1.2725, 0.5875, 1.37, 0.685, 0, 0.7825, 0.0975, 0.88, 0.195, 0.98, 0.2925, 1.0775, 0.39, 1.175, 0.49, 1.2725, 0.5875, 1.37, 0.685, 0, 0.7825, 0.0975, 0.88, 0.195, 0.98, 0.2925, 1.0775, 0.39, 1.175, 0.49, 1.2725, 0.5875, 1.37, 0.685],
  "SoftwareVersions": "syngo_MR_E11",
  "SpacingBetweenSlices": 2,
  "StationName": "MRC35049",
  "TaskName": "things",
  "TotalReadoutTime": 0.0576811,
  "TxRefAmp": 244.153,
  "WipMemBlock": "e10e9e2c-b7ef-4959-9605-5a8913084543||Sequence: R016 ve11c/master r/e634e98; Dec 19 2017 11:00:25 by eja",
  "dcmmeta_affine": [
    [-1.9974998235702515, -0.020918510854244232, 0.0977587103843689, 107.71434020996094],
    [-0.04521787911653519, 1.9332878589630127, -0.5102481842041016, -72.0320816040039],
    [0.08916104584932327, 0.5118205547332764, 1.9313441514968872, -65.43276977539062],
    [0.0, 0.0, 0.0, 1.0]
],
  "dcmmeta_reorient_transform": [
    [0.0, -1.0, 0.0, 103.0],
    [1.0, 0.0, 0.0, 0.0],
    [0.0, 0.0, 1.0, 0.0],
    [0.0, 0.0, 0.0, 1.0]
],
  "dcmmeta_shape": [104, 104, 60, 190],
  "dcmmeta_slice_dim": 2,
  "dcmmeta_version": 0.6,
  "global": {
    "const": {
      "AcquisitionMatrix": [104, 0, 0, 104],
      "AngioFlag": "N",
      "BitsAllocated": 16,
      "BitsStored": 16,
      "BodyPartExamined": "BRAIN",
      "Columns": 832,
      "EchoNumbers": 1,
      "EchoTime": 37.0,
      "EchoTrainLength": 104,
      "FlipAngle": 52.0,
      "HighBit": 15,
      "ImageOrientationPatient": [0.99874992502726, 0.02260893899848, 0.04458052417147, -0.0104592552988, 0.96664395699423, -0.2559102662754],
      "ImagePositionPatient": [-825.03533784351, -847.27268482604, 141.13279532058],
      "ImageType": [
        "ORIGINAL",
        "PRIMARY",
        "M",
        "MB",
        "ND",
        "MOSAIC"
],
      "ImagedNucleus": "1H",
      "ImagingFrequency": 123.258922,
      "InPlanePhaseEncodingDirection": "COL",
      "MRAcquisitionType": "2D",
      "MagneticFieldStrength": 3.0,
      "Manufacturer": "SIEMENS",
      "ManufacturerModelName": "Prisma_fit",
      "Modality": "MR",
      "NumberOfAverages": 1.0,
      "NumberOfPhaseEncodingSteps": 104,
      "PercentPhaseFieldOfView": 100.0,
      "PercentSampling": 100.0,
      "PerformedProcedureStepStartTime": "125517.273000",
      "PhotometricInterpretation": "MONOCHROME2",
      "PixelBandwidth": 2290.0,
      "PixelRepresentation": 0,
      "PixelSpacing": [2.0, 2.0],
      "ProtocolName": "func_task-things_run-4",
      "RepetitionTime": 1490.0,
      "Rows": 832,
      "SAR": 0.0524240833326,
      "SamplesPerPixel": 1,
      "ScanOptions": "FS",
      "ScanningSequence": "EP",
      "SequenceName": "epfid2d1_104",
      "SequenceVariant": [
        "SK",
        "SS"
],
      "SeriesDescription": "func_task-things_run-4",
      "SeriesNumber": 19,
      "SeriesTime": "134903.515000",
      "SliceLocation": -39.544474026219,
      "SliceThickness": 2.0,
      "SmallestImagePixelValue": 0,
      "SoftwareVersions": "syngo MR E11",
      "SpacingBetweenSlices": 2.0000000019252,
      "SpecificCharacterSet": "ISO_IR 100",
      "StudyID": "1",
      "StudyTime": "125517.171000",
      "TransmitCoilName": "Body",
      "VariableFlipAngleFlag": "N",
      "WindowCenterWidthExplanation": "Algo1",
      "dBdt": 0.0},
    "slices": {}
  },
  "time": {
    "samples": {
      "AcquisitionNumber": [1, 2, 3, 4, 5, 6, 7, 8, 9, 10, 11, 12, 13, 14, 15, 16, 17, 18, 19, 20, 21, 22, 23, 24, 25, 26, 27, 28, 29, 30, 31, 32, 33, 34, 35, 36, 37, 38, 39, 40, 41, 42, 43, 44, 45, 46, 47, 48, 49, 50, 51, 52, 53, 54, 55, 56, 57, 58, 59, 60, 61, 62, 63, 64, 65, 66, 67, 68, 69, 70, 71, 72, 73, 74, 75, 76, 77, 78, 79, 80, 81, 82, 83, 84, 85, 86, 87, 88, 89, 90, 91, 92, 93, 94, 95, 96, 97, 98, 99, 100, 101, 102, 103, 104, 105, 106, 107, 108, 109, 110, 111, 112, 113, 114, 115, 116, 117, 118, 119, 120, 121, 122, 123, 124, 125, 126, 127, 128, 129, 130, 131, 132, 133, 134, 135, 136, 137, 138, 139, 140, 141, 142, 143, 144, 145, 146, 147, 148, 149, 150, 151, 152, 153, 154, 155, 156, 157, 158, 159, 160, 161, 162, 163, 164, 165, 166, 167, 168, 169, 170, 171, 172, 173, 174, 175, 176, 177, 178, 179, 180, 181, 182, 183, 184, 185, 186, 187, 188, 189, 190],
      "AcquisitionTime": ["134730.280000", "134731.770000", "134733.260000", "134734.750000", "134736.240000", "134737.730000", "134739.220000", "134740.710000", "134742.200000", "134743.690000", "134745.180000", "134746.670000", "134748.160000", "134749.650000", "134751.140000", "134752.630000", "134754.120000", "134755.610000", "134757.100000", "134758.590000", "134800.080000", "134801.570000", "134803.060000", "134804.550000", "134806.040000", "134807.530000", "134809.020000", "134810.510000", "134812.000000", "134813.490000", "134814.980000", "134816.470000", "134817.960000", "134819.450000", "134820.940000", "134822.430000", "134823.920000", "134825.410000", "134826.900000", "134828.390000", "134829.880000", "134831.370000", "134832.860000", "134834.350000", "134835.840000", "134837.330000", "134838.820000", "134840.310000", "134841.800000", "134843.290000", "134844.780000", "134846.270000", "134847.760000", "134849.250000", "134850.740000", "134852.230000", "134853.720000", "134855.210000", "134856.700000", "134858.190000", "134859.680000", "134901.170000", "134902.660000", "134904.150000", "134905.640000", "134907.130000", "134908.620000", "134910.110000", "134911.600000", "134913.090000", "134914.580000", "134916.070000", "134917.560000", "134919.050000", "134920.540000", "134922.030000", "134923.520000", "134925.010000", "134926.500000", "134927.990000", "134929.480000", "134930.970000", "134932.460000", "134933.950000", "134935.440000", "134936.930000", "134938.420000", "134939.910000", "134941.400000", "134942.890000", "134944.380000", "134945.870000", "134947.360000", "134948.850000", "134950.340000", "134951.830000", "134953.320000", "134954.810000", "134956.300000", "134957.790000", "134959.280000", "135000.770000", "135002.260000", "135003.750000", "135005.240000", "135006.730000", "135008.220000", "135009.710000", "135011.200000", "135012.690000", "135014.180000", "135015.670000", "135017.160000", "135018.650000", "135020.140000", "135021.630000", "135023.120000", "135024.610000", "135026.100000", "135027.590000", "135029.080000", "135030.570000", "135032.060000", "135033.550000", "135035.040000", "135036.530000", "135038.020000", "135039.510000", "135041.000000", "135042.490000", "135043.980000", "135045.470000", "135046.960000", "135048.450000", "135049.940000", "135051.430000", "135052.920000", "135054.410000", "135055.900000", "135057.390000", "135058.880000", "135100.370000", "135101.860000", "135103.350000", "135104.840000", "135106.330000", "135107.820000", "135109.310000", "135110.800000", "135112.290000", "135113.780000", "135115.270000", "135116.760000", "135118.250000", "135119.740000", "135121.230000", "135122.720000", "135124.210000", "135125.700000", "135127.190000", "135128.680000", "135130.170000", "135131.660000", "135133.150000", "135134.640000", "135136.130000", "135137.620000", "135139.110000", "135140.600000", "135142.090000", "135143.580000", "135145.070000", "135146.560000", "135148.050000", "135149.540000", "135151.030000", "135152.520000", "135154.010000", "135155.500000", "135156.990000", "135158.480000", "135159.970000", "135201.460000", "135202.950000", "135204.440000", "135205.930000", "135207.420000", "135208.910000", "135210.400000", "135211.890000"],
      "ContentTime": ["134903.518000", "134903.522000", "134903.556000", "134903.559000", "134903.562000", "134903.566000", "134903.569000", "134903.572000", "134903.575000", "134903.579000", "134903.582000", "134903.585000", "134903.588000", "134903.592000", "134903.595000", "134903.598000", "134903.601000", "134903.605000", "134903.608000", "134903.611000", "134903.614000", "134903.618000", "134903.621000", "134903.624000", "134903.627000", "134903.631000", "134903.634000", "134903.637000", "134903.640000", "134903.644000", "134903.647000", "134903.650000", "134903.653000", "134903.656000", "134903.660000", "134903.663000", "134903.666000", "134903.670000", "134903.673000", "134923.474000", "134923.478000", "134923.481000", "134923.484000", "134923.487000", "134923.491000", "134923.494000", "134923.497000", "134923.500000", "134923.504000", "134923.507000", "134923.510000", "134923.513000", "134923.517000", "134923.520000", "134923.523000", "134923.527000", "134923.530000", "134923.533000", "134923.536000", "134923.540000", "134943.474000", "134943.478000", "134943.481000", "134943.484000", "134943.488000", "134943.491000", "134943.494000", "134943.497000", "134943.501000", "134943.504000", "134943.507000", "134943.511000", "134943.514000", "134943.517000", "134943.520000", "134943.524000", "134943.527000", "134943.530000", "134943.533000", "134943.537000", "135003.474000", "135003.478000", "135003.481000", "135003.484000", "135003.488000", "135003.491000", "135003.494000", "135003.497000", "135003.501000", "135003.504000", "135003.507000", "135003.510000", "135003.514000", "135003.517000", "135003.520000", "135003.524000", "135003.527000", "135003.530000", "135003.533000", "135003.537000", "135043.475000", "135043.479000", "135043.482000", "135043.485000", "135043.489000", "135043.492000", "135043.495000", "135043.499000", "135043.502000", "135043.505000", "135043.509000", "135043.512000", "135043.527000", "135043.530000", "135043.533000", "135043.537000", "135043.540000", "135043.543000", "135043.546000", "135043.550000", "135043.553000", "135043.556000", "135043.560000", "135043.563000", "135043.566000", "135043.570000", "135043.573000", "135043.576000", "135043.579000", "135123.475000", "135123.479000", "135123.482000", "135123.485000", "135123.489000", "135123.492000", "135123.495000", "135123.499000", "135123.502000", "135123.505000", "135123.510000", "135123.513000", "135123.516000", "135123.519000", "135123.523000", "135123.526000", "135123.529000", "135123.533000", "135123.541000", "135123.544000", "135123.547000", "135123.550000", "135123.554000", "135123.557000", "135123.561000", "135123.564000", "135123.567000", "135203.474000", "135203.478000", "135203.481000", "135203.484000", "135203.488000", "135203.491000", "135203.494000", "135203.498000", "135203.501000", "135203.504000", "135203.507000", "135203.511000", "135203.514000", "135203.517000", "135203.521000", "135203.524000", "135203.527000", "135203.531000", "135203.534000", "135203.537000", "135203.540000", "135203.544000", "135203.547000", "135203.550000", "135203.553000", "135203.557000", "135203.560000", "135213.666000", "135213.669000", "135213.673000", "135213.676000", "135213.680000", "135213.683000", "135213.686000"],
      "InstanceCreationTime": ["134903.518000", "134903.522000", "134903.556000", "134903.559000", "134903.562000", "134903.566000", "134903.569000", "134903.572000", "134903.575000", "134903.579000", "134903.582000", "134903.585000", "134903.588000", "134903.592000", "134903.595000", "134903.598000", "134903.601000", "134903.605000", "134903.608000", "134903.611000", "134903.614000", "134903.618000", "134903.621000", "134903.624000", "134903.627000", "134903.631000", "134903.634000", "134903.637000", "134903.640000", "134903.644000", "134903.647000", "134903.650000", "134903.653000", "134903.656000", "134903.660000", "134903.663000", "134903.666000", "134903.670000", "134903.673000", "134923.474000", "134923.478000", "134923.481000", "134923.484000", "134923.487000", "134923.491000", "134923.494000", "134923.497000", "134923.500000", "134923.504000", "134923.507000", "134923.510000", "134923.513000", "134923.517000", "134923.520000", "134923.523000", "134923.527000", "134923.530000", "134923.533000", "134923.536000", "134923.540000", "134943.474000", "134943.478000", "134943.481000", "134943.484000", "134943.488000", "134943.491000", "134943.494000", "134943.497000", "134943.501000", "134943.504000", "134943.507000", "134943.511000", "134943.514000", "134943.517000", "134943.520000", "134943.524000", "134943.527000", "134943.530000", "134943.533000", "134943.537000", "135003.474000", "135003.478000", "135003.481000", "135003.484000", "135003.488000", "135003.491000", "135003.494000", "135003.497000", "135003.501000", "135003.504000", "135003.507000", "135003.510000", "135003.514000", "135003.517000", "135003.520000", "135003.524000", "135003.527000", "135003.530000", "135003.533000", "135003.537000", "135043.475000", "135043.479000", "135043.482000", "135043.485000", "135043.489000", "135043.492000", "135043.495000", "135043.499000", "135043.502000", "135043.505000", "135043.509000", "135043.512000", "135043.527000", "135043.530000", "135043.533000", "135043.537000", "135043.540000", "135043.543000", "135043.546000", "135043.550000", "135043.553000", "135043.556000", "135043.560000", "135043.563000", "135043.566000", "135043.570000", "135043.573000", "135043.576000", "135043.579000", "135123.475000", "135123.479000", "135123.482000", "135123.485000", "135123.489000", "135123.492000", "135123.495000", "135123.499000", "135123.502000", "135123.505000", "135123.510000", "135123.513000", "135123.516000", "135123.519000", "135123.523000", "135123.526000", "135123.529000", "135123.533000", "135123.541000", "135123.544000", "135123.547000", "135123.550000", "135123.554000", "135123.557000", "135123.561000", "135123.564000", "135123.567000", "135203.474000", "135203.478000", "135203.481000", "135203.484000", "135203.488000", "135203.491000", "135203.494000", "135203.498000", "135203.501000", "135203.504000", "135203.507000", "135203.511000", "135203.514000", "135203.517000", "135203.521000", "135203.524000", "135203.527000", "135203.531000", "135203.534000", "135203.537000", "135203.540000", "135203.544000", "135203.547000", "135203.550000", "135203.553000", "135203.557000", "135203.560000", "135213.666000", "135213.669000", "135213.673000", "135213.676000", "135213.680000", "135213.683000", "135213.686000"],
      "InstanceNumber": [1, 2, 3, 4, 5, 6, 7, 8, 9, 10, 11, 12, 13, 14, 15, 16, 17, 18, 19, 20, 21, 22, 23, 24, 25, 26, 27, 28, 29, 30, 31, 32, 33, 34, 35, 36, 37, 38, 39, 40, 41, 42, 43, 44, 45, 46, 47, 48, 49, 50, 51, 52, 53, 54, 55, 56, 57, 58, 59, 60, 61, 62, 63, 64, 65, 66, 67, 68, 69, 70, 71, 72, 73, 74, 75, 76, 77, 78, 79, 80, 81, 82, 83, 84, 85, 86, 87, 88, 89, 90, 91, 92, 93, 94, 95, 96, 97, 98, 99, 100, 101, 102, 103, 104, 105, 106, 107, 108, 109, 110, 111, 112, 113, 114, 115, 116, 117, 118, 119, 120, 121, 122, 123, 124, 125, 126, 127, 128, 129, 130, 131, 132, 133, 134, 135, 136, 137, 138, 139, 140, 141, 142, 143, 144, 145, 146, 147, 148, 149, 150, 151, 152, 153, 154, 155, 156, 157, 158, 159, 160, 161, 162, 163, 164, 165, 166, 167, 168, 169, 170, 171, 172, 173, 174, 175, 176, 177, 178, 179, 180, 181, 182, 183, 184, 185, 186, 187, 188, 189, 190],
      "LargestImagePixelValue": [40376, 39285, 38290, 37940, 37425, 37517, 37827, 37464, 37532, 37923, 37577, 37816, 37812, 37335, 37212, 37166, 37022, 37393, 37105, 36930, 37217, 37198, 37459, 37254, 37175, 37427, 37101, 37494, 37316, 37270, 37015, 37338, 37403, 37614, 37362, 37779, 37538, 37351, 37106, 37695, 37417, 37567, 37549, 37208, 37135, 38040, 37521, 38015, 37943, 38050, 37984, 38106, 37760, 37688, 37480, 37619, 37657, 37347, 37665, 38000, 37804, 38028, 37451, 37876, 37999, 38352, 37672, 37788, 38027, 37534, 37732, 37994, 37667, 37639, 38040, 37680, 37650, 37926, 37743, 38152, 37833, 38120, 37751, 37809, 37652, 37565, 37868, 38053, 37904, 38138, 37824, 37965, 37629, 38133, 37781, 37601, 37931, 37855, 38178, 37503, 37561, 37394, 37796, 37650, 37719, 37963, 37749, 37749, 37768, 38060, 37601, 37649, 37892, 38061, 37854, 37663, 37657, 38055, 38128, 37706, 37850, 37452, 38239, 37763, 37972, 37710, 37740, 37568, 37517, 37650, 37910, 38212, 38053, 37568, 37250, 37882, 37562, 37784, 37890, 37637, 37786, 37561, 37889, 37899, 37917, 38171, 37995, 37661, 37640, 38125, 37889, 37973, 38044, 37889, 37818, 37788, 37626, 37831, 37849, 38089, 37898, 38150, 37852, 37708, 37733, 37434, 37444, 37628, 37742, 37874, 37396, 37610, 37707, 37313, 37407, 37402, 37824, 38157, 38149, 37732, 37750, 38030, 37946, 38214, 38267, 38206, 37945, 37889, 37659, 38030],
      "WindowCenter": [9990.0, 9972.0, 9962.0, 9955.0, 9950.0, 9947.0, 9938.0, 9931.0, 9937.0, 9952.0, 9965.0, 9974.0, 9982.0, 9982.0, 9971.0, 9963.0, 9968.0, 9968.0, 9976.0, 9972.0, 9970.0, 9976.0, 9975.0, 9969.0, 9961.0, 9960.0, 9951.0, 9962.0, 9967.0, 9960.0, 9956.0, 9947.0, 9947.0, 9954.0, 9956.0, 9973.0, 9982.0, 9975.0, 9943.0, 9938.0, 9938.0, 9948.0, 9963.0, 9959.0, 9968.0, 9964.0, 9941.0, 9921.0, 9910.0, 9909.0, 9916.0, 9932.0, 9936.0, 9945.0, 9946.0, 9946.0, 9946.0, 9939.0, 9946.0, 9962.0, 9964.0, 9966.0, 9970.0, 9969.0, 9976.0, 9977.0, 9971.0, 9974.0, 9968.0, 9953.0, 9958.0, 9966.0, 9970.0, 9978.0, 9978.0, 9969.0, 9967.0, 9966.0, 9953.0, 9959.0, 9960.0, 9973.0, 9968.0, 9969.0, 9969.0, 9963.0, 9960.0, 9952.0, 9952.0, 9966.0, 9968.0, 9974.0, 9970.0, 9977.0, 9967.0, 9957.0, 9953.0, 9950.0, 9955.0, 9958.0, 9960.0, 9961.0, 9957.0, 9942.0, 9939.0, 9946.0, 9941.0, 9948.0, 9942.0, 9947.0, 9943.0, 9956.0, 9957.0, 9965.0, 9958.0, 9959.0, 9958.0, 9964.0, 9967.0, 9961.0, 9953.0, 9951.0, 9950.0, 9952.0, 9965.0, 9968.0, 9975.0, 9970.0, 9968.0, 9961.0, 9960.0, 9966.0, 9966.0, 9976.0, 9980.0, 9980.0, 9964.0, 9953.0, 9957.0, 9959.0, 9968.0, 9964.0, 9960.0, 9943.0, 9946.0, 9948.0, 9949.0, 9951.0, 9949.0, 9956.0, 9951.0, 9958.0, 9957.0, 9959.0, 9966.0, 9960.0, 9959.0, 9967.0, 9954.0, 9943.0, 9933.0, 9946.0, 9956.0, 9974.0, 9978.0, 9979.0, 9986.0, 9985.0, 9977.0, 9987.0, 9988.0, 9979.0, 9963.0, 9954.0, 9951.0, 9940.0, 9930.0, 9937.0, 9945.0, 9934.0, 9925.0, 9928.0, 9929.0, 9927.0, 9927.0, 9927.0, 9938.0, 9949.0, 9950.0, 9940.0],
      "WindowWidth": [21235.0, 21177.0, 21145.0, 21126.0, 21113.0, 21101.0, 21079.0, 21065.0, 21078.0, 21107.0, 21141.0, 21163.0, 21180.0, 21180.0, 21159.0, 21139.0, 21147.0, 21149.0, 21166.0, 21162.0, 21155.0, 21166.0, 21160.0, 21148.0, 21131.0, 21129.0, 21111.0, 21131.0, 21145.0, 21131.0, 21119.0, 21098.0, 21098.0, 21112.0, 21120.0, 21158.0, 21176.0, 21158.0, 21089.0, 21075.0, 21076.0, 21102.0, 21135.0, 21126.0, 21148.0, 21135.0, 21085.0, 21037.0, 21011.0, 21009.0, 21026.0, 21062.0, 21074.0, 21093.0, 21094.0, 21096.0, 21096.0, 21082.0, 21096.0, 21130.0, 21135.0, 21139.0, 21150.0, 21148.0, 21160.0, 21165.0, 21154.0, 21158.0, 21146.0, 21116.0, 21126.0, 21144.0, 21155.0, 21172.0, 21171.0, 21151.0, 21143.0, 21140.0, 21115.0, 21126.0, 21128.0, 21156.0, 21146.0, 21149.0, 21147.0, 21137.0, 21127.0, 21111.0, 21112.0, 21142.0, 21148.0, 21160.0, 21152.0, 21164.0, 21139.0, 21117.0, 21108.0, 21104.0, 21116.0, 21124.0, 21131.0, 21133.0, 21119.0, 21087.0, 21081.0, 21095.0, 21089.0, 21102.0, 21088.0, 21099.0, 21093.0, 21118.0, 21122.0, 21137.0, 21122.0, 21124.0, 21124.0, 21136.0, 21147.0, 21134.0, 21114.0, 21108.0, 21106.0, 21112.0, 21138.0, 21146.0, 21160.0, 21154.0, 21149.0, 21130.0, 21128.0, 21141.0, 21141.0, 21164.0, 21176.0, 21176.0, 21139.0, 21113.0, 21120.0, 21128.0, 21148.0, 21141.0, 21129.0, 21088.0, 21092.0, 21099.0, 21102.0, 21108.0, 21103.0, 21116.0, 21108.0, 21125.0, 21121.0, 21125.0, 21139.0, 21129.0, 21125.0, 21141.0, 21117.0, 21088.0, 21065.0, 21093.0, 21118.0, 21160.0, 21172.0, 21176.0, 21188.0, 21185.0, 21166.0, 21189.0, 21192.0, 21167.0, 21133.0, 21114.0, 21108.0, 21081.0, 21054.0, 21071.0, 21089.0, 21072.0, 21048.0, 21052.0, 21051.0, 21047.0, 21045.0, 21049.0, 21075.0, 21101.0, 21105.0, 21079.0]
    },
    "slices": {}
  }
}