{
  "AcquisitionMatrixPE": 104,
  "AcquisitionNumber": 1,
  "AcquisitionTime": "14:00:10.270000",
  "BandwidthPerPixelPhaseEncode": 17.17,
  "BaseResolution": 104,
  "BodyPartExamined": "BRAIN",
  "CoilString": "HC1-7;NC1_2",
  "ConsistencyInfo": "N4_VE11C_LATEST_20160120",
  "ConversionSoftware": "dcm2niix",
  "ConversionSoftwareVersion": "v1.0.20190902",
  "DerivedVendorReportedEchoSpacing": 0.000560011,
  "DeviceSerialNumber": "167006",
  "DwellTime": 2.1e-06,
  "EchoTime": 0.037,
  "EchoTrainLength": 104,
  "EffectiveEchoSpacing": 0.000560011,
  "FlipAngle": 52,
  "HeudiconvVersion": "0.10.0",
  "ImageComments": "Unaliased_MB4_PE3_LB",
  "ImageOrientationPatientDICOM": [0.99875, 0.0226089, 0.0445805, -0.0104593, 0.966644, -0.25591],
  "ImageType": [
    "ORIGINAL",
    "PRIMARY",
    "P",
    "MB",
    "ND",
    "MOSAIC"
],
  "ImagingFrequency": 123.259,
  "InPlanePhaseEncodingDirectionDICOM": "COL",
  "InstitutionAddress": "Chemin_Queen-Mary_4565_Montreal_District_CA_H3W_1W5",
  "InstitutionName": "IUGM",
  "InstitutionalDepartmentName": "Department",
  "MRAcquisitionType": "2D",
  "MagneticFieldStrength": 3,
  "Manufacturer": "Siemens",
  "ManufacturersModelName": "Prisma_fit",
  "Modality": "MR",
  "MultibandAccelerationFactor": 4,
  "PartialFourier": 1,
  "PatientPosition": "HFS",
  "PercentPhaseFOV": 100,
  "PhaseEncodingDirection": "j",
  "PhaseEncodingSteps": 104,
  "PhaseResolution": 1,
  "PixelBandwidth": 2290,
  "ProcedureStepDescription": "memory_things",
  "ProtocolName": "func_task-things_run-6",
  "PulseSequenceDetails": "%CustomerSeq%_cmrr_mbep2d_bold",
  "ReceiveCoilActiveElements": "HC1-7;NC1,2",
  "ReceiveCoilName": "HeadNeck_64",
  "ReconMatrixPE": 104,
  "RepetitionTime": 1.49,
  "SAR": 0.0524241,
  "ScanOptions": "FS",
  "ScanningSequence": "EP",
  "SequenceName": "epfid2d1_104",
  "SequenceVariant": "SK_SS",
  "SeriesDescription": "func_task-things_run-6",
  "SeriesNumber": 26,
  "ShimSetting": [641, -7211, -8785, 710, 78, 10, 61, 12],
  "SliceThickness": 2,
  "SliceTiming": [0, 0.7825, 0.0975, 0.88, 0.195, 0.98, 0.2925, 1.0775, 0.39, 1.175, 0.49, 1.2725, 0.5875, 1.37, 0.685, 0, 0.7825, 0.0975, 0.88, 0.195, 0.98, 0.2925, 1.0775, 0.39, 1.175, 0.49, 1.2725, 0.5875, 1.37, 0.685, 0, 0.7825, 0.0975, 0.88, 0.195, 0.98, 0.2925, 1.0775, 0.39, 1.175, 0.49, 1.2725, 0.5875, 1.37, 0.685, 0, 0.7825, 0.0975, 0.88, 0.195, 0.98, 0.2925, 1.0775, 0.39, 1.175, 0.49, 1.2725, 0.5875, 1.37, 0.685],
  "SoftwareVersions": "syngo_MR_E11",
  "SpacingBetweenSlices": 2,
  "StationName": "MRC35049",
  "TaskName": "things",
  "TotalReadoutTime": 0.0576811,
  "TxRefAmp": 244.153,
  "WipMemBlock": "21c977f0-ee66-47ce-bbf4-c0336d775c62||Sequence: R016 ve11c/master r/e634e98; Dec 19 2017 11:00:25 by eja",
  "dcmmeta_affine": [
    [-1.9974998235702515, -0.020918510854244232, 0.0977587103843689, 107.71434020996094],
    [-0.04521787911653519, 1.9332878589630127, -0.5102481842041016, -72.0320816040039],
    [0.08916104584932327, 0.5118205547332764, 1.9313441514968872, -65.43276977539062],
    [0.0, 0.0, 0.0, 1.0]
],
  "dcmmeta_reorient_transform": [
    [0.0, -1.0, 0.0, 103.0],
    [1.0, 0.0, 0.0, 0.0],
    [0.0, 0.0, 1.0, 0.0],
    [0.0, 0.0, 0.0, 1.0]
],
  "dcmmeta_shape": [104, 104, 60, 190],
  "dcmmeta_slice_dim": 2,
  "dcmmeta_version": 0.6,
  "global": {
    "const": {
      "AcquisitionMatrix": [104, 0, 0, 104],
      "AngioFlag": "N",
      "BitsAllocated": 16,
      "BitsStored": 16,
      "BodyPartExamined": "BRAIN",
      "Columns": 832,
      "EchoNumbers": 1,
      "EchoTime": 37.0,
      "EchoTrainLength": 104,
      "FlipAngle": 52.0,
      "HighBit": 15,
      "ImageOrientationPatient": [0.99874992502726, 0.02260893899848, 0.04458052417147, -0.0104592552988, 0.96664395699423, -0.2559102662754],
      "ImagePositionPatient": [-825.03533784351, -847.27268482604, 141.13279532058],
      "ImageType": [
        "ORIGINAL",
        "PRIMARY",
        "P",
        "MB",
        "ND",
        "MOSAIC"
],
      "ImagedNucleus": "1H",
      "ImagingFrequency": 123.258927,
      "InPlanePhaseEncodingDirection": "COL",
      "LargestImagePixelValue": 4095,
      "MRAcquisitionType": "2D",
      "MagneticFieldStrength": 3.0,
      "Manufacturer": "SIEMENS",
      "ManufacturerModelName": "Prisma_fit",
      "Modality": "MR",
      "NumberOfAverages": 1.0,
      "NumberOfPhaseEncodingSteps": 104,
      "PercentPhaseFieldOfView": 100.0,
      "PercentSampling": 100.0,
      "PerformedProcedureStepStartTime": "125517.273000",
      "PhotometricInterpretation": "MONOCHROME2",
      "PixelBandwidth": 2290.0,
      "PixelRepresentation": 0,
      "PixelSpacing": [2.0, 2.0],
      "ProtocolName": "func_task-things_run-6",
      "RepetitionTime": 1490.0,
      "RescaleIntercept": -4096.0,
      "RescaleSlope": 2.0,
      "RescaleType": "US",
      "Rows": 832,
      "SAR": 0.0524240833326,
      "SamplesPerPixel": 1,
      "ScanOptions": "FS",
      "ScanningSequence": "EP",
      "SequenceName": "epfid2d1_104",
      "SequenceVariant": [
        "SK",
        "SS"
],
      "SeriesDescription": "func_task-things_run-6",
      "SeriesNumber": 26,
      "SeriesTime": "140143.627000",
      "SliceLocation": -39.544474026219,
      "SliceThickness": 2.0,
      "SmallestImagePixelValue": 0,
      "SoftwareVersions": "syngo MR E11",
      "SpacingBetweenSlices": 2.0000000019252,
      "SpecificCharacterSet": "ISO_IR 100",
      "StudyID": "1",
      "StudyTime": "125517.171000",
      "TransmitCoilName": "Body",
      "VariableFlipAngleFlag": "N",
      "WindowCenterWidthExplanation": "Algo1",
      "dBdt": 0.0},
    "slices": {}
  },
  "time": {
    "samples": {
      "AcquisitionNumber": [1, 2, 3, 4, 5, 6, 7, 8, 9, 10, 11, 12, 13, 14, 15, 16, 17, 18, 19, 20, 21, 22, 23, 24, 25, 26, 27, 28, 29, 30, 31, 32, 33, 34, 35, 36, 37, 38, 39, 40, 41, 42, 43, 44, 45, 46, 47, 48, 49, 50, 51, 52, 53, 54, 55, 56, 57, 58, 59, 60, 61, 62, 63, 64, 65, 66, 67, 68, 69, 70, 71, 72, 73, 74, 75, 76, 77, 78, 79, 80, 81, 82, 83, 84, 85, 86, 87, 88, 89, 90, 91, 92, 93, 94, 95, 96, 97, 98, 99, 100, 101, 102, 103, 104, 105, 106, 107, 108, 109, 110, 111, 112, 113, 114, 115, 116, 117, 118, 119, 120, 121, 122, 123, 124, 125, 126, 127, 128, 129, 130, 131, 132, 133, 134, 135, 136, 137, 138, 139, 140, 141, 142, 143, 144, 145, 146, 147, 148, 149, 150, 151, 152, 153, 154, 155, 156, 157, 158, 159, 160, 161, 162, 163, 164, 165, 166, 167, 168, 169, 170, 171, 172, 173, 174, 175, 176, 177, 178, 179, 180, 181, 182, 183, 184, 185, 186, 187, 188, 189, 190],
      "AcquisitionTime": ["140010.270000", "140011.760000", "140013.250000", "140014.740000", "140016.230000", "140017.720000", "140019.210000", "140020.700000", "140022.190000", "140023.680000", "140025.170000", "140026.660000", "140028.150000", "140029.640000", "140031.130000", "140032.620000", "140034.110000", "140035.600000", "140037.090000", "140038.580000", "140040.070000", "140041.560000", "140043.050000", "140044.540000", "140046.030000", "140047.520000", "140049.010000", "140050.500000", "140051.990000", "140053.480000", "140054.970000", "140056.460000", "140057.950000", "140059.440000", "140100.930000", "140102.420000", "140103.910000", "140105.400000", "140106.890000", "140108.380000", "140109.870000", "140111.360000", "140112.850000", "140114.340000", "140115.830000", "140117.320000", "140118.810000", "140120.300000", "140121.790000", "140123.280000", "140124.770000", "140126.260000", "140127.750000", "140129.240000", "140130.730000", "140132.220000", "140133.710000", "140135.200000", "140136.690000", "140138.180000", "140139.670000", "140141.160000", "140142.650000", "140144.140000", "140145.630000", "140147.120000", "140148.610000", "140150.100000", "140151.590000", "140153.080000", "140154.570000", "140156.060000", "140157.550000", "140159.040000", "140200.530000", "140202.020000", "140203.510000", "140205.000000", "140206.490000", "140207.980000", "140209.470000", "140210.960000", "140212.450000", "140213.940000", "140215.430000", "140216.920000", "140218.410000", "140219.900000", "140221.390000", "140222.880000", "140224.370000", "140225.860000", "140227.350000", "140228.840000", "140230.330000", "140231.820000", "140233.310000", "140234.800000", "140236.290000", "140237.780000", "140239.270000", "140240.760000", "140242.250000", "140243.740000", "140245.230000", "140246.720000", "140248.210000", "140249.700000", "140251.190000", "140252.680000", "140254.170000", "140255.660000", "140257.150000", "140258.640000", "140300.130000", "140301.620000", "140303.110000", "140304.600000", "140306.090000", "140307.580000", "140309.070000", "140310.560000", "140312.050000", "140313.540000", "140315.030000", "140316.520000", "140318.010000", "140319.500000", "140320.990000", "140322.480000", "140323.970000", "140325.460000", "140326.950000", "140328.440000", "140329.930000", "140331.420000", "140332.910000", "140334.400000", "140335.890000", "140337.380000", "140338.870000", "140340.360000", "140341.850000", "140343.340000", "140344.830000", "140346.320000", "140347.810000", "140349.300000", "140350.790000", "140352.280000", "140353.770000", "140355.260000", "140356.750000", "140358.240000", "140359.730000", "140401.220000", "140402.710000", "140404.200000", "140405.690000", "140407.180000", "140408.670000", "140410.160000", "140411.650000", "140413.140000", "140414.630000", "140416.120000", "140417.610000", "140419.100000", "140420.590000", "140422.080000", "140423.570000", "140425.060000", "140426.550000", "140428.040000", "140429.530000", "140431.020000", "140432.510000", "140434.000000", "140435.490000", "140436.980000", "140438.470000", "140439.960000", "140441.450000", "140442.940000", "140444.430000", "140445.920000", "140447.410000", "140448.900000", "140450.390000", "140451.880000"],
      "ContentTime": ["140143.630000", "140143.633000", "140143.636000", "140143.638000", "140143.640000", "140143.643000", "140143.675000", "140143.678000", "140143.680000", "140143.683000", "140143.686000", "140143.688000", "140143.691000", "140143.693000", "140143.696000", "140143.698000", "140143.701000", "140143.703000", "140143.705000", "140143.708000", "140143.710000", "140143.713000", "140143.715000", "140143.718000", "140143.720000", "140143.723000", "140143.725000", "140143.728000", "140143.730000", "140143.732000", "140143.735000", "140143.737000", "140143.740000", "140143.742000", "140143.745000", "140143.747000", "140143.750000", "140203.546000", "140203.549000", "140203.551000", "140203.553000", "140203.556000", "140203.558000", "140203.561000", "140203.563000", "140203.566000", "140203.568000", "140203.571000", "140203.573000", "140203.576000", "140203.578000", "140203.581000", "140203.583000", "140203.586000", "140203.588000", "140203.591000", "140203.593000", "140223.529000", "140223.531000", "140223.534000", "140223.536000", "140223.539000", "140223.541000", "140223.544000", "140223.546000", "140223.549000", "140223.551000", "140223.554000", "140223.556000", "140223.559000", "140223.561000", "140223.564000", "140223.566000", "140223.569000", "140223.571000", "140223.574000", "140223.576000", "140223.579000", "140243.533000", "140243.536000", "140243.539000", "140243.541000", "140243.544000", "140243.546000", "140243.548000", "140243.551000", "140243.554000", "140243.556000", "140243.558000", "140243.561000", "140243.564000", "140243.566000", "140243.568000", "140243.571000", "140243.573000", "140243.576000", "140243.578000", "140243.581000", "140323.582000", "140323.585000", "140323.587000", "140323.590000", "140323.592000", "140323.595000", "140323.597000", "140323.600000", "140323.602000", "140323.611000", "140323.613000", "140323.616000", "140323.618000", "140323.621000", "140323.623000", "140323.626000", "140323.628000", "140323.631000", "140323.633000", "140323.636000", "140323.638000", "140323.641000", "140323.643000", "140323.646000", "140323.648000", "140323.651000", "140323.653000", "140323.656000", "140323.658000", "140323.661000", "140403.555000", "140403.558000", "140403.560000", "140403.563000", "140403.565000", "140403.568000", "140403.570000", "140403.573000", "140403.575000", "140403.578000", "140403.580000", "140403.582000", "140403.585000", "140403.587000", "140403.590000", "140403.592000", "140403.595000", "140403.597000", "140403.600000", "140403.602000", "140403.605000", "140403.607000", "140403.610000", "140403.612000", "140403.615000", "140403.618000", "140403.620000", "140443.552000", "140443.554000", "140443.562000", "140443.565000", "140443.567000", "140443.570000", "140443.572000", "140443.575000", "140443.577000", "140443.579000", "140443.582000", "140443.584000", "140443.587000", "140443.589000", "140443.592000", "140443.594000", "140443.597000", "140443.599000", "140443.602000", "140443.604000", "140443.607000", "140443.609000", "140443.612000", "140443.614000", "140443.617000", "140443.619000", "140443.622000", "140454.542000", "140454.545000", "140454.548000", "140454.550000", "140454.553000", "140454.555000", "140454.558000", "140454.560000"],
      "InstanceCreationTime": ["140143.630000", "140143.633000", "140143.636000", "140143.638000", "140143.640000", "140143.643000", "140143.675000", "140143.678000", "140143.680000", "140143.683000", "140143.686000", "140143.688000", "140143.691000", "140143.693000", "140143.696000", "140143.698000", "140143.701000", "140143.703000", "140143.705000", "140143.708000", "140143.710000", "140143.713000", "140143.715000", "140143.718000", "140143.720000", "140143.723000", "140143.725000", "140143.728000", "140143.730000", "140143.732000", "140143.735000", "140143.737000", "140143.740000", "140143.742000", "140143.745000", "140143.747000", "140143.750000", "140203.546000", "140203.549000", "140203.551000", "140203.553000", "140203.556000", "140203.558000", "140203.561000", "140203.563000", "140203.566000", "140203.568000", "140203.571000", "140203.573000", "140203.576000", "140203.578000", "140203.581000", "140203.583000", "140203.586000", "140203.588000", "140203.591000", "140203.593000", "140223.529000", "140223.531000", "140223.534000", "140223.536000", "140223.539000", "140223.541000", "140223.544000", "140223.546000", "140223.549000", "140223.551000", "140223.554000", "140223.556000", "140223.559000", "140223.561000", "140223.564000", "140223.566000", "140223.569000", "140223.571000", "140223.574000", "140223.576000", "140223.579000", "140243.533000", "140243.536000", "140243.539000", "140243.541000", "140243.544000", "140243.546000", "140243.548000", "140243.551000", "140243.554000", "140243.556000", "140243.558000", "140243.561000", "140243.564000", "140243.566000", "140243.568000", "140243.571000", "140243.573000", "140243.576000", "140243.578000", "140243.581000", "140323.582000", "140323.585000", "140323.587000", "140323.590000", "140323.592000", "140323.595000", "140323.597000", "140323.600000", "140323.602000", "140323.611000", "140323.613000", "140323.616000", "140323.618000", "140323.621000", "140323.623000", "140323.626000", "140323.628000", "140323.631000", "140323.633000", "140323.636000", "140323.638000", "140323.641000", "140323.643000", "140323.646000", "140323.648000", "140323.651000", "140323.653000", "140323.656000", "140323.658000", "140323.661000", "140403.555000", "140403.558000", "140403.560000", "140403.563000", "140403.565000", "140403.568000", "140403.570000", "140403.573000", "140403.575000", "140403.578000", "140403.580000", "140403.582000", "140403.585000", "140403.587000", "140403.590000", "140403.592000", "140403.595000", "140403.597000", "140403.600000", "140403.602000", "140403.605000", "140403.607000", "140403.610000", "140403.612000", "140403.615000", "140403.618000", "140403.620000", "140443.552000", "140443.554000", "140443.562000", "140443.565000", "140443.567000", "140443.570000", "140443.572000", "140443.575000", "140443.577000", "140443.579000", "140443.582000", "140443.584000", "140443.587000", "140443.589000", "140443.592000", "140443.594000", "140443.597000", "140443.599000", "140443.602000", "140443.604000", "140443.607000", "140443.609000", "140443.612000", "140443.614000", "140443.617000", "140443.619000", "140443.622000", "140454.542000", "140454.545000", "140454.548000", "140454.550000", "140454.553000", "140454.555000", "140454.558000", "140454.560000"],
      "InstanceNumber": [1, 2, 3, 4, 5, 6, 7, 8, 9, 10, 11, 12, 13, 14, 15, 16, 17, 18, 19, 20, 21, 22, 23, 24, 25, 26, 27, 28, 29, 30, 31, 32, 33, 34, 35, 36, 37, 38, 39, 40, 41, 42, 43, 44, 45, 46, 47, 48, 49, 50, 51, 52, 53, 54, 55, 56, 57, 58, 59, 60, 61, 62, 63, 64, 65, 66, 67, 68, 69, 70, 71, 72, 73, 74, 75, 76, 77, 78, 79, 80, 81, 82, 83, 84, 85, 86, 87, 88, 89, 90, 91, 92, 93, 94, 95, 96, 97, 98, 99, 100, 101, 102, 103, 104, 105, 106, 107, 108, 109, 110, 111, 112, 113, 114, 115, 116, 117, 118, 119, 120, 121, 122, 123, 124, 125, 126, 127, 128, 129, 130, 131, 132, 133, 134, 135, 136, 137, 138, 139, 140, 141, 142, 143, 144, 145, 146, 147, 148, 149, 150, 151, 152, 153, 154, 155, 156, 157, 158, 159, 160, 161, 162, 163, 164, 165, 166, 167, 168, 169, 170, 171, 172, 173, 174, 175, 176, 177, 178, 179, 180, 181, 182, 183, 184, 185, 186, 187, 188, 189, 190],
      "WindowCenter": [4800.0, 4804.0, 4802.0, 4802.0, 4804.0, 4800.0, 4802.0, 4798.0, 4802.0, 4800.0, 4804.0, 4804.0, 4802.0, 4802.0, 4804.0, 4800.0, 4802.0, 4802.0, 4804.0, 4800.0, 4806.0, 4802.0, 4804.0, 4800.0, 4802.0, 4802.0, 4798.0, 4804.0, 4800.0, 4804.0, 4802.0, 4806.0, 4800.0, 4802.0, 4802.0, 4804.0, 4802.0, 4800.0, 4802.0, 4802.0, 4804.0, 4804.0, 4800.0, 4800.0, 4802.0, 4802.0, 4806.0, 4802.0, 4802.0, 4804.0, 4804.0, 4802.0, 4800.0, 4800.0, 4804.0, 4800.0, 4802.0, 4804.0, 4802.0, 4804.0, 4804.0, 4800.0, 4806.0, 4802.0, 4800.0, 4804.0, 4804.0, 4802.0, 4802.0, 4804.0, 4802.0, 4802.0, 4804.0, 4802.0, 4800.0, 4800.0, 4800.0, 4806.0, 4800.0, 4804.0, 4802.0, 4802.0, 4802.0, 4806.0, 4804.0, 4802.0, 4804.0, 4804.0, 4804.0, 4802.0, 4800.0, 4802.0, 4798.0, 4804.0, 4802.0, 4802.0, 4800.0, 4804.0, 4802.0, 4802.0, 4798.0, 4806.0, 4800.0, 4804.0, 4800.0, 4804.0, 4802.0, 4804.0, 4802.0, 4800.0, 4802.0, 4802.0, 4802.0, 4804.0, 4800.0, 4800.0, 4804.0, 4804.0, 4804.0, 4802.0, 4800.0, 4806.0, 4804.0, 4804.0, 4804.0, 4802.0, 4802.0, 4802.0, 4802.0, 4806.0, 4804.0, 4802.0, 4804.0, 4800.0, 4798.0, 4802.0, 4800.0, 4804.0, 4800.0, 4804.0, 4802.0, 4806.0, 4800.0, 4800.0, 4804.0, 4800.0, 4802.0, 4802.0, 4802.0, 4800.0, 4800.0, 4804.0, 4804.0, 4804.0, 4802.0, 4802.0, 4798.0, 4804.0, 4804.0, 4802.0, 4798.0, 4802.0, 4800.0, 4800.0, 4800.0, 4804.0, 4806.0, 4802.0, 4800.0, 4804.0, 4804.0, 4802.0, 4802.0, 4802.0, 4804.0, 4798.0, 4802.0, 4804.0, 4804.0, 4806.0, 4804.0, 4802.0, 4804.0, 4802.0, 4802.0, 4802.0, 4800.0, 4800.0, 4804.0, 4804.0],
      "WindowWidth": [18550.0, 18552.0, 18554.0, 18552.0, 18552.0, 18550.0, 18548.0, 18548.0, 18550.0, 18550.0, 18548.0, 18552.0, 18552.0, 18558.0, 18554.0, 18552.0, 18550.0, 18552.0, 18554.0, 18544.0, 18558.0, 18546.0, 18554.0, 18552.0, 18550.0, 18550.0, 18548.0, 18552.0, 18552.0, 18558.0, 18560.0, 18550.0, 18546.0, 18552.0, 18552.0, 18548.0, 18556.0, 18550.0, 18554.0, 18550.0, 18552.0, 18552.0, 18552.0, 18544.0, 18552.0, 18548.0, 18560.0, 18552.0, 18548.0, 18550.0, 18550.0, 18552.0, 18552.0, 18554.0, 18552.0, 18552.0, 18554.0, 18554.0, 18548.0, 18556.0, 18556.0, 18550.0, 18558.0, 18548.0, 18550.0, 18550.0, 18558.0, 18554.0, 18550.0, 18552.0, 18556.0, 18554.0, 18554.0, 18550.0, 18548.0, 18548.0, 18556.0, 18548.0, 18550.0, 18552.0, 18548.0, 18554.0, 18560.0, 18550.0, 18556.0, 18546.0, 18554.0, 18552.0, 18552.0, 18552.0, 18554.0, 18548.0, 18552.0, 18550.0, 18552.0, 18550.0, 18548.0, 18552.0, 18548.0, 18554.0, 18550.0, 18550.0, 18554.0, 18548.0, 18550.0, 18550.0, 18554.0, 18552.0, 18548.0, 18552.0, 18554.0, 18552.0, 18552.0, 18554.0, 18554.0, 18556.0, 18554.0, 18558.0, 18550.0, 18550.0, 18552.0, 18550.0, 18552.0, 18550.0, 18552.0, 18548.0, 18554.0, 18552.0, 18554.0, 18556.0, 18552.0, 18546.0, 18552.0, 18548.0, 18552.0, 18550.0, 18546.0, 18550.0, 18548.0, 18550.0, 18548.0, 18554.0, 18550.0, 18546.0, 18556.0, 18548.0, 18548.0, 18550.0, 18550.0, 18550.0, 18554.0, 18552.0, 18554.0, 18546.0, 18548.0, 18548.0, 18550.0, 18554.0, 18554.0, 18550.0, 18550.0, 18556.0, 18548.0, 18552.0, 18552.0, 18552.0, 18556.0, 18554.0, 18550.0, 18548.0, 18554.0, 18550.0, 18554.0, 18552.0, 18558.0, 18546.0, 18554.0, 18556.0, 18552.0, 18552.0, 18550.0, 18546.0, 18552.0, 18552.0, 18548.0, 18556.0, 18552.0, 18548.0, 18552.0, 18552.0]
    },
    "slices": {}
  }
}