{
  "AcquisitionMatrixPE": 104,
  "AcquisitionNumber": 1,
  "AcquisitionTime": "15:42:18.590000",
  "BandwidthPerPixelPhaseEncode": 17.17,
  "BaseResolution": 104,
  "BodyPartExamined": "BRAIN",
  "CoilString": "HC1-7;NC1_2",
  "ConsistencyInfo": "N4_VE11C_LATEST_20160120",
  "ConversionSoftware": "dcm2niix",
  "ConversionSoftwareVersion": "v1.0.20190902",
  "DerivedVendorReportedEchoSpacing": 0.000560011,
  "DeviceSerialNumber": "167006",
  "DwellTime": 2.1e-06,
  "EchoTime": 0.037,
  "EchoTrainLength": 104,
  "EffectiveEchoSpacing": 0.000560011,
  "FlipAngle": 52,
  "ImageComments": "Unaliased_MB4_PE3_LB",
  "ImageOrientationPatientDICOM": [0.998491, -0.0539151, 0.0104086, 0.0546007, 0.954745, -0.292371],
  "ImageType": [
    "ORIGINAL",
    "PRIMARY",
    "P",
    "MB",
    "ND",
    "MOSAIC"
],
  "ImagingFrequency": 123.259,
  "InPlanePhaseEncodingDirectionDICOM": "COL",
  "InstitutionAddress": "Chemin_Queen-Mary_4565_Montreal_District_CA_H3W_1W5",
  "InstitutionName": "IUGM",
  "InstitutionalDepartmentName": "Department",
  "MRAcquisitionType": "2D",
  "MagneticFieldStrength": 3,
  "Manufacturer": "Siemens",
  "ManufacturersModelName": "Prisma_fit",
  "Modality": "MR",
  "MultibandAccelerationFactor": 4,
  "PartialFourier": 1,
  "PatientPosition": "HFS",
  "PercentPhaseFOV": 100,
  "PhaseEncodingDirection": "j",
  "PhaseEncodingSteps": 104,
  "PhaseResolution": 1,
  "PixelBandwidth": 2290,
  "ProcedureStepDescription": "memory_things",
  "ProtocolName": "func_task-things_run-2",
  "PulseSequenceDetails": "%CustomerSeq%_cmrr_mbep2d_bold",
  "ReceiveCoilActiveElements": "HC1-7;NC1,2",
  "ReceiveCoilName": "HeadNeck_64",
  "ReconMatrixPE": 104,
  "RepetitionTime": 1.49,
  "SAR": 0.0562405,
  "ScanOptions": "FS",
  "ScanningSequence": "EP",
  "SequenceName": "epfid2d1_104",
  "SequenceVariant": "SK_SS",
  "SeriesDescription": "func_task-things_run-2",
  "SeriesNumber": 14,
  "ShimSetting": [625, -7249, -8817, 593, -12, -198, -9, -34],
  "SliceThickness": 2,
  "SliceTiming": [0, 0.785, 0.0975, 0.8825, 0.195, 0.98, 0.295, 1.0775, 0.3925, 1.175, 0.49, 1.275, 0.5875, 1.3725, 0.685, 0, 0.785, 0.0975, 0.8825, 0.195, 0.98, 0.295, 1.0775, 0.3925, 1.175, 0.49, 1.275, 0.5875, 1.3725, 0.685, 0, 0.785, 0.0975, 0.8825, 0.195, 0.98, 0.295, 1.0775, 0.3925, 1.175, 0.49, 1.275, 0.5875, 1.3725, 0.685, 0, 0.785, 0.0975, 0.8825, 0.195, 0.98, 0.295, 1.0775, 0.3925, 1.175, 0.49, 1.275, 0.5875, 1.3725, 0.685],
  "SoftwareVersions": "syngo_MR_E11",
  "SpacingBetweenSlices": 2,
  "StationName": "MRC35049",
  "TaskName": "things",
  "TotalReadoutTime": 0.0576811,
  "TxRefAmp": 270.301,
  "WipMemBlock": "265e832e-b0bf-4598-8947-da47b14e42ec||Sequence: R016 ve11c/master r/e634e98; Dec 19 2017 11:00:25 by eja",
  "dcmmeta_affine": [
    [-1.9969825744628906, 0.10920148342847824, -0.011651277542114258, 101.3782958984375],
    [0.1078302413225174, 1.9094901084899902, -0.584995687007904, -74.16555786132812],
    [0.020817197859287262, 0.5847412943840027, 1.91249680519104, -60.353694915771484],
    [0.0, 0.0, 0.0, 1.0]
],
  "dcmmeta_reorient_transform": [
    [0.0, -1.0, 0.0, 103.0],
    [1.0, 0.0, 0.0, 0.0],
    [0.0, 0.0, 1.0, 0.0],
    [0.0, 0.0, 0.0, 1.0]
],
  "dcmmeta_shape": [104, 104, 60, 190],
  "dcmmeta_slice_dim": 2,
  "dcmmeta_version": 0.6,
  "global": {
    "const": {
      "AcquisitionMatrix": [104, 0, 0, 104],
      "AngioFlag": "N",
      "BitsAllocated": 16,
      "BitsStored": 16,
      "BodyPartExamined": "BRAIN",
      "Columns": 832,
      "EchoNumbers": 1,
      "EchoTime": 37.0,
      "EchoTrainLength": 104,
      "FlipAngle": 52.0,
      "HighBit": 15,
      "ImageOrientationPatient": [0.99849127228091, -0.0539151206809, 0.01040859936901, 0.05460074276141, 0.9547450820638, -0.2923706332122],
      "ImagePositionPatient": [-879.27703511285, -778.31613898508, 205.14301602408],
      "ImageType": [
        "ORIGINAL",
        "PRIMARY",
        "P",
        "MB",
        "ND",
        "MOSAIC"
],
      "ImagedNucleus": "1H",
      "ImagingFrequency": 123.258897,
      "InPlanePhaseEncodingDirection": "COL",
      "LargestImagePixelValue": 4095,
      "MRAcquisitionType": "2D",
      "MagneticFieldStrength": 3.0,
      "Manufacturer": "SIEMENS",
      "ManufacturerModelName": "Prisma_fit",
      "Modality": "MR",
      "NumberOfAverages": 1.0,
      "NumberOfPhaseEncodingSteps": 104,
      "PercentPhaseFieldOfView": 100.0,
      "PercentSampling": 100.0,
      "PerformedProcedureStepStartTime": "145914.536000",
      "PhotometricInterpretation": "MONOCHROME2",
      "PixelBandwidth": 2290.0,
      "PixelRepresentation": 0,
      "PixelSpacing": [2.0, 2.0],
      "ProtocolName": "func_task-things_run-2",
      "RepetitionTime": 1490.0,
      "RescaleIntercept": -4096.0,
      "RescaleSlope": 2.0,
      "RescaleType": "US",
      "Rows": 832,
      "SAR": 0.05624050144164,
      "SamplesPerPixel": 1,
      "ScanOptions": "FS",
      "ScanningSequence": "EP",
      "SequenceName": "epfid2d1_104",
      "SequenceVariant": [
        "SK",
        "SS"
],
      "SeriesDescription": "func_task-things_run-2",
      "SeriesNumber": 14,
      "SeriesTime": "154334.817000",
      "SliceLocation": -36.6104536723,
      "SliceThickness": 2.0,
      "SmallestImagePixelValue": 0,
      "SoftwareVersions": "syngo MR E11",
      "SpacingBetweenSlices": 1.9999999470094,
      "SpecificCharacterSet": "ISO_IR 100",
      "StudyID": "1",
      "StudyTime": "145914.470000",
      "TransmitCoilName": "Body",
      "VariableFlipAngleFlag": "N",
      "WindowCenterWidthExplanation": "Algo1",
      "dBdt": 0.0},
    "slices": {}
  },
  "time": {
    "samples": {
      "AcquisitionNumber": [1, 2, 3, 4, 5, 6, 7, 8, 9, 10, 11, 12, 13, 14, 15, 16, 17, 18, 19, 20, 21, 22, 23, 24, 25, 26, 27, 28, 29, 30, 31, 32, 33, 34, 35, 36, 37, 38, 39, 40, 41, 42, 43, 44, 45, 46, 47, 48, 49, 50, 51, 52, 53, 54, 55, 56, 57, 58, 59, 60, 61, 62, 63, 64, 65, 66, 67, 68, 69, 70, 71, 72, 73, 74, 75, 76, 77, 78, 79, 80, 81, 82, 83, 84, 85, 86, 87, 88, 89, 90, 91, 92, 93, 94, 95, 96, 97, 98, 99, 100, 101, 102, 103, 104, 105, 106, 107, 108, 109, 110, 111, 112, 113, 114, 115, 116, 117, 118, 119, 120, 121, 122, 123, 124, 125, 126, 127, 128, 129, 130, 131, 132, 133, 134, 135, 136, 137, 138, 139, 140, 141, 142, 143, 144, 145, 146, 147, 148, 149, 150, 151, 152, 153, 154, 155, 156, 157, 158, 159, 160, 161, 162, 163, 164, 165, 166, 167, 168, 169, 170, 171, 172, 173, 174, 175, 176, 177, 178, 179, 180, 181, 182, 183, 184, 185, 186, 187, 188, 189, 190],
      "AcquisitionTime": ["154218.590000", "154220.080000", "154221.570000", "154223.060000", "154224.550000", "154226.040000", "154227.530000", "154229.020000", "154230.510000", "154232.000000", "154233.490000", "154234.980000", "154236.470000", "154237.960000", "154239.450000", "154240.940000", "154242.430000", "154243.920000", "154245.410000", "154246.900000", "154248.390000", "154249.880000", "154251.370000", "154252.860000", "154254.350000", "154255.840000", "154257.330000", "154258.820000", "154300.310000", "154301.800000", "154303.290000", "154304.780000", "154306.270000", "154307.760000", "154309.250000", "154310.740000", "154312.230000", "154313.720000", "154315.210000", "154316.700000", "154318.190000", "154319.680000", "154321.170000", "154322.660000", "154324.150000", "154325.640000", "154327.130000", "154328.620000", "154330.110000", "154331.600000", "154333.090000", "154334.580000", "154336.070000", "154337.560000", "154339.050000", "154340.540000", "154342.030000", "154343.520000", "154345.010000", "154346.500000", "154347.990000", "154349.480000", "154350.970000", "154352.460000", "154353.950000", "154355.440000", "154356.930000", "154358.420000", "154359.910000", "154401.400000", "154402.890000", "154404.380000", "154405.870000", "154407.360000", "154408.850000", "154410.340000", "154411.830000", "154413.320000", "154414.810000", "154416.300000", "154417.790000", "154419.280000", "154420.770000", "154422.260000", "154423.750000", "154425.240000", "154426.730000", "154428.220000", "154429.710000", "154431.200000", "154432.690000", "154434.180000", "154435.670000", "154437.160000", "154438.650000", "154440.140000", "154441.630000", "154443.120000", "154444.610000", "154446.100000", "154447.590000", "154449.080000", "154450.570000", "154452.060000", "154453.550000", "154455.040000", "154456.530000", "154458.020000", "154459.510000", "154501.000000", "154502.490000", "154503.980000", "154505.470000", "154506.960000", "154508.450000", "154509.940000", "154511.430000", "154512.920000", "154514.410000", "154515.900000", "154517.390000", "154518.880000", "154520.370000", "154521.860000", "154523.350000", "154524.840000", "154526.330000", "154527.820000", "154529.310000", "154530.800000", "154532.290000", "154533.780000", "154535.270000", "154536.760000", "154538.250000", "154539.740000", "154541.230000", "154542.720000", "154544.210000", "154545.700000", "154547.190000", "154548.680000", "154550.170000", "154551.660000", "154553.150000", "154554.640000", "154556.130000", "154557.620000", "154559.110000", "154600.600000", "154602.090000", "154603.580000", "154605.070000", "154606.560000", "154608.050000", "154609.540000", "154611.030000", "154612.520000", "154614.010000", "154615.500000", "154616.990000", "154618.480000", "154619.970000", "154621.460000", "154622.950000", "154624.440000", "154625.930000", "154627.420000", "154628.910000", "154630.400000", "154631.890000", "154633.380000", "154634.870000", "154636.360000", "154637.850000", "154639.340000", "154640.830000", "154642.320000", "154643.810000", "154645.300000", "154646.790000", "154648.280000", "154649.770000", "154651.260000", "154652.750000", "154654.240000", "154655.730000", "154657.220000", "154658.710000", "154700.200000"],
      "ContentTime": ["154334.819000", "154334.822000", "154334.824000", "154334.827000", "154334.829000", "154334.832000", "154334.834000", "154334.837000", "154334.839000", "154334.842000", "154334.845000", "154334.847000", "154334.854000", "154334.857000", "154334.859000", "154334.862000", "154334.864000", "154334.867000", "154334.869000", "154334.872000", "154334.874000", "154334.877000", "154334.879000", "154355.301000", "154355.304000", "154355.307000", "154355.309000", "154355.312000", "154355.314000", "154355.317000", "154355.319000", "154355.322000", "154355.336000", "154355.339000", "154355.341000", "154355.344000", "154355.346000", "154355.349000", "154355.352000", "154355.354000", "154355.357000", "154355.359000", "154355.362000", "154414.758000", "154414.761000", "154414.764000", "154414.766000", "154414.769000", "154414.771000", "154414.774000", "154414.776000", "154414.779000", "154414.783000", "154414.799000", "154414.802000", "154414.804000", "154414.807000", "154414.809000", "154414.812000", "154414.814000", "154414.817000", "154414.819000", "154414.822000", "154434.786000", "154434.789000", "154434.791000", "154434.794000", "154434.796000", "154434.799000", "154434.801000", "154434.804000", "154434.806000", "154434.809000", "154434.811000", "154434.814000", "154434.816000", "154434.819000", "154434.822000", "154434.824000", "154434.827000", "154434.829000", "154434.832000", "154434.835000", "154434.837000", "154454.768000", "154454.771000", "154454.773000", "154454.776000", "154454.779000", "154454.781000", "154454.784000", "154454.786000", "154454.789000", "154454.791000", "154454.794000", "154454.796000", "154454.799000", "154454.801000", "154454.804000", "154454.806000", "154454.812000", "154454.815000", "154454.818000", "154454.820000", "154534.787000", "154534.790000", "154534.793000", "154534.795000", "154534.798000", "154534.801000", "154534.803000", "154534.806000", "154534.808000", "154534.811000", "154534.813000", "154534.816000", "154534.818000", "154534.821000", "154534.824000", "154534.826000", "154534.829000", "154534.831000", "154534.834000", "154534.847000", "154534.850000", "154534.852000", "154534.855000", "154534.857000", "154534.860000", "154534.862000", "154534.865000", "154614.812000", "154614.815000", "154614.817000", "154614.820000", "154614.823000", "154614.825000", "154614.828000", "154614.831000", "154614.833000", "154614.836000", "154614.838000", "154614.841000", "154614.843000", "154614.846000", "154614.848000", "154614.851000", "154614.854000", "154614.856000", "154614.859000", "154614.861000", "154614.864000", "154614.866000", "154614.869000", "154614.871000", "154614.874000", "154614.876000", "154614.879000", "154654.791000", "154654.794000", "154654.796000", "154654.799000", "154654.801000", "154654.804000", "154654.813000", "154654.816000", "154654.819000", "154654.822000", "154654.825000", "154654.828000", "154654.830000", "154654.833000", "154654.835000", "154654.838000", "154654.841000", "154654.843000", "154654.846000", "154654.848000", "154654.851000", "154654.854000", "154654.856000", "154654.859000", "154654.861000", "154654.864000", "154654.866000", "154702.047000", "154702.050000", "154702.053000", "154702.056000", "154702.058000"],
      "InstanceCreationTime": ["154334.819000", "154334.822000", "154334.824000", "154334.827000", "154334.829000", "154334.832000", "154334.834000", "154334.837000", "154334.839000", "154334.842000", "154334.845000", "154334.847000", "154334.854000", "154334.857000", "154334.859000", "154334.862000", "154334.864000", "154334.867000", "154334.869000", "154334.872000", "154334.874000", "154334.877000", "154334.879000", "154355.301000", "154355.304000", "154355.307000", "154355.309000", "154355.312000", "154355.314000", "154355.317000", "154355.319000", "154355.322000", "154355.336000", "154355.339000", "154355.341000", "154355.344000", "154355.346000", "154355.349000", "154355.352000", "154355.354000", "154355.357000", "154355.359000", "154355.362000", "154414.758000", "154414.761000", "154414.764000", "154414.766000", "154414.769000", "154414.771000", "154414.774000", "154414.776000", "154414.779000", "154414.783000", "154414.799000", "154414.802000", "154414.804000", "154414.807000", "154414.809000", "154414.812000", "154414.814000", "154414.817000", "154414.819000", "154414.822000", "154434.786000", "154434.789000", "154434.791000", "154434.794000", "154434.796000", "154434.799000", "154434.801000", "154434.804000", "154434.806000", "154434.809000", "154434.811000", "154434.814000", "154434.816000", "154434.819000", "154434.822000", "154434.824000", "154434.827000", "154434.829000", "154434.832000", "154434.835000", "154434.837000", "154454.768000", "154454.771000", "154454.773000", "154454.776000", "154454.779000", "154454.781000", "154454.784000", "154454.786000", "154454.789000", "154454.791000", "154454.794000", "154454.796000", "154454.799000", "154454.801000", "154454.804000", "154454.806000", "154454.812000", "154454.815000", "154454.818000", "154454.820000", "154534.787000", "154534.790000", "154534.793000", "154534.795000", "154534.798000", "154534.801000", "154534.803000", "154534.806000", "154534.808000", "154534.811000", "154534.813000", "154534.816000", "154534.818000", "154534.821000", "154534.824000", "154534.826000", "154534.829000", "154534.831000", "154534.834000", "154534.847000", "154534.850000", "154534.852000", "154534.855000", "154534.857000", "154534.860000", "154534.862000", "154534.865000", "154614.812000", "154614.815000", "154614.817000", "154614.820000", "154614.823000", "154614.825000", "154614.828000", "154614.831000", "154614.833000", "154614.836000", "154614.838000", "154614.841000", "154614.843000", "154614.846000", "154614.848000", "154614.851000", "154614.854000", "154614.856000", "154614.859000", "154614.861000", "154614.864000", "154614.866000", "154614.869000", "154614.871000", "154614.874000", "154614.876000", "154614.879000", "154654.791000", "154654.794000", "154654.796000", "154654.799000", "154654.801000", "154654.804000", "154654.813000", "154654.816000", "154654.819000", "154654.822000", "154654.825000", "154654.828000", "154654.830000", "154654.833000", "154654.835000", "154654.838000", "154654.841000", "154654.843000", "154654.846000", "154654.848000", "154654.851000", "154654.854000", "154654.856000", "154654.859000", "154654.861000", "154654.864000", "154654.866000", "154702.047000", "154702.050000", "154702.053000", "154702.056000", "154702.058000"],
      "InstanceNumber": [1, 2, 3, 4, 5, 6, 7, 8, 9, 10, 11, 12, 13, 14, 15, 16, 17, 18, 19, 20, 21, 22, 23, 24, 25, 26, 27, 28, 29, 30, 31, 32, 33, 34, 35, 36, 37, 38, 39, 40, 41, 42, 43, 44, 45, 46, 47, 48, 49, 50, 51, 52, 53, 54, 55, 56, 57, 58, 59, 60, 61, 62, 63, 64, 65, 66, 67, 68, 69, 70, 71, 72, 73, 74, 75, 76, 77, 78, 79, 80, 81, 82, 83, 84, 85, 86, 87, 88, 89, 90, 91, 92, 93, 94, 95, 96, 97, 98, 99, 100, 101, 102, 103, 104, 105, 106, 107, 108, 109, 110, 111, 112, 113, 114, 115, 116, 117, 118, 119, 120, 121, 122, 123, 124, 125, 126, 127, 128, 129, 130, 131, 132, 133, 134, 135, 136, 137, 138, 139, 140, 141, 142, 143, 144, 145, 146, 147, 148, 149, 150, 151, 152, 153, 154, 155, 156, 157, 158, 159, 160, 161, 162, 163, 164, 165, 166, 167, 168, 169, 170, 171, 172, 173, 174, 175, 176, 177, 178, 179, 180, 181, 182, 183, 184, 185, 186, 187, 188, 189, 190],
      "WindowCenter": [4808.0, 4808.0, 4804.0, 4816.0, 4794.0, 4806.0, 4798.0, 4774.0, 4800.0, 4798.0, 4804.0, 4808.0, 4812.0, 4812.0, 4812.0, 4808.0, 4812.0, 4804.0, 4804.0, 4804.0, 4802.0, 4812.0, 4804.0, 4810.0, 4810.0, 4812.0, 4808.0, 4816.0, 4808.0, 4806.0, 4812.0, 4806.0, 4804.0, 4804.0, 4806.0, 4808.0, 4808.0, 4812.0, 4804.0, 4812.0, 4810.0, 4810.0, 4806.0, 4808.0, 4810.0, 4806.0, 4812.0, 4806.0, 4810.0, 4806.0, 4810.0, 4812.0, 4810.0, 4810.0, 4804.0, 4810.0, 4806.0, 4808.0, 4808.0, 4808.0, 4806.0, 4810.0, 4812.0, 4810.0, 4804.0, 4800.0, 4804.0, 4804.0, 4808.0, 4806.0, 4812.0, 4814.0, 4794.0, 4816.0, 4804.0, 4802.0, 4828.0, 4804.0, 4804.0, 4808.0, 4810.0, 4814.0, 4810.0, 4814.0, 4814.0, 4816.0, 4808.0, 4800.0, 4798.0, 4802.0, 4808.0, 4810.0, 4810.0, 4814.0, 4810.0, 4812.0, 4814.0, 4810.0, 4810.0, 4804.0, 4804.0, 4810.0, 4816.0, 4814.0, 4806.0, 4800.0, 4802.0, 4802.0, 4804.0, 4814.0, 4812.0, 4806.0, 4808.0, 4812.0, 4810.0, 4808.0, 4808.0, 4802.0, 4806.0, 4808.0, 4806.0, 4808.0, 4810.0, 4808.0, 4810.0, 4810.0, 4808.0, 4812.0, 4808.0, 4810.0, 4806.0, 4808.0, 4806.0, 4812.0, 4808.0, 4808.0, 4814.0, 4808.0, 4812.0, 4812.0, 4802.0, 4812.0, 4806.0, 4808.0, 4808.0, 4810.0, 4808.0, 4808.0, 4814.0, 4808.0, 4810.0, 4810.0, 4806.0, 4810.0, 4806.0, 4810.0, 4810.0, 4808.0, 4812.0, 4808.0, 4812.0, 4808.0, 4808.0, 4808.0, 4810.0, 4794.0, 4810.0, 4808.0, 4802.0, 4804.0, 4802.0, 4808.0, 4810.0, 4816.0, 4814.0, 4816.0, 4810.0, 4810.0, 4814.0, 4808.0, 4808.0, 4816.0, 4810.0, 4806.0, 4802.0, 4804.0, 4804.0, 4812.0, 4814.0, 4794.0],
      "WindowWidth": [18612.0, 18616.0, 18614.0, 18612.0, 18576.0, 18612.0, 18594.0, 18570.0, 18598.0, 18598.0, 18614.0, 18614.0, 18616.0, 18616.0, 18618.0, 18614.0, 18616.0, 18610.0, 18610.0, 18610.0, 18602.0, 18618.0, 18608.0, 18616.0, 18610.0, 18620.0, 18610.0, 18620.0, 18612.0, 18608.0, 18614.0, 18612.0, 18604.0, 18608.0, 18610.0, 18614.0, 18610.0, 18620.0, 18608.0, 18616.0, 18614.0, 18614.0, 18610.0, 18614.0, 18614.0, 18610.0, 18616.0, 18614.0, 18610.0, 18612.0, 18614.0, 18618.0, 18616.0, 18614.0, 18608.0, 18618.0, 18608.0, 18612.0, 18614.0, 18614.0, 18614.0, 18620.0, 18610.0, 18618.0, 18606.0, 18598.0, 18598.0, 18608.0, 18614.0, 18606.0, 18616.0, 18614.0, 18558.0, 18612.0, 18614.0, 18598.0, 18634.0, 18600.0, 18594.0, 18612.0, 18616.0, 18616.0, 18614.0, 18616.0, 18618.0, 18614.0, 18610.0, 18598.0, 18598.0, 18596.0, 18608.0, 18612.0, 18618.0, 18614.0, 18616.0, 18618.0, 18620.0, 18616.0, 18614.0, 18604.0, 18606.0, 18612.0, 18604.0, 18618.0, 18610.0, 18598.0, 18612.0, 18604.0, 18610.0, 18618.0, 18620.0, 18614.0, 18610.0, 18616.0, 18618.0, 18614.0, 18614.0, 18608.0, 18608.0, 18614.0, 18610.0, 18616.0, 18614.0, 18616.0, 18618.0, 18618.0, 18612.0, 18614.0, 18612.0, 18616.0, 18612.0, 18610.0, 18610.0, 18612.0, 18610.0, 18614.0, 18622.0, 18614.0, 18618.0, 18620.0, 18602.0, 18618.0, 18610.0, 18614.0, 18616.0, 18614.0, 18614.0, 18608.0, 18618.0, 18614.0, 18612.0, 18616.0, 18612.0, 18614.0, 18616.0, 18612.0, 18612.0, 18612.0, 18616.0, 18612.0, 18618.0, 18612.0, 18612.0, 18614.0, 18614.0, 18578.0, 18614.0, 18614.0, 18602.0, 18606.0, 18606.0, 18614.0, 18616.0, 18620.0, 18610.0, 18620.0, 18618.0, 18616.0, 18622.0, 18610.0, 18616.0, 18622.0, 18612.0, 18616.0, 18604.0, 18600.0, 18610.0, 18620.0, 18616.0, 18554.0]
    },
    "slices": {}
  }
}