{
  "AcquisitionMatrixPE": 104,
  "AcquisitionNumber": 1,
  "AcquisitionTime": "15:54:42.107500",
  "BandwidthPerPixelPhaseEncode": 17.17,
  "BaseResolution": 104,
  "BodyPartExamined": "BRAIN",
  "CoilString": "HC1-7;NC1_2",
  "ConsistencyInfo": "N4_VE11C_LATEST_20160120",
  "ConversionSoftware": "dcm2niix",
  "ConversionSoftwareVersion": "v1.0.20190902",
  "DerivedVendorReportedEchoSpacing": 0.000560011,
  "DeviceSerialNumber": "167006",
  "DwellTime": 2.1e-06,
  "EchoTime": 0.037,
  "EchoTrainLength": 104,
  "EffectiveEchoSpacing": 0.000560011,
  "FlipAngle": 52,
  "ImageComments": "Unaliased_MB4_PE3_LB",
  "ImageOrientationPatientDICOM": [0.998491, -0.0539151, 0.0104086, 0.0546007, 0.954745, -0.292371],
  "ImageType": [
    "ORIGINAL",
    "PRIMARY",
    "M",
    "MB",
    "ND",
    "MOSAIC"
],
  "ImagingFrequency": 123.259,
  "InPlanePhaseEncodingDirectionDICOM": "COL",
  "InstitutionAddress": "Chemin_Queen-Mary_4565_Montreal_District_CA_H3W_1W5",
  "InstitutionName": "IUGM",
  "InstitutionalDepartmentName": "Department",
  "MRAcquisitionType": "2D",
  "MagneticFieldStrength": 3,
  "Manufacturer": "Siemens",
  "ManufacturersModelName": "Prisma_fit",
  "Modality": "MR",
  "MultibandAccelerationFactor": 4,
  "PartialFourier": 1,
  "PatientPosition": "HFS",
  "PercentPhaseFOV": 100,
  "PhaseEncodingDirection": "j",
  "PhaseEncodingSteps": 104,
  "PhaseResolution": 1,
  "PixelBandwidth": 2290,
  "ProcedureStepDescription": "memory_things",
  "ProtocolName": "func_task-things_run-4",
  "PulseSequenceDetails": "%CustomerSeq%_cmrr_mbep2d_bold",
  "ReceiveCoilActiveElements": "HC1-7;NC1,2",
  "ReceiveCoilName": "HeadNeck_64",
  "ReconMatrixPE": 104,
  "RepetitionTime": 1.49,
  "SAR": 0.0562405,
  "ScanOptions": "FS",
  "ScanningSequence": "EP",
  "SequenceName": "epfid2d1_104",
  "SequenceVariant": "SK_SS",
  "SeriesDescription": "func_task-things_run-4",
  "SeriesNumber": 19,
  "ShimSetting": [625, -7249, -8817, 593, -12, -198, -9, -34],
  "SliceThickness": 2,
  "SliceTiming": [0, 0.7825, 0.0975, 0.88, 0.195, 0.98, 0.2925, 1.0775, 0.3925, 1.175, 0.49, 1.2725, 0.5875, 1.37, 0.685, 0, 0.7825, 0.0975, 0.88, 0.195, 0.98, 0.2925, 1.0775, 0.3925, 1.175, 0.49, 1.2725, 0.5875, 1.37, 0.685, 0, 0.7825, 0.0975, 0.88, 0.195, 0.98, 0.2925, 1.0775, 0.3925, 1.175, 0.49, 1.2725, 0.5875, 1.37, 0.685, 0, 0.7825, 0.0975, 0.88, 0.195, 0.98, 0.2925, 1.0775, 0.3925, 1.175, 0.49, 1.2725, 0.5875, 1.37, 0.685],
  "SoftwareVersions": "syngo_MR_E11",
  "SpacingBetweenSlices": 2,
  "StationName": "MRC35049",
  "TaskName": "things",
  "TotalReadoutTime": 0.0576811,
  "TxRefAmp": 270.301,
  "WipMemBlock": "0277f920-79c1-481a-99dc-31b0f95d9ddf||Sequence: R016 ve11c/master r/e634e98; Dec 19 2017 11:00:25 by eja",
  "dcmmeta_affine": [
    [-1.9969825744628906, 0.10920148342847824, -0.011651277542114258, 101.3782958984375],
    [0.1078302413225174, 1.9094901084899902, -0.584995687007904, -74.16555786132812],
    [0.020817197859287262, 0.5847412943840027, 1.91249680519104, -60.353694915771484],
    [0.0, 0.0, 0.0, 1.0]
],
  "dcmmeta_reorient_transform": [
    [0.0, -1.0, 0.0, 103.0],
    [1.0, 0.0, 0.0, 0.0],
    [0.0, 0.0, 1.0, 0.0],
    [0.0, 0.0, 0.0, 1.0]
],
  "dcmmeta_shape": [104, 104, 60, 190],
  "dcmmeta_slice_dim": 2,
  "dcmmeta_version": 0.6,
  "global": {
    "const": {
      "AcquisitionMatrix": [104, 0, 0, 104],
      "AngioFlag": "N",
      "BitsAllocated": 16,
      "BitsStored": 16,
      "BodyPartExamined": "BRAIN",
      "Columns": 832,
      "EchoNumbers": 1,
      "EchoTime": 37.0,
      "EchoTrainLength": 104,
      "FlipAngle": 52.0,
      "HighBit": 15,
      "ImageOrientationPatient": [0.99849127228091, -0.0539151206809, 0.01040859936901, 0.05460074276141, 0.9547450820638, -0.2923706332122],
      "ImagePositionPatient": [-879.27703511285, -778.31613898508, 205.14301602408],
      "ImageType": [
        "ORIGINAL",
        "PRIMARY",
        "M",
        "MB",
        "ND",
        "MOSAIC"
],
      "ImagedNucleus": "1H",
      "ImagingFrequency": 123.258904,
      "InPlanePhaseEncodingDirection": "COL",
      "MRAcquisitionType": "2D",
      "MagneticFieldStrength": 3.0,
      "Manufacturer": "SIEMENS",
      "ManufacturerModelName": "Prisma_fit",
      "Modality": "MR",
      "NumberOfAverages": 1.0,
      "NumberOfPhaseEncodingSteps": 104,
      "PercentPhaseFieldOfView": 100.0,
      "PercentSampling": 100.0,
      "PerformedProcedureStepStartTime": "145914.536000",
      "PhotometricInterpretation": "MONOCHROME2",
      "PixelBandwidth": 2290.0,
      "PixelRepresentation": 0,
      "PixelSpacing": [2.0, 2.0],
      "ProtocolName": "func_task-things_run-4",
      "RepetitionTime": 1490.0,
      "Rows": 832,
      "SAR": 0.05624050144164,
      "SamplesPerPixel": 1,
      "ScanOptions": "FS",
      "ScanningSequence": "EP",
      "SequenceName": "epfid2d1_104",
      "SequenceVariant": [
        "SK",
        "SS"
],
      "SeriesDescription": "func_task-things_run-4",
      "SeriesNumber": 19,
      "SeriesTime": "155614.704000",
      "SliceLocation": -36.6104536723,
      "SliceThickness": 2.0,
      "SmallestImagePixelValue": 0,
      "SoftwareVersions": "syngo MR E11",
      "SpacingBetweenSlices": 1.9999999470094,
      "SpecificCharacterSet": "ISO_IR 100",
      "StudyID": "1",
      "StudyTime": "145914.470000",
      "TransmitCoilName": "Body",
      "VariableFlipAngleFlag": "N",
      "WindowCenterWidthExplanation": "Algo1",
      "dBdt": 0.0},
    "slices": {}
  },
  "time": {
    "samples": {
      "AcquisitionNumber": [1, 2, 3, 4, 5, 6, 7, 8, 9, 10, 11, 12, 13, 14, 15, 16, 17, 18, 19, 20, 21, 22, 23, 24, 25, 26, 27, 28, 29, 30, 31, 32, 33, 34, 35, 36, 37, 38, 39, 40, 41, 42, 43, 44, 45, 46, 47, 48, 49, 50, 51, 52, 53, 54, 55, 56, 57, 58, 59, 60, 61, 62, 63, 64, 65, 66, 67, 68, 69, 70, 71, 72, 73, 74, 75, 76, 77, 78, 79, 80, 81, 82, 83, 84, 85, 86, 87, 88, 89, 90, 91, 92, 93, 94, 95, 96, 97, 98, 99, 100, 101, 102, 103, 104, 105, 106, 107, 108, 109, 110, 111, 112, 113, 114, 115, 116, 117, 118, 119, 120, 121, 122, 123, 124, 125, 126, 127, 128, 129, 130, 131, 132, 133, 134, 135, 136, 137, 138, 139, 140, 141, 142, 143, 144, 145, 146, 147, 148, 149, 150, 151, 152, 153, 154, 155, 156, 157, 158, 159, 160, 161, 162, 163, 164, 165, 166, 167, 168, 169, 170, 171, 172, 173, 174, 175, 176, 177, 178, 179, 180, 181, 182, 183, 184, 185, 186, 187, 188, 189, 190],
      "AcquisitionTime": ["155442.107500", "155443.597500", "155445.087500", "155446.577500", "155448.067500", "155449.557500", "155451.047500", "155452.537500", "155454.027500", "155455.517500", "155457.007500", "155458.497500", "155459.987500", "155501.477500", "155502.967500", "155504.457500", "155505.947500", "155507.437500", "155508.927500", "155510.417500", "155511.907500", "155513.397500", "155514.887500", "155516.377500", "155517.867500", "155519.357500", "155520.847500", "155522.337500", "155523.827500", "155525.317500", "155526.807500", "155528.297500", "155529.787500", "155531.277500", "155532.767500", "155534.257500", "155535.747500", "155537.237500", "155538.727500", "155540.217500", "155541.707500", "155543.197500", "155544.687500", "155546.177500", "155547.667500", "155549.157500", "155550.647500", "155552.137500", "155553.627500", "155555.117500", "155556.607500", "155558.097500", "155559.587500", "155601.077500", "155602.567500", "155604.057500", "155605.547500", "155607.037500", "155608.527500", "155610.017500", "155611.507500", "155612.997500", "155614.487500", "155615.977500", "155617.467500", "155618.957500", "155620.447500", "155621.937500", "155623.427500", "155624.917500", "155626.407500", "155627.897500", "155629.387500", "155630.877500", "155632.367500", "155633.857500", "155635.347500", "155636.837500", "155638.327500", "155639.817500", "155641.307500", "155642.797500", "155644.287500", "155645.777500", "155647.267500", "155648.757500", "155650.247500", "155651.737500", "155653.227500", "155654.717500", "155656.207500", "155657.697500", "155659.187500", "155700.677500", "155702.167500", "155703.657500", "155705.147500", "155706.637500", "155708.127500", "155709.617500", "155711.107500", "155712.597500", "155714.087500", "155715.577500", "155717.067500", "155718.557500", "155720.047500", "155721.537500", "155723.027500", "155724.517500", "155726.007500", "155727.497500", "155728.987500", "155730.477500", "155731.967500", "155733.457500", "155734.947500", "155736.437500", "155737.927500", "155739.417500", "155740.907500", "155742.397500", "155743.887500", "155745.377500", "155746.867500", "155748.357500", "155749.847500", "155751.337500", "155752.827500", "155754.317500", "155755.807500", "155757.297500", "155758.787500", "155800.277500", "155801.767500", "155803.257500", "155804.747500", "155806.237500", "155807.727500", "155809.217500", "155810.707500", "155812.197500", "155813.687500", "155815.177500", "155816.667500", "155818.157500", "155819.647500", "155821.137500", "155822.627500", "155824.117500", "155825.607500", "155827.097500", "155828.587500", "155830.077500", "155831.567500", "155833.057500", "155834.547500", "155836.037500", "155837.527500", "155839.017500", "155840.507500", "155841.997500", "155843.487500", "155844.977500", "155846.467500", "155847.957500", "155849.447500", "155850.937500", "155852.427500", "155853.917500", "155855.407500", "155856.897500", "155858.387500", "155859.877500", "155901.367500", "155902.857500", "155904.347500", "155905.837500", "155907.327500", "155908.817500", "155910.307500", "155911.797500", "155913.287500", "155914.777500", "155916.267500", "155917.757500", "155919.247500", "155920.737500", "155922.227500", "155923.717500"],
      "ContentTime": ["155614.707000", "155614.711000", "155614.715000", "155614.718000", "155614.722000", "155614.725000", "155614.728000", "155614.732000", "155614.735000", "155614.738000", "155614.742000", "155614.745000", "155614.749000", "155614.752000", "155614.755000", "155614.759000", "155614.762000", "155614.765000", "155614.769000", "155614.772000", "155614.776000", "155614.779000", "155614.783000", "155614.786000", "155614.790000", "155614.793000", "155614.796000", "155614.800000", "155614.811000", "155614.815000", "155614.818000", "155614.822000", "155614.825000", "155614.829000", "155614.832000", "155614.835000", "155614.839000", "155614.842000", "155634.662000", "155634.666000", "155634.669000", "155634.673000", "155634.676000", "155634.680000", "155634.683000", "155634.686000", "155634.703000", "155634.707000", "155634.710000", "155634.714000", "155634.717000", "155634.720000", "155634.724000", "155634.727000", "155634.731000", "155634.734000", "155634.737000", "155634.741000", "155654.662000", "155654.666000", "155654.669000", "155654.673000", "155654.686000", "155654.689000", "155654.693000", "155654.696000", "155654.700000", "155654.703000", "155654.707000", "155654.710000", "155654.713000", "155654.717000", "155654.720000", "155654.724000", "155654.727000", "155654.730000", "155654.734000", "155654.737000", "155714.661000", "155714.665000", "155714.668000", "155714.672000", "155714.675000", "155714.678000", "155714.682000", "155714.685000", "155714.689000", "155714.692000", "155714.696000", "155714.699000", "155714.702000", "155714.706000", "155714.709000", "155714.713000", "155714.716000", "155714.719000", "155714.723000", "155714.726000", "155714.730000", "155754.661000", "155754.665000", "155754.668000", "155754.672000", "155754.675000", "155754.678000", "155754.682000", "155754.685000", "155754.689000", "155754.692000", "155754.696000", "155754.699000", "155754.702000", "155754.706000", "155754.709000", "155754.713000", "155754.716000", "155754.720000", "155754.723000", "155754.727000", "155754.730000", "155754.733000", "155754.737000", "155754.740000", "155754.744000", "155754.747000", "155754.750000", "155754.754000", "155754.757000", "155834.661000", "155834.665000", "155834.668000", "155834.672000", "155834.675000", "155834.679000", "155834.682000", "155834.685000", "155834.689000", "155834.692000", "155834.695000", "155834.699000", "155834.702000", "155834.706000", "155834.709000", "155834.712000", "155834.716000", "155834.719000", "155834.723000", "155834.726000", "155834.737000", "155834.741000", "155834.744000", "155834.747000", "155834.751000", "155834.754000", "155834.758000", "155914.661000", "155914.665000", "155914.677000", "155914.680000", "155914.684000", "155914.687000", "155914.691000", "155914.694000", "155914.697000", "155914.701000", "155914.704000", "155914.708000", "155914.711000", "155914.715000", "155914.718000", "155914.721000", "155914.725000", "155914.728000", "155914.732000", "155914.735000", "155914.738000", "155914.742000", "155914.745000", "155914.748000", "155914.752000", "155914.755000", "155914.759000", "155926.159000", "155926.187000", "155926.190000", "155926.194000", "155926.197000", "155926.201000", "155926.204000", "155926.208000"],
      "InstanceCreationTime": ["155614.707000", "155614.711000", "155614.715000", "155614.718000", "155614.722000", "155614.725000", "155614.728000", "155614.732000", "155614.735000", "155614.738000", "155614.742000", "155614.745000", "155614.749000", "155614.752000", "155614.755000", "155614.759000", "155614.762000", "155614.765000", "155614.769000", "155614.772000", "155614.776000", "155614.779000", "155614.783000", "155614.786000", "155614.790000", "155614.793000", "155614.796000", "155614.800000", "155614.811000", "155614.815000", "155614.818000", "155614.822000", "155614.825000", "155614.829000", "155614.832000", "155614.835000", "155614.839000", "155614.842000", "155634.662000", "155634.666000", "155634.669000", "155634.673000", "155634.676000", "155634.680000", "155634.683000", "155634.686000", "155634.703000", "155634.707000", "155634.710000", "155634.714000", "155634.717000", "155634.720000", "155634.724000", "155634.727000", "155634.731000", "155634.734000", "155634.737000", "155634.741000", "155654.662000", "155654.666000", "155654.669000", "155654.673000", "155654.686000", "155654.689000", "155654.693000", "155654.696000", "155654.700000", "155654.703000", "155654.707000", "155654.710000", "155654.713000", "155654.717000", "155654.720000", "155654.724000", "155654.727000", "155654.730000", "155654.734000", "155654.737000", "155714.661000", "155714.665000", "155714.668000", "155714.672000", "155714.675000", "155714.678000", "155714.682000", "155714.685000", "155714.689000", "155714.692000", "155714.696000", "155714.699000", "155714.702000", "155714.706000", "155714.709000", "155714.713000", "155714.716000", "155714.719000", "155714.723000", "155714.726000", "155714.730000", "155754.661000", "155754.665000", "155754.668000", "155754.672000", "155754.675000", "155754.678000", "155754.682000", "155754.685000", "155754.689000", "155754.692000", "155754.696000", "155754.699000", "155754.702000", "155754.706000", "155754.709000", "155754.713000", "155754.716000", "155754.720000", "155754.723000", "155754.727000", "155754.730000", "155754.733000", "155754.737000", "155754.740000", "155754.744000", "155754.747000", "155754.750000", "155754.754000", "155754.757000", "155834.661000", "155834.665000", "155834.668000", "155834.672000", "155834.675000", "155834.679000", "155834.682000", "155834.685000", "155834.689000", "155834.692000", "155834.695000", "155834.699000", "155834.702000", "155834.706000", "155834.709000", "155834.712000", "155834.716000", "155834.719000", "155834.723000", "155834.726000", "155834.737000", "155834.741000", "155834.744000", "155834.747000", "155834.751000", "155834.754000", "155834.758000", "155914.661000", "155914.665000", "155914.677000", "155914.680000", "155914.684000", "155914.687000", "155914.691000", "155914.694000", "155914.697000", "155914.701000", "155914.704000", "155914.708000", "155914.711000", "155914.715000", "155914.718000", "155914.721000", "155914.725000", "155914.728000", "155914.732000", "155914.735000", "155914.738000", "155914.742000", "155914.745000", "155914.748000", "155914.752000", "155914.755000", "155914.759000", "155926.159000", "155926.187000", "155926.190000", "155926.194000", "155926.197000", "155926.201000", "155926.204000", "155926.208000"],
      "InstanceNumber": [1, 2, 3, 4, 5, 6, 7, 8, 9, 10, 11, 12, 13, 14, 15, 16, 17, 18, 19, 20, 21, 22, 23, 24, 25, 26, 27, 28, 29, 30, 31, 32, 33, 34, 35, 36, 37, 38, 39, 40, 41, 42, 43, 44, 45, 46, 47, 48, 49, 50, 51, 52, 53, 54, 55, 56, 57, 58, 59, 60, 61, 62, 63, 64, 65, 66, 67, 68, 69, 70, 71, 72, 73, 74, 75, 76, 77, 78, 79, 80, 81, 82, 83, 84, 85, 86, 87, 88, 89, 90, 91, 92, 93, 94, 95, 96, 97, 98, 99, 100, 101, 102, 103, 104, 105, 106, 107, 108, 109, 110, 111, 112, 113, 114, 115, 116, 117, 118, 119, 120, 121, 122, 123, 124, 125, 126, 127, 128, 129, 130, 131, 132, 133, 134, 135, 136, 137, 138, 139, 140, 141, 142, 143, 144, 145, 146, 147, 148, 149, 150, 151, 152, 153, 154, 155, 156, 157, 158, 159, 160, 161, 162, 163, 164, 165, 166, 167, 168, 169, 170, 171, 172, 173, 174, 175, 176, 177, 178, 179, 180, 181, 182, 183, 184, 185, 186, 187, 188, 189, 190],
      "LargestImagePixelValue": [43990, 42243, 41775, 39478, 38807, 40195, 40174, 40080, 39696, 39115, 39008, 39273, 39889, 39895, 38798, 38825, 39384, 40253, 38935, 38674, 39042, 38191, 38908, 39028, 39934, 38833, 38081, 38724, 38010, 38065, 39320, 38548, 38507, 38359, 38400, 38215, 38948, 38230, 38140, 39072, 38511, 38586, 38374, 38701, 38565, 38571, 38529, 37958, 38326, 38331, 39358, 39134, 38085, 38007, 38517, 38563, 38292, 39083, 39611, 39507, 37973, 38416, 38628, 38376, 38774, 38976, 40035, 40766, 40554, 39235, 39796, 38454, 38494, 38593, 38643, 38753, 39551, 39633, 40033, 39522, 39875, 38946, 39291, 38260, 39094, 39057, 38964, 38750, 39473, 41009, 40802, 39678, 40987, 41661, 41592, 40720, 39928, 39336, 39751, 41906, 42123, 41240, 40993, 39919, 38576, 38196, 38794, 38819, 39375, 39716, 40095, 42000, 41316, 41271, 40758, 39147, 37984, 38484, 39180, 40487, 40615, 40966, 41156, 40636, 40135, 39819, 39108, 38425, 38385, 38683, 40258, 40412, 40433, 40066, 39419, 40640, 41362, 41057, 40503, 40702, 38893, 39088, 40129, 40348, 40005, 39730, 39332, 40547, 41042, 40540, 39379, 39221, 37900, 38739, 39818, 40794, 40841, 40497, 41324, 40720, 39743, 39464, 40677, 40058, 39903, 39586, 39687, 38541, 38502, 38269, 38953, 40440, 41029, 40698, 38685, 39273, 38500, 38388, 39180, 38916, 39769, 40290, 38766, 40500, 41935, 41634, 41940, 44048, 39451, 38434],
      "WindowCenter": [10288.0, 10231.0, 10201.0, 10148.0, 10120.0, 10127.0, 10120.0, 10111.0, 10119.0, 10131.0, 10148.0, 10169.0, 10203.0, 10231.0, 10216.0, 10182.0, 10176.0, 10187.0, 10179.0, 10178.0, 10194.0, 10201.0, 10204.0, 10202.0, 10236.0, 10201.0, 10167.0, 10147.0, 10133.0, 10157.0, 10169.0, 10157.0, 10149.0, 10149.0, 10146.0, 10163.0, 10187.0, 10184.0, 10174.0, 10169.0, 10154.0, 10184.0, 10191.0, 10189.0, 10179.0, 10158.0, 10155.0, 10164.0, 10172.0, 10167.0, 10176.0, 10185.0, 10162.0, 10152.0, 10147.0, 10168.0, 10180.0, 10194.0, 10168.0, 10128.0, 10091.0, 10086.0, 10106.0, 10112.0, 10119.0, 10129.0, 10172.0, 10165.0, 10137.0, 10102.0, 10110.0, 10120.0, 10139.0, 10146.0, 10137.0, 10136.0, 10171.0, 10188.0, 10188.0, 10171.0, 10184.0, 10176.0, 10164.0, 10144.0, 10158.0, 10160.0, 10155.0, 10132.0, 10138.0, 10170.0, 10175.0, 10137.0, 10121.0, 10155.0, 10173.0, 10111.0, 10092.0, 10067.0, 10095.0, 10130.0, 10114.0, 10092.0, 10091.0, 10099.0, 10107.0, 10113.0, 10098.0, 10090.0, 10093.0, 10116.0, 10144.0, 10176.0, 10165.0, 10134.0, 10122.0, 10107.0, 10121.0, 10123.0, 10114.0, 10149.0, 10180.0, 10179.0, 10178.0, 10148.0, 10132.0, 10140.0, 10114.0, 10072.0, 10055.0, 10050.0, 10094.0, 10114.0, 10119.0, 10117.0, 10127.0, 10183.0, 10207.0, 10178.0, 10124.0, 10097.0, 10076.0, 10091.0, 10121.0, 10122.0, 10092.0, 10075.0, 10068.0, 10115.0, 10140.0, 10129.0, 10111.0, 10111.0, 10096.0, 10105.0, 10123.0, 10159.0, 10153.0, 10139.0, 10144.0, 10115.0, 10077.0, 10067.0, 10107.0, 10143.0, 10169.0, 10165.0, 10161.0, 10153.0, 10153.0, 10130.0, 10117.0, 10145.0, 10174.0, 10156.0, 10114.0, 10120.0, 10133.0, 10127.0, 10104.0, 10097.0, 10123.0, 10154.0, 10129.0, 10150.0, 10153.0, 10120.0, 10160.0, 10506.0, 10241.0, 10045.0],
      "WindowWidth": [22255.0, 22082.0, 21991.0, 21863.0, 21789.0, 21794.0, 21779.0, 21759.0, 21775.0, 21805.0, 21844.0, 21889.0, 21963.0, 22025.0, 21996.0, 21921.0, 21904.0, 21927.0, 21915.0, 21913.0, 21948.0, 21969.0, 21972.0, 21968.0, 22043.0, 21972.0, 21894.0, 21847.0, 21819.0, 21871.0, 21895.0, 21869.0, 21855.0, 21854.0, 21847.0, 21888.0, 21939.0, 21937.0, 21911.0, 21896.0, 21865.0, 21931.0, 21951.0, 21944.0, 21922.0, 21877.0, 21869.0, 21891.0, 21908.0, 21899.0, 21915.0, 21932.0, 21888.0, 21863.0, 21851.0, 21897.0, 21926.0, 21956.0, 21894.0, 21803.0, 21728.0, 21712.0, 21753.0, 21770.0, 21785.0, 21801.0, 21903.0, 21889.0, 21822.0, 21751.0, 21759.0, 21789.0, 21831.0, 21845.0, 21825.0, 21826.0, 21900.0, 21941.0, 21937.0, 21901.0, 21929.0, 21912.0, 21881.0, 21840.0, 21870.0, 21879.0, 21868.0, 21812.0, 21829.0, 21886.0, 21899.0, 21819.0, 21780.0, 21863.0, 21904.0, 21754.0, 21704.0, 21652.0, 21714.0, 21786.0, 21753.0, 21704.0, 21698.0, 21720.0, 21742.0, 21758.0, 21726.0, 21704.0, 21710.0, 21761.0, 21824.0, 21891.0, 21870.0, 21798.0, 21767.0, 21742.0, 21776.0, 21781.0, 21756.0, 21841.0, 21916.0, 21908.0, 21897.0, 21831.0, 21790.0, 21806.0, 21753.0, 21665.0, 21623.0, 21614.0, 21704.0, 21751.0, 21767.0, 21761.0, 21788.0, 21908.0, 21963.0, 21895.0, 21776.0, 21711.0, 21669.0, 21705.0, 21768.0, 21771.0, 21706.0, 21668.0, 21657.0, 21756.0, 21814.0, 21791.0, 21753.0, 21752.0, 21724.0, 21739.0, 21774.0, 21848.0, 21839.0, 21808.0, 21817.0, 21754.0, 21672.0, 21648.0, 21732.0, 21822.0, 21878.0, 21873.0, 21867.0, 21858.0, 21856.0, 21806.0, 21769.0, 21826.0, 21889.0, 21850.0, 21763.0, 21772.0, 21803.0, 21793.0, 21738.0, 21721.0, 21776.0, 21844.0, 21796.0, 21838.0, 21843.0, 21776.0, 21876.0, 22725.0, 22091.0, 21590.0]
    },
    "slices": {}
  }
}