{
  "AcquisitionMatrixPE": 104,
  "AcquisitionNumber": 1,
  "AcquisitionTime": "16:00:58.600000",
  "BandwidthPerPixelPhaseEncode": 17.17,
  "BaseResolution": 104,
  "BodyPartExamined": "BRAIN",
  "CoilString": "HC1-7;NC1_2",
  "ConsistencyInfo": "N4_VE11C_LATEST_20160120",
  "ConversionSoftware": "dcm2niix",
  "ConversionSoftwareVersion": "v1.0.20190902",
  "DerivedVendorReportedEchoSpacing": 0.000560011,
  "DeviceSerialNumber": "167006",
  "DwellTime": 2.1e-06,
  "EchoTime": 0.037,
  "EchoTrainLength": 104,
  "EffectiveEchoSpacing": 0.000560011,
  "FlipAngle": 52,
  "ImageComments": "Unaliased_MB4_PE3_LB",
  "ImageOrientationPatientDICOM": [0.998491, -0.0539151, 0.0104086, 0.0546007, 0.954745, -0.292371],
  "ImageType": [
    "ORIGINAL",
    "PRIMARY",
    "P",
    "MB",
    "ND",
    "MOSAIC"
],
  "ImagingFrequency": 123.259,
  "InPlanePhaseEncodingDirectionDICOM": "COL",
  "InstitutionAddress": "Chemin_Queen-Mary_4565_Montreal_District_CA_H3W_1W5",
  "InstitutionName": "IUGM",
  "InstitutionalDepartmentName": "Department",
  "MRAcquisitionType": "2D",
  "MagneticFieldStrength": 3,
  "Manufacturer": "Siemens",
  "ManufacturersModelName": "Prisma_fit",
  "Modality": "MR",
  "MultibandAccelerationFactor": 4,
  "PartialFourier": 1,
  "PatientPosition": "HFS",
  "PercentPhaseFOV": 100,
  "PhaseEncodingDirection": "j",
  "PhaseEncodingSteps": 104,
  "PhaseResolution": 1,
  "PixelBandwidth": 2290,
  "ProcedureStepDescription": "memory_things",
  "ProtocolName": "func_task-things_run-5",
  "PulseSequenceDetails": "%CustomerSeq%_cmrr_mbep2d_bold",
  "ReceiveCoilActiveElements": "HC1-7;NC1,2",
  "ReceiveCoilName": "HeadNeck_64",
  "ReconMatrixPE": 104,
  "RepetitionTime": 1.49,
  "SAR": 0.0562405,
  "ScanOptions": "FS",
  "ScanningSequence": "EP",
  "SequenceName": "epfid2d1_104",
  "SequenceVariant": "SK_SS",
  "SeriesDescription": "func_task-things_run-5",
  "SeriesNumber": 23,
  "ShimSetting": [625, -7249, -8817, 593, -12, -198, -9, -34],
  "SliceThickness": 2,
  "SliceTiming": [0, 0.785, 0.1, 0.8825, 0.1975, 0.98, 0.295, 1.08, 0.3925, 1.1775, 0.49, 1.275, 0.59, 1.3725, 0.6875, 0, 0.785, 0.1, 0.8825, 0.1975, 0.98, 0.295, 1.08, 0.3925, 1.1775, 0.49, 1.275, 0.59, 1.3725, 0.6875, 0, 0.785, 0.1, 0.8825, 0.1975, 0.98, 0.295, 1.08, 0.3925, 1.1775, 0.49, 1.275, 0.59, 1.3725, 0.6875, 0, 0.785, 0.1, 0.8825, 0.1975, 0.98, 0.295, 1.08, 0.3925, 1.1775, 0.49, 1.275, 0.59, 1.3725, 0.6875],
  "SoftwareVersions": "syngo_MR_E11",
  "SpacingBetweenSlices": 2,
  "StationName": "MRC35049",
  "TaskName": "things",
  "TotalReadoutTime": 0.0576811,
  "TxRefAmp": 270.301,
  "WipMemBlock": "25517b4c-249d-403c-99d5-cdab8bfbc300||Sequence: R016 ve11c/master r/e634e98; Dec 19 2017 11:00:25 by eja",
  "dcmmeta_affine": [
    [-1.9969825744628906, 0.10920148342847824, -0.011651277542114258, 101.3782958984375],
    [0.1078302413225174, 1.9094901084899902, -0.584995687007904, -74.16555786132812],
    [0.020817197859287262, 0.5847412943840027, 1.91249680519104, -60.353694915771484],
    [0.0, 0.0, 0.0, 1.0]
],
  "dcmmeta_reorient_transform": [
    [0.0, -1.0, 0.0, 103.0],
    [1.0, 0.0, 0.0, 0.0],
    [0.0, 0.0, 1.0, 0.0],
    [0.0, 0.0, 0.0, 1.0]
],
  "dcmmeta_shape": [104, 104, 60, 190],
  "dcmmeta_slice_dim": 2,
  "dcmmeta_version": 0.6,
  "global": {
    "const": {
      "AcquisitionMatrix": [104, 0, 0, 104],
      "AngioFlag": "N",
      "BitsAllocated": 16,
      "BitsStored": 16,
      "BodyPartExamined": "BRAIN",
      "Columns": 832,
      "EchoNumbers": 1,
      "EchoTime": 37.0,
      "EchoTrainLength": 104,
      "FlipAngle": 52.0,
      "HighBit": 15,
      "ImageOrientationPatient": [0.99849127228091, -0.0539151206809, 0.01040859936901, 0.05460074276141, 0.9547450820638, -0.2923706332122],
      "ImagePositionPatient": [-879.27703511285, -778.31613898508, 205.14301602408],
      "ImageType": [
        "ORIGINAL",
        "PRIMARY",
        "P",
        "MB",
        "ND",
        "MOSAIC"
],
      "ImagedNucleus": "1H",
      "ImagingFrequency": 123.258905,
      "InPlanePhaseEncodingDirection": "COL",
      "LargestImagePixelValue": 4095,
      "MRAcquisitionType": "2D",
      "MagneticFieldStrength": 3.0,
      "Manufacturer": "SIEMENS",
      "ManufacturerModelName": "Prisma_fit",
      "Modality": "MR",
      "NumberOfAverages": 1.0,
      "NumberOfPhaseEncodingSteps": 104,
      "PercentPhaseFieldOfView": 100.0,
      "PercentSampling": 100.0,
      "PerformedProcedureStepStartTime": "145914.536000",
      "PhotometricInterpretation": "MONOCHROME2",
      "PixelBandwidth": 2290.0,
      "PixelRepresentation": 0,
      "PixelSpacing": [2.0, 2.0],
      "ProtocolName": "func_task-things_run-5",
      "RepetitionTime": 1490.0,
      "RescaleIntercept": -4096.0,
      "RescaleSlope": 2.0,
      "RescaleType": "US",
      "Rows": 832,
      "SAR": 0.05624050144164,
      "SamplesPerPixel": 1,
      "ScanOptions": "FS",
      "ScanningSequence": "EP",
      "SequenceName": "epfid2d1_104",
      "SequenceVariant": [
        "SK",
        "SS"
],
      "SeriesDescription": "func_task-things_run-5",
      "SeriesNumber": 23,
      "SeriesTime": "160154.729000",
      "SliceLocation": -36.6104536723,
      "SliceThickness": 2.0,
      "SmallestImagePixelValue": 0,
      "SoftwareVersions": "syngo MR E11",
      "SpacingBetweenSlices": 1.9999999470094,
      "SpecificCharacterSet": "ISO_IR 100",
      "StudyID": "1",
      "StudyTime": "145914.470000",
      "TransmitCoilName": "Body",
      "VariableFlipAngleFlag": "N",
      "WindowCenterWidthExplanation": "Algo1",
      "dBdt": 0.0},
    "slices": {}
  },
  "time": {
    "samples": {
      "AcquisitionNumber": [1, 2, 3, 4, 5, 6, 7, 8, 9, 10, 11, 12, 13, 14, 15, 16, 17, 18, 19, 20, 21, 22, 23, 24, 25, 26, 27, 28, 29, 30, 31, 32, 33, 34, 35, 36, 37, 38, 39, 40, 41, 42, 43, 44, 45, 46, 47, 48, 49, 50, 51, 52, 53, 54, 55, 56, 57, 58, 59, 60, 61, 62, 63, 64, 65, 66, 67, 68, 69, 70, 71, 72, 73, 74, 75, 76, 77, 78, 79, 80, 81, 82, 83, 84, 85, 86, 87, 88, 89, 90, 91, 92, 93, 94, 95, 96, 97, 98, 99, 100, 101, 102, 103, 104, 105, 106, 107, 108, 109, 110, 111, 112, 113, 114, 115, 116, 117, 118, 119, 120, 121, 122, 123, 124, 125, 126, 127, 128, 129, 130, 131, 132, 133, 134, 135, 136, 137, 138, 139, 140, 141, 142, 143, 144, 145, 146, 147, 148, 149, 150, 151, 152, 153, 154, 155, 156, 157, 158, 159, 160, 161, 162, 163, 164, 165, 166, 167, 168, 169, 170, 171, 172, 173, 174, 175, 176, 177, 178, 179, 180, 181, 182, 183, 184, 185, 186, 187, 188, 189, 190],
      "AcquisitionTime": ["160058.600000", "160100.090000", "160101.580000", "160103.070000", "160104.560000", "160106.050000", "160107.540000", "160109.030000", "160110.520000", "160112.010000", "160113.500000", "160114.990000", "160116.480000", "160117.970000", "160119.460000", "160120.950000", "160122.440000", "160123.930000", "160125.420000", "160126.910000", "160128.400000", "160129.890000", "160131.380000", "160132.870000", "160134.360000", "160135.850000", "160137.340000", "160138.830000", "160140.320000", "160141.810000", "160143.300000", "160144.790000", "160146.280000", "160147.770000", "160149.260000", "160150.750000", "160152.240000", "160153.730000", "160155.220000", "160156.710000", "160158.200000", "160159.690000", "160201.180000", "160202.670000", "160204.160000", "160205.650000", "160207.140000", "160208.630000", "160210.120000", "160211.610000", "160213.100000", "160214.590000", "160216.080000", "160217.570000", "160219.060000", "160220.550000", "160222.040000", "160223.530000", "160225.020000", "160226.510000", "160228.000000", "160229.490000", "160230.980000", "160232.470000", "160233.960000", "160235.450000", "160236.940000", "160238.430000", "160239.920000", "160241.410000", "160242.900000", "160244.390000", "160245.880000", "160247.370000", "160248.860000", "160250.350000", "160251.840000", "160253.330000", "160254.820000", "160256.310000", "160257.800000", "160259.290000", "160300.780000", "160302.270000", "160303.760000", "160305.250000", "160306.740000", "160308.230000", "160309.720000", "160311.210000", "160312.700000", "160314.190000", "160315.680000", "160317.170000", "160318.660000", "160320.150000", "160321.640000", "160323.130000", "160324.620000", "160326.110000", "160327.600000", "160329.090000", "160330.580000", "160332.070000", "160333.560000", "160335.050000", "160336.540000", "160338.030000", "160339.520000", "160341.010000", "160342.500000", "160343.990000", "160345.480000", "160346.970000", "160348.460000", "160349.950000", "160351.440000", "160352.930000", "160354.420000", "160355.910000", "160357.400000", "160358.890000", "160400.380000", "160401.870000", "160403.360000", "160404.850000", "160406.340000", "160407.830000", "160409.320000", "160410.810000", "160412.300000", "160413.790000", "160415.280000", "160416.770000", "160418.260000", "160419.750000", "160421.240000", "160422.730000", "160424.220000", "160425.710000", "160427.200000", "160428.690000", "160430.180000", "160431.670000", "160433.160000", "160434.650000", "160436.140000", "160437.630000", "160439.120000", "160440.610000", "160442.100000", "160443.590000", "160445.080000", "160446.570000", "160448.060000", "160449.550000", "160451.040000", "160452.530000", "160454.020000", "160455.510000", "160457.000000", "160458.490000", "160459.980000", "160501.470000", "160502.960000", "160504.450000", "160505.940000", "160507.430000", "160508.920000", "160510.410000", "160511.900000", "160513.390000", "160514.880000", "160516.370000", "160517.860000", "160519.350000", "160520.840000", "160522.330000", "160523.820000", "160525.310000", "160526.800000", "160528.290000", "160529.780000", "160531.270000", "160532.760000", "160534.250000", "160535.740000", "160537.230000", "160538.720000", "160540.210000"],
      "ContentTime": ["160154.732000", "160214.773000", "160214.776000", "160214.778000", "160214.781000", "160214.783000", "160214.786000", "160214.788000", "160214.791000", "160214.793000", "160214.796000", "160214.798000", "160214.801000", "160214.803000", "160214.806000", "160214.808000", "160214.811000", "160214.813000", "160214.816000", "160214.818000", "160214.821000", "160214.823000", "160234.766000", "160234.768000", "160234.771000", "160234.774000", "160234.776000", "160234.779000", "160234.781000", "160234.784000", "160234.786000", "160234.789000", "160234.791000", "160234.794000", "160234.796000", "160234.799000", "160234.802000", "160234.804000", "160234.807000", "160234.809000", "160234.812000", "160234.814000", "160254.765000", "160254.767000", "160254.770000", "160254.772000", "160254.775000", "160254.777000", "160254.780000", "160254.782000", "160254.785000", "160254.788000", "160254.790000", "160254.793000", "160254.795000", "160254.798000", "160254.800000", "160254.803000", "160254.805000", "160254.808000", "160254.810000", "160254.813000", "160314.758000", "160314.760000", "160314.763000", "160314.765000", "160314.768000", "160314.771000", "160314.773000", "160314.776000", "160314.778000", "160314.781000", "160314.783000", "160314.786000", "160314.788000", "160314.791000", "160314.793000", "160314.796000", "160314.798000", "160314.801000", "160314.803000", "160314.806000", "160334.758000", "160334.761000", "160334.763000", "160334.766000", "160334.768000", "160334.771000", "160334.773000", "160334.776000", "160334.778000", "160334.781000", "160334.783000", "160334.786000", "160334.788000", "160334.791000", "160334.793000", "160334.796000", "160334.798000", "160334.801000", "160334.804000", "160334.806000", "160414.817000", "160414.820000", "160414.823000", "160414.825000", "160414.828000", "160414.830000", "160414.833000", "160414.835000", "160414.838000", "160414.840000", "160414.843000", "160414.845000", "160414.848000", "160414.850000", "160414.853000", "160414.855000", "160414.858000", "160414.861000", "160414.863000", "160414.866000", "160414.868000", "160414.871000", "160414.873000", "160414.876000", "160414.878000", "160414.881000", "160414.883000", "160414.886000", "160414.889000", "160454.824000", "160454.827000", "160454.830000", "160454.832000", "160454.835000", "160454.837000", "160454.840000", "160454.842000", "160454.845000", "160454.848000", "160454.850000", "160454.853000", "160454.856000", "160454.858000", "160454.861000", "160454.863000", "160454.866000", "160454.869000", "160454.871000", "160454.874000", "160454.876000", "160454.879000", "160454.881000", "160454.884000", "160454.886000", "160454.889000", "160454.892000", "160534.792000", "160534.794000", "160534.797000", "160534.800000", "160534.802000", "160534.805000", "160534.807000", "160534.810000", "160534.812000", "160534.815000", "160534.818000", "160534.820000", "160534.823000", "160534.825000", "160534.828000", "160534.830000", "160534.833000", "160534.835000", "160534.838000", "160534.840000", "160534.843000", "160534.845000", "160534.848000", "160534.850000", "160534.853000", "160534.856000", "160542.270000", "160542.273000", "160542.276000", "160542.279000", "160542.281000", "160542.284000"],
      "InstanceCreationTime": ["160154.732000", "160214.773000", "160214.776000", "160214.778000", "160214.781000", "160214.783000", "160214.786000", "160214.788000", "160214.791000", "160214.793000", "160214.796000", "160214.798000", "160214.801000", "160214.803000", "160214.806000", "160214.808000", "160214.811000", "160214.813000", "160214.816000", "160214.818000", "160214.821000", "160214.823000", "160234.766000", "160234.768000", "160234.771000", "160234.774000", "160234.776000", "160234.779000", "160234.781000", "160234.784000", "160234.786000", "160234.789000", "160234.791000", "160234.794000", "160234.796000", "160234.799000", "160234.802000", "160234.804000", "160234.807000", "160234.809000", "160234.812000", "160234.814000", "160254.765000", "160254.767000", "160254.770000", "160254.772000", "160254.775000", "160254.777000", "160254.780000", "160254.782000", "160254.785000", "160254.788000", "160254.790000", "160254.793000", "160254.795000", "160254.798000", "160254.800000", "160254.803000", "160254.805000", "160254.808000", "160254.810000", "160254.813000", "160314.758000", "160314.760000", "160314.763000", "160314.765000", "160314.768000", "160314.771000", "160314.773000", "160314.776000", "160314.778000", "160314.781000", "160314.783000", "160314.786000", "160314.788000", "160314.791000", "160314.793000", "160314.796000", "160314.798000", "160314.801000", "160314.803000", "160314.806000", "160334.758000", "160334.761000", "160334.763000", "160334.766000", "160334.768000", "160334.771000", "160334.773000", "160334.776000", "160334.778000", "160334.781000", "160334.783000", "160334.786000", "160334.788000", "160334.791000", "160334.793000", "160334.796000", "160334.798000", "160334.801000", "160334.804000", "160334.806000", "160414.817000", "160414.820000", "160414.823000", "160414.825000", "160414.828000", "160414.830000", "160414.833000", "160414.835000", "160414.838000", "160414.840000", "160414.843000", "160414.845000", "160414.848000", "160414.850000", "160414.853000", "160414.855000", "160414.858000", "160414.861000", "160414.863000", "160414.866000", "160414.868000", "160414.871000", "160414.873000", "160414.876000", "160414.878000", "160414.881000", "160414.883000", "160414.886000", "160414.889000", "160454.824000", "160454.827000", "160454.830000", "160454.832000", "160454.835000", "160454.837000", "160454.840000", "160454.842000", "160454.845000", "160454.848000", "160454.850000", "160454.853000", "160454.856000", "160454.858000", "160454.861000", "160454.863000", "160454.866000", "160454.869000", "160454.871000", "160454.874000", "160454.876000", "160454.879000", "160454.881000", "160454.884000", "160454.886000", "160454.889000", "160454.892000", "160534.792000", "160534.794000", "160534.797000", "160534.800000", "160534.802000", "160534.805000", "160534.807000", "160534.810000", "160534.812000", "160534.815000", "160534.818000", "160534.820000", "160534.823000", "160534.825000", "160534.828000", "160534.830000", "160534.833000", "160534.835000", "160534.838000", "160534.840000", "160534.843000", "160534.845000", "160534.848000", "160534.850000", "160534.853000", "160534.856000", "160542.270000", "160542.273000", "160542.276000", "160542.279000", "160542.281000", "160542.284000"],
      "InstanceNumber": [1, 2, 3, 4, 5, 6, 7, 8, 9, 10, 11, 12, 13, 14, 15, 16, 17, 18, 19, 20, 21, 22, 23, 24, 25, 26, 27, 28, 29, 30, 31, 32, 33, 34, 35, 36, 37, 38, 39, 40, 41, 42, 43, 44, 45, 46, 47, 48, 49, 50, 51, 52, 53, 54, 55, 56, 57, 58, 59, 60, 61, 62, 63, 64, 65, 66, 67, 68, 69, 70, 71, 72, 73, 74, 75, 76, 77, 78, 79, 80, 81, 82, 83, 84, 85, 86, 87, 88, 89, 90, 91, 92, 93, 94, 95, 96, 97, 98, 99, 100, 101, 102, 103, 104, 105, 106, 107, 108, 109, 110, 111, 112, 113, 114, 115, 116, 117, 118, 119, 120, 121, 122, 123, 124, 125, 126, 127, 128, 129, 130, 131, 132, 133, 134, 135, 136, 137, 138, 139, 140, 141, 142, 143, 144, 145, 146, 147, 148, 149, 150, 151, 152, 153, 154, 155, 156, 157, 158, 159, 160, 161, 162, 163, 164, 165, 166, 167, 168, 169, 170, 171, 172, 173, 174, 175, 176, 177, 178, 179, 180, 181, 182, 183, 184, 185, 186, 187, 188, 189, 190],
      "WindowCenter": [4820.0, 4814.0, 4808.0, 4812.0, 4812.0, 4814.0, 4818.0, 4818.0, 4796.0, 4792.0, 4814.0, 4816.0, 4812.0, 4814.0, 4816.0, 4814.0, 4794.0, 4794.0, 4794.0, 4794.0, 4794.0, 4794.0, 4814.0, 4790.0, 4814.0, 4814.0, 4816.0, 4814.0, 4814.0, 4792.0, 4816.0, 4816.0, 4792.0, 4818.0, 4816.0, 4818.0, 4818.0, 4798.0, 4818.0, 4818.0, 4818.0, 4820.0, 4816.0, 4816.0, 4816.0, 4818.0, 4820.0, 4816.0, 4820.0, 4794.0, 4818.0, 4818.0, 4818.0, 4814.0, 4818.0, 4818.0, 4816.0, 4790.0, 4820.0, 4816.0, 4792.0, 4796.0, 4798.0, 4814.0, 4816.0, 4816.0, 4818.0, 4818.0, 4822.0, 4814.0, 4794.0, 4796.0, 4794.0, 4822.0, 4814.0, 4816.0, 4816.0, 4818.0, 4816.0, 4818.0, 4818.0, 4814.0, 4812.0, 4820.0, 4816.0, 4816.0, 4816.0, 4812.0, 4816.0, 4816.0, 4792.0, 4790.0, 4812.0, 4816.0, 4816.0, 4814.0, 4812.0, 4794.0, 4812.0, 4794.0, 4816.0, 4792.0, 4820.0, 4790.0, 4816.0, 4814.0, 4812.0, 4814.0, 4792.0, 4794.0, 4790.0, 4792.0, 4790.0, 4814.0, 4794.0, 4794.0, 4790.0, 4794.0, 4816.0, 4812.0, 4816.0, 4814.0, 4818.0, 4826.0, 4818.0, 4792.0, 4816.0, 4818.0, 4816.0, 4814.0, 4814.0, 4792.0, 4814.0, 4796.0, 4792.0, 4816.0, 4792.0, 4792.0, 4790.0, 4796.0, 4790.0, 4814.0, 4814.0, 4814.0, 4816.0, 4790.0, 4796.0, 4822.0, 4820.0, 4796.0, 4822.0, 4816.0, 4812.0, 4816.0, 4816.0, 4822.0, 4796.0, 4820.0, 4790.0, 4816.0, 4814.0, 4794.0, 4796.0, 4818.0, 4818.0, 4818.0, 4818.0, 4812.0, 4816.0, 4790.0, 4792.0, 4816.0, 4796.0, 4788.0, 4794.0, 4796.0, 4790.0, 4792.0, 4812.0, 4794.0, 4822.0, 4818.0, 4794.0, 4818.0, 4820.0, 4820.0, 4818.0, 4816.0, 4816.0, 4796.0],
      "WindowWidth": [18592.0, 18610.0, 18610.0, 18614.0, 18614.0, 18606.0, 18586.0, 18588.0, 18560.0, 18566.0, 18600.0, 18610.0, 18614.0, 18606.0, 18614.0, 18608.0, 18570.0, 18574.0, 18558.0, 18568.0, 18560.0, 18566.0, 18604.0, 18568.0, 18610.0, 18606.0, 18614.0, 18600.0, 18608.0, 18570.0, 18606.0, 18594.0, 18570.0, 18606.0, 18592.0, 18610.0, 18594.0, 18564.0, 18602.0, 18604.0, 18596.0, 18608.0, 18608.0, 18600.0, 18606.0, 18598.0, 18598.0, 18596.0, 18578.0, 18556.0, 18608.0, 18606.0, 18614.0, 18610.0, 18604.0, 18604.0, 18598.0, 18560.0, 18588.0, 18596.0, 18560.0, 18546.0, 18556.0, 18608.0, 18610.0, 18612.0, 18610.0, 18604.0, 18582.0, 18582.0, 18556.0, 18570.0, 18560.0, 18604.0, 18602.0, 18604.0, 18606.0, 18608.0, 18602.0, 18594.0, 18580.0, 18590.0, 18606.0, 18608.0, 18612.0, 18608.0, 18610.0, 18600.0, 18604.0, 18600.0, 18566.0, 18566.0, 18592.0, 18604.0, 18602.0, 18604.0, 18606.0, 18564.0, 18602.0, 18570.0, 18604.0, 18562.0, 18604.0, 18560.0, 18602.0, 18598.0, 18608.0, 18600.0, 18574.0, 18568.0, 18568.0, 18570.0, 18562.0, 18596.0, 18558.0, 18562.0, 18570.0, 18558.0, 18598.0, 18614.0, 18616.0, 18612.0, 18600.0, 18576.0, 18578.0, 18566.0, 18610.0, 18614.0, 18614.0, 18610.0, 18608.0, 18572.0, 18604.0, 18562.0, 18568.0, 18598.0, 18558.0, 18574.0, 18574.0, 18562.0, 18578.0, 18610.0, 18608.0, 18594.0, 18596.0, 18570.0, 18566.0, 18570.0, 18570.0, 18550.0, 18600.0, 18610.0, 18608.0, 18612.0, 18610.0, 18602.0, 18558.0, 18582.0, 18554.0, 18608.0, 18606.0, 18558.0, 18550.0, 18592.0, 18608.0, 18606.0, 18616.0, 18610.0, 18608.0, 18572.0, 18572.0, 18578.0, 18550.0, 18558.0, 18564.0, 18564.0, 18572.0, 18576.0, 18608.0, 18564.0, 18566.0, 18572.0, 18550.0, 18598.0, 18614.0, 18616.0, 18616.0, 18612.0, 18592.0, 18548.0]
    },
    "slices": {}
  }
}