{
  "AcquisitionMatrixPE": 104,
  "AcquisitionNumber": 1,
  "AcquisitionTime": "16:00:58.600000",
  "BandwidthPerPixelPhaseEncode": 17.17,
  "BaseResolution": 104,
  "BodyPartExamined": "BRAIN",
  "CoilString": "HC1-7;NC1_2",
  "ConsistencyInfo": "N4_VE11C_LATEST_20160120",
  "ConversionSoftware": "dcm2niix",
  "ConversionSoftwareVersion": "v1.0.20190902",
  "DerivedVendorReportedEchoSpacing": 0.000560011,
  "DeviceSerialNumber": "167006",
  "DwellTime": 2.1e-06,
  "EchoTime": 0.037,
  "EchoTrainLength": 104,
  "EffectiveEchoSpacing": 0.000560011,
  "FlipAngle": 52,
  "ImageComments": "Unaliased_MB4_PE3_LB",
  "ImageOrientationPatientDICOM": [0.998491, -0.0539151, 0.0104086, 0.0546007, 0.954745, -0.292371],
  "ImageType": [
    "ORIGINAL",
    "PRIMARY",
    "M",
    "MB",
    "ND",
    "MOSAIC"
],
  "ImagingFrequency": 123.259,
  "InPlanePhaseEncodingDirectionDICOM": "COL",
  "InstitutionAddress": "Chemin_Queen-Mary_4565_Montreal_District_CA_H3W_1W5",
  "InstitutionName": "IUGM",
  "InstitutionalDepartmentName": "Department",
  "MRAcquisitionType": "2D",
  "MagneticFieldStrength": 3,
  "Manufacturer": "Siemens",
  "ManufacturersModelName": "Prisma_fit",
  "Modality": "MR",
  "MultibandAccelerationFactor": 4,
  "PartialFourier": 1,
  "PatientPosition": "HFS",
  "PercentPhaseFOV": 100,
  "PhaseEncodingDirection": "j",
  "PhaseEncodingSteps": 104,
  "PhaseResolution": 1,
  "PixelBandwidth": 2290,
  "ProcedureStepDescription": "memory_things",
  "ProtocolName": "func_task-things_run-5",
  "PulseSequenceDetails": "%CustomerSeq%_cmrr_mbep2d_bold",
  "ReceiveCoilActiveElements": "HC1-7;NC1,2",
  "ReceiveCoilName": "HeadNeck_64",
  "ReconMatrixPE": 104,
  "RepetitionTime": 1.49,
  "SAR": 0.0562405,
  "ScanOptions": "FS",
  "ScanningSequence": "EP",
  "SequenceName": "epfid2d1_104",
  "SequenceVariant": "SK_SS",
  "SeriesDescription": "func_task-things_run-5",
  "SeriesNumber": 22,
  "ShimSetting": [625, -7249, -8817, 593, -12, -198, -9, -34],
  "SliceThickness": 2,
  "SliceTiming": [0, 0.785, 0.1, 0.8825, 0.1975, 0.98, 0.295, 1.08, 0.3925, 1.1775, 0.49, 1.275, 0.59, 1.3725, 0.6875, 0, 0.785, 0.1, 0.8825, 0.1975, 0.98, 0.295, 1.08, 0.3925, 1.1775, 0.49, 1.275, 0.59, 1.3725, 0.6875, 0, 0.785, 0.1, 0.8825, 0.1975, 0.98, 0.295, 1.08, 0.3925, 1.1775, 0.49, 1.275, 0.59, 1.3725, 0.6875, 0, 0.785, 0.1, 0.8825, 0.1975, 0.98, 0.295, 1.08, 0.3925, 1.1775, 0.49, 1.275, 0.59, 1.3725, 0.6875],
  "SoftwareVersions": "syngo_MR_E11",
  "SpacingBetweenSlices": 2,
  "StationName": "MRC35049",
  "TaskName": "things",
  "TotalReadoutTime": 0.0576811,
  "TxRefAmp": 270.301,
  "WipMemBlock": "25517b4c-249d-403c-99d5-cdab8bfbc300||Sequence: R016 ve11c/master r/e634e98; Dec 19 2017 11:00:25 by eja",
  "dcmmeta_affine": [
    [-1.9969825744628906, 0.10920148342847824, -0.011651277542114258, 101.3782958984375],
    [0.1078302413225174, 1.9094901084899902, -0.584995687007904, -74.16555786132812],
    [0.020817197859287262, 0.5847412943840027, 1.91249680519104, -60.353694915771484],
    [0.0, 0.0, 0.0, 1.0]
],
  "dcmmeta_reorient_transform": [
    [0.0, -1.0, 0.0, 103.0],
    [1.0, 0.0, 0.0, 0.0],
    [0.0, 0.0, 1.0, 0.0],
    [0.0, 0.0, 0.0, 1.0]
],
  "dcmmeta_shape": [104, 104, 60, 190],
  "dcmmeta_slice_dim": 2,
  "dcmmeta_version": 0.6,
  "global": {
    "const": {
      "AcquisitionMatrix": [104, 0, 0, 104],
      "AngioFlag": "N",
      "BitsAllocated": 16,
      "BitsStored": 16,
      "BodyPartExamined": "BRAIN",
      "Columns": 832,
      "EchoNumbers": 1,
      "EchoTime": 37.0,
      "EchoTrainLength": 104,
      "FlipAngle": 52.0,
      "HighBit": 15,
      "ImageOrientationPatient": [0.99849127228091, -0.0539151206809, 0.01040859936901, 0.05460074276141, 0.9547450820638, -0.2923706332122],
      "ImagePositionPatient": [-879.27703511285, -778.31613898508, 205.14301602408],
      "ImageType": [
        "ORIGINAL",
        "PRIMARY",
        "M",
        "MB",
        "ND",
        "MOSAIC"
],
      "ImagedNucleus": "1H",
      "ImagingFrequency": 123.258905,
      "InPlanePhaseEncodingDirection": "COL",
      "MRAcquisitionType": "2D",
      "MagneticFieldStrength": 3.0,
      "Manufacturer": "SIEMENS",
      "ManufacturerModelName": "Prisma_fit",
      "Modality": "MR",
      "NumberOfAverages": 1.0,
      "NumberOfPhaseEncodingSteps": 104,
      "PercentPhaseFieldOfView": 100.0,
      "PercentSampling": 100.0,
      "PerformedProcedureStepStartTime": "145914.536000",
      "PhotometricInterpretation": "MONOCHROME2",
      "PixelBandwidth": 2290.0,
      "PixelRepresentation": 0,
      "PixelSpacing": [2.0, 2.0],
      "ProtocolName": "func_task-things_run-5",
      "RepetitionTime": 1490.0,
      "Rows": 832,
      "SAR": 0.05624050144164,
      "SamplesPerPixel": 1,
      "ScanOptions": "FS",
      "ScanningSequence": "EP",
      "SequenceName": "epfid2d1_104",
      "SequenceVariant": [
        "SK",
        "SS"
],
      "SeriesDescription": "func_task-things_run-5",
      "SeriesNumber": 22,
      "SeriesTime": "160154.694000",
      "SliceLocation": -36.6104536723,
      "SliceThickness": 2.0,
      "SmallestImagePixelValue": 0,
      "SoftwareVersions": "syngo MR E11",
      "SpacingBetweenSlices": 1.9999999470094,
      "SpecificCharacterSet": "ISO_IR 100",
      "StudyID": "1",
      "StudyTime": "145914.470000",
      "TransmitCoilName": "Body",
      "VariableFlipAngleFlag": "N",
      "WindowCenterWidthExplanation": "Algo1",
      "dBdt": 0.0},
    "slices": {}
  },
  "time": {
    "samples": {
      "AcquisitionNumber": [1, 2, 3, 4, 5, 6, 7, 8, 9, 10, 11, 12, 13, 14, 15, 16, 17, 18, 19, 20, 21, 22, 23, 24, 25, 26, 27, 28, 29, 30, 31, 32, 33, 34, 35, 36, 37, 38, 39, 40, 41, 42, 43, 44, 45, 46, 47, 48, 49, 50, 51, 52, 53, 54, 55, 56, 57, 58, 59, 60, 61, 62, 63, 64, 65, 66, 67, 68, 69, 70, 71, 72, 73, 74, 75, 76, 77, 78, 79, 80, 81, 82, 83, 84, 85, 86, 87, 88, 89, 90, 91, 92, 93, 94, 95, 96, 97, 98, 99, 100, 101, 102, 103, 104, 105, 106, 107, 108, 109, 110, 111, 112, 113, 114, 115, 116, 117, 118, 119, 120, 121, 122, 123, 124, 125, 126, 127, 128, 129, 130, 131, 132, 133, 134, 135, 136, 137, 138, 139, 140, 141, 142, 143, 144, 145, 146, 147, 148, 149, 150, 151, 152, 153, 154, 155, 156, 157, 158, 159, 160, 161, 162, 163, 164, 165, 166, 167, 168, 169, 170, 171, 172, 173, 174, 175, 176, 177, 178, 179, 180, 181, 182, 183, 184, 185, 186, 187, 188, 189, 190],
      "AcquisitionTime": ["160058.600000", "160100.090000", "160101.580000", "160103.070000", "160104.560000", "160106.050000", "160107.540000", "160109.030000", "160110.520000", "160112.010000", "160113.500000", "160114.990000", "160116.480000", "160117.970000", "160119.460000", "160120.950000", "160122.440000", "160123.930000", "160125.420000", "160126.910000", "160128.400000", "160129.890000", "160131.380000", "160132.870000", "160134.360000", "160135.850000", "160137.340000", "160138.830000", "160140.320000", "160141.810000", "160143.300000", "160144.790000", "160146.280000", "160147.770000", "160149.260000", "160150.750000", "160152.240000", "160153.730000", "160155.220000", "160156.710000", "160158.200000", "160159.690000", "160201.180000", "160202.670000", "160204.160000", "160205.650000", "160207.140000", "160208.630000", "160210.120000", "160211.610000", "160213.100000", "160214.590000", "160216.080000", "160217.570000", "160219.060000", "160220.550000", "160222.040000", "160223.530000", "160225.020000", "160226.510000", "160228.000000", "160229.490000", "160230.980000", "160232.470000", "160233.960000", "160235.450000", "160236.940000", "160238.430000", "160239.920000", "160241.410000", "160242.900000", "160244.390000", "160245.880000", "160247.370000", "160248.860000", "160250.350000", "160251.840000", "160253.330000", "160254.820000", "160256.310000", "160257.800000", "160259.290000", "160300.780000", "160302.270000", "160303.760000", "160305.250000", "160306.740000", "160308.230000", "160309.720000", "160311.210000", "160312.700000", "160314.190000", "160315.680000", "160317.170000", "160318.660000", "160320.150000", "160321.640000", "160323.130000", "160324.620000", "160326.110000", "160327.600000", "160329.090000", "160330.580000", "160332.070000", "160333.560000", "160335.050000", "160336.540000", "160338.030000", "160339.520000", "160341.010000", "160342.500000", "160343.990000", "160345.480000", "160346.970000", "160348.460000", "160349.950000", "160351.440000", "160352.930000", "160354.420000", "160355.910000", "160357.400000", "160358.890000", "160400.380000", "160401.870000", "160403.360000", "160404.850000", "160406.340000", "160407.830000", "160409.320000", "160410.810000", "160412.300000", "160413.790000", "160415.280000", "160416.770000", "160418.260000", "160419.750000", "160421.240000", "160422.730000", "160424.220000", "160425.710000", "160427.200000", "160428.690000", "160430.180000", "160431.670000", "160433.160000", "160434.650000", "160436.140000", "160437.630000", "160439.120000", "160440.610000", "160442.100000", "160443.590000", "160445.080000", "160446.570000", "160448.060000", "160449.550000", "160451.040000", "160452.530000", "160454.020000", "160455.510000", "160457.000000", "160458.490000", "160459.980000", "160501.470000", "160502.960000", "160504.450000", "160505.940000", "160507.430000", "160508.920000", "160510.410000", "160511.900000", "160513.390000", "160514.880000", "160516.370000", "160517.860000", "160519.350000", "160520.840000", "160522.330000", "160523.820000", "160525.310000", "160526.800000", "160528.290000", "160529.780000", "160531.270000", "160532.760000", "160534.250000", "160535.740000", "160537.230000", "160538.720000", "160540.210000"],
      "ContentTime": ["160154.697000", "160214.653000", "160214.657000", "160214.660000", "160214.664000", "160214.667000", "160214.671000", "160214.674000", "160214.677000", "160214.681000", "160214.684000", "160214.687000", "160214.691000", "160214.694000", "160214.698000", "160214.701000", "160214.705000", "160214.708000", "160214.711000", "160214.715000", "160214.718000", "160214.726000", "160234.653000", "160234.657000", "160234.660000", "160234.664000", "160234.667000", "160234.671000", "160234.674000", "160234.677000", "160234.681000", "160234.684000", "160234.687000", "160234.691000", "160234.694000", "160234.698000", "160234.701000", "160234.704000", "160234.708000", "160234.711000", "160234.714000", "160234.718000", "160254.653000", "160254.657000", "160254.660000", "160254.664000", "160254.667000", "160254.670000", "160254.674000", "160254.677000", "160254.681000", "160254.684000", "160254.687000", "160254.702000", "160254.706000", "160254.709000", "160254.712000", "160254.716000", "160254.719000", "160254.723000", "160254.726000", "160254.729000", "160314.653000", "160314.657000", "160314.660000", "160314.664000", "160314.667000", "160314.671000", "160314.674000", "160314.678000", "160314.681000", "160314.684000", "160314.688000", "160314.691000", "160314.695000", "160314.698000", "160314.702000", "160314.705000", "160314.708000", "160314.712000", "160314.715000", "160314.719000", "160334.654000", "160334.658000", "160334.661000", "160334.665000", "160334.668000", "160334.672000", "160334.675000", "160334.678000", "160334.682000", "160334.685000", "160334.689000", "160334.692000", "160334.696000", "160334.699000", "160334.702000", "160334.706000", "160334.709000", "160334.713000", "160334.716000", "160334.719000", "160414.654000", "160414.658000", "160414.661000", "160414.665000", "160414.668000", "160414.672000", "160414.675000", "160414.678000", "160414.682000", "160414.685000", "160414.689000", "160414.692000", "160414.696000", "160414.709000", "160414.713000", "160414.716000", "160414.719000", "160414.723000", "160414.726000", "160414.730000", "160414.733000", "160414.737000", "160414.740000", "160414.743000", "160414.747000", "160414.750000", "160414.754000", "160414.757000", "160414.760000", "160454.653000", "160454.657000", "160454.661000", "160454.664000", "160454.668000", "160454.671000", "160454.674000", "160454.678000", "160454.681000", "160454.685000", "160454.688000", "160454.692000", "160454.695000", "160454.698000", "160454.702000", "160454.705000", "160454.709000", "160454.712000", "160454.716000", "160454.719000", "160454.722000", "160454.726000", "160454.729000", "160454.733000", "160454.749000", "160454.752000", "160454.756000", "160534.654000", "160534.657000", "160534.661000", "160534.664000", "160534.668000", "160534.671000", "160534.674000", "160534.678000", "160534.682000", "160534.686000", "160534.691000", "160534.694000", "160534.698000", "160534.702000", "160534.706000", "160534.712000", "160534.715000", "160534.719000", "160534.723000", "160534.727000", "160534.730000", "160534.734000", "160534.737000", "160534.741000", "160534.744000", "160534.748000", "160542.212000", "160542.216000", "160542.220000", "160542.223000", "160542.227000", "160542.230000"],
      "InstanceCreationTime": ["160154.697000", "160214.653000", "160214.657000", "160214.660000", "160214.664000", "160214.667000", "160214.671000", "160214.674000", "160214.677000", "160214.681000", "160214.684000", "160214.687000", "160214.691000", "160214.694000", "160214.698000", "160214.701000", "160214.705000", "160214.708000", "160214.711000", "160214.715000", "160214.718000", "160214.726000", "160234.653000", "160234.657000", "160234.660000", "160234.664000", "160234.667000", "160234.671000", "160234.674000", "160234.677000", "160234.681000", "160234.684000", "160234.687000", "160234.691000", "160234.694000", "160234.698000", "160234.701000", "160234.704000", "160234.708000", "160234.711000", "160234.714000", "160234.718000", "160254.653000", "160254.657000", "160254.660000", "160254.664000", "160254.667000", "160254.670000", "160254.674000", "160254.677000", "160254.681000", "160254.684000", "160254.687000", "160254.702000", "160254.706000", "160254.709000", "160254.712000", "160254.716000", "160254.719000", "160254.723000", "160254.726000", "160254.729000", "160314.653000", "160314.657000", "160314.660000", "160314.664000", "160314.667000", "160314.671000", "160314.674000", "160314.678000", "160314.681000", "160314.684000", "160314.688000", "160314.691000", "160314.695000", "160314.698000", "160314.702000", "160314.705000", "160314.708000", "160314.712000", "160314.715000", "160314.719000", "160334.654000", "160334.658000", "160334.661000", "160334.665000", "160334.668000", "160334.672000", "160334.675000", "160334.678000", "160334.682000", "160334.685000", "160334.689000", "160334.692000", "160334.696000", "160334.699000", "160334.702000", "160334.706000", "160334.709000", "160334.713000", "160334.716000", "160334.719000", "160414.654000", "160414.658000", "160414.661000", "160414.665000", "160414.668000", "160414.672000", "160414.675000", "160414.678000", "160414.682000", "160414.685000", "160414.689000", "160414.692000", "160414.696000", "160414.709000", "160414.713000", "160414.716000", "160414.719000", "160414.723000", "160414.726000", "160414.730000", "160414.733000", "160414.737000", "160414.740000", "160414.743000", "160414.747000", "160414.750000", "160414.754000", "160414.757000", "160414.760000", "160454.653000", "160454.657000", "160454.661000", "160454.664000", "160454.668000", "160454.671000", "160454.674000", "160454.678000", "160454.681000", "160454.685000", "160454.688000", "160454.692000", "160454.695000", "160454.698000", "160454.702000", "160454.705000", "160454.709000", "160454.712000", "160454.716000", "160454.719000", "160454.722000", "160454.726000", "160454.729000", "160454.733000", "160454.749000", "160454.752000", "160454.756000", "160534.654000", "160534.657000", "160534.661000", "160534.664000", "160534.668000", "160534.671000", "160534.674000", "160534.678000", "160534.682000", "160534.686000", "160534.691000", "160534.694000", "160534.698000", "160534.702000", "160534.706000", "160534.712000", "160534.715000", "160534.719000", "160534.723000", "160534.727000", "160534.730000", "160534.734000", "160534.737000", "160534.741000", "160534.744000", "160534.748000", "160542.212000", "160542.216000", "160542.220000", "160542.223000", "160542.227000", "160542.230000"],
      "InstanceNumber": [1, 2, 3, 4, 5, 6, 7, 8, 9, 10, 11, 12, 13, 14, 15, 16, 17, 18, 19, 20, 21, 22, 23, 24, 25, 26, 27, 28, 29, 30, 31, 32, 33, 34, 35, 36, 37, 38, 39, 40, 41, 42, 43, 44, 45, 46, 47, 48, 49, 50, 51, 52, 53, 54, 55, 56, 57, 58, 59, 60, 61, 62, 63, 64, 65, 66, 67, 68, 69, 70, 71, 72, 73, 74, 75, 76, 77, 78, 79, 80, 81, 82, 83, 84, 85, 86, 87, 88, 89, 90, 91, 92, 93, 94, 95, 96, 97, 98, 99, 100, 101, 102, 103, 104, 105, 106, 107, 108, 109, 110, 111, 112, 113, 114, 115, 116, 117, 118, 119, 120, 121, 122, 123, 124, 125, 126, 127, 128, 129, 130, 131, 132, 133, 134, 135, 136, 137, 138, 139, 140, 141, 142, 143, 144, 145, 146, 147, 148, 149, 150, 151, 152, 153, 154, 155, 156, 157, 158, 159, 160, 161, 162, 163, 164, 165, 166, 167, 168, 169, 170, 171, 172, 173, 174, 175, 176, 177, 178, 179, 180, 181, 182, 183, 184, 185, 186, 187, 188, 189, 190],
      "LargestImagePixelValue": [42986, 40595, 39868, 39627, 39769, 39610, 39248, 39298, 38591, 39016, 38775, 38871, 38963, 38626, 38816, 39086, 39123, 38658, 39030, 38897, 38493, 38909, 38702, 38825, 38515, 39056, 38872, 39247, 38972, 38911, 39201, 38915, 38720, 38721, 38984, 38371, 39312, 39123, 39042, 38916, 38726, 38476, 38600, 39105, 38521, 39351, 38950, 39219, 39353, 39407, 38832, 39318, 38637, 38913, 39294, 39383, 39165, 39351, 38955, 39260, 39413, 39840, 38905, 39037, 39346, 38658, 39154, 39805, 40090, 39253, 38965, 39121, 39415, 39492, 39768, 39688, 40292, 40204, 39894, 40044, 40202, 39217, 39066, 40552, 40104, 40106, 40677, 40031, 39620, 39598, 39469, 40047, 39128, 39684, 39690, 39338, 40515, 39838, 39621, 40041, 39970, 40030, 39407, 40075, 39889, 39863, 39149, 39631, 39499, 39860, 39779, 40651, 39746, 39367, 39699, 39458, 39146, 39658, 38982, 38741, 39469, 39862, 40434, 40692, 38934, 39071, 39261, 39546, 39223, 39921, 40176, 40039, 40243, 40426, 39674, 40135, 39989, 39130, 39739, 39863, 39541, 39879, 39836, 40071, 40247, 40040, 40266, 41775, 39518, 39076, 38864, 38871, 39084, 39002, 39800, 39722, 39893, 39747, 39856, 39817, 40270, 40526, 40969, 39637, 39133, 39394, 39621, 40850, 40744, 40961, 40020, 39848, 40125, 40270, 39947, 39454, 39355, 40223, 40291, 41602, 41898, 39884, 40891, 40659, 40051, 38953, 38811, 39753, 40543, 39585],
      "WindowCenter": [10330.0, 10259.0, 10199.0, 10179.0, 10171.0, 10185.0, 10204.0, 10185.0, 10160.0, 10140.0, 10124.0, 10137.0, 10160.0, 10178.0, 10195.0, 10211.0, 10218.0, 10222.0, 10233.0, 10245.0, 10258.0, 10264.0, 10263.0, 10249.0, 10233.0, 10244.0, 10241.0, 10237.0, 10199.0, 10184.0, 10187.0, 10187.0, 10182.0, 10183.0, 10144.0, 10074.0, 10213.0, 10235.0, 10156.0, 10118.0, 10115.0, 10102.0, 10091.0, 10086.0, 10075.0, 10087.0, 10100.0, 10126.0, 10171.0, 10176.0, 10162.0, 10141.0, 10110.0, 10113.0, 10129.0, 10118.0, 10100.0, 10088.0, 10096.0, 10127.0, 10144.0, 10167.0, 10176.0, 10181.0, 10157.0, 10135.0, 10123.0, 10126.0, 10159.0, 10171.0, 10142.0, 10104.0, 10090.0, 10109.0, 10137.0, 10140.0, 10134.0, 10134.0, 10138.0, 10136.0, 10160.0, 10187.0, 10200.0, 10242.0, 10286.0, 10240.0, 10243.0, 10246.0, 10240.0, 10209.0, 10184.0, 10185.0, 10191.0, 10210.0, 10212.0, 10207.0, 10216.0, 10212.0, 10237.0, 10238.0, 10221.0, 10217.0, 10227.0, 10266.0, 10265.0, 10240.0, 10196.0, 10173.0, 10158.0, 10177.0, 10179.0, 10173.0, 10154.0, 10152.0, 10186.0, 10195.0, 10210.0, 10220.0, 10200.0, 10171.0, 10143.0, 10142.0, 10164.0, 10212.0, 10215.0, 10198.0, 10162.0, 10150.0, 10162.0, 10178.0, 10178.0, 10178.0, 10184.0, 10188.0, 10190.0, 10196.0, 10204.0, 10224.0, 10239.0, 10238.0, 10244.0, 10239.0, 10223.0, 10220.0, 10231.0, 10261.0, 10257.0, 10271.0, 10236.0, 10198.0, 10157.0, 10129.0, 10132.0, 10148.0, 10163.0, 10164.0, 10178.0, 10182.0, 10193.0, 10196.0, 10230.0, 10256.0, 10274.0, 10214.0, 10223.0, 10193.0, 10215.0, 10230.0, 10189.0, 10181.0, 10160.0, 10172.0, 10185.0, 10217.0, 10230.0, 10206.0, 10245.0, 10244.0, 10251.0, 10219.0, 10214.0, 10220.0, 10235.0, 10215.0, 10168.0, 10017.0, 10049.0, 10109.0, 10140.0, 10191.0],
      "WindowWidth": [22343.0, 22150.0, 21990.0, 21928.0, 21899.0, 21927.0, 21969.0, 21929.0, 21870.0, 21826.0, 21794.0, 21823.0, 21872.0, 21913.0, 21949.0, 21984.0, 21998.0, 22011.0, 22036.0, 22062.0, 22095.0, 22108.0, 22106.0, 22075.0, 22038.0, 22060.0, 22055.0, 22040.0, 21960.0, 21924.0, 21930.0, 21930.0, 21921.0, 21926.0, 21834.0, 21662.0, 21985.0, 22052.0, 21863.0, 21762.0, 21761.0, 21737.0, 21714.0, 21700.0, 21680.0, 21704.0, 21730.0, 21789.0, 21896.0, 21906.0, 21882.0, 21831.0, 21763.0, 21763.0, 21800.0, 21773.0, 21737.0, 21709.0, 21728.0, 21793.0, 21835.0, 21884.0, 21909.0, 21922.0, 21868.0, 21820.0, 21791.0, 21793.0, 21864.0, 21895.0, 21833.0, 21751.0, 21718.0, 21758.0, 21823.0, 21830.0, 21809.0, 21808.0, 21821.0, 21817.0, 21872.0, 21935.0, 21967.0, 22064.0, 22180.0, 22072.0, 22069.0, 22074.0, 22057.0, 21989.0, 21932.0, 21933.0, 21950.0, 21989.0, 21995.0, 21985.0, 22000.0, 21996.0, 22050.0, 22054.0, 22017.0, 22007.0, 22032.0, 22118.0, 22117.0, 22061.0, 21965.0, 21909.0, 21877.0, 21915.0, 21922.0, 21909.0, 21876.0, 21863.0, 21939.0, 21959.0, 21992.0, 22013.0, 21969.0, 21909.0, 21840.0, 21833.0, 21879.0, 21987.0, 22002.0, 21968.0, 21885.0, 21854.0, 21880.0, 21915.0, 21915.0, 21911.0, 21926.0, 21936.0, 21945.0, 21958.0, 21976.0, 22025.0, 22057.0, 22054.0, 22067.0, 22058.0, 22022.0, 22012.0, 22034.0, 22103.0, 22097.0, 22125.0, 22058.0, 21978.0, 21887.0, 21824.0, 21825.0, 21862.0, 21892.0, 21895.0, 21920.0, 21931.0, 21960.0, 21970.0, 22040.0, 22101.0, 22142.0, 22005.0, 22033.0, 21956.0, 22004.0, 22035.0, 21942.0, 21922.0, 21880.0, 21915.0, 21944.0, 22014.0, 22045.0, 21992.0, 22082.0, 22071.0, 22093.0, 22006.0, 21994.0, 22013.0, 22050.0, 22012.0, 21907.0, 21550.0, 21626.0, 21766.0, 21832.0, 21960.0]
    },
    "slices": {}
  }
}