{
  "AcquisitionMatrixPE": 104,
  "AcquisitionNumber": 1,
  "AcquisitionTime": "15:54:42.107500",
  "BandwidthPerPixelPhaseEncode": 17.17,
  "BaseResolution": 104,
  "BodyPartExamined": "BRAIN",
  "CoilString": "HC1-7;NC1_2",
  "ConsistencyInfo": "N4_VE11C_LATEST_20160120",
  "ConversionSoftware": "dcm2niix",
  "ConversionSoftwareVersion": "v1.0.20190902",
  "DerivedVendorReportedEchoSpacing": 0.000560011,
  "DeviceSerialNumber": "167006",
  "DwellTime": 2.1e-06,
  "EchoTime": 0.037,
  "EchoTrainLength": 104,
  "EffectiveEchoSpacing": 0.000560011,
  "FlipAngle": 52,
  "ImageComments": "Unaliased_MB4_PE3_LB",
  "ImageOrientationPatientDICOM": [0.998491, -0.0539151, 0.0104086, 0.0546007, 0.954745, -0.292371],
  "ImageType": [
    "ORIGINAL",
    "PRIMARY",
    "P",
    "MB",
    "ND",
    "MOSAIC"
],
  "ImagingFrequency": 123.259,
  "InPlanePhaseEncodingDirectionDICOM": "COL",
  "InstitutionAddress": "Chemin_Queen-Mary_4565_Montreal_District_CA_H3W_1W5",
  "InstitutionName": "IUGM",
  "InstitutionalDepartmentName": "Department",
  "MRAcquisitionType": "2D",
  "MagneticFieldStrength": 3,
  "Manufacturer": "Siemens",
  "ManufacturersModelName": "Prisma_fit",
  "Modality": "MR",
  "MultibandAccelerationFactor": 4,
  "PartialFourier": 1,
  "PatientPosition": "HFS",
  "PercentPhaseFOV": 100,
  "PhaseEncodingDirection": "j",
  "PhaseEncodingSteps": 104,
  "PhaseResolution": 1,
  "PixelBandwidth": 2290,
  "ProcedureStepDescription": "memory_things",
  "ProtocolName": "func_task-things_run-4",
  "PulseSequenceDetails": "%CustomerSeq%_cmrr_mbep2d_bold",
  "ReceiveCoilActiveElements": "HC1-7;NC1,2",
  "ReceiveCoilName": "HeadNeck_64",
  "ReconMatrixPE": 104,
  "RepetitionTime": 1.49,
  "SAR": 0.0562405,
  "ScanOptions": "FS",
  "ScanningSequence": "EP",
  "SequenceName": "epfid2d1_104",
  "SequenceVariant": "SK_SS",
  "SeriesDescription": "func_task-things_run-4",
  "SeriesNumber": 20,
  "ShimSetting": [625, -7249, -8817, 593, -12, -198, -9, -34],
  "SliceThickness": 2,
  "SliceTiming": [0, 0.7825, 0.0975, 0.88, 0.195, 0.98, 0.2925, 1.0775, 0.3925, 1.175, 0.49, 1.2725, 0.5875, 1.37, 0.685, 0, 0.7825, 0.0975, 0.88, 0.195, 0.98, 0.2925, 1.0775, 0.3925, 1.175, 0.49, 1.2725, 0.5875, 1.37, 0.685, 0, 0.7825, 0.0975, 0.88, 0.195, 0.98, 0.2925, 1.0775, 0.3925, 1.175, 0.49, 1.2725, 0.5875, 1.37, 0.685, 0, 0.7825, 0.0975, 0.88, 0.195, 0.98, 0.2925, 1.0775, 0.3925, 1.175, 0.49, 1.2725, 0.5875, 1.37, 0.685],
  "SoftwareVersions": "syngo_MR_E11",
  "SpacingBetweenSlices": 2,
  "StationName": "MRC35049",
  "TaskName": "things",
  "TotalReadoutTime": 0.0576811,
  "TxRefAmp": 270.301,
  "WipMemBlock": "0277f920-79c1-481a-99dc-31b0f95d9ddf||Sequence: R016 ve11c/master r/e634e98; Dec 19 2017 11:00:25 by eja",
  "dcmmeta_affine": [
    [-1.9969825744628906, 0.10920148342847824, -0.011651277542114258, 101.3782958984375],
    [0.1078302413225174, 1.9094901084899902, -0.584995687007904, -74.16555786132812],
    [0.020817197859287262, 0.5847412943840027, 1.91249680519104, -60.353694915771484],
    [0.0, 0.0, 0.0, 1.0]
],
  "dcmmeta_reorient_transform": [
    [0.0, -1.0, 0.0, 103.0],
    [1.0, 0.0, 0.0, 0.0],
    [0.0, 0.0, 1.0, 0.0],
    [0.0, 0.0, 0.0, 1.0]
],
  "dcmmeta_shape": [104, 104, 60, 190],
  "dcmmeta_slice_dim": 2,
  "dcmmeta_version": 0.6,
  "global": {
    "const": {
      "AcquisitionMatrix": [104, 0, 0, 104],
      "AngioFlag": "N",
      "BitsAllocated": 16,
      "BitsStored": 16,
      "BodyPartExamined": "BRAIN",
      "Columns": 832,
      "EchoNumbers": 1,
      "EchoTime": 37.0,
      "EchoTrainLength": 104,
      "FlipAngle": 52.0,
      "HighBit": 15,
      "ImageOrientationPatient": [0.99849127228091, -0.0539151206809, 0.01040859936901, 0.05460074276141, 0.9547450820638, -0.2923706332122],
      "ImagePositionPatient": [-879.27703511285, -778.31613898508, 205.14301602408],
      "ImageType": [
        "ORIGINAL",
        "PRIMARY",
        "P",
        "MB",
        "ND",
        "MOSAIC"
],
      "ImagedNucleus": "1H",
      "ImagingFrequency": 123.258904,
      "InPlanePhaseEncodingDirection": "COL",
      "LargestImagePixelValue": 4095,
      "MRAcquisitionType": "2D",
      "MagneticFieldStrength": 3.0,
      "Manufacturer": "SIEMENS",
      "ManufacturerModelName": "Prisma_fit",
      "Modality": "MR",
      "NumberOfAverages": 1.0,
      "NumberOfPhaseEncodingSteps": 104,
      "PercentPhaseFieldOfView": 100.0,
      "PercentSampling": 100.0,
      "PerformedProcedureStepStartTime": "145914.536000",
      "PhotometricInterpretation": "MONOCHROME2",
      "PixelBandwidth": 2290.0,
      "PixelRepresentation": 0,
      "PixelSpacing": [2.0, 2.0],
      "ProtocolName": "func_task-things_run-4",
      "RepetitionTime": 1490.0,
      "RescaleIntercept": -4096.0,
      "RescaleSlope": 2.0,
      "RescaleType": "US",
      "Rows": 832,
      "SAR": 0.05624050144164,
      "SamplesPerPixel": 1,
      "ScanOptions": "FS",
      "ScanningSequence": "EP",
      "SequenceName": "epfid2d1_104",
      "SequenceVariant": [
        "SK",
        "SS"
],
      "SeriesDescription": "func_task-things_run-4",
      "SeriesNumber": 20,
      "SeriesTime": "155614.887000",
      "SliceLocation": -36.6104536723,
      "SliceThickness": 2.0,
      "SmallestImagePixelValue": 0,
      "SoftwareVersions": "syngo MR E11",
      "SpacingBetweenSlices": 1.9999999470094,
      "SpecificCharacterSet": "ISO_IR 100",
      "StudyID": "1",
      "StudyTime": "145914.470000",
      "TransmitCoilName": "Body",
      "VariableFlipAngleFlag": "N",
      "WindowCenterWidthExplanation": "Algo1",
      "dBdt": 0.0},
    "slices": {}
  },
  "time": {
    "samples": {
      "AcquisitionNumber": [1, 2, 3, 4, 5, 6, 7, 8, 9, 10, 11, 12, 13, 14, 15, 16, 17, 18, 19, 20, 21, 22, 23, 24, 25, 26, 27, 28, 29, 30, 31, 32, 33, 34, 35, 36, 37, 38, 39, 40, 41, 42, 43, 44, 45, 46, 47, 48, 49, 50, 51, 52, 53, 54, 55, 56, 57, 58, 59, 60, 61, 62, 63, 64, 65, 66, 67, 68, 69, 70, 71, 72, 73, 74, 75, 76, 77, 78, 79, 80, 81, 82, 83, 84, 85, 86, 87, 88, 89, 90, 91, 92, 93, 94, 95, 96, 97, 98, 99, 100, 101, 102, 103, 104, 105, 106, 107, 108, 109, 110, 111, 112, 113, 114, 115, 116, 117, 118, 119, 120, 121, 122, 123, 124, 125, 126, 127, 128, 129, 130, 131, 132, 133, 134, 135, 136, 137, 138, 139, 140, 141, 142, 143, 144, 145, 146, 147, 148, 149, 150, 151, 152, 153, 154, 155, 156, 157, 158, 159, 160, 161, 162, 163, 164, 165, 166, 167, 168, 169, 170, 171, 172, 173, 174, 175, 176, 177, 178, 179, 180, 181, 182, 183, 184, 185, 186, 187, 188, 189, 190],
      "AcquisitionTime": ["155442.107500", "155443.597500", "155445.087500", "155446.577500", "155448.067500", "155449.557500", "155451.047500", "155452.537500", "155454.027500", "155455.517500", "155457.007500", "155458.497500", "155459.987500", "155501.477500", "155502.967500", "155504.457500", "155505.947500", "155507.437500", "155508.927500", "155510.417500", "155511.907500", "155513.397500", "155514.887500", "155516.377500", "155517.867500", "155519.357500", "155520.847500", "155522.337500", "155523.827500", "155525.317500", "155526.807500", "155528.297500", "155529.787500", "155531.277500", "155532.767500", "155534.257500", "155535.747500", "155537.237500", "155538.727500", "155540.217500", "155541.707500", "155543.197500", "155544.687500", "155546.177500", "155547.667500", "155549.157500", "155550.647500", "155552.137500", "155553.627500", "155555.117500", "155556.607500", "155558.097500", "155559.587500", "155601.077500", "155602.567500", "155604.057500", "155605.547500", "155607.037500", "155608.527500", "155610.017500", "155611.507500", "155612.997500", "155614.487500", "155615.977500", "155617.467500", "155618.957500", "155620.447500", "155621.937500", "155623.427500", "155624.917500", "155626.407500", "155627.897500", "155629.387500", "155630.877500", "155632.367500", "155633.857500", "155635.347500", "155636.837500", "155638.327500", "155639.817500", "155641.307500", "155642.797500", "155644.287500", "155645.777500", "155647.267500", "155648.757500", "155650.247500", "155651.737500", "155653.227500", "155654.717500", "155656.207500", "155657.697500", "155659.187500", "155700.677500", "155702.167500", "155703.657500", "155705.147500", "155706.637500", "155708.127500", "155709.617500", "155711.107500", "155712.597500", "155714.087500", "155715.577500", "155717.067500", "155718.557500", "155720.047500", "155721.537500", "155723.027500", "155724.517500", "155726.007500", "155727.497500", "155728.987500", "155730.477500", "155731.967500", "155733.457500", "155734.947500", "155736.437500", "155737.927500", "155739.417500", "155740.907500", "155742.397500", "155743.887500", "155745.377500", "155746.867500", "155748.357500", "155749.847500", "155751.337500", "155752.827500", "155754.317500", "155755.807500", "155757.297500", "155758.787500", "155800.277500", "155801.767500", "155803.257500", "155804.747500", "155806.237500", "155807.727500", "155809.217500", "155810.707500", "155812.197500", "155813.687500", "155815.177500", "155816.667500", "155818.157500", "155819.647500", "155821.137500", "155822.627500", "155824.117500", "155825.607500", "155827.097500", "155828.587500", "155830.077500", "155831.567500", "155833.057500", "155834.547500", "155836.037500", "155837.527500", "155839.017500", "155840.507500", "155841.997500", "155843.487500", "155844.977500", "155846.467500", "155847.957500", "155849.447500", "155850.937500", "155852.427500", "155853.917500", "155855.407500", "155856.897500", "155858.387500", "155859.877500", "155901.367500", "155902.857500", "155904.347500", "155905.837500", "155907.327500", "155908.817500", "155910.307500", "155911.797500", "155913.287500", "155914.777500", "155916.267500", "155917.757500", "155919.247500", "155920.737500", "155922.227500", "155923.717500"],
      "ContentTime": ["155614.889000", "155614.892000", "155614.894000", "155614.897000", "155614.905000", "155614.907000", "155614.910000", "155614.913000", "155614.923000", "155614.925000", "155614.928000", "155614.930000", "155614.933000", "155614.936000", "155614.938000", "155614.941000", "155614.943000", "155614.946000", "155614.948000", "155614.951000", "155614.953000", "155614.956000", "155614.958000", "155614.961000", "155614.963000", "155614.966000", "155614.968000", "155614.971000", "155614.973000", "155614.976000", "155614.978000", "155614.981000", "155614.983000", "155614.986000", "155614.988000", "155614.991000", "155614.993000", "155614.996000", "155634.795000", "155634.798000", "155634.800000", "155634.803000", "155634.805000", "155634.808000", "155634.810000", "155634.813000", "155634.816000", "155634.818000", "155634.821000", "155634.823000", "155634.826000", "155634.828000", "155634.831000", "155634.833000", "155634.836000", "155634.838000", "155634.841000", "155634.843000", "155654.788000", "155654.791000", "155654.794000", "155654.796000", "155654.799000", "155654.801000", "155654.804000", "155654.806000", "155654.809000", "155654.811000", "155654.814000", "155654.816000", "155654.819000", "155654.821000", "155654.824000", "155654.826000", "155654.829000", "155654.831000", "155654.834000", "155654.836000", "155714.781000", "155714.784000", "155714.786000", "155714.789000", "155714.791000", "155714.794000", "155714.796000", "155714.799000", "155714.801000", "155714.804000", "155714.806000", "155714.809000", "155714.811000", "155714.814000", "155714.817000", "155714.819000", "155714.822000", "155714.824000", "155714.827000", "155714.829000", "155714.832000", "155755.285000", "155755.288000", "155755.290000", "155755.293000", "155755.295000", "155755.298000", "155755.300000", "155755.303000", "155755.305000", "155755.308000", "155755.310000", "155755.313000", "155755.315000", "155755.318000", "155755.320000", "155755.323000", "155755.333000", "155755.336000", "155755.338000", "155755.341000", "155755.343000", "155755.346000", "155755.348000", "155755.351000", "155755.353000", "155755.356000", "155755.358000", "155755.361000", "155755.363000", "155834.813000", "155834.815000", "155834.818000", "155834.820000", "155834.823000", "155834.826000", "155834.828000", "155834.831000", "155834.833000", "155834.836000", "155834.838000", "155834.841000", "155834.843000", "155834.846000", "155834.848000", "155834.851000", "155834.853000", "155834.856000", "155834.858000", "155834.861000", "155834.864000", "155834.866000", "155834.869000", "155834.871000", "155834.874000", "155834.877000", "155834.879000", "155914.810000", "155914.812000", "155914.815000", "155914.818000", "155914.820000", "155914.823000", "155914.825000", "155914.828000", "155914.830000", "155914.833000", "155914.835000", "155914.838000", "155914.840000", "155914.843000", "155914.845000", "155914.848000", "155914.850000", "155914.853000", "155914.855000", "155914.858000", "155914.860000", "155914.863000", "155914.866000", "155914.868000", "155914.871000", "155914.876000", "155914.879000", "155926.257000", "155926.260000", "155926.262000", "155926.265000", "155926.268000", "155926.270000", "155926.273000", "155926.275000"],
      "InstanceCreationTime": ["155614.889000", "155614.892000", "155614.894000", "155614.897000", "155614.905000", "155614.907000", "155614.910000", "155614.913000", "155614.923000", "155614.925000", "155614.928000", "155614.930000", "155614.933000", "155614.936000", "155614.938000", "155614.941000", "155614.943000", "155614.946000", "155614.948000", "155614.951000", "155614.953000", "155614.956000", "155614.958000", "155614.961000", "155614.963000", "155614.966000", "155614.968000", "155614.971000", "155614.973000", "155614.976000", "155614.978000", "155614.981000", "155614.983000", "155614.986000", "155614.988000", "155614.991000", "155614.993000", "155614.996000", "155634.795000", "155634.798000", "155634.800000", "155634.803000", "155634.805000", "155634.808000", "155634.810000", "155634.813000", "155634.816000", "155634.818000", "155634.821000", "155634.823000", "155634.826000", "155634.828000", "155634.831000", "155634.833000", "155634.836000", "155634.838000", "155634.841000", "155634.843000", "155654.788000", "155654.791000", "155654.794000", "155654.796000", "155654.799000", "155654.801000", "155654.804000", "155654.806000", "155654.809000", "155654.811000", "155654.814000", "155654.816000", "155654.819000", "155654.821000", "155654.824000", "155654.826000", "155654.829000", "155654.831000", "155654.834000", "155654.836000", "155714.781000", "155714.784000", "155714.786000", "155714.789000", "155714.791000", "155714.794000", "155714.796000", "155714.799000", "155714.801000", "155714.804000", "155714.806000", "155714.809000", "155714.811000", "155714.814000", "155714.817000", "155714.819000", "155714.822000", "155714.824000", "155714.827000", "155714.829000", "155714.832000", "155755.285000", "155755.288000", "155755.290000", "155755.293000", "155755.295000", "155755.298000", "155755.300000", "155755.303000", "155755.305000", "155755.308000", "155755.310000", "155755.313000", "155755.315000", "155755.318000", "155755.320000", "155755.323000", "155755.333000", "155755.336000", "155755.338000", "155755.341000", "155755.343000", "155755.346000", "155755.348000", "155755.351000", "155755.353000", "155755.356000", "155755.358000", "155755.361000", "155755.363000", "155834.813000", "155834.815000", "155834.818000", "155834.820000", "155834.823000", "155834.826000", "155834.828000", "155834.831000", "155834.833000", "155834.836000", "155834.838000", "155834.841000", "155834.843000", "155834.846000", "155834.848000", "155834.851000", "155834.853000", "155834.856000", "155834.858000", "155834.861000", "155834.864000", "155834.866000", "155834.869000", "155834.871000", "155834.874000", "155834.877000", "155834.879000", "155914.810000", "155914.812000", "155914.815000", "155914.818000", "155914.820000", "155914.823000", "155914.825000", "155914.828000", "155914.830000", "155914.833000", "155914.835000", "155914.838000", "155914.840000", "155914.843000", "155914.845000", "155914.848000", "155914.850000", "155914.853000", "155914.855000", "155914.858000", "155914.860000", "155914.863000", "155914.866000", "155914.868000", "155914.871000", "155914.876000", "155914.879000", "155926.257000", "155926.260000", "155926.262000", "155926.265000", "155926.268000", "155926.270000", "155926.273000", "155926.275000"],
      "InstanceNumber": [1, 2, 3, 4, 5, 6, 7, 8, 9, 10, 11, 12, 13, 14, 15, 16, 17, 18, 19, 20, 21, 22, 23, 24, 25, 26, 27, 28, 29, 30, 31, 32, 33, 34, 35, 36, 37, 38, 39, 40, 41, 42, 43, 44, 45, 46, 47, 48, 49, 50, 51, 52, 53, 54, 55, 56, 57, 58, 59, 60, 61, 62, 63, 64, 65, 66, 67, 68, 69, 70, 71, 72, 73, 74, 75, 76, 77, 78, 79, 80, 81, 82, 83, 84, 85, 86, 87, 88, 89, 90, 91, 92, 93, 94, 95, 96, 97, 98, 99, 100, 101, 102, 103, 104, 105, 106, 107, 108, 109, 110, 111, 112, 113, 114, 115, 116, 117, 118, 119, 120, 121, 122, 123, 124, 125, 126, 127, 128, 129, 130, 131, 132, 133, 134, 135, 136, 137, 138, 139, 140, 141, 142, 143, 144, 145, 146, 147, 148, 149, 150, 151, 152, 153, 154, 155, 156, 157, 158, 159, 160, 161, 162, 163, 164, 165, 166, 167, 168, 169, 170, 171, 172, 173, 174, 175, 176, 177, 178, 179, 180, 181, 182, 183, 184, 185, 186, 187, 188, 189, 190],
      "WindowCenter": [4808.0, 4784.0, 4802.0, 4806.0, 4814.0, 4814.0, 4814.0, 4812.0, 4812.0, 4812.0, 4812.0, 4816.0, 4812.0, 4810.0, 4806.0, 4810.0, 4810.0, 4814.0, 4814.0, 4816.0, 4810.0, 4808.0, 4814.0, 4816.0, 4808.0, 4806.0, 4806.0, 4810.0, 4810.0, 4810.0, 4816.0, 4814.0, 4814.0, 4816.0, 4812.0, 4812.0, 4812.0, 4808.0, 4812.0, 4814.0, 4816.0, 4814.0, 4814.0, 4810.0, 4814.0, 4810.0, 4808.0, 4812.0, 4814.0, 4814.0, 4818.0, 4810.0, 4810.0, 4806.0, 4812.0, 4814.0, 4814.0, 4792.0, 4818.0, 4806.0, 4812.0, 4782.0, 4814.0, 4814.0, 4814.0, 4812.0, 4792.0, 4814.0, 4808.0, 4814.0, 4812.0, 4808.0, 4808.0, 4810.0, 4814.0, 4818.0, 4814.0, 4814.0, 4812.0, 4812.0, 4808.0, 4804.0, 4808.0, 4816.0, 4812.0, 4814.0, 4814.0, 4816.0, 4798.0, 4792.0, 4810.0, 4776.0, 4800.0, 4804.0, 4806.0, 4806.0, 4810.0, 4816.0, 4824.0, 4818.0, 4822.0, 4814.0, 4774.0, 4776.0, 4772.0, 4788.0, 4820.0, 4790.0, 4792.0, 4790.0, 4792.0, 4818.0, 4816.0, 4800.0, 4772.0, 4798.0, 4800.0, 4810.0, 4814.0, 4794.0, 4826.0, 4792.0, 4788.0, 4802.0, 4798.0, 4800.0, 4774.0, 4810.0, 4812.0, 4820.0, 4794.0, 4814.0, 4820.0, 4816.0, 4820.0, 4820.0, 4820.0, 4784.0, 4776.0, 4780.0, 4808.0, 4820.0, 4818.0, 4820.0, 4820.0, 4822.0, 4826.0, 4822.0, 4818.0, 4786.0, 4782.0, 4806.0, 4806.0, 4818.0, 4794.0, 4792.0, 4812.0, 4812.0, 4808.0, 4806.0, 4808.0, 4818.0, 4818.0, 4816.0, 4816.0, 4816.0, 4810.0, 4810.0, 4812.0, 4810.0, 4820.0, 4820.0, 4820.0, 4810.0, 4814.0, 4788.0, 4812.0, 4808.0, 4818.0, 4822.0, 4820.0, 4820.0, 4822.0, 4824.0, 4822.0, 4788.0, 4780.0, 4804.0, 4798.0, 4780.0],
      "WindowWidth": [18610.0, 18584.0, 18606.0, 18614.0, 18620.0, 18616.0, 18620.0, 18618.0, 18622.0, 18622.0, 18620.0, 18614.0, 18618.0, 18618.0, 18612.0, 18614.0, 18614.0, 18622.0, 18622.0, 18616.0, 18616.0, 18620.0, 18606.0, 18610.0, 18614.0, 18614.0, 18610.0, 18618.0, 18618.0, 18616.0, 18618.0, 18618.0, 18612.0, 18618.0, 18618.0, 18616.0, 18620.0, 18614.0, 18618.0, 18620.0, 18616.0, 18620.0, 18614.0, 18612.0, 18618.0, 18618.0, 18614.0, 18616.0, 18618.0, 18610.0, 18610.0, 18614.0, 18616.0, 18612.0, 18612.0, 18618.0, 18610.0, 18576.0, 18624.0, 18614.0, 18618.0, 18582.0, 18620.0, 18618.0, 18612.0, 18606.0, 18568.0, 18618.0, 18616.0, 18620.0, 18622.0, 18614.0, 18614.0, 18614.0, 18618.0, 18594.0, 18596.0, 18616.0, 18620.0, 18618.0, 18614.0, 18610.0, 18616.0, 18624.0, 18612.0, 18612.0, 18616.0, 18612.0, 18550.0, 18570.0, 18618.0, 18572.0, 18602.0, 18618.0, 18614.0, 18612.0, 18616.0, 18606.0, 18568.0, 18572.0, 18606.0, 18616.0, 18562.0, 18564.0, 18568.0, 18580.0, 18614.0, 18572.0, 18570.0, 18556.0, 18542.0, 18602.0, 18618.0, 18606.0, 18568.0, 18598.0, 18602.0, 18618.0, 18610.0, 18566.0, 18578.0, 18534.0, 18576.0, 18614.0, 18600.0, 18602.0, 18572.0, 18618.0, 18610.0, 18592.0, 18556.0, 18600.0, 18618.0, 18618.0, 18610.0, 18608.0, 18612.0, 18584.0, 18568.0, 18572.0, 18606.0, 18604.0, 18608.0, 18614.0, 18612.0, 18616.0, 18614.0, 18610.0, 18620.0, 18578.0, 18572.0, 18606.0, 18610.0, 18608.0, 18564.0, 18570.0, 18610.0, 18612.0, 18616.0, 18614.0, 18614.0, 18616.0, 18612.0, 18612.0, 18618.0, 18618.0, 18618.0, 18612.0, 18616.0, 18618.0, 18602.0, 18602.0, 18618.0, 18614.0, 18614.0, 18580.0, 18612.0, 18610.0, 18618.0, 18594.0, 18594.0, 18614.0, 18604.0, 18586.0, 18610.0, 18578.0, 18580.0, 18602.0, 18602.0, 18576.0]
    },
    "slices": {}
  }
}