{
  "AcquisitionMatrixPE": 104,
  "AcquisitionNumber": 1,
  "AcquisitionTime": "15:42:18.590000",
  "BandwidthPerPixelPhaseEncode": 17.17,
  "BaseResolution": 104,
  "BodyPartExamined": "BRAIN",
  "CoilString": "HC1-7;NC1_2",
  "ConsistencyInfo": "N4_VE11C_LATEST_20160120",
  "ConversionSoftware": "dcm2niix",
  "ConversionSoftwareVersion": "v1.0.20190902",
  "DerivedVendorReportedEchoSpacing": 0.000560011,
  "DeviceSerialNumber": "167006",
  "DwellTime": 2.1e-06,
  "EchoTime": 0.037,
  "EchoTrainLength": 104,
  "EffectiveEchoSpacing": 0.000560011,
  "FlipAngle": 52,
  "ImageComments": "Unaliased_MB4_PE3_LB",
  "ImageOrientationPatientDICOM": [0.998491, -0.0539151, 0.0104086, 0.0546007, 0.954745, -0.292371],
  "ImageType": [
    "ORIGINAL",
    "PRIMARY",
    "M",
    "MB",
    "ND",
    "MOSAIC"
],
  "ImagingFrequency": 123.259,
  "InPlanePhaseEncodingDirectionDICOM": "COL",
  "InstitutionAddress": "Chemin_Queen-Mary_4565_Montreal_District_CA_H3W_1W5",
  "InstitutionName": "IUGM",
  "InstitutionalDepartmentName": "Department",
  "MRAcquisitionType": "2D",
  "MagneticFieldStrength": 3,
  "Manufacturer": "Siemens",
  "ManufacturersModelName": "Prisma_fit",
  "Modality": "MR",
  "MultibandAccelerationFactor": 4,
  "PartialFourier": 1,
  "PatientPosition": "HFS",
  "PercentPhaseFOV": 100,
  "PhaseEncodingDirection": "j",
  "PhaseEncodingSteps": 104,
  "PhaseResolution": 1,
  "PixelBandwidth": 2290,
  "ProcedureStepDescription": "memory_things",
  "ProtocolName": "func_task-things_run-2",
  "PulseSequenceDetails": "%CustomerSeq%_cmrr_mbep2d_bold",
  "ReceiveCoilActiveElements": "HC1-7;NC1,2",
  "ReceiveCoilName": "HeadNeck_64",
  "ReconMatrixPE": 104,
  "RepetitionTime": 1.49,
  "SAR": 0.0562405,
  "ScanOptions": "FS",
  "ScanningSequence": "EP",
  "SequenceName": "epfid2d1_104",
  "SequenceVariant": "SK_SS",
  "SeriesDescription": "func_task-things_run-2",
  "SeriesNumber": 13,
  "ShimSetting": [625, -7249, -8817, 593, -12, -198, -9, -34],
  "SliceThickness": 2,
  "SliceTiming": [0, 0.785, 0.0975, 0.8825, 0.195, 0.98, 0.295, 1.0775, 0.3925, 1.175, 0.49, 1.275, 0.5875, 1.3725, 0.685, 0, 0.785, 0.0975, 0.8825, 0.195, 0.98, 0.295, 1.0775, 0.3925, 1.175, 0.49, 1.275, 0.5875, 1.3725, 0.685, 0, 0.785, 0.0975, 0.8825, 0.195, 0.98, 0.295, 1.0775, 0.3925, 1.175, 0.49, 1.275, 0.5875, 1.3725, 0.685, 0, 0.785, 0.0975, 0.8825, 0.195, 0.98, 0.295, 1.0775, 0.3925, 1.175, 0.49, 1.275, 0.5875, 1.3725, 0.685],
  "SoftwareVersions": "syngo_MR_E11",
  "SpacingBetweenSlices": 2,
  "StationName": "MRC35049",
  "TaskName": "things",
  "TotalReadoutTime": 0.0576811,
  "TxRefAmp": 270.301,
  "WipMemBlock": "265e832e-b0bf-4598-8947-da47b14e42ec||Sequence: R016 ve11c/master r/e634e98; Dec 19 2017 11:00:25 by eja",
  "dcmmeta_affine": [
    [-1.9969825744628906, 0.10920148342847824, -0.011651277542114258, 101.3782958984375],
    [0.1078302413225174, 1.9094901084899902, -0.584995687007904, -74.16555786132812],
    [0.020817197859287262, 0.5847412943840027, 1.91249680519104, -60.353694915771484],
    [0.0, 0.0, 0.0, 1.0]
],
  "dcmmeta_reorient_transform": [
    [0.0, -1.0, 0.0, 103.0],
    [1.0, 0.0, 0.0, 0.0],
    [0.0, 0.0, 1.0, 0.0],
    [0.0, 0.0, 0.0, 1.0]
],
  "dcmmeta_shape": [104, 104, 60, 190],
  "dcmmeta_slice_dim": 2,
  "dcmmeta_version": 0.6,
  "global": {
    "const": {
      "AcquisitionMatrix": [104, 0, 0, 104],
      "AngioFlag": "N",
      "BitsAllocated": 16,
      "BitsStored": 16,
      "BodyPartExamined": "BRAIN",
      "Columns": 832,
      "EchoNumbers": 1,
      "EchoTime": 37.0,
      "EchoTrainLength": 104,
      "FlipAngle": 52.0,
      "HighBit": 15,
      "ImageOrientationPatient": [0.99849127228091, -0.0539151206809, 0.01040859936901, 0.05460074276141, 0.9547450820638, -0.2923706332122],
      "ImagePositionPatient": [-879.27703511285, -778.31613898508, 205.14301602408],
      "ImageType": [
        "ORIGINAL",
        "PRIMARY",
        "M",
        "MB",
        "ND",
        "MOSAIC"
],
      "ImagedNucleus": "1H",
      "ImagingFrequency": 123.258897,
      "InPlanePhaseEncodingDirection": "COL",
      "MRAcquisitionType": "2D",
      "MagneticFieldStrength": 3.0,
      "Manufacturer": "SIEMENS",
      "ManufacturerModelName": "Prisma_fit",
      "Modality": "MR",
      "NumberOfAverages": 1.0,
      "NumberOfPhaseEncodingSteps": 104,
      "PercentPhaseFieldOfView": 100.0,
      "PercentSampling": 100.0,
      "PerformedProcedureStepStartTime": "145914.536000",
      "PhotometricInterpretation": "MONOCHROME2",
      "PixelBandwidth": 2290.0,
      "PixelRepresentation": 0,
      "PixelSpacing": [2.0, 2.0],
      "ProtocolName": "func_task-things_run-2",
      "RepetitionTime": 1490.0,
      "Rows": 832,
      "SAR": 0.05624050144164,
      "SamplesPerPixel": 1,
      "ScanOptions": "FS",
      "ScanningSequence": "EP",
      "SequenceName": "epfid2d1_104",
      "SequenceVariant": [
        "SK",
        "SS"
],
      "SeriesDescription": "func_task-things_run-2",
      "SeriesNumber": 13,
      "SeriesTime": "154334.683000",
      "SliceLocation": -36.6104536723,
      "SliceThickness": 2.0,
      "SmallestImagePixelValue": 0,
      "SoftwareVersions": "syngo MR E11",
      "SpacingBetweenSlices": 1.9999999470094,
      "SpecificCharacterSet": "ISO_IR 100",
      "StudyID": "1",
      "StudyTime": "145914.470000",
      "TransmitCoilName": "Body",
      "VariableFlipAngleFlag": "N",
      "WindowCenterWidthExplanation": "Algo1",
      "dBdt": 0.0},
    "slices": {}
  },
  "time": {
    "samples": {
      "AcquisitionNumber": [1, 2, 3, 4, 5, 6, 7, 8, 9, 10, 11, 12, 13, 14, 15, 16, 17, 18, 19, 20, 21, 22, 23, 24, 25, 26, 27, 28, 29, 30, 31, 32, 33, 34, 35, 36, 37, 38, 39, 40, 41, 42, 43, 44, 45, 46, 47, 48, 49, 50, 51, 52, 53, 54, 55, 56, 57, 58, 59, 60, 61, 62, 63, 64, 65, 66, 67, 68, 69, 70, 71, 72, 73, 74, 75, 76, 77, 78, 79, 80, 81, 82, 83, 84, 85, 86, 87, 88, 89, 90, 91, 92, 93, 94, 95, 96, 97, 98, 99, 100, 101, 102, 103, 104, 105, 106, 107, 108, 109, 110, 111, 112, 113, 114, 115, 116, 117, 118, 119, 120, 121, 122, 123, 124, 125, 126, 127, 128, 129, 130, 131, 132, 133, 134, 135, 136, 137, 138, 139, 140, 141, 142, 143, 144, 145, 146, 147, 148, 149, 150, 151, 152, 153, 154, 155, 156, 157, 158, 159, 160, 161, 162, 163, 164, 165, 166, 167, 168, 169, 170, 171, 172, 173, 174, 175, 176, 177, 178, 179, 180, 181, 182, 183, 184, 185, 186, 187, 188, 189, 190],
      "AcquisitionTime": ["154218.590000", "154220.080000", "154221.570000", "154223.060000", "154224.550000", "154226.040000", "154227.530000", "154229.020000", "154230.510000", "154232.000000", "154233.490000", "154234.980000", "154236.470000", "154237.960000", "154239.450000", "154240.940000", "154242.430000", "154243.920000", "154245.410000", "154246.900000", "154248.390000", "154249.880000", "154251.370000", "154252.860000", "154254.350000", "154255.840000", "154257.330000", "154258.820000", "154300.310000", "154301.800000", "154303.290000", "154304.780000", "154306.270000", "154307.760000", "154309.250000", "154310.740000", "154312.230000", "154313.720000", "154315.210000", "154316.700000", "154318.190000", "154319.680000", "154321.170000", "154322.660000", "154324.150000", "154325.640000", "154327.130000", "154328.620000", "154330.110000", "154331.600000", "154333.090000", "154334.580000", "154336.070000", "154337.560000", "154339.050000", "154340.540000", "154342.030000", "154343.520000", "154345.010000", "154346.500000", "154347.990000", "154349.480000", "154350.970000", "154352.460000", "154353.950000", "154355.440000", "154356.930000", "154358.420000", "154359.910000", "154401.400000", "154402.890000", "154404.380000", "154405.870000", "154407.360000", "154408.850000", "154410.340000", "154411.830000", "154413.320000", "154414.810000", "154416.300000", "154417.790000", "154419.280000", "154420.770000", "154422.260000", "154423.750000", "154425.240000", "154426.730000", "154428.220000", "154429.710000", "154431.200000", "154432.690000", "154434.180000", "154435.670000", "154437.160000", "154438.650000", "154440.140000", "154441.630000", "154443.120000", "154444.610000", "154446.100000", "154447.590000", "154449.080000", "154450.570000", "154452.060000", "154453.550000", "154455.040000", "154456.530000", "154458.020000", "154459.510000", "154501.000000", "154502.490000", "154503.980000", "154505.470000", "154506.960000", "154508.450000", "154509.940000", "154511.430000", "154512.920000", "154514.410000", "154515.900000", "154517.390000", "154518.880000", "154520.370000", "154521.860000", "154523.350000", "154524.840000", "154526.330000", "154527.820000", "154529.310000", "154530.800000", "154532.290000", "154533.780000", "154535.270000", "154536.760000", "154538.250000", "154539.740000", "154541.230000", "154542.720000", "154544.210000", "154545.700000", "154547.190000", "154548.680000", "154550.170000", "154551.660000", "154553.150000", "154554.640000", "154556.130000", "154557.620000", "154559.110000", "154600.600000", "154602.090000", "154603.580000", "154605.070000", "154606.560000", "154608.050000", "154609.540000", "154611.030000", "154612.520000", "154614.010000", "154615.500000", "154616.990000", "154618.480000", "154619.970000", "154621.460000", "154622.950000", "154624.440000", "154625.930000", "154627.420000", "154628.910000", "154630.400000", "154631.890000", "154633.380000", "154634.870000", "154636.360000", "154637.850000", "154639.340000", "154640.830000", "154642.320000", "154643.810000", "154645.300000", "154646.790000", "154648.280000", "154649.770000", "154651.260000", "154652.750000", "154654.240000", "154655.730000", "154657.220000", "154658.710000", "154700.200000"],
      "ContentTime": ["154334.686000", "154334.690000", "154334.694000", "154334.698000", "154334.701000", "154334.704000", "154334.728000", "154334.732000", "154334.735000", "154334.738000", "154334.742000", "154334.745000", "154334.749000", "154334.752000", "154334.756000", "154334.759000", "154334.762000", "154334.766000", "154334.769000", "154334.773000", "154334.776000", "154334.779000", "154334.783000", "154354.653000", "154354.657000", "154354.660000", "154354.664000", "154354.667000", "154354.671000", "154354.674000", "154354.678000", "154354.681000", "154354.684000", "154354.688000", "154354.691000", "154354.695000", "154354.698000", "154354.701000", "154354.705000", "154354.708000", "154354.712000", "154354.734000", "154354.737000", "154414.653000", "154414.657000", "154414.661000", "154414.664000", "154414.667000", "154414.671000", "154414.674000", "154414.678000", "154414.681000", "154414.684000", "154414.688000", "154414.691000", "154414.695000", "154414.698000", "154414.701000", "154414.705000", "154414.708000", "154414.712000", "154414.715000", "154414.718000", "154434.653000", "154434.657000", "154434.660000", "154434.664000", "154434.667000", "154434.670000", "154434.674000", "154434.677000", "154434.681000", "154434.684000", "154434.688000", "154434.691000", "154434.695000", "154434.698000", "154434.701000", "154434.705000", "154434.708000", "154434.712000", "154434.715000", "154434.718000", "154434.722000", "154454.653000", "154454.657000", "154454.660000", "154454.664000", "154454.667000", "154454.670000", "154454.674000", "154454.677000", "154454.681000", "154454.684000", "154454.688000", "154454.691000", "154454.694000", "154454.698000", "154454.701000", "154454.704000", "154454.708000", "154454.711000", "154454.715000", "154454.718000", "154534.654000", "154534.658000", "154534.662000", "154534.665000", "154534.668000", "154534.672000", "154534.675000", "154534.678000", "154534.682000", "154534.685000", "154534.689000", "154534.692000", "154534.696000", "154534.699000", "154534.702000", "154534.706000", "154534.709000", "154534.712000", "154534.716000", "154534.719000", "154534.723000", "154534.726000", "154534.730000", "154534.733000", "154534.736000", "154534.740000", "154534.743000", "154614.653000", "154614.657000", "154614.660000", "154614.664000", "154614.667000", "154614.671000", "154614.674000", "154614.677000", "154614.681000", "154614.702000", "154614.706000", "154614.709000", "154614.712000", "154614.716000", "154614.727000", "154614.730000", "154614.733000", "154614.737000", "154614.740000", "154614.744000", "154614.747000", "154614.750000", "154614.754000", "154614.757000", "154614.761000", "154614.764000", "154614.768000", "154654.653000", "154654.657000", "154654.660000", "154654.664000", "154654.668000", "154654.671000", "154654.674000", "154654.678000", "154654.681000", "154654.685000", "154654.688000", "154654.691000", "154654.695000", "154654.698000", "154654.702000", "154654.705000", "154654.708000", "154654.712000", "154654.715000", "154654.719000", "154654.722000", "154654.725000", "154654.729000", "154654.732000", "154654.736000", "154654.739000", "154654.742000", "154701.995000", "154702.000000", "154702.003000", "154702.007000", "154702.010000"],
      "InstanceCreationTime": ["154334.686000", "154334.690000", "154334.694000", "154334.698000", "154334.701000", "154334.704000", "154334.728000", "154334.732000", "154334.735000", "154334.738000", "154334.742000", "154334.745000", "154334.749000", "154334.752000", "154334.756000", "154334.759000", "154334.762000", "154334.766000", "154334.769000", "154334.773000", "154334.776000", "154334.779000", "154334.783000", "154354.653000", "154354.657000", "154354.660000", "154354.664000", "154354.667000", "154354.671000", "154354.674000", "154354.678000", "154354.681000", "154354.684000", "154354.688000", "154354.691000", "154354.695000", "154354.698000", "154354.701000", "154354.705000", "154354.708000", "154354.712000", "154354.734000", "154354.737000", "154414.653000", "154414.657000", "154414.661000", "154414.664000", "154414.667000", "154414.671000", "154414.674000", "154414.678000", "154414.681000", "154414.684000", "154414.688000", "154414.691000", "154414.695000", "154414.698000", "154414.701000", "154414.705000", "154414.708000", "154414.712000", "154414.715000", "154414.718000", "154434.653000", "154434.657000", "154434.660000", "154434.664000", "154434.667000", "154434.670000", "154434.674000", "154434.677000", "154434.681000", "154434.684000", "154434.688000", "154434.691000", "154434.695000", "154434.698000", "154434.701000", "154434.705000", "154434.708000", "154434.712000", "154434.715000", "154434.718000", "154434.722000", "154454.653000", "154454.657000", "154454.660000", "154454.664000", "154454.667000", "154454.670000", "154454.674000", "154454.677000", "154454.681000", "154454.684000", "154454.688000", "154454.691000", "154454.694000", "154454.698000", "154454.701000", "154454.704000", "154454.708000", "154454.711000", "154454.715000", "154454.718000", "154534.654000", "154534.658000", "154534.662000", "154534.665000", "154534.668000", "154534.672000", "154534.675000", "154534.678000", "154534.682000", "154534.685000", "154534.689000", "154534.692000", "154534.696000", "154534.699000", "154534.702000", "154534.706000", "154534.709000", "154534.712000", "154534.716000", "154534.719000", "154534.723000", "154534.726000", "154534.730000", "154534.733000", "154534.736000", "154534.740000", "154534.743000", "154614.653000", "154614.657000", "154614.660000", "154614.664000", "154614.667000", "154614.671000", "154614.674000", "154614.677000", "154614.681000", "154614.702000", "154614.706000", "154614.709000", "154614.712000", "154614.716000", "154614.727000", "154614.730000", "154614.733000", "154614.737000", "154614.740000", "154614.744000", "154614.747000", "154614.750000", "154614.754000", "154614.757000", "154614.761000", "154614.764000", "154614.768000", "154654.653000", "154654.657000", "154654.660000", "154654.664000", "154654.668000", "154654.671000", "154654.674000", "154654.678000", "154654.681000", "154654.685000", "154654.688000", "154654.691000", "154654.695000", "154654.698000", "154654.702000", "154654.705000", "154654.708000", "154654.712000", "154654.715000", "154654.719000", "154654.722000", "154654.725000", "154654.729000", "154654.732000", "154654.736000", "154654.739000", "154654.742000", "154701.995000", "154702.000000", "154702.003000", "154702.007000", "154702.010000"],
      "InstanceNumber": [1, 2, 3, 4, 5, 6, 7, 8, 9, 10, 11, 12, 13, 14, 15, 16, 17, 18, 19, 20, 21, 22, 23, 24, 25, 26, 27, 28, 29, 30, 31, 32, 33, 34, 35, 36, 37, 38, 39, 40, 41, 42, 43, 44, 45, 46, 47, 48, 49, 50, 51, 52, 53, 54, 55, 56, 57, 58, 59, 60, 61, 62, 63, 64, 65, 66, 67, 68, 69, 70, 71, 72, 73, 74, 75, 76, 77, 78, 79, 80, 81, 82, 83, 84, 85, 86, 87, 88, 89, 90, 91, 92, 93, 94, 95, 96, 97, 98, 99, 100, 101, 102, 103, 104, 105, 106, 107, 108, 109, 110, 111, 112, 113, 114, 115, 116, 117, 118, 119, 120, 121, 122, 123, 124, 125, 126, 127, 128, 129, 130, 131, 132, 133, 134, 135, 136, 137, 138, 139, 140, 141, 142, 143, 144, 145, 146, 147, 148, 149, 150, 151, 152, 153, 154, 155, 156, 157, 158, 159, 160, 161, 162, 163, 164, 165, 166, 167, 168, 169, 170, 171, 172, 173, 174, 175, 176, 177, 178, 179, 180, 181, 182, 183, 184, 185, 186, 187, 188, 189, 190],
      "LargestImagePixelValue": [43387, 41291, 41649, 40546, 40463, 40595, 40174, 40084, 40303, 40296, 39694, 39538, 39063, 39600, 40428, 39309, 39677, 40170, 40100, 39704, 39660, 39851, 39977, 39264, 39904, 39351, 39596, 39858, 40039, 40001, 39837, 39760, 39769, 40189, 40117, 40057, 39686, 39950, 39470, 40169, 39441, 39678, 40092, 39916, 40334, 40415, 40579, 40084, 39925, 39980, 39856, 39570, 39671, 39889, 39802, 39845, 39555, 40300, 39708, 39954, 39643, 40052, 40344, 40475, 40391, 39545, 39527, 39907, 40183, 39624, 39420, 40211, 41052, 40256, 40031, 39680, 40024, 39841, 40323, 40233, 40622, 40216, 40241, 40191, 39571, 39909, 39723, 39477, 39646, 39302, 40296, 40426, 39828, 40336, 39618, 39844, 40186, 40549, 39523, 40102, 40195, 39829, 40616, 40316, 39535, 39841, 41023, 39232, 39475, 39318, 39135, 38993, 39231, 38888, 39309, 38995, 39309, 39345, 39230, 38976, 39394, 39121, 39402, 39496, 39581, 39596, 39243, 39533, 39649, 39743, 39405, 39456, 39506, 39656, 39488, 39950, 39036, 40168, 39409, 40053, 40301, 39261, 40648, 40086, 39733, 40263, 39710, 40522, 39502, 40507, 39375, 40274, 40176, 39847, 40228, 39759, 40239, 39979, 39673, 40409, 39508, 40162, 40203, 39948, 40183, 40387, 39917, 40285, 39778, 39495, 39842, 39365, 39824, 39919, 39634, 40209, 39830, 39689, 40178, 39561, 39320, 39078, 40123, 39081, 39441, 39047, 38904, 39498, 39172, 39836],
      "WindowCenter": [10381.0, 10319.0, 10310.0, 10300.0, 10312.0, 10313.0, 10305.0, 10275.0, 10264.0, 10247.0, 10201.0, 10188.0, 10186.0, 10190.0, 10202.0, 10194.0, 10197.0, 10224.0, 10252.0, 10255.0, 10257.0, 10271.0, 10272.0, 10275.0, 10288.0, 10280.0, 10293.0, 10293.0, 10283.0, 10273.0, 10267.0, 10255.0, 10264.0, 10263.0, 10249.0, 10249.0, 10245.0, 10250.0, 10245.0, 10248.0, 10234.0, 10241.0, 10248.0, 10257.0, 10270.0, 10265.0, 10270.0, 10257.0, 10265.0, 10264.0, 10267.0, 10275.0, 10275.0, 10283.0, 10268.0, 10258.0, 10251.0, 10256.0, 10252.0, 10258.0, 10258.0, 10258.0, 10265.0, 10279.0, 10271.0, 10261.0, 10252.0, 10233.0, 10232.0, 10211.0, 10204.0, 10209.0, 10259.0, 10278.0, 10259.0, 10239.0, 10234.0, 10219.0, 10202.0, 10192.0, 10195.0, 10198.0, 10210.0, 10219.0, 10223.0, 10244.0, 10277.0, 10283.0, 10278.0, 10266.0, 10275.0, 10276.0, 10278.0, 10278.0, 10256.0, 10244.0, 10237.0, 10238.0, 10242.0, 10249.0, 10248.0, 10254.0, 10282.0, 10262.0, 10213.0, 10197.0, 10223.0, 10219.0, 10228.0, 10221.0, 10192.0, 10168.0, 10149.0, 10155.0, 10192.0, 10213.0, 10237.0, 10245.0, 10223.0, 10213.0, 10227.0, 10239.0, 10260.0, 10278.0, 10284.0, 10262.0, 10247.0, 10244.0, 10251.0, 10259.0, 10246.0, 10253.0, 10254.0, 10259.0, 10245.0, 10242.0, 10229.0, 10252.0, 10247.0, 10251.0, 10241.0, 10226.0, 10227.0, 10229.0, 10234.0, 10236.0, 10233.0, 10236.0, 10219.0, 10234.0, 10219.0, 10229.0, 10236.0, 10239.0, 10238.0, 10239.0, 10235.0, 10221.0, 10220.0, 10225.0, 10216.0, 10224.0, 10220.0, 10220.0, 10235.0, 10260.0, 10271.0, 10278.0, 10245.0, 10202.0, 10180.0, 10164.0, 10167.0, 10191.0, 10197.0, 10208.0, 10214.0, 10223.0, 10235.0, 10232.0, 10250.0, 10273.0, 10288.0, 10248.0, 10211.0, 10187.0, 10184.0, 10215.0, 10256.0, 10317.0],
      "WindowWidth": [22484.0, 22309.0, 22262.0, 22232.0, 22250.0, 22246.0, 22219.0, 22152.0, 22121.0, 22085.0, 21983.0, 21949.0, 21953.0, 21961.0, 21984.0, 21971.0, 21977.0, 22033.0, 22097.0, 22106.0, 22110.0, 22141.0, 22137.0, 22148.0, 22173.0, 22164.0, 22191.0, 22193.0, 22169.0, 22145.0, 22135.0, 22109.0, 22125.0, 22122.0, 22094.0, 22093.0, 22087.0, 22094.0, 22085.0, 22090.0, 22060.0, 22076.0, 22090.0, 22112.0, 22140.0, 22131.0, 22139.0, 22112.0, 22131.0, 22126.0, 22134.0, 22153.0, 22157.0, 22171.0, 22138.0, 22118.0, 22102.0, 22111.0, 22106.0, 22117.0, 22117.0, 22117.0, 22135.0, 22165.0, 22147.0, 22126.0, 22100.0, 22056.0, 22054.0, 22011.0, 21993.0, 22004.0, 22116.0, 22162.0, 22116.0, 22071.0, 22055.0, 22022.0, 21982.0, 21958.0, 21957.0, 21970.0, 22000.0, 22022.0, 22037.0, 22084.0, 22161.0, 22175.0, 22159.0, 22130.0, 22147.0, 22151.0, 22155.0, 22156.0, 22106.0, 22080.0, 22066.0, 22063.0, 22077.0, 22092.0, 22091.0, 22110.0, 22171.0, 22130.0, 22017.0, 21978.0, 22033.0, 22027.0, 22044.0, 22027.0, 21962.0, 21908.0, 21869.0, 21881.0, 21962.0, 22013.0, 22067.0, 22084.0, 22036.0, 22011.0, 22043.0, 22071.0, 22118.0, 22160.0, 22168.0, 22124.0, 22090.0, 22082.0, 22098.0, 22115.0, 22089.0, 22102.0, 22107.0, 22115.0, 22085.0, 22075.0, 22051.0, 22096.0, 22090.0, 22097.0, 22073.0, 22044.0, 22041.0, 22047.0, 22060.0, 22060.0, 22060.0, 22062.0, 22030.0, 22056.0, 22029.0, 22050.0, 22063.0, 22073.0, 22070.0, 22071.0, 22058.0, 22030.0, 22027.0, 22035.0, 22020.0, 22033.0, 22026.0, 22028.0, 22059.0, 22118.0, 22146.0, 22161.0, 22088.0, 21989.0, 21938.0, 21902.0, 21907.0, 21958.0, 21976.0, 21997.0, 22015.0, 22038.0, 22062.0, 22059.0, 22098.0, 22152.0, 22182.0, 22097.0, 22010.0, 21957.0, 21948.0, 22015.0, 22114.0, 22261.0]
    },
    "slices": {}
  }
}