{
  "AcquisitionMatrixPE": 104,
  "AcquisitionNumber": 1,
  "AcquisitionTime": "16:07:7.325000",
  "BandwidthPerPixelPhaseEncode": 17.17,
  "BaseResolution": 104,
  "BodyPartExamined": "BRAIN",
  "CoilString": "HC1-7;NC1_2",
  "ConsistencyInfo": "N4_VE11C_LATEST_20160120",
  "ConversionSoftware": "dcm2niix",
  "ConversionSoftwareVersion": "v1.0.20190902",
  "DerivedVendorReportedEchoSpacing": 0.000560011,
  "DeviceSerialNumber": "167006",
  "DwellTime": 2.1e-06,
  "EchoTime": 0.037,
  "EchoTrainLength": 104,
  "EffectiveEchoSpacing": 0.000560011,
  "FlipAngle": 52,
  "ImageComments": "Unaliased_MB4_PE3_LB",
  "ImageOrientationPatientDICOM": [0.998491, -0.0539151, 0.0104086, 0.0546007, 0.954745, -0.292371],
  "ImageType": [
    "ORIGINAL",
    "PRIMARY",
    "P",
    "MB",
    "ND",
    "MOSAIC"
],
  "ImagingFrequency": 123.259,
  "InPlanePhaseEncodingDirectionDICOM": "COL",
  "InstitutionAddress": "Chemin_Queen-Mary_4565_Montreal_District_CA_H3W_1W5",
  "InstitutionName": "IUGM",
  "InstitutionalDepartmentName": "Department",
  "MRAcquisitionType": "2D",
  "MagneticFieldStrength": 3,
  "Manufacturer": "Siemens",
  "ManufacturersModelName": "Prisma_fit",
  "Modality": "MR",
  "MultibandAccelerationFactor": 4,
  "PartialFourier": 1,
  "PatientPosition": "HFS",
  "PercentPhaseFOV": 100,
  "PhaseEncodingDirection": "j",
  "PhaseEncodingSteps": 104,
  "PhaseResolution": 1,
  "PixelBandwidth": 2290,
  "ProcedureStepDescription": "memory_things",
  "ProtocolName": "func_task-things_run-6",
  "PulseSequenceDetails": "%CustomerSeq%_cmrr_mbep2d_bold",
  "ReceiveCoilActiveElements": "HC1-7;NC1,2",
  "ReceiveCoilName": "HeadNeck_64",
  "ReconMatrixPE": 104,
  "RepetitionTime": 1.49,
  "SAR": 0.0562405,
  "ScanOptions": "FS",
  "ScanningSequence": "EP",
  "SequenceName": "epfid2d1_104",
  "SequenceVariant": "SK_SS",
  "SeriesDescription": "func_task-things_run-6",
  "SeriesNumber": 26,
  "ShimSetting": [625, -7249, -8817, 593, -12, -198, -9, -34],
  "SliceThickness": 2,
  "SliceTiming": [0, 0.785, 0.1, 0.8825, 0.1975, 0.98, 0.295, 1.08, 0.3925, 1.1775, 0.49, 1.275, 0.59, 1.3725, 0.6875, 0, 0.785, 0.1, 0.8825, 0.1975, 0.98, 0.295, 1.08, 0.3925, 1.1775, 0.49, 1.275, 0.59, 1.3725, 0.6875, 0, 0.785, 0.1, 0.8825, 0.1975, 0.98, 0.295, 1.08, 0.3925, 1.1775, 0.49, 1.275, 0.59, 1.3725, 0.6875, 0, 0.785, 0.1, 0.8825, 0.1975, 0.98, 0.295, 1.08, 0.3925, 1.1775, 0.49, 1.275, 0.59, 1.3725, 0.6875],
  "SoftwareVersions": "syngo_MR_E11",
  "SpacingBetweenSlices": 2,
  "StationName": "MRC35049",
  "TaskName": "things",
  "TotalReadoutTime": 0.0576811,
  "TxRefAmp": 270.301,
  "WipMemBlock": "4eba656b-51c2-401a-bade-1c31473cfb35||Sequence: R016 ve11c/master r/e634e98; Dec 19 2017 11:00:25 by eja",
  "dcmmeta_affine": [
    [-1.9969825744628906, 0.10920148342847824, -0.011651277542114258, 101.3782958984375],
    [0.1078302413225174, 1.9094901084899902, -0.584995687007904, -74.16555786132812],
    [0.020817197859287262, 0.5847412943840027, 1.91249680519104, -60.353694915771484],
    [0.0, 0.0, 0.0, 1.0]
],
  "dcmmeta_reorient_transform": [
    [0.0, -1.0, 0.0, 103.0],
    [1.0, 0.0, 0.0, 0.0],
    [0.0, 0.0, 1.0, 0.0],
    [0.0, 0.0, 0.0, 1.0]
],
  "dcmmeta_shape": [104, 104, 60, 190],
  "dcmmeta_slice_dim": 2,
  "dcmmeta_version": 0.6,
  "global": {
    "const": {
      "AcquisitionMatrix": [104, 0, 0, 104],
      "AngioFlag": "N",
      "BitsAllocated": 16,
      "BitsStored": 16,
      "BodyPartExamined": "BRAIN",
      "Columns": 832,
      "EchoNumbers": 1,
      "EchoTime": 37.0,
      "EchoTrainLength": 104,
      "FlipAngle": 52.0,
      "HighBit": 15,
      "ImageOrientationPatient": [0.99849127228091, -0.0539151206809, 0.01040859936901, 0.05460074276141, 0.9547450820638, -0.2923706332122],
      "ImagePositionPatient": [-879.27703511285, -778.31613898508, 205.14301602408],
      "ImageType": [
        "ORIGINAL",
        "PRIMARY",
        "P",
        "MB",
        "ND",
        "MOSAIC"
],
      "ImagedNucleus": "1H",
      "ImagingFrequency": 123.258905,
      "InPlanePhaseEncodingDirection": "COL",
      "LargestImagePixelValue": 4095,
      "MRAcquisitionType": "2D",
      "MagneticFieldStrength": 3.0,
      "Manufacturer": "SIEMENS",
      "ManufacturerModelName": "Prisma_fit",
      "Modality": "MR",
      "NumberOfAverages": 1.0,
      "NumberOfPhaseEncodingSteps": 104,
      "PercentPhaseFieldOfView": 100.0,
      "PercentSampling": 100.0,
      "PerformedProcedureStepStartTime": "145914.536000",
      "PhotometricInterpretation": "MONOCHROME2",
      "PixelBandwidth": 2290.0,
      "PixelRepresentation": 0,
      "PixelSpacing": [2.0, 2.0],
      "ProtocolName": "func_task-things_run-6",
      "RepetitionTime": 1490.0,
      "RescaleIntercept": -4096.0,
      "RescaleSlope": 2.0,
      "RescaleType": "US",
      "Rows": 832,
      "SAR": 0.05624050144164,
      "SamplesPerPixel": 1,
      "ScanOptions": "FS",
      "ScanningSequence": "EP",
      "SequenceName": "epfid2d1_104",
      "SequenceVariant": [
        "SK",
        "SS"
],
      "SeriesDescription": "func_task-things_run-6",
      "SeriesNumber": 26,
      "SeriesTime": "160843.102000",
      "SliceLocation": -36.6104536723,
      "SliceThickness": 2.0,
      "SmallestImagePixelValue": 0,
      "SoftwareVersions": "syngo MR E11",
      "SpacingBetweenSlices": 1.9999999470094,
      "SpecificCharacterSet": "ISO_IR 100",
      "StudyID": "1",
      "StudyTime": "145914.470000",
      "TransmitCoilName": "Body",
      "VariableFlipAngleFlag": "N",
      "WindowCenterWidthExplanation": "Algo1",
      "dBdt": 0.0},
    "slices": {}
  },
  "time": {
    "samples": {
      "AcquisitionNumber": [1, 2, 3, 4, 5, 6, 7, 8, 9, 10, 11, 12, 13, 14, 15, 16, 17, 18, 19, 20, 21, 22, 23, 24, 25, 26, 27, 28, 29, 30, 31, 32, 33, 34, 35, 36, 37, 38, 39, 40, 41, 42, 43, 44, 45, 46, 47, 48, 49, 50, 51, 52, 53, 54, 55, 56, 57, 58, 59, 60, 61, 62, 63, 64, 65, 66, 67, 68, 69, 70, 71, 72, 73, 74, 75, 76, 77, 78, 79, 80, 81, 82, 83, 84, 85, 86, 87, 88, 89, 90, 91, 92, 93, 94, 95, 96, 97, 98, 99, 100, 101, 102, 103, 104, 105, 106, 107, 108, 109, 110, 111, 112, 113, 114, 115, 116, 117, 118, 119, 120, 121, 122, 123, 124, 125, 126, 127, 128, 129, 130, 131, 132, 133, 134, 135, 136, 137, 138, 139, 140, 141, 142, 143, 144, 145, 146, 147, 148, 149, 150, 151, 152, 153, 154, 155, 156, 157, 158, 159, 160, 161, 162, 163, 164, 165, 166, 167, 168, 169, 170, 171, 172, 173, 174, 175, 176, 177, 178, 179, 180, 181, 182, 183, 184, 185, 186, 187, 188, 189, 190],
      "AcquisitionTime": ["160707.325000", "160708.815000", "160710.305000", "160711.795000", "160713.285000", "160714.775000", "160716.265000", "160717.755000", "160719.245000", "160720.735000", "160722.225000", "160723.715000", "160725.205000", "160726.695000", "160728.185000", "160729.675000", "160731.165000", "160732.655000", "160734.145000", "160735.635000", "160737.125000", "160738.615000", "160740.105000", "160741.595000", "160743.085000", "160744.575000", "160746.065000", "160747.555000", "160749.045000", "160750.535000", "160752.025000", "160753.515000", "160755.005000", "160756.495000", "160757.985000", "160759.475000", "160800.965000", "160802.455000", "160803.945000", "160805.435000", "160806.925000", "160808.415000", "160809.905000", "160811.395000", "160812.885000", "160814.375000", "160815.865000", "160817.355000", "160818.845000", "160820.335000", "160821.825000", "160823.315000", "160824.805000", "160826.295000", "160827.785000", "160829.275000", "160830.765000", "160832.255000", "160833.745000", "160835.235000", "160836.725000", "160838.215000", "160839.705000", "160841.195000", "160842.685000", "160844.175000", "160845.665000", "160847.155000", "160848.645000", "160850.135000", "160851.625000", "160853.115000", "160854.605000", "160856.095000", "160857.585000", "160859.075000", "160900.565000", "160902.055000", "160903.545000", "160905.035000", "160906.525000", "160908.015000", "160909.505000", "160910.995000", "160912.485000", "160913.975000", "160915.465000", "160916.955000", "160918.445000", "160919.935000", "160921.425000", "160922.915000", "160924.405000", "160925.895000", "160927.385000", "160928.875000", "160930.365000", "160931.855000", "160933.345000", "160934.835000", "160936.325000", "160937.815000", "160939.305000", "160940.795000", "160942.285000", "160943.775000", "160945.265000", "160946.755000", "160948.245000", "160949.735000", "160951.225000", "160952.715000", "160954.205000", "160955.695000", "160957.185000", "160958.675000", "161000.165000", "161001.655000", "161003.145000", "161004.635000", "161006.125000", "161007.615000", "161009.105000", "161010.595000", "161012.085000", "161013.575000", "161015.065000", "161016.555000", "161018.045000", "161019.535000", "161021.025000", "161022.515000", "161024.005000", "161025.495000", "161026.985000", "161028.475000", "161029.965000", "161031.455000", "161032.945000", "161034.435000", "161035.925000", "161037.415000", "161038.905000", "161040.395000", "161041.885000", "161043.375000", "161044.865000", "161046.355000", "161047.845000", "161049.335000", "161050.825000", "161052.315000", "161053.805000", "161055.295000", "161056.785000", "161058.275000", "161059.765000", "161101.255000", "161102.745000", "161104.235000", "161105.725000", "161107.215000", "161108.705000", "161110.195000", "161111.685000", "161113.175000", "161114.665000", "161116.155000", "161117.645000", "161119.135000", "161120.625000", "161122.115000", "161123.605000", "161125.095000", "161126.585000", "161128.075000", "161129.565000", "161131.055000", "161132.545000", "161134.035000", "161135.525000", "161137.015000", "161138.505000", "161139.995000", "161141.485000", "161142.975000", "161144.465000", "161145.955000", "161147.445000", "161148.935000"],
      "ContentTime": ["160843.104000", "160843.106000", "160843.109000", "160843.111000", "160843.114000", "160843.117000", "160843.127000", "160843.129000", "160843.132000", "160843.134000", "160843.137000", "160843.139000", "160843.142000", "160843.144000", "160843.147000", "160843.149000", "160843.152000", "160843.154000", "160843.157000", "160843.159000", "160843.162000", "160843.164000", "160843.167000", "160843.169000", "160843.172000", "160843.175000", "160843.177000", "160843.180000", "160843.182000", "160843.185000", "160843.187000", "160843.190000", "160843.192000", "160843.195000", "160843.197000", "160843.200000", "160843.202000", "160843.205000", "160843.207000", "160902.986000", "160902.989000", "160902.991000", "160902.994000", "160902.996000", "160903.000000", "160903.002000", "160903.005000", "160903.008000", "160903.015000", "160903.018000", "160903.020000", "160903.023000", "160903.025000", "160903.028000", "160903.030000", "160903.033000", "160903.035000", "160903.038000", "160903.040000", "160922.962000", "160922.965000", "160922.967000", "160922.970000", "160922.972000", "160922.975000", "160922.977000", "160922.980000", "160922.983000", "160922.985000", "160922.988000", "160922.990000", "160922.993000", "160922.995000", "160922.998000", "160923.001000", "160923.004000", "160923.006000", "160923.009000", "160923.012000", "160942.968000", "160942.971000", "160942.973000", "160942.976000", "160942.978000", "160942.981000", "160942.983000", "160942.986000", "160942.988000", "160942.991000", "160942.993000", "160942.996000", "160943.000000", "160943.002000", "160943.005000", "160943.007000", "160943.010000", "160943.013000", "160943.016000", "160943.019000", "161002.967000", "161002.970000", "161002.972000", "161002.975000", "161002.977000", "161002.980000", "161002.982000", "161002.985000", "161002.987000", "161002.990000", "161002.992000", "161002.995000", "161002.997000", "161003.001000", "161003.003000", "161003.006000", "161003.009000", "161003.011000", "161043.008000", "161043.011000", "161043.014000", "161043.017000", "161043.019000", "161043.022000", "161043.025000", "161043.027000", "161043.030000", "161043.032000", "161043.035000", "161043.037000", "161043.040000", "161043.042000", "161043.045000", "161043.048000", "161043.050000", "161043.053000", "161043.055000", "161043.058000", "161043.060000", "161043.063000", "161043.065000", "161043.068000", "161043.070000", "161043.073000", "161043.075000", "161123.022000", "161123.024000", "161123.027000", "161123.030000", "161123.032000", "161123.035000", "161123.037000", "161123.040000", "161123.042000", "161123.045000", "161123.047000", "161123.050000", "161123.052000", "161123.055000", "161123.057000", "161123.060000", "161123.062000", "161123.074000", "161123.076000", "161123.079000", "161123.082000", "161123.084000", "161123.087000", "161123.089000", "161123.092000", "161123.094000", "161123.097000", "161151.108000", "161151.111000", "161151.113000", "161151.116000", "161151.118000", "161151.121000", "161151.123000", "161151.126000", "161151.128000", "161151.131000", "161151.134000", "161151.136000", "161151.139000", "161151.141000", "161151.144000", "161151.146000", "161151.149000", "161151.152000", "161151.154000"],
      "InstanceCreationTime": ["160843.104000", "160843.106000", "160843.109000", "160843.111000", "160843.114000", "160843.117000", "160843.127000", "160843.129000", "160843.132000", "160843.134000", "160843.137000", "160843.139000", "160843.142000", "160843.144000", "160843.147000", "160843.149000", "160843.152000", "160843.154000", "160843.157000", "160843.159000", "160843.162000", "160843.164000", "160843.167000", "160843.169000", "160843.172000", "160843.175000", "160843.177000", "160843.180000", "160843.182000", "160843.185000", "160843.187000", "160843.190000", "160843.192000", "160843.195000", "160843.197000", "160843.200000", "160843.202000", "160843.205000", "160843.207000", "160902.986000", "160902.989000", "160902.991000", "160902.994000", "160902.996000", "160903.000000", "160903.002000", "160903.005000", "160903.008000", "160903.015000", "160903.018000", "160903.020000", "160903.023000", "160903.025000", "160903.028000", "160903.030000", "160903.033000", "160903.035000", "160903.038000", "160903.040000", "160922.962000", "160922.965000", "160922.967000", "160922.970000", "160922.972000", "160922.975000", "160922.977000", "160922.980000", "160922.983000", "160922.985000", "160922.988000", "160922.990000", "160922.993000", "160922.995000", "160922.998000", "160923.001000", "160923.004000", "160923.006000", "160923.009000", "160923.012000", "160942.968000", "160942.971000", "160942.973000", "160942.976000", "160942.978000", "160942.981000", "160942.983000", "160942.986000", "160942.988000", "160942.991000", "160942.993000", "160942.996000", "160943.000000", "160943.002000", "160943.005000", "160943.007000", "160943.010000", "160943.013000", "160943.016000", "160943.019000", "161002.967000", "161002.970000", "161002.972000", "161002.975000", "161002.977000", "161002.980000", "161002.982000", "161002.985000", "161002.987000", "161002.990000", "161002.992000", "161002.995000", "161002.997000", "161003.001000", "161003.003000", "161003.006000", "161003.009000", "161003.011000", "161043.008000", "161043.011000", "161043.014000", "161043.017000", "161043.019000", "161043.022000", "161043.025000", "161043.027000", "161043.030000", "161043.032000", "161043.035000", "161043.037000", "161043.040000", "161043.042000", "161043.045000", "161043.048000", "161043.050000", "161043.053000", "161043.055000", "161043.058000", "161043.060000", "161043.063000", "161043.065000", "161043.068000", "161043.070000", "161043.073000", "161043.075000", "161123.022000", "161123.024000", "161123.027000", "161123.030000", "161123.032000", "161123.035000", "161123.037000", "161123.040000", "161123.042000", "161123.045000", "161123.047000", "161123.050000", "161123.052000", "161123.055000", "161123.057000", "161123.060000", "161123.062000", "161123.074000", "161123.076000", "161123.079000", "161123.082000", "161123.084000", "161123.087000", "161123.089000", "161123.092000", "161123.094000", "161123.097000", "161151.108000", "161151.111000", "161151.113000", "161151.116000", "161151.118000", "161151.121000", "161151.123000", "161151.126000", "161151.128000", "161151.131000", "161151.134000", "161151.136000", "161151.139000", "161151.141000", "161151.144000", "161151.146000", "161151.149000", "161151.152000", "161151.154000"],
      "InstanceNumber": [1, 2, 3, 4, 5, 6, 7, 8, 9, 10, 11, 12, 13, 14, 15, 16, 17, 18, 19, 20, 21, 22, 23, 24, 25, 26, 27, 28, 29, 30, 31, 32, 33, 34, 35, 36, 37, 38, 39, 40, 41, 42, 43, 44, 45, 46, 47, 48, 49, 50, 51, 52, 53, 54, 55, 56, 57, 58, 59, 60, 61, 62, 63, 64, 65, 66, 67, 68, 69, 70, 71, 72, 73, 74, 75, 76, 77, 78, 79, 80, 81, 82, 83, 84, 85, 86, 87, 88, 89, 90, 91, 92, 93, 94, 95, 96, 97, 98, 99, 100, 101, 102, 103, 104, 105, 106, 107, 108, 109, 110, 111, 112, 113, 114, 115, 116, 117, 118, 119, 120, 121, 122, 123, 124, 125, 126, 127, 128, 129, 130, 131, 132, 133, 134, 135, 136, 137, 138, 139, 140, 141, 142, 143, 144, 145, 146, 147, 148, 149, 150, 151, 152, 153, 154, 155, 156, 157, 158, 159, 160, 161, 162, 163, 164, 165, 166, 167, 168, 169, 170, 171, 172, 173, 174, 175, 176, 177, 178, 179, 180, 181, 182, 183, 184, 185, 186, 187, 188, 189, 190],
      "WindowCenter": [4790.0, 4798.0, 4794.0, 4818.0, 4792.0, 4790.0, 4820.0, 4814.0, 4794.0, 4816.0, 4818.0, 4822.0, 4820.0, 4854.0, 4880.0, 4830.0, 4792.0, 4812.0, 4800.0, 4802.0, 4812.0, 4818.0, 4796.0, 4830.0, 4834.0, 4878.0, 4856.0, 4792.0, 4814.0, 4808.0, 4810.0, 4808.0, 4812.0, 4794.0, 4796.0, 4824.0, 4824.0, 4858.0, 4832.0, 4792.0, 4816.0, 4812.0, 4812.0, 4790.0, 4814.0, 4792.0, 4820.0, 4828.0, 4820.0, 4788.0, 4794.0, 4790.0, 4792.0, 4790.0, 4794.0, 4824.0, 4796.0, 4790.0, 4810.0, 4790.0, 4812.0, 4796.0, 4796.0, 4820.0, 4796.0, 4794.0, 4794.0, 4822.0, 4796.0, 4818.0, 4820.0, 4820.0, 4818.0, 4814.0, 4822.0, 4794.0, 4790.0, 4792.0, 4794.0, 4796.0, 4794.0, 4792.0, 4792.0, 4790.0, 4794.0, 4792.0, 4790.0, 4796.0, 4822.0, 4792.0, 4794.0, 4796.0, 4792.0, 4790.0, 4792.0, 4792.0, 4794.0, 4796.0, 4796.0, 4794.0, 4792.0, 4794.0, 4794.0, 4792.0, 4792.0, 4794.0, 4826.0, 4796.0, 4792.0, 4790.0, 4794.0, 4812.0, 4812.0, 4792.0, 4790.0, 4790.0, 4794.0, 4818.0, 4794.0, 4794.0, 4790.0, 4788.0, 4792.0, 4792.0, 4790.0, 4794.0, 4790.0, 4796.0, 4828.0, 4798.0, 4790.0, 4792.0, 4786.0, 4794.0, 4792.0, 4792.0, 4794.0, 4818.0, 4818.0, 4796.0, 4792.0, 4792.0, 4794.0, 4794.0, 4814.0, 4816.0, 4790.0, 4798.0, 4816.0, 4794.0, 4794.0, 4818.0, 4792.0, 4792.0, 4794.0, 4816.0, 4792.0, 4794.0, 4792.0, 4792.0, 4796.0, 4824.0, 4820.0, 4792.0, 4796.0, 4792.0, 4796.0, 4818.0, 4818.0, 4822.0, 4818.0, 4798.0, 4792.0, 4792.0, 4794.0, 4792.0, 4816.0, 4798.0, 4824.0, 4798.0, 4816.0, 4796.0, 4818.0, 4794.0, 4818.0, 4818.0, 4818.0, 4816.0, 4792.0, 4792.0],
      "WindowWidth": [18546.0, 18546.0, 18540.0, 18576.0, 18552.0, 18580.0, 18618.0, 18608.0, 18568.0, 18590.0, 18588.0, 18594.0, 18588.0, 18628.0, 18660.0, 18584.0, 18546.0, 18618.0, 18606.0, 18608.0, 18614.0, 18602.0, 18552.0, 18588.0, 18594.0, 18664.0, 18622.0, 18554.0, 18616.0, 18614.0, 18616.0, 18608.0, 18610.0, 18566.0, 18550.0, 18580.0, 18572.0, 18616.0, 18578.0, 18556.0, 18618.0, 18614.0, 18612.0, 18584.0, 18596.0, 18548.0, 18576.0, 18582.0, 18578.0, 18548.0, 18556.0, 18568.0, 18572.0, 18576.0, 18552.0, 18568.0, 18556.0, 18566.0, 18600.0, 18568.0, 18598.0, 18548.0, 18556.0, 18572.0, 18542.0, 18556.0, 18550.0, 18574.0, 18566.0, 18618.0, 18600.0, 18588.0, 18584.0, 18592.0, 18588.0, 18560.0, 18568.0, 18572.0, 18566.0, 18550.0, 18550.0, 18560.0, 18572.0, 18562.0, 18566.0, 18562.0, 18554.0, 18556.0, 18578.0, 18554.0, 18554.0, 18556.0, 18572.0, 18568.0, 18560.0, 18564.0, 18558.0, 18554.0, 18560.0, 18554.0, 18552.0, 18560.0, 18570.0, 18562.0, 18562.0, 18562.0, 18572.0, 18540.0, 18564.0, 18554.0, 18570.0, 18602.0, 18602.0, 18568.0, 18562.0, 18552.0, 18550.0, 18586.0, 18556.0, 18550.0, 18564.0, 18564.0, 18554.0, 18568.0, 18554.0, 18564.0, 18564.0, 18552.0, 18574.0, 18540.0, 18560.0, 18570.0, 18570.0, 18574.0, 18570.0, 18566.0, 18556.0, 18590.0, 18580.0, 18548.0, 18554.0, 18560.0, 18566.0, 18564.0, 18604.0, 18604.0, 18568.0, 18558.0, 18586.0, 18546.0, 18554.0, 18588.0, 18560.0, 18556.0, 18544.0, 18590.0, 18568.0, 18566.0, 18570.0, 18560.0, 18568.0, 18580.0, 18582.0, 18552.0, 18548.0, 18560.0, 18560.0, 18598.0, 18586.0, 18572.0, 18582.0, 18558.0, 18564.0, 18562.0, 18566.0, 18568.0, 18596.0, 18550.0, 18576.0, 18544.0, 18584.0, 18550.0, 18584.0, 18568.0, 18588.0, 18590.0, 18596.0, 18594.0, 18566.0, 18564.0]
    },
    "slices": {}
  }
}