{
  "AcquisitionMatrixPE": 104,
  "AcquisitionNumber": 1,
  "AcquisitionTime": "15:48:28.155000",
  "BandwidthPerPixelPhaseEncode": 17.17,
  "BaseResolution": 104,
  "BodyPartExamined": "BRAIN",
  "CoilString": "HC1-7;NC1_2",
  "ConsistencyInfo": "N4_VE11C_LATEST_20160120",
  "ConversionSoftware": "dcm2niix",
  "ConversionSoftwareVersion": "v1.0.20190902",
  "DerivedVendorReportedEchoSpacing": 0.000560011,
  "DeviceSerialNumber": "167006",
  "DwellTime": 2.1e-06,
  "EchoTime": 0.037,
  "EchoTrainLength": 104,
  "EffectiveEchoSpacing": 0.000560011,
  "FlipAngle": 52,
  "ImageComments": "Unaliased_MB4_PE3_LB",
  "ImageOrientationPatientDICOM": [0.998491, -0.0539151, 0.0104086, 0.0546007, 0.954745, -0.292371],
  "ImageType": [
    "ORIGINAL",
    "PRIMARY",
    "M",
    "MB",
    "ND",
    "MOSAIC"
],
  "ImagingFrequency": 123.259,
  "InPlanePhaseEncodingDirectionDICOM": "COL",
  "InstitutionAddress": "Chemin_Queen-Mary_4565_Montreal_District_CA_H3W_1W5",
  "InstitutionName": "IUGM",
  "InstitutionalDepartmentName": "Department",
  "MRAcquisitionType": "2D",
  "MagneticFieldStrength": 3,
  "Manufacturer": "Siemens",
  "ManufacturersModelName": "Prisma_fit",
  "Modality": "MR",
  "MultibandAccelerationFactor": 4,
  "PartialFourier": 1,
  "PatientPosition": "HFS",
  "PercentPhaseFOV": 100,
  "PhaseEncodingDirection": "j",
  "PhaseEncodingSteps": 104,
  "PhaseResolution": 1,
  "PixelBandwidth": 2290,
  "ProcedureStepDescription": "memory_things",
  "ProtocolName": "func_task-things_run-3",
  "PulseSequenceDetails": "%CustomerSeq%_cmrr_mbep2d_bold",
  "ReceiveCoilActiveElements": "HC1-7;NC1,2",
  "ReceiveCoilName": "HeadNeck_64",
  "ReconMatrixPE": 104,
  "RepetitionTime": 1.49,
  "SAR": 0.0562405,
  "ScanOptions": "FS",
  "ScanningSequence": "EP",
  "SequenceName": "epfid2d1_104",
  "SequenceVariant": "SK_SS",
  "SeriesDescription": "func_task-things_run-3",
  "SeriesNumber": 16,
  "ShimSetting": [625, -7249, -8817, 593, -12, -198, -9, -34],
  "SliceThickness": 2,
  "SliceTiming": [0, 0.785, 0.0975, 0.8825, 0.1975, 0.98, 0.295, 1.0775, 0.3925, 1.1775, 0.49, 1.275, 0.5875, 1.3725, 0.6875, 0, 0.785, 0.0975, 0.8825, 0.1975, 0.98, 0.295, 1.0775, 0.3925, 1.1775, 0.49, 1.275, 0.5875, 1.3725, 0.6875, 0, 0.785, 0.0975, 0.8825, 0.1975, 0.98, 0.295, 1.0775, 0.3925, 1.1775, 0.49, 1.275, 0.5875, 1.3725, 0.6875, 0, 0.785, 0.0975, 0.8825, 0.1975, 0.98, 0.295, 1.0775, 0.3925, 1.1775, 0.49, 1.275, 0.5875, 1.3725, 0.6875],
  "SoftwareVersions": "syngo_MR_E11",
  "SpacingBetweenSlices": 2,
  "StationName": "MRC35049",
  "TaskName": "things",
  "TotalReadoutTime": 0.0576811,
  "TxRefAmp": 270.301,
  "WipMemBlock": "0379aa58-601e-455d-99ff-d2b81baa8a3b||Sequence: R016 ve11c/master r/e634e98; Dec 19 2017 11:00:25 by eja",
  "dcmmeta_affine": [
    [-1.9969825744628906, 0.10920148342847824, -0.011651277542114258, 101.3782958984375],
    [0.1078302413225174, 1.9094901084899902, -0.584995687007904, -74.16555786132812],
    [0.020817197859287262, 0.5847412943840027, 1.91249680519104, -60.353694915771484],
    [0.0, 0.0, 0.0, 1.0]
],
  "dcmmeta_reorient_transform": [
    [0.0, -1.0, 0.0, 103.0],
    [1.0, 0.0, 0.0, 0.0],
    [0.0, 0.0, 1.0, 0.0],
    [0.0, 0.0, 0.0, 1.0]
],
  "dcmmeta_shape": [104, 104, 60, 190],
  "dcmmeta_slice_dim": 2,
  "dcmmeta_version": 0.6,
  "global": {
    "const": {
      "AcquisitionMatrix": [104, 0, 0, 104],
      "AngioFlag": "N",
      "BitsAllocated": 16,
      "BitsStored": 16,
      "BodyPartExamined": "BRAIN",
      "Columns": 832,
      "EchoNumbers": 1,
      "EchoTime": 37.0,
      "EchoTrainLength": 104,
      "FlipAngle": 52.0,
      "HighBit": 15,
      "ImageOrientationPatient": [0.99849127228091, -0.0539151206809, 0.01040859936901, 0.05460074276141, 0.9547450820638, -0.2923706332122],
      "ImagePositionPatient": [-879.27703511285, -778.31613898508, 205.14301602408],
      "ImageType": [
        "ORIGINAL",
        "PRIMARY",
        "M",
        "MB",
        "ND",
        "MOSAIC"
],
      "ImagedNucleus": "1H",
      "ImagingFrequency": 123.258904,
      "InPlanePhaseEncodingDirection": "COL",
      "MRAcquisitionType": "2D",
      "MagneticFieldStrength": 3.0,
      "Manufacturer": "SIEMENS",
      "ManufacturerModelName": "Prisma_fit",
      "Modality": "MR",
      "NumberOfAverages": 1.0,
      "NumberOfPhaseEncodingSteps": 104,
      "PercentPhaseFieldOfView": 100.0,
      "PercentSampling": 100.0,
      "PerformedProcedureStepStartTime": "145914.536000",
      "PhotometricInterpretation": "MONOCHROME2",
      "PixelBandwidth": 2290.0,
      "PixelRepresentation": 0,
      "PixelSpacing": [2.0, 2.0],
      "ProtocolName": "func_task-things_run-3",
      "RepetitionTime": 1490.0,
      "Rows": 832,
      "SAR": 0.05624050144164,
      "SamplesPerPixel": 1,
      "ScanOptions": "FS",
      "ScanningSequence": "EP",
      "SequenceName": "epfid2d1_104",
      "SequenceVariant": [
        "SK",
        "SS"
],
      "SeriesDescription": "func_task-things_run-3",
      "SeriesNumber": 16,
      "SeriesTime": "154942.899000",
      "SliceLocation": -36.6104536723,
      "SliceThickness": 2.0,
      "SmallestImagePixelValue": 0,
      "SoftwareVersions": "syngo MR E11",
      "SpacingBetweenSlices": 1.9999999470094,
      "SpecificCharacterSet": "ISO_IR 100",
      "StudyID": "1",
      "StudyTime": "145914.470000",
      "TransmitCoilName": "Body",
      "VariableFlipAngleFlag": "N",
      "WindowCenterWidthExplanation": "Algo1",
      "dBdt": 0.0},
    "slices": {}
  },
  "time": {
    "samples": {
      "AcquisitionNumber": [1, 2, 3, 4, 5, 6, 7, 8, 9, 10, 11, 12, 13, 14, 15, 16, 17, 18, 19, 20, 21, 22, 23, 24, 25, 26, 27, 28, 29, 30, 31, 32, 33, 34, 35, 36, 37, 38, 39, 40, 41, 42, 43, 44, 45, 46, 47, 48, 49, 50, 51, 52, 53, 54, 55, 56, 57, 58, 59, 60, 61, 62, 63, 64, 65, 66, 67, 68, 69, 70, 71, 72, 73, 74, 75, 76, 77, 78, 79, 80, 81, 82, 83, 84, 85, 86, 87, 88, 89, 90, 91, 92, 93, 94, 95, 96, 97, 98, 99, 100, 101, 102, 103, 104, 105, 106, 107, 108, 109, 110, 111, 112, 113, 114, 115, 116, 117, 118, 119, 120, 121, 122, 123, 124, 125, 126, 127, 128, 129, 130, 131, 132, 133, 134, 135, 136, 137, 138, 139, 140, 141, 142, 143, 144, 145, 146, 147, 148, 149, 150, 151, 152, 153, 154, 155, 156, 157, 158, 159, 160, 161, 162, 163, 164, 165, 166, 167, 168, 169, 170, 171, 172, 173, 174, 175, 176, 177, 178, 179, 180, 181, 182, 183, 184, 185, 186, 187, 188, 189, 190],
      "AcquisitionTime": ["154828.155000", "154829.645000", "154831.135000", "154832.625000", "154834.115000", "154835.605000", "154837.095000", "154838.585000", "154840.075000", "154841.565000", "154843.055000", "154844.545000", "154846.035000", "154847.525000", "154849.015000", "154850.505000", "154851.995000", "154853.485000", "154854.975000", "154856.465000", "154857.955000", "154859.445000", "154900.935000", "154902.425000", "154903.915000", "154905.405000", "154906.895000", "154908.385000", "154909.875000", "154911.365000", "154912.855000", "154914.345000", "154915.835000", "154917.325000", "154918.815000", "154920.305000", "154921.795000", "154923.285000", "154924.775000", "154926.265000", "154927.755000", "154929.245000", "154930.735000", "154932.225000", "154933.715000", "154935.205000", "154936.695000", "154938.185000", "154939.675000", "154941.165000", "154942.655000", "154944.145000", "154945.635000", "154947.125000", "154948.615000", "154950.105000", "154951.595000", "154953.085000", "154954.575000", "154956.065000", "154957.555000", "154959.045000", "155000.535000", "155002.025000", "155003.515000", "155005.005000", "155006.495000", "155007.985000", "155009.475000", "155010.965000", "155012.455000", "155013.945000", "155015.435000", "155016.925000", "155018.415000", "155019.905000", "155021.395000", "155022.885000", "155024.375000", "155025.865000", "155027.355000", "155028.845000", "155030.335000", "155031.825000", "155033.315000", "155034.805000", "155036.295000", "155037.785000", "155039.275000", "155040.765000", "155042.255000", "155043.745000", "155045.235000", "155046.725000", "155048.215000", "155049.705000", "155051.195000", "155052.685000", "155054.175000", "155055.665000", "155057.155000", "155058.645000", "155100.135000", "155101.625000", "155103.115000", "155104.605000", "155106.095000", "155107.585000", "155109.075000", "155110.565000", "155112.055000", "155113.545000", "155115.035000", "155116.525000", "155118.015000", "155119.505000", "155120.995000", "155122.485000", "155123.975000", "155125.465000", "155126.955000", "155128.445000", "155129.935000", "155131.425000", "155132.915000", "155134.405000", "155135.895000", "155137.385000", "155138.875000", "155140.365000", "155141.855000", "155143.345000", "155144.835000", "155146.325000", "155147.815000", "155149.305000", "155150.795000", "155152.285000", "155153.775000", "155155.265000", "155156.755000", "155158.245000", "155159.735000", "155201.225000", "155202.715000", "155204.205000", "155205.695000", "155207.185000", "155208.675000", "155210.165000", "155211.655000", "155213.145000", "155214.635000", "155216.125000", "155217.615000", "155219.105000", "155220.595000", "155222.085000", "155223.575000", "155225.065000", "155226.555000", "155228.045000", "155229.535000", "155231.025000", "155232.515000", "155234.005000", "155235.495000", "155236.985000", "155238.475000", "155239.965000", "155241.455000", "155242.945000", "155244.435000", "155245.925000", "155247.415000", "155248.905000", "155250.395000", "155251.885000", "155253.375000", "155254.865000", "155256.355000", "155257.845000", "155259.335000", "155300.825000", "155302.315000", "155303.805000", "155305.295000", "155306.785000", "155308.275000", "155309.765000"],
      "ContentTime": ["154942.902000", "154942.906000", "154942.909000", "154942.913000", "154942.916000", "154942.919000", "154942.923000", "154942.930000", "154942.933000", "154942.937000", "154942.940000", "154942.943000", "154942.947000", "154942.950000", "154942.954000", "154942.957000", "154942.961000", "154942.964000", "154942.967000", "154942.971000", "154942.974000", "155002.862000", "155002.866000", "155002.869000", "155002.873000", "155002.876000", "155002.880000", "155002.883000", "155002.887000", "155002.890000", "155002.893000", "155002.903000", "155002.906000", "155002.910000", "155002.913000", "155002.916000", "155002.920000", "155002.923000", "155002.926000", "155002.930000", "155002.933000", "155022.862000", "155022.866000", "155022.869000", "155022.873000", "155022.876000", "155022.879000", "155022.883000", "155022.886000", "155022.890000", "155022.893000", "155022.896000", "155022.900000", "155022.903000", "155022.907000", "155022.910000", "155022.913000", "155022.917000", "155022.920000", "155022.924000", "155022.927000", "155042.862000", "155042.866000", "155042.869000", "155042.873000", "155042.876000", "155042.879000", "155042.883000", "155042.886000", "155042.890000", "155042.893000", "155042.896000", "155042.900000", "155042.903000", "155042.907000", "155042.910000", "155042.913000", "155042.917000", "155042.920000", "155042.924000", "155042.927000", "155102.863000", "155102.867000", "155102.870000", "155102.874000", "155102.877000", "155102.881000", "155102.885000", "155102.888000", "155102.891000", "155102.895000", "155102.898000", "155102.902000", "155102.905000", "155102.909000", "155102.912000", "155102.915000", "155102.919000", "155102.922000", "155102.925000", "155102.929000", "155142.863000", "155142.867000", "155142.870000", "155142.874000", "155142.877000", "155142.881000", "155142.884000", "155142.888000", "155142.891000", "155142.894000", "155142.898000", "155142.901000", "155142.905000", "155142.908000", "155142.911000", "155142.915000", "155142.918000", "155142.922000", "155142.925000", "155142.928000", "155142.932000", "155142.935000", "155142.939000", "155142.947000", "155142.950000", "155142.953000", "155142.957000", "155142.960000", "155142.964000", "155222.862000", "155222.866000", "155222.870000", "155222.873000", "155222.876000", "155222.880000", "155222.883000", "155222.887000", "155222.890000", "155222.894000", "155222.897000", "155222.900000", "155222.904000", "155222.907000", "155222.911000", "155222.914000", "155222.918000", "155222.935000", "155222.938000", "155222.942000", "155222.945000", "155222.949000", "155222.952000", "155222.955000", "155222.959000", "155222.962000", "155222.966000", "155302.862000", "155302.866000", "155302.869000", "155302.873000", "155302.883000", "155302.886000", "155302.889000", "155302.893000", "155302.896000", "155302.900000", "155302.903000", "155302.907000", "155302.910000", "155302.913000", "155302.917000", "155302.920000", "155302.924000", "155302.931000", "155302.935000", "155302.938000", "155302.942000", "155302.945000", "155302.948000", "155302.952000", "155302.955000", "155302.959000", "155302.962000", "155311.591000", "155311.595000", "155311.598000", "155311.602000", "155311.605000", "155311.608000"],
      "InstanceCreationTime": ["154942.902000", "154942.906000", "154942.909000", "154942.913000", "154942.916000", "154942.919000", "154942.923000", "154942.930000", "154942.933000", "154942.937000", "154942.940000", "154942.943000", "154942.947000", "154942.950000", "154942.954000", "154942.957000", "154942.961000", "154942.964000", "154942.967000", "154942.971000", "154942.974000", "155002.862000", "155002.866000", "155002.869000", "155002.873000", "155002.876000", "155002.880000", "155002.883000", "155002.887000", "155002.890000", "155002.893000", "155002.903000", "155002.906000", "155002.910000", "155002.913000", "155002.916000", "155002.920000", "155002.923000", "155002.926000", "155002.930000", "155002.933000", "155022.862000", "155022.866000", "155022.869000", "155022.873000", "155022.876000", "155022.879000", "155022.883000", "155022.886000", "155022.890000", "155022.893000", "155022.896000", "155022.900000", "155022.903000", "155022.907000", "155022.910000", "155022.913000", "155022.917000", "155022.920000", "155022.924000", "155022.927000", "155042.862000", "155042.866000", "155042.869000", "155042.873000", "155042.876000", "155042.879000", "155042.883000", "155042.886000", "155042.890000", "155042.893000", "155042.896000", "155042.900000", "155042.903000", "155042.907000", "155042.910000", "155042.913000", "155042.917000", "155042.920000", "155042.924000", "155042.927000", "155102.863000", "155102.867000", "155102.870000", "155102.874000", "155102.877000", "155102.881000", "155102.885000", "155102.888000", "155102.891000", "155102.895000", "155102.898000", "155102.902000", "155102.905000", "155102.909000", "155102.912000", "155102.915000", "155102.919000", "155102.922000", "155102.925000", "155102.929000", "155142.863000", "155142.867000", "155142.870000", "155142.874000", "155142.877000", "155142.881000", "155142.884000", "155142.888000", "155142.891000", "155142.894000", "155142.898000", "155142.901000", "155142.905000", "155142.908000", "155142.911000", "155142.915000", "155142.918000", "155142.922000", "155142.925000", "155142.928000", "155142.932000", "155142.935000", "155142.939000", "155142.947000", "155142.950000", "155142.953000", "155142.957000", "155142.960000", "155142.964000", "155222.862000", "155222.866000", "155222.870000", "155222.873000", "155222.876000", "155222.880000", "155222.883000", "155222.887000", "155222.890000", "155222.894000", "155222.897000", "155222.900000", "155222.904000", "155222.907000", "155222.911000", "155222.914000", "155222.918000", "155222.935000", "155222.938000", "155222.942000", "155222.945000", "155222.949000", "155222.952000", "155222.955000", "155222.959000", "155222.962000", "155222.966000", "155302.862000", "155302.866000", "155302.869000", "155302.873000", "155302.883000", "155302.886000", "155302.889000", "155302.893000", "155302.896000", "155302.900000", "155302.903000", "155302.907000", "155302.910000", "155302.913000", "155302.917000", "155302.920000", "155302.924000", "155302.931000", "155302.935000", "155302.938000", "155302.942000", "155302.945000", "155302.948000", "155302.952000", "155302.955000", "155302.959000", "155302.962000", "155311.591000", "155311.595000", "155311.598000", "155311.602000", "155311.605000", "155311.608000"],
      "InstanceNumber": [1, 2, 3, 4, 5, 6, 7, 8, 9, 10, 11, 12, 13, 14, 15, 16, 17, 18, 19, 20, 21, 22, 23, 24, 25, 26, 27, 28, 29, 30, 31, 32, 33, 34, 35, 36, 37, 38, 39, 40, 41, 42, 43, 44, 45, 46, 47, 48, 49, 50, 51, 52, 53, 54, 55, 56, 57, 58, 59, 60, 61, 62, 63, 64, 65, 66, 67, 68, 69, 70, 71, 72, 73, 74, 75, 76, 77, 78, 79, 80, 81, 82, 83, 84, 85, 86, 87, 88, 89, 90, 91, 92, 93, 94, 95, 96, 97, 98, 99, 100, 101, 102, 103, 104, 105, 106, 107, 108, 109, 110, 111, 112, 113, 114, 115, 116, 117, 118, 119, 120, 121, 122, 123, 124, 125, 126, 127, 128, 129, 130, 131, 132, 133, 134, 135, 136, 137, 138, 139, 140, 141, 142, 143, 144, 145, 146, 147, 148, 149, 150, 151, 152, 153, 154, 155, 156, 157, 158, 159, 160, 161, 162, 163, 164, 165, 166, 167, 168, 169, 170, 171, 172, 173, 174, 175, 176, 177, 178, 179, 180, 181, 182, 183, 184, 185, 186, 187, 188, 189, 190],
      "LargestImagePixelValue": [42696, 41853, 41367, 40593, 39541, 40227, 39554, 40633, 40089, 40341, 39030, 39114, 40931, 39356, 39007, 38622, 39017, 39176, 40039, 40795, 41068, 41402, 41834, 40969, 41542, 41578, 40279, 39871, 39667, 39082, 40459, 40544, 41419, 42758, 42241, 41520, 41749, 40218, 40976, 41812, 40853, 40718, 39773, 41135, 41350, 40828, 41202, 41184, 41059, 40185, 41205, 40616, 40834, 41141, 40397, 41166, 41373, 40077, 41164, 40572, 40788, 40877, 40316, 41251, 40571, 41358, 41889, 40944, 41537, 40843, 41096, 40525, 40632, 41093, 40821, 41160, 40224, 41479, 39927, 40292, 40683, 40287, 41045, 40408, 41323, 42645, 42701, 42521, 42503, 41644, 41862, 41628, 41423, 41878, 42134, 42448, 42555, 41926, 42098, 42179, 41899, 40933, 40827, 39444, 39481, 38892, 40541, 40583, 40423, 41981, 42031, 41228, 41852, 42396, 42232, 41097, 40911, 40624, 40176, 41552, 41401, 40842, 40746, 41214, 42188, 41584, 40588, 40598, 41192, 39740, 40537, 39817, 41132, 42637, 42185, 41513, 39936, 40699, 40868, 40095, 41610, 40634, 41063, 39814, 40683, 40200, 40573, 40573, 40164, 40338, 39082, 40364, 40361, 39775, 41163, 39997, 40549, 41726, 39740, 40630, 39472, 39795, 39868, 39434, 40628, 39651, 40769, 40021, 40422, 40956, 42822, 42005, 40399, 39069, 39565, 39687, 39530, 39579, 39695, 41402, 41620, 40833, 40010, 39372, 39843, 39699, 40132, 39035, 39198, 39923],
      "WindowCenter": [10326.0, 10232.0, 10182.0, 10177.0, 10181.0, 10190.0, 10177.0, 10172.0, 10158.0, 10156.0, 10167.0, 10207.0, 10241.0, 10198.0, 10171.0, 10156.0, 10176.0, 10187.0, 10184.0, 10188.0, 10213.0, 10247.0, 10260.0, 10229.0, 10203.0, 10198.0, 10203.0, 10201.0, 10181.0, 10166.0, 10174.0, 10182.0, 10226.0, 10261.0, 10242.0, 10230.0, 10230.0, 10230.0, 10257.0, 10279.0, 10253.0, 10223.0, 10197.0, 10207.0, 10208.0, 10196.0, 10183.0, 10190.0, 10199.0, 10182.0, 10206.0, 10219.0, 10220.0, 10209.0, 10198.0, 10215.0, 10232.0, 10218.0, 10227.0, 10230.0, 10222.0, 10203.0, 10204.0, 10217.0, 10213.0, 10217.0, 10237.0, 10235.0, 10230.0, 10211.0, 10200.0, 10218.0, 10235.0, 10229.0, 10204.0, 10186.0, 10187.0, 10213.0, 10201.0, 10204.0, 10211.0, 10215.0, 10218.0, 10205.0, 10228.0, 10248.0, 10226.0, 10203.0, 10182.0, 10155.0, 10149.0, 10151.0, 10162.0, 10174.0, 10177.0, 10191.0, 10198.0, 10204.0, 10225.0, 10228.0, 10230.0, 10232.0, 10224.0, 10278.0, 10304.0, 10300.0, 10294.0, 10264.0, 10244.0, 10257.0, 10280.0, 10286.0, 10313.0, 10312.0, 10296.0, 10249.0, 10216.0, 10202.0, 10202.0, 10196.0, 10179.0, 10182.0, 10192.0, 10197.0, 10193.0, 10179.0, 10166.0, 10181.0, 10234.0, 10238.0, 10234.0, 10222.0, 10245.0, 10299.0, 10295.0, 10257.0, 10232.0, 10223.0, 10196.0, 10173.0, 10208.0, 10242.0, 10260.0, 10259.0, 10255.0, 10214.0, 10202.0, 10194.0, 10195.0, 10202.0, 10188.0, 10196.0, 10210.0, 10215.0, 10214.0, 10204.0, 10224.0, 10237.0, 10222.0, 10218.0, 10213.0, 10208.0, 10190.0, 10177.0, 10189.0, 10196.0, 10215.0, 10220.0, 10225.0, 10242.0, 10233.0, 10184.0, 10148.0, 10147.0, 10160.0, 10140.0, 10129.0, 10129.0, 10153.0, 10203.0, 10205.0, 10197.0, 10185.0, 10187.0, 10203.0, 10208.0, 10212.0, 10203.0, 10208.0, 10230.0],
      "WindowWidth": [22363.0, 22108.0, 21970.0, 21942.0, 21950.0, 21959.0, 21930.0, 21910.0, 21883.0, 21878.0, 21906.0, 21995.0, 22067.0, 21976.0, 21911.0, 21882.0, 21926.0, 21952.0, 21943.0, 21951.0, 22009.0, 22080.0, 22103.0, 22040.0, 21975.0, 21959.0, 21973.0, 21974.0, 21931.0, 21896.0, 21908.0, 21929.0, 22028.0, 22107.0, 22066.0, 22037.0, 22036.0, 22041.0, 22098.0, 22149.0, 22092.0, 22025.0, 21971.0, 21984.0, 21989.0, 21967.0, 21935.0, 21950.0, 21970.0, 21937.0, 21984.0, 22019.0, 22018.0, 21990.0, 21972.0, 22005.0, 22044.0, 22022.0, 22038.0, 22047.0, 22029.0, 21983.0, 21986.0, 22011.0, 22005.0, 22012.0, 22054.0, 22055.0, 22041.0, 22002.0, 21975.0, 22017.0, 22055.0, 22042.0, 21985.0, 21945.0, 21949.0, 22004.0, 21986.0, 21990.0, 22004.0, 22015.0, 22017.0, 21991.0, 22036.0, 22082.0, 22034.0, 21982.0, 21932.0, 21876.0, 21860.0, 21865.0, 21888.0, 21912.0, 21922.0, 21951.0, 21969.0, 21987.0, 22033.0, 22043.0, 22047.0, 22052.0, 22028.0, 22157.0, 22214.0, 22211.0, 22193.0, 22127.0, 22079.0, 22104.0, 22155.0, 22173.0, 22236.0, 22235.0, 22192.0, 22087.0, 22008.0, 21980.0, 21984.0, 21965.0, 21923.0, 21930.0, 21956.0, 21967.0, 21955.0, 21928.0, 21898.0, 21933.0, 22048.0, 22060.0, 22045.0, 22024.0, 22076.0, 22203.0, 22194.0, 22103.0, 22047.0, 22024.0, 21961.0, 21914.0, 21983.0, 22067.0, 22110.0, 22114.0, 22102.0, 22010.0, 21978.0, 21964.0, 21965.0, 21982.0, 21959.0, 21971.0, 22003.0, 22017.0, 22008.0, 21990.0, 22033.0, 22061.0, 22033.0, 22019.0, 22013.0, 22002.0, 21961.0, 21934.0, 21954.0, 21976.0, 22015.0, 22030.0, 22039.0, 22077.0, 22052.0, 21945.0, 21861.0, 21859.0, 21886.0, 21843.0, 21815.0, 21816.0, 21874.0, 21983.0, 21990.0, 21969.0, 21945.0, 21950.0, 21983.0, 21996.0, 22005.0, 21988.0, 22000.0, 22048.0]
    },
    "slices": {}
  }
}