{
  "AcquisitionMatrixPE": 104,
  "AcquisitionNumber": 1,
  "AcquisitionTime": "15:35:56.505000",
  "BandwidthPerPixelPhaseEncode": 17.17,
  "BaseResolution": 104,
  "BodyPartExamined": "BRAIN",
  "CoilString": "HC1-7;NC1_2",
  "ConsistencyInfo": "N4_VE11C_LATEST_20160120",
  "ConversionSoftware": "dcm2niix",
  "ConversionSoftwareVersion": "v1.0.20190902",
  "DerivedVendorReportedEchoSpacing": 0.000560011,
  "DeviceSerialNumber": "167006",
  "DwellTime": 2.1e-06,
  "EchoTime": 0.037,
  "EchoTrainLength": 104,
  "EffectiveEchoSpacing": 0.000560011,
  "FlipAngle": 52,
  "ImageComments": "Unaliased_MB4_PE3_LB",
  "ImageOrientationPatientDICOM": [0.998491, -0.0539151, 0.0104086, 0.0546007, 0.954745, -0.292371],
  "ImageType": [
    "ORIGINAL",
    "PRIMARY",
    "P",
    "MB",
    "ND",
    "MOSAIC"
],
  "ImagingFrequency": 123.259,
  "InPlanePhaseEncodingDirectionDICOM": "COL",
  "InstitutionAddress": "Chemin_Queen-Mary_4565_Montreal_District_CA_H3W_1W5",
  "InstitutionName": "IUGM",
  "InstitutionalDepartmentName": "Department",
  "MRAcquisitionType": "2D",
  "MagneticFieldStrength": 3,
  "Manufacturer": "Siemens",
  "ManufacturersModelName": "Prisma_fit",
  "Modality": "MR",
  "MultibandAccelerationFactor": 4,
  "PartialFourier": 1,
  "PatientPosition": "HFS",
  "PercentPhaseFOV": 100,
  "PhaseEncodingDirection": "j",
  "PhaseEncodingSteps": 104,
  "PhaseResolution": 1,
  "PixelBandwidth": 2290,
  "ProcedureStepDescription": "memory_things",
  "ProtocolName": "func_task-things_run-1",
  "PulseSequenceDetails": "%CustomerSeq%_cmrr_mbep2d_bold",
  "ReceiveCoilActiveElements": "HC1-7;NC1,2",
  "ReceiveCoilName": "HeadNeck_64",
  "ReconMatrixPE": 104,
  "RepetitionTime": 1.49,
  "SAR": 0.0562405,
  "ScanOptions": "FS",
  "ScanningSequence": "EP",
  "SequenceName": "epfid2d1_104",
  "SequenceVariant": "SK_SS",
  "SeriesDescription": "func_task-things_run-1",
  "SeriesNumber": 11,
  "ShimSetting": [625, -7249, -8817, 593, -12, -198, -9, -34],
  "SliceThickness": 2,
  "SliceTiming": [0, 0.785, 0.0975, 0.8825, 0.195, 0.98, 0.295, 1.0775, 0.3925, 1.175, 0.49, 1.275, 0.5875, 1.3725, 0.685, 0, 0.785, 0.0975, 0.8825, 0.195, 0.98, 0.295, 1.0775, 0.3925, 1.175, 0.49, 1.275, 0.5875, 1.3725, 0.685, 0, 0.785, 0.0975, 0.8825, 0.195, 0.98, 0.295, 1.0775, 0.3925, 1.175, 0.49, 1.275, 0.5875, 1.3725, 0.685, 0, 0.785, 0.0975, 0.8825, 0.195, 0.98, 0.295, 1.0775, 0.3925, 1.175, 0.49, 1.275, 0.5875, 1.3725, 0.685],
  "SoftwareVersions": "syngo_MR_E11",
  "SpacingBetweenSlices": 2,
  "StationName": "MRC35049",
  "TaskName": "things",
  "TotalReadoutTime": 0.0576811,
  "TxRefAmp": 270.301,
  "WipMemBlock": "fbf9fff0-6c4e-4df6-881d-879c8e79edea||Sequence: R016 ve11c/master r/e634e98; Dec 19 2017 11:00:25 by eja",
  "dcmmeta_affine": [
    [-1.9969825744628906, 0.10920148342847824, -0.011651277542114258, 101.3782958984375],
    [0.1078302413225174, 1.9094901084899902, -0.584995687007904, -74.16555786132812],
    [0.020817197859287262, 0.5847412943840027, 1.91249680519104, -60.353694915771484],
    [0.0, 0.0, 0.0, 1.0]
],
  "dcmmeta_reorient_transform": [
    [0.0, -1.0, 0.0, 103.0],
    [1.0, 0.0, 0.0, 0.0],
    [0.0, 0.0, 1.0, 0.0],
    [0.0, 0.0, 0.0, 1.0]
],
  "dcmmeta_shape": [104, 104, 60, 190],
  "dcmmeta_slice_dim": 2,
  "dcmmeta_version": 0.6,
  "global": {
    "const": {
      "AcquisitionMatrix": [104, 0, 0, 104],
      "AngioFlag": "N",
      "BitsAllocated": 16,
      "BitsStored": 16,
      "BodyPartExamined": "BRAIN",
      "Columns": 832,
      "EchoNumbers": 1,
      "EchoTime": 37.0,
      "EchoTrainLength": 104,
      "FlipAngle": 52.0,
      "HighBit": 15,
      "ImageOrientationPatient": [0.99849127228091, -0.0539151206809, 0.01040859936901, 0.05460074276141, 0.9547450820638, -0.2923706332122],
      "ImagePositionPatient": [-879.27703511285, -778.31613898508, 205.14301602408],
      "ImageType": [
        "ORIGINAL",
        "PRIMARY",
        "P",
        "MB",
        "ND",
        "MOSAIC"
],
      "ImagedNucleus": "1H",
      "ImagingFrequency": 123.258892,
      "InPlanePhaseEncodingDirection": "COL",
      "LargestImagePixelValue": 4095,
      "MRAcquisitionType": "2D",
      "MagneticFieldStrength": 3.0,
      "Manufacturer": "SIEMENS",
      "ManufacturerModelName": "Prisma_fit",
      "Modality": "MR",
      "NumberOfAverages": 1.0,
      "NumberOfPhaseEncodingSteps": 104,
      "PercentPhaseFieldOfView": 100.0,
      "PercentSampling": 100.0,
      "PerformedProcedureStepStartTime": "145914.536000",
      "PhotometricInterpretation": "MONOCHROME2",
      "PixelBandwidth": 2290.0,
      "PixelRepresentation": 0,
      "PixelSpacing": [2.0, 2.0],
      "ProtocolName": "func_task-things_run-1",
      "RepetitionTime": 1490.0,
      "RescaleIntercept": -4096.0,
      "RescaleSlope": 2.0,
      "RescaleType": "US",
      "Rows": 832,
      "SAR": 0.05624050144164,
      "SamplesPerPixel": 1,
      "ScanOptions": "FS",
      "ScanningSequence": "EP",
      "SequenceName": "epfid2d1_104",
      "SequenceVariant": [
        "SK",
        "SS"
],
      "SeriesDescription": "func_task-things_run-1",
      "SeriesNumber": 11,
      "SeriesTime": "153714.818000",
      "SliceLocation": -36.6104536723,
      "SliceThickness": 2.0,
      "SmallestImagePixelValue": 0,
      "SoftwareVersions": "syngo MR E11",
      "SpacingBetweenSlices": 1.9999999470094,
      "SpecificCharacterSet": "ISO_IR 100",
      "StudyID": "1",
      "StudyTime": "145914.470000",
      "TransmitCoilName": "Body",
      "VariableFlipAngleFlag": "N",
      "WindowCenterWidthExplanation": "Algo1",
      "dBdt": 0.0},
    "slices": {}
  },
  "time": {
    "samples": {
      "AcquisitionNumber": [1, 2, 3, 4, 5, 6, 7, 8, 9, 10, 11, 12, 13, 14, 15, 16, 17, 18, 19, 20, 21, 22, 23, 24, 25, 26, 27, 28, 29, 30, 31, 32, 33, 34, 35, 36, 37, 38, 39, 40, 41, 42, 43, 44, 45, 46, 47, 48, 49, 50, 51, 52, 53, 54, 55, 56, 57, 58, 59, 60, 61, 62, 63, 64, 65, 66, 67, 68, 69, 70, 71, 72, 73, 74, 75, 76, 77, 78, 79, 80, 81, 82, 83, 84, 85, 86, 87, 88, 89, 90, 91, 92, 93, 94, 95, 96, 97, 98, 99, 100, 101, 102, 103, 104, 105, 106, 107, 108, 109, 110, 111, 112, 113, 114, 115, 116, 117, 118, 119, 120, 121, 122, 123, 124, 125, 126, 127, 128, 129, 130, 131, 132, 133, 134, 135, 136, 137, 138, 139, 140, 141, 142, 143, 144, 145, 146, 147, 148, 149, 150, 151, 152, 153, 154, 155, 156, 157, 158, 159, 160, 161, 162, 163, 164, 165, 166, 167, 168, 169, 170, 171, 172, 173, 174, 175, 176, 177, 178, 179, 180, 181, 182, 183, 184, 185, 186, 187, 188, 189, 190],
      "AcquisitionTime": ["153556.505000", "153557.995000", "153559.485000", "153600.975000", "153602.465000", "153603.955000", "153605.445000", "153606.935000", "153608.425000", "153609.915000", "153611.405000", "153612.895000", "153614.385000", "153615.875000", "153617.365000", "153618.855000", "153620.345000", "153621.835000", "153623.325000", "153624.815000", "153626.305000", "153627.795000", "153629.285000", "153630.775000", "153632.265000", "153633.755000", "153635.245000", "153636.735000", "153638.225000", "153639.715000", "153641.205000", "153642.695000", "153644.185000", "153645.675000", "153647.165000", "153648.655000", "153650.145000", "153651.635000", "153653.125000", "153654.615000", "153656.105000", "153657.595000", "153659.085000", "153700.575000", "153702.065000", "153703.555000", "153705.045000", "153706.535000", "153708.025000", "153709.515000", "153711.005000", "153712.495000", "153713.985000", "153715.475000", "153716.965000", "153718.455000", "153719.945000", "153721.435000", "153722.925000", "153724.415000", "153725.905000", "153727.395000", "153728.885000", "153730.375000", "153731.865000", "153733.355000", "153734.845000", "153736.335000", "153737.825000", "153739.315000", "153740.805000", "153742.295000", "153743.785000", "153745.275000", "153746.765000", "153748.255000", "153749.745000", "153751.235000", "153752.725000", "153754.215000", "153755.705000", "153757.195000", "153758.685000", "153800.175000", "153801.665000", "153803.155000", "153804.645000", "153806.135000", "153807.625000", "153809.115000", "153810.605000", "153812.095000", "153813.585000", "153815.075000", "153816.565000", "153818.055000", "153819.545000", "153821.035000", "153822.525000", "153824.015000", "153825.505000", "153826.995000", "153828.485000", "153829.975000", "153831.465000", "153832.955000", "153834.445000", "153835.935000", "153837.425000", "153838.915000", "153840.405000", "153841.895000", "153843.385000", "153844.875000", "153846.365000", "153847.855000", "153849.345000", "153850.835000", "153852.325000", "153853.815000", "153855.305000", "153856.795000", "153858.285000", "153859.775000", "153901.265000", "153902.755000", "153904.245000", "153905.735000", "153907.225000", "153908.715000", "153910.205000", "153911.695000", "153913.185000", "153914.675000", "153916.165000", "153917.655000", "153919.145000", "153920.635000", "153922.125000", "153923.615000", "153925.105000", "153926.595000", "153928.085000", "153929.575000", "153931.065000", "153932.555000", "153934.045000", "153935.535000", "153937.025000", "153938.515000", "153940.005000", "153941.495000", "153942.985000", "153944.475000", "153945.965000", "153947.455000", "153948.945000", "153950.435000", "153951.925000", "153953.415000", "153954.905000", "153956.395000", "153957.885000", "153959.375000", "154000.865000", "154002.355000", "154003.845000", "154005.335000", "154006.825000", "154008.315000", "154009.805000", "154011.295000", "154012.785000", "154014.275000", "154015.765000", "154017.255000", "154018.745000", "154020.235000", "154021.725000", "154023.215000", "154024.705000", "154026.195000", "154027.685000", "154029.175000", "154030.665000", "154032.155000", "154033.645000", "154035.135000", "154036.625000", "154038.115000"],
      "ContentTime": ["153714.820000", "153714.823000", "153714.826000", "153714.828000", "153714.831000", "153714.833000", "153714.836000", "153714.838000", "153714.845000", "153714.848000", "153714.850000", "153714.853000", "153714.856000", "153714.858000", "153714.861000", "153714.863000", "153714.866000", "153714.868000", "153714.871000", "153714.873000", "153714.876000", "153714.879000", "153714.881000", "153734.777000", "153734.780000", "153734.782000", "153734.785000", "153734.788000", "153734.790000", "153734.793000", "153734.803000", "153734.806000", "153734.809000", "153734.811000", "153734.824000", "153734.826000", "153734.829000", "153734.832000", "153734.834000", "153734.837000", "153734.839000", "153734.842000", "153734.844000", "153754.782000", "153754.785000", "153754.787000", "153754.790000", "153754.806000", "153754.809000", "153754.818000", "153754.820000", "153754.823000", "153754.825000", "153754.828000", "153754.831000", "153754.833000", "153754.836000", "153754.838000", "153754.851000", "153754.853000", "153754.856000", "153754.858000", "153754.861000", "153754.863000", "153814.765000", "153814.768000", "153814.770000", "153814.773000", "153814.775000", "153814.778000", "153814.780000", "153814.783000", "153814.785000", "153814.788000", "153814.791000", "153814.793000", "153814.796000", "153814.798000", "153814.801000", "153814.803000", "153814.806000", "153814.808000", "153814.811000", "153814.813000", "153834.787000", "153834.790000", "153834.792000", "153834.795000", "153834.797000", "153834.800000", "153834.803000", "153834.805000", "153834.808000", "153834.810000", "153834.813000", "153834.815000", "153834.818000", "153834.820000", "153834.823000", "153834.825000", "153834.828000", "153834.830000", "153834.833000", "153834.835000", "153914.817000", "153914.820000", "153914.823000", "153914.825000", "153914.828000", "153914.830000", "153914.833000", "153914.836000", "153914.838000", "153914.841000", "153914.844000", "153914.846000", "153914.849000", "153914.851000", "153914.854000", "153914.856000", "153914.859000", "153914.861000", "153914.864000", "153914.867000", "153914.869000", "153914.872000", "153914.875000", "153914.877000", "153914.880000", "153914.882000", "153914.885000", "153914.887000", "153954.813000", "153954.816000", "153954.818000", "153954.821000", "153954.823000", "153954.826000", "153954.828000", "153954.831000", "153954.834000", "153954.836000", "153954.839000", "153954.841000", "153954.844000", "153954.846000", "153954.849000", "153954.852000", "153954.854000", "153954.857000", "153954.859000", "153954.862000", "153954.864000", "153954.867000", "153954.870000", "153954.872000", "153954.875000", "153954.877000", "153954.880000", "154014.742000", "154014.745000", "154014.748000", "154014.750000", "154014.753000", "154014.755000", "154014.758000", "154014.760000", "154014.763000", "154014.765000", "154014.768000", "154014.774000", "154014.777000", "154040.161000", "154040.164000", "154040.166000", "154040.169000", "154040.172000", "154040.174000", "154040.177000", "154040.180000", "154040.182000", "154040.185000", "154040.187000", "154040.190000", "154040.192000", "154040.195000", "154040.197000", "154040.200000", "154040.203000", "154040.205000"],
      "InstanceCreationTime": ["153714.820000", "153714.823000", "153714.826000", "153714.828000", "153714.831000", "153714.833000", "153714.836000", "153714.838000", "153714.845000", "153714.848000", "153714.850000", "153714.853000", "153714.856000", "153714.858000", "153714.861000", "153714.863000", "153714.866000", "153714.868000", "153714.871000", "153714.873000", "153714.876000", "153714.879000", "153714.881000", "153734.777000", "153734.780000", "153734.782000", "153734.785000", "153734.788000", "153734.790000", "153734.793000", "153734.803000", "153734.806000", "153734.809000", "153734.811000", "153734.824000", "153734.826000", "153734.829000", "153734.832000", "153734.834000", "153734.837000", "153734.839000", "153734.842000", "153734.844000", "153754.782000", "153754.785000", "153754.787000", "153754.790000", "153754.806000", "153754.809000", "153754.818000", "153754.820000", "153754.823000", "153754.825000", "153754.828000", "153754.831000", "153754.833000", "153754.836000", "153754.838000", "153754.851000", "153754.853000", "153754.856000", "153754.858000", "153754.861000", "153754.863000", "153814.765000", "153814.768000", "153814.770000", "153814.773000", "153814.775000", "153814.778000", "153814.780000", "153814.783000", "153814.785000", "153814.788000", "153814.791000", "153814.793000", "153814.796000", "153814.798000", "153814.801000", "153814.803000", "153814.806000", "153814.808000", "153814.811000", "153814.813000", "153834.787000", "153834.790000", "153834.792000", "153834.795000", "153834.797000", "153834.800000", "153834.803000", "153834.805000", "153834.808000", "153834.810000", "153834.813000", "153834.815000", "153834.818000", "153834.820000", "153834.823000", "153834.825000", "153834.828000", "153834.830000", "153834.833000", "153834.835000", "153914.817000", "153914.820000", "153914.823000", "153914.825000", "153914.828000", "153914.830000", "153914.833000", "153914.836000", "153914.838000", "153914.841000", "153914.844000", "153914.846000", "153914.849000", "153914.851000", "153914.854000", "153914.856000", "153914.859000", "153914.861000", "153914.864000", "153914.867000", "153914.869000", "153914.872000", "153914.875000", "153914.877000", "153914.880000", "153914.882000", "153914.885000", "153914.887000", "153954.813000", "153954.816000", "153954.818000", "153954.821000", "153954.823000", "153954.826000", "153954.828000", "153954.831000", "153954.834000", "153954.836000", "153954.839000", "153954.841000", "153954.844000", "153954.846000", "153954.849000", "153954.852000", "153954.854000", "153954.857000", "153954.859000", "153954.862000", "153954.864000", "153954.867000", "153954.870000", "153954.872000", "153954.875000", "153954.877000", "153954.880000", "154014.742000", "154014.745000", "154014.748000", "154014.750000", "154014.753000", "154014.755000", "154014.758000", "154014.760000", "154014.763000", "154014.765000", "154014.768000", "154014.774000", "154014.777000", "154040.161000", "154040.164000", "154040.166000", "154040.169000", "154040.172000", "154040.174000", "154040.177000", "154040.180000", "154040.182000", "154040.185000", "154040.187000", "154040.190000", "154040.192000", "154040.195000", "154040.197000", "154040.200000", "154040.203000", "154040.205000"],
      "InstanceNumber": [1, 2, 3, 4, 5, 6, 7, 8, 9, 10, 11, 12, 13, 14, 15, 16, 17, 18, 19, 20, 21, 22, 23, 24, 25, 26, 27, 28, 29, 30, 31, 32, 33, 34, 35, 36, 37, 38, 39, 40, 41, 42, 43, 44, 45, 46, 47, 48, 49, 50, 51, 52, 53, 54, 55, 56, 57, 58, 59, 60, 61, 62, 63, 64, 65, 66, 67, 68, 69, 70, 71, 72, 73, 74, 75, 76, 77, 78, 79, 80, 81, 82, 83, 84, 85, 86, 87, 88, 89, 90, 91, 92, 93, 94, 95, 96, 97, 98, 99, 100, 101, 102, 103, 104, 105, 106, 107, 108, 109, 110, 111, 112, 113, 114, 115, 116, 117, 118, 119, 120, 121, 122, 123, 124, 125, 126, 127, 128, 129, 130, 131, 132, 133, 134, 135, 136, 137, 138, 139, 140, 141, 142, 143, 144, 145, 146, 147, 148, 149, 150, 151, 152, 153, 154, 155, 156, 157, 158, 159, 160, 161, 162, 163, 164, 165, 166, 167, 168, 169, 170, 171, 172, 173, 174, 175, 176, 177, 178, 179, 180, 181, 182, 183, 184, 185, 186, 187, 188, 189, 190],
      "WindowCenter": [4810.0, 4806.0, 4810.0, 4808.0, 4812.0, 4812.0, 4812.0, 4808.0, 4812.0, 4810.0, 4808.0, 4816.0, 4812.0, 4812.0, 4810.0, 4812.0, 4812.0, 4810.0, 4812.0, 4810.0, 4812.0, 4808.0, 4812.0, 4812.0, 4808.0, 4810.0, 4810.0, 4812.0, 4814.0, 4810.0, 4812.0, 4810.0, 4816.0, 4810.0, 4810.0, 4810.0, 4814.0, 4812.0, 4812.0, 4812.0, 4810.0, 4810.0, 4812.0, 4814.0, 4812.0, 4812.0, 4812.0, 4812.0, 4814.0, 4810.0, 4814.0, 4814.0, 4814.0, 4810.0, 4810.0, 4808.0, 4812.0, 4812.0, 4806.0, 4814.0, 4806.0, 4814.0, 4812.0, 4810.0, 4814.0, 4814.0, 4814.0, 4812.0, 4810.0, 4812.0, 4810.0, 4812.0, 4812.0, 4812.0, 4812.0, 4812.0, 4810.0, 4814.0, 4814.0, 4812.0, 4810.0, 4816.0, 4814.0, 4810.0, 4812.0, 4810.0, 4814.0, 4812.0, 4814.0, 4812.0, 4812.0, 4810.0, 4814.0, 4812.0, 4810.0, 4814.0, 4810.0, 4814.0, 4812.0, 4810.0, 4812.0, 4812.0, 4814.0, 4812.0, 4814.0, 4812.0, 4812.0, 4812.0, 4814.0, 4816.0, 4808.0, 4812.0, 4812.0, 4810.0, 4814.0, 4812.0, 4810.0, 4816.0, 4812.0, 4816.0, 4814.0, 4810.0, 4814.0, 4812.0, 4810.0, 4810.0, 4816.0, 4812.0, 4814.0, 4812.0, 4810.0, 4816.0, 4810.0, 4812.0, 4810.0, 4812.0, 4810.0, 4814.0, 4816.0, 4812.0, 4812.0, 4812.0, 4814.0, 4814.0, 4810.0, 4810.0, 4812.0, 4812.0, 4812.0, 4816.0, 4814.0, 4814.0, 4794.0, 4796.0, 4810.0, 4804.0, 4804.0, 4808.0, 4810.0, 4810.0, 4814.0, 4812.0, 4792.0, 4790.0, 4790.0, 4812.0, 4810.0, 4802.0, 4810.0, 4814.0, 4808.0, 4814.0, 4812.0, 4812.0, 4816.0, 4812.0, 4814.0, 4810.0, 4814.0, 4810.0, 4810.0, 4814.0, 4814.0, 4812.0, 4816.0, 4816.0, 4812.0, 4816.0, 4814.0, 4812.0],
      "WindowWidth": [18616.0, 18610.0, 18614.0, 18614.0, 18614.0, 18616.0, 18618.0, 18614.0, 18614.0, 18610.0, 18612.0, 18620.0, 18616.0, 18614.0, 18610.0, 18616.0, 18610.0, 18614.0, 18616.0, 18610.0, 18614.0, 18612.0, 18618.0, 18614.0, 18612.0, 18612.0, 18610.0, 18618.0, 18616.0, 18612.0, 18612.0, 18614.0, 18616.0, 18614.0, 18610.0, 18612.0, 18616.0, 18608.0, 18616.0, 18618.0, 18616.0, 18614.0, 18614.0, 18616.0, 18618.0, 18618.0, 18614.0, 18616.0, 18620.0, 18612.0, 18618.0, 18614.0, 18612.0, 18610.0, 18612.0, 18614.0, 18616.0, 18612.0, 18610.0, 18616.0, 18610.0, 18612.0, 18610.0, 18618.0, 18618.0, 18616.0, 18614.0, 18612.0, 18612.0, 18622.0, 18614.0, 18612.0, 18618.0, 18610.0, 18614.0, 18614.0, 18616.0, 18620.0, 18620.0, 18612.0, 18614.0, 18614.0, 18620.0, 18612.0, 18616.0, 18610.0, 18614.0, 18612.0, 18618.0, 18622.0, 18610.0, 18610.0, 18612.0, 18612.0, 18614.0, 18620.0, 18616.0, 18614.0, 18614.0, 18616.0, 18614.0, 18616.0, 18612.0, 18616.0, 18616.0, 18612.0, 18614.0, 18612.0, 18612.0, 18612.0, 18612.0, 18612.0, 18618.0, 18614.0, 18616.0, 18616.0, 18610.0, 18616.0, 18616.0, 18618.0, 18620.0, 18616.0, 18618.0, 18620.0, 18610.0, 18612.0, 18612.0, 18614.0, 18612.0, 18612.0, 18614.0, 18614.0, 18614.0, 18616.0, 18612.0, 18614.0, 18608.0, 18618.0, 18614.0, 18614.0, 18612.0, 18610.0, 18618.0, 18616.0, 18612.0, 18614.0, 18614.0, 18614.0, 18612.0, 18616.0, 18610.0, 18618.0, 18566.0, 18560.0, 18616.0, 18608.0, 18602.0, 18608.0, 18610.0, 18608.0, 18610.0, 18604.0, 18574.0, 18560.0, 18578.0, 18616.0, 18616.0, 18606.0, 18616.0, 18616.0, 18612.0, 18618.0, 18620.0, 18608.0, 18596.0, 18612.0, 18618.0, 18612.0, 18616.0, 18612.0, 18618.0, 18614.0, 18614.0, 18612.0, 18618.0, 18616.0, 18618.0, 18616.0, 18616.0, 18612.0]
    },
    "slices": {}
  }
}