{
  "AcquisitionMatrixPE": 104,
  "AcquisitionNumber": 1,
  "AcquisitionTime": "10:47:3.725000",
  "BandwidthPerPixelPhaseEncode": 17.17,
  "BaseResolution": 104,
  "BodyPartExamined": "BRAIN",
  "CoilString": "HC1-7;NC1_2",
  "ConsistencyInfo": "N4_VE11C_LATEST_20160120",
  "ConversionSoftware": "dcm2niix",
  "ConversionSoftwareVersion": "v1.0.20190902",
  "DerivedVendorReportedEchoSpacing": 0.000560011,
  "DeviceSerialNumber": "167006",
  "DwellTime": 2.1e-06,
  "EchoTime": 0.037,
  "EchoTrainLength": 104,
  "EffectiveEchoSpacing": 0.000560011,
  "FlipAngle": 52,
  "ImageComments": "Unaliased_MB4_PE3_LB",
  "ImageOrientationPatientDICOM": [0.999748, 0.0122423, 0.0188247, -0.00226835, 0.889087, -0.457734],
  "ImageType": [
    "ORIGINAL",
    "PRIMARY",
    "M",
    "MB",
    "ND",
    "MOSAIC"
],
  "ImagingFrequency": 123.259,
  "InPlanePhaseEncodingDirectionDICOM": "COL",
  "InstitutionAddress": "Chemin_Queen-Mary_4565_Montreal_District_CA_H3W_1W5",
  "InstitutionName": "IUGM",
  "InstitutionalDepartmentName": "Department",
  "MRAcquisitionType": "2D",
  "MagneticFieldStrength": 3,
  "Manufacturer": "Siemens",
  "ManufacturersModelName": "Prisma_fit",
  "Modality": "MR",
  "MultibandAccelerationFactor": 4,
  "PartialFourier": 1,
  "PatientPosition": "HFS",
  "PercentPhaseFOV": 100,
  "PhaseEncodingDirection": "j",
  "PhaseEncodingSteps": 104,
  "PhaseResolution": 1,
  "PixelBandwidth": 2290,
  "ProcedureStepDescription": "memory_things",
  "ProtocolName": "func_task-things_run-1",
  "PulseSequenceDetails": "%CustomerSeq%_cmrr_mbep2d_bold",
  "ReceiveCoilActiveElements": "HC1-7;NC1,2",
  "ReceiveCoilName": "HeadNeck_64",
  "ReconMatrixPE": 104,
  "RepetitionTime": 1.49,
  "SAR": 0.0476736,
  "ScanOptions": "FS",
  "ScanningSequence": "EP",
  "SequenceName": "epfid2d1_104",
  "SequenceVariant": "SK_SS",
  "SeriesDescription": "func_task-things_run-1",
  "SeriesNumber": 10,
  "ShimSetting": [623, -7189, -8863, 360, 13, -92, -21, -22],
  "SliceThickness": 2,
  "SliceTiming": [0, 0.7825, 0.0975, 0.8825, 0.195, 0.98, 0.2925, 1.0775, 0.3925, 1.175, 0.49, 1.2725, 0.5875, 1.3725, 0.685, 0, 0.7825, 0.0975, 0.8825, 0.195, 0.98, 0.2925, 1.0775, 0.3925, 1.175, 0.49, 1.2725, 0.5875, 1.3725, 0.685, 0, 0.7825, 0.0975, 0.8825, 0.195, 0.98, 0.2925, 1.0775, 0.3925, 1.175, 0.49, 1.2725, 0.5875, 1.3725, 0.685, 0, 0.7825, 0.0975, 0.8825, 0.195, 0.98, 0.2925, 1.0775, 0.3925, 1.175, 0.49, 1.2725, 0.5875, 1.3725, 0.685],
  "SoftwareVersions": "syngo_MR_E11",
  "SpacingBetweenSlices": 2,
  "StationName": "MRC35049",
  "TaskName": "things",
  "TotalReadoutTime": 0.0576811,
  "TxRefAmp": 268.19,
  "WipMemBlock": "3e40f4a9-1ed8-4fbd-a68b-d0b5f0c99577||Sequence: R016 ve11c/master r/e634e98; Dec 19 2017 11:00:25 by eja",
  "dcmmeta_affine": [
    [-1.9994957447052002, -0.004536708351224661, 0.04468095302581787, 106.13023376464844],
    [-0.024484604597091675, 1.7781730890274048, -0.9151508212089539, -55.400474548339844],
    [0.03764934837818146, 0.9154670238494873, 1.777780294418335, -96.76380157470703],
    [0.0, 0.0, 0.0, 1.0]
],
  "dcmmeta_reorient_transform": [
    [0.0, -1.0, 0.0, 103.0],
    [1.0, 0.0, 0.0, 0.0],
    [0.0, 0.0, 1.0, 0.0],
    [0.0, 0.0, 0.0, 1.0]
],
  "dcmmeta_shape": [104, 104, 60, 190],
  "dcmmeta_slice_dim": 2,
  "dcmmeta_version": 0.6,
  "global": {
    "const": {
      "AcquisitionMatrix": [104, 0, 0, 104],
      "AngioFlag": "N",
      "BitsAllocated": 16,
      "BitsStored": 16,
      "BodyPartExamined": "BRAIN",
      "Columns": 832,
      "EchoNumbers": 1,
      "EchoTime": 37.0,
      "EchoTrainLength": 104,
      "FlipAngle": 52.0,
      "HighBit": 15,
      "ImageOrientationPatient": [0.99974784705826, 0.0122423025362, 0.01882467346301, -0.0022683542092, 0.88908653908151, -0.4577335257475],
      "ImagePositionPatient": [-831.82802597917, -783.91874930211, 317.05495089782],
      "ImageType": [
        "ORIGINAL",
        "PRIMARY",
        "M",
        "MB",
        "ND",
        "MOSAIC"
],
      "ImagedNucleus": "1H",
      "ImagingFrequency": 123.25893,
      "InPlanePhaseEncodingDirection": "COL",
      "MRAcquisitionType": "2D",
      "MagneticFieldStrength": 3.0,
      "Manufacturer": "SIEMENS",
      "ManufacturerModelName": "Prisma_fit",
      "Modality": "MR",
      "NumberOfAverages": 1.0,
      "NumberOfPhaseEncodingSteps": 104,
      "PercentPhaseFieldOfView": 100.0,
      "PercentSampling": 100.0,
      "PerformedProcedureStepStartTime": "103523.433000",
      "PhotometricInterpretation": "MONOCHROME2",
      "PixelBandwidth": 2290.0,
      "PixelRepresentation": 0,
      "PixelSpacing": [2.0, 2.0],
      "ProtocolName": "func_task-things_run-1",
      "RepetitionTime": 1490.0,
      "Rows": 832,
      "SAR": 0.04767359533401,
      "SamplesPerPixel": 1,
      "ScanOptions": "FS",
      "ScanningSequence": "EP",
      "SequenceName": "epfid2d1_104",
      "SequenceVariant": [
        "SK",
        "SS"
],
      "SeriesDescription": "func_task-things_run-1",
      "SeriesNumber": 10,
      "SeriesTime": "104823.581000",
      "SliceLocation": -58.29149140233,
      "SliceThickness": 2.0,
      "SmallestImagePixelValue": 0,
      "SoftwareVersions": "syngo MR E11",
      "SpacingBetweenSlices": 2.0000000148559,
      "SpecificCharacterSet": "ISO_IR 100",
      "StudyID": "1",
      "StudyTime": "103523.318000",
      "TransmitCoilName": "Body",
      "VariableFlipAngleFlag": "N",
      "WindowCenterWidthExplanation": "Algo1",
      "dBdt": 0.0},
    "slices": {}
  },
  "time": {
    "samples": {
      "AcquisitionNumber": [1, 2, 3, 4, 5, 6, 7, 8, 9, 10, 11, 12, 13, 14, 15, 16, 17, 18, 19, 20, 21, 22, 23, 24, 25, 26, 27, 28, 29, 30, 31, 32, 33, 34, 35, 36, 37, 38, 39, 40, 41, 42, 43, 44, 45, 46, 47, 48, 49, 50, 51, 52, 53, 54, 55, 56, 57, 58, 59, 60, 61, 62, 63, 64, 65, 66, 67, 68, 69, 70, 71, 72, 73, 74, 75, 76, 77, 78, 79, 80, 81, 82, 83, 84, 85, 86, 87, 88, 89, 90, 91, 92, 93, 94, 95, 96, 97, 98, 99, 100, 101, 102, 103, 104, 105, 106, 107, 108, 109, 110, 111, 112, 113, 114, 115, 116, 117, 118, 119, 120, 121, 122, 123, 124, 125, 126, 127, 128, 129, 130, 131, 132, 133, 134, 135, 136, 137, 138, 139, 140, 141, 142, 143, 144, 145, 146, 147, 148, 149, 150, 151, 152, 153, 154, 155, 156, 157, 158, 159, 160, 161, 162, 163, 164, 165, 166, 167, 168, 169, 170, 171, 172, 173, 174, 175, 176, 177, 178, 179, 180, 181, 182, 183, 184, 185, 186, 187, 188, 189, 190],
      "AcquisitionTime": ["104703.725000", "104705.215000", "104706.705000", "104708.195000", "104709.685000", "104711.175000", "104712.665000", "104714.155000", "104715.645000", "104717.135000", "104718.625000", "104720.115000", "104721.605000", "104723.095000", "104724.585000", "104726.075000", "104727.565000", "104729.055000", "104730.545000", "104732.035000", "104733.525000", "104735.015000", "104736.505000", "104737.995000", "104739.485000", "104740.975000", "104742.465000", "104743.955000", "104745.445000", "104746.935000", "104748.425000", "104749.915000", "104751.405000", "104752.895000", "104754.385000", "104755.875000", "104757.365000", "104758.855000", "104800.345000", "104801.835000", "104803.325000", "104804.815000", "104806.305000", "104807.795000", "104809.285000", "104810.775000", "104812.265000", "104813.755000", "104815.245000", "104816.735000", "104818.225000", "104819.715000", "104821.205000", "104822.695000", "104824.185000", "104825.675000", "104827.165000", "104828.655000", "104830.145000", "104831.635000", "104833.125000", "104834.615000", "104836.105000", "104837.595000", "104839.085000", "104840.575000", "104842.065000", "104843.555000", "104845.045000", "104846.535000", "104848.025000", "104849.515000", "104851.005000", "104852.495000", "104853.985000", "104855.475000", "104856.965000", "104858.455000", "104859.945000", "104901.435000", "104902.925000", "104904.415000", "104905.905000", "104907.395000", "104908.885000", "104910.375000", "104911.865000", "104913.355000", "104914.845000", "104916.335000", "104917.825000", "104919.315000", "104920.805000", "104922.295000", "104923.785000", "104925.275000", "104926.765000", "104928.255000", "104929.745000", "104931.235000", "104932.725000", "104934.215000", "104935.705000", "104937.195000", "104938.685000", "104940.175000", "104941.665000", "104943.155000", "104944.645000", "104946.135000", "104947.625000", "104949.115000", "104950.605000", "104952.095000", "104953.585000", "104955.075000", "104956.565000", "104958.055000", "104959.545000", "105001.035000", "105002.525000", "105004.015000", "105005.505000", "105006.995000", "105008.485000", "105009.975000", "105011.465000", "105012.955000", "105014.445000", "105015.935000", "105017.425000", "105018.915000", "105020.405000", "105021.895000", "105023.385000", "105024.875000", "105026.365000", "105027.855000", "105029.345000", "105030.835000", "105032.325000", "105033.815000", "105035.305000", "105036.795000", "105038.285000", "105039.775000", "105041.265000", "105042.755000", "105044.245000", "105045.735000", "105047.225000", "105048.715000", "105050.205000", "105051.695000", "105053.185000", "105054.675000", "105056.165000", "105057.655000", "105059.145000", "105100.635000", "105102.125000", "105103.615000", "105105.105000", "105106.595000", "105108.085000", "105109.575000", "105111.065000", "105112.555000", "105114.045000", "105115.535000", "105117.025000", "105118.515000", "105120.005000", "105121.495000", "105122.985000", "105124.475000", "105125.965000", "105127.455000", "105128.945000", "105130.435000", "105131.925000", "105133.415000", "105134.905000", "105136.395000", "105137.885000", "105139.375000", "105140.865000", "105142.355000", "105143.845000", "105145.335000"],
      "ContentTime": ["104823.584000", "104823.588000", "104823.591000", "104823.595000", "104823.598000", "104823.601000", "104823.605000", "104823.608000", "104823.611000", "104823.615000", "104823.618000", "104823.621000", "104823.625000", "104823.628000", "104823.632000", "104823.643000", "104823.647000", "104823.650000", "104823.654000", "104823.657000", "104823.660000", "104823.664000", "104823.667000", "104823.670000", "104823.674000", "104823.677000", "104843.535000", "104843.539000", "104843.542000", "104843.546000", "104843.549000", "104843.558000", "104843.561000", "104843.565000", "104843.568000", "104843.572000", "104843.575000", "104843.578000", "104843.582000", "104843.585000", "104843.588000", "104843.592000", "104843.595000", "104843.599000", "104843.602000", "104843.605000", "104903.535000", "104903.539000", "104903.542000", "104903.546000", "104903.549000", "104903.552000", "104903.556000", "104903.559000", "104903.563000", "104903.566000", "104903.570000", "104903.573000", "104903.576000", "104903.580000", "104903.584000", "104903.587000", "104903.590000", "104903.594000", "104903.597000", "104903.600000", "104923.534000", "104923.538000", "104923.541000", "104923.545000", "104923.548000", "104923.552000", "104923.555000", "104923.558000", "104923.571000", "104923.574000", "104923.578000", "104923.581000", "104923.584000", "104923.588000", "104923.591000", "104923.595000", "104923.599000", "104923.603000", "104923.606000", "104923.609000", "104943.535000", "104943.539000", "104943.542000", "104943.546000", "104943.549000", "104943.553000", "104943.556000", "104943.559000", "104943.563000", "104943.566000", "104943.570000", "104943.573000", "104943.576000", "104943.580000", "104943.583000", "104943.587000", "104943.590000", "104943.593000", "104943.597000", "104943.600000", "105023.535000", "105023.539000", "105023.542000", "105023.546000", "105023.549000", "105023.553000", "105023.556000", "105023.560000", "105023.563000", "105023.566000", "105023.570000", "105023.573000", "105023.577000", "105023.580000", "105023.584000", "105023.587000", "105023.590000", "105023.594000", "105023.597000", "105023.601000", "105023.604000", "105023.607000", "105023.611000", "105023.614000", "105023.617000", "105023.621000", "105023.624000", "105103.535000", "105103.539000", "105103.542000", "105103.546000", "105103.549000", "105103.553000", "105103.556000", "105103.560000", "105103.563000", "105103.566000", "105103.570000", "105103.573000", "105103.577000", "105103.580000", "105103.583000", "105103.587000", "105103.590000", "105103.594000", "105103.597000", "105103.600000", "105103.604000", "105103.626000", "105103.630000", "105103.633000", "105103.636000", "105103.640000", "105103.643000", "105143.534000", "105143.538000", "105143.542000", "105143.545000", "105143.548000", "105143.552000", "105143.555000", "105143.559000", "105143.562000", "105143.566000", "105143.569000", "105143.572000", "105143.576000", "105143.579000", "105143.583000", "105143.586000", "105143.590000", "105143.593000", "105143.596000", "105143.600000", "105143.603000", "105143.607000", "105143.610000", "105143.613000", "105143.617000", "105143.620000", "105143.623000", "105147.625000", "105147.629000", "105147.633000"],
      "InstanceCreationTime": ["104823.584000", "104823.588000", "104823.591000", "104823.595000", "104823.598000", "104823.601000", "104823.605000", "104823.608000", "104823.611000", "104823.615000", "104823.618000", "104823.621000", "104823.625000", "104823.628000", "104823.632000", "104823.643000", "104823.647000", "104823.650000", "104823.654000", "104823.657000", "104823.660000", "104823.664000", "104823.667000", "104823.670000", "104823.674000", "104823.677000", "104843.535000", "104843.539000", "104843.542000", "104843.546000", "104843.549000", "104843.558000", "104843.561000", "104843.565000", "104843.568000", "104843.572000", "104843.575000", "104843.578000", "104843.582000", "104843.585000", "104843.588000", "104843.592000", "104843.595000", "104843.599000", "104843.602000", "104843.605000", "104903.535000", "104903.539000", "104903.542000", "104903.546000", "104903.549000", "104903.552000", "104903.556000", "104903.559000", "104903.563000", "104903.566000", "104903.570000", "104903.573000", "104903.576000", "104903.580000", "104903.584000", "104903.587000", "104903.590000", "104903.594000", "104903.597000", "104903.600000", "104923.534000", "104923.538000", "104923.541000", "104923.545000", "104923.548000", "104923.552000", "104923.555000", "104923.558000", "104923.571000", "104923.574000", "104923.578000", "104923.581000", "104923.584000", "104923.588000", "104923.591000", "104923.595000", "104923.599000", "104923.603000", "104923.606000", "104923.609000", "104943.535000", "104943.539000", "104943.542000", "104943.546000", "104943.549000", "104943.553000", "104943.556000", "104943.559000", "104943.563000", "104943.566000", "104943.570000", "104943.573000", "104943.576000", "104943.580000", "104943.583000", "104943.587000", "104943.590000", "104943.593000", "104943.597000", "104943.600000", "105023.535000", "105023.539000", "105023.542000", "105023.546000", "105023.549000", "105023.553000", "105023.556000", "105023.560000", "105023.563000", "105023.566000", "105023.570000", "105023.573000", "105023.577000", "105023.580000", "105023.584000", "105023.587000", "105023.590000", "105023.594000", "105023.597000", "105023.601000", "105023.604000", "105023.607000", "105023.611000", "105023.614000", "105023.617000", "105023.621000", "105023.624000", "105103.535000", "105103.539000", "105103.542000", "105103.546000", "105103.549000", "105103.553000", "105103.556000", "105103.560000", "105103.563000", "105103.566000", "105103.570000", "105103.573000", "105103.577000", "105103.580000", "105103.583000", "105103.587000", "105103.590000", "105103.594000", "105103.597000", "105103.600000", "105103.604000", "105103.626000", "105103.630000", "105103.633000", "105103.636000", "105103.640000", "105103.643000", "105143.534000", "105143.538000", "105143.542000", "105143.545000", "105143.548000", "105143.552000", "105143.555000", "105143.559000", "105143.562000", "105143.566000", "105143.569000", "105143.572000", "105143.576000", "105143.579000", "105143.583000", "105143.586000", "105143.590000", "105143.593000", "105143.596000", "105143.600000", "105143.603000", "105143.607000", "105143.610000", "105143.613000", "105143.617000", "105143.620000", "105143.623000", "105147.625000", "105147.629000", "105147.633000"],
      "InstanceNumber": [1, 2, 3, 4, 5, 6, 7, 8, 9, 10, 11, 12, 13, 14, 15, 16, 17, 18, 19, 20, 21, 22, 23, 24, 25, 26, 27, 28, 29, 30, 31, 32, 33, 34, 35, 36, 37, 38, 39, 40, 41, 42, 43, 44, 45, 46, 47, 48, 49, 50, 51, 52, 53, 54, 55, 56, 57, 58, 59, 60, 61, 62, 63, 64, 65, 66, 67, 68, 69, 70, 71, 72, 73, 74, 75, 76, 77, 78, 79, 80, 81, 82, 83, 84, 85, 86, 87, 88, 89, 90, 91, 92, 93, 94, 95, 96, 97, 98, 99, 100, 101, 102, 103, 104, 105, 106, 107, 108, 109, 110, 111, 112, 113, 114, 115, 116, 117, 118, 119, 120, 121, 122, 123, 124, 125, 126, 127, 128, 129, 130, 131, 132, 133, 134, 135, 136, 137, 138, 139, 140, 141, 142, 143, 144, 145, 146, 147, 148, 149, 150, 151, 152, 153, 154, 155, 156, 157, 158, 159, 160, 161, 162, 163, 164, 165, 166, 167, 168, 169, 170, 171, 172, 173, 174, 175, 176, 177, 178, 179, 180, 181, 182, 183, 184, 185, 186, 187, 188, 189, 190],
      "LargestImagePixelValue": [48720, 47431, 46916, 46676, 46871, 45913, 45709, 45942, 46732, 46344, 47046, 46658, 46505, 46324, 46780, 46494, 46601, 46464, 46239, 47168, 46878, 46485, 47296, 46669, 46782, 46750, 47631, 46603, 46888, 47317, 46579, 46406, 48289, 47692, 46801, 46865, 47131, 46332, 46725, 46630, 46537, 46676, 47140, 46618, 46261, 47908, 48069, 47187, 46970, 46822, 46473, 46410, 46892, 46564, 47714, 47458, 46260, 46312, 45734, 46010, 46324, 45604, 46862, 46865, 47149, 46648, 47701, 46837, 46606, 46629, 46391, 46682, 46313, 45870, 45438, 45483, 45725, 45507, 45348, 45149, 45230, 45294, 44956, 45474, 44383, 45477, 44877, 45218, 45392, 45276, 46514, 45903, 45325, 45254, 45087, 45566, 45267, 45645, 45381, 45154, 45014, 45300, 44400, 46011, 45563, 44395, 44984, 44514, 45133, 44896, 45698, 43963, 45871, 44841, 44905, 44527, 46053, 43932, 45864, 44780, 45422, 43835, 43517, 43918, 43538, 45026, 44796, 45847, 44601, 45676, 44411, 44198, 44607, 45509, 45061, 45249, 45331, 45040, 45476, 44683, 45064, 43983, 45267, 44816, 44491, 42846, 44442, 44377, 45784, 44997, 45602, 44926, 44188, 44552, 44889, 44511, 44394, 44584, 45302, 44896, 45723, 45008, 45441, 45294, 45453, 44897, 44837, 45117, 45265, 45875, 45596, 45373, 45930, 44362, 44010, 44935, 44708, 44398, 46242, 45169, 44872, 45789, 43890, 44367, 44631, 45173, 45194, 45045, 45250, 44806],
      "WindowCenter": [11153.0, 11097.0, 11065.0, 11046.0, 11033.0, 11021.0, 11019.0, 11016.0, 11029.0, 11021.0, 11019.0, 11025.0, 11046.0, 11073.0, 11100.0, 11088.0, 11100.0, 11114.0, 11085.0, 11064.0, 11040.0, 11040.0, 11066.0, 11078.0, 11084.0, 11083.0, 11086.0, 11068.0, 11058.0, 11046.0, 11031.0, 11048.0, 11068.0, 11052.0, 11028.0, 11003.0, 11005.0, 11012.0, 11025.0, 11013.0, 10985.0, 10977.0, 10998.0, 11010.0, 11012.0, 11022.0, 11019.0, 11009.0, 11016.0, 11027.0, 11044.0, 11040.0, 11031.0, 11054.0, 11077.0, 11062.0, 11034.0, 11042.0, 11045.0, 11041.0, 11029.0, 11016.0, 11017.0, 11016.0, 11027.0, 11042.0, 11063.0, 11060.0, 11062.0, 11060.0, 11054.0, 11052.0, 11045.0, 11050.0, 11055.0, 11057.0, 11057.0, 11041.0, 11030.0, 11035.0, 11033.0, 11036.0, 11031.0, 11011.0, 11024.0, 11058.0, 11095.0, 11115.0, 11110.0, 11095.0, 11059.0, 11024.0, 10999.0, 11009.0, 11037.0, 11053.0, 11009.0, 11007.0, 11007.0, 11002.0, 11029.0, 11017.0, 10981.0, 10998.0, 11033.0, 11043.0, 11041.0, 11011.0, 11018.0, 11027.0, 11040.0, 11016.0, 11017.0, 11013.0, 11021.0, 11024.0, 11042.0, 11024.0, 11033.0, 11026.0, 11020.0, 11016.0, 11016.0, 11030.0, 11032.0, 11048.0, 11016.0, 11037.0, 11027.0, 11046.0, 11044.0, 11024.0, 11012.0, 11011.0, 11007.0, 11004.0, 11005.0, 11003.0, 11013.0, 11013.0, 11034.0, 11028.0, 11044.0, 11048.0, 11038.0, 10992.0, 11003.0, 11019.0, 11044.0, 11041.0, 11039.0, 11029.0, 11017.0, 11014.0, 11018.0, 11029.0, 11038.0, 11034.0, 11034.0, 11019.0, 11022.0, 11010.0, 10998.0, 11014.0, 11040.0, 11047.0, 11008.0, 10988.0, 11012.0, 11039.0, 11056.0, 11062.0, 11050.0, 11041.0, 11017.0, 10982.0, 10962.0, 10985.0, 11036.0, 11030.0, 10989.0, 10977.0, 10955.0, 10975.0, 11002.0, 11008.0, 10999.0, 10972.0, 10980.0, 11005.0],
      "WindowWidth": [24074.0, 23908.0, 23816.0, 23759.0, 23724.0, 23694.0, 23687.0, 23676.0, 23704.0, 23685.0, 23684.0, 23695.0, 23746.0, 23812.0, 23874.0, 23848.0, 23871.0, 23908.0, 23841.0, 23788.0, 23731.0, 23734.0, 23789.0, 23823.0, 23835.0, 23835.0, 23836.0, 23795.0, 23772.0, 23743.0, 23711.0, 23752.0, 23789.0, 23758.0, 23705.0, 23644.0, 23647.0, 23666.0, 23695.0, 23668.0, 23603.0, 23582.0, 23628.0, 23660.0, 23665.0, 23684.0, 23678.0, 23659.0, 23674.0, 23701.0, 23742.0, 23733.0, 23712.0, 23763.0, 23815.0, 23785.0, 23725.0, 23742.0, 23749.0, 23739.0, 23707.0, 23680.0, 23680.0, 23677.0, 23700.0, 23737.0, 23784.0, 23782.0, 23785.0, 23781.0, 23767.0, 23762.0, 23748.0, 23762.0, 23775.0, 23779.0, 23780.0, 23745.0, 23716.0, 23728.0, 23727.0, 23733.0, 23722.0, 23676.0, 23706.0, 23782.0, 23874.0, 23920.0, 23905.0, 23869.0, 23780.0, 23701.0, 23643.0, 23667.0, 23730.0, 23768.0, 23669.0, 23661.0, 23661.0, 23653.0, 23715.0, 23685.0, 23606.0, 23634.0, 23720.0, 23750.0, 23744.0, 23675.0, 23687.0, 23708.0, 23733.0, 23688.0, 23682.0, 23677.0, 23694.0, 23704.0, 23741.0, 23708.0, 23721.0, 23708.0, 23694.0, 23690.0, 23692.0, 23724.0, 23730.0, 23759.0, 23684.0, 23724.0, 23711.0, 23752.0, 23747.0, 23706.0, 23675.0, 23670.0, 23662.0, 23655.0, 23658.0, 23652.0, 23674.0, 23674.0, 23727.0, 23715.0, 23750.0, 23758.0, 23735.0, 23641.0, 23659.0, 23693.0, 23747.0, 23738.0, 23733.0, 23713.0, 23691.0, 23684.0, 23691.0, 23719.0, 23738.0, 23728.0, 23722.0, 23690.0, 23696.0, 23670.0, 23642.0, 23678.0, 23739.0, 23760.0, 23669.0, 23620.0, 23673.0, 23739.0, 23774.0, 23791.0, 23761.0, 23743.0, 23692.0, 23606.0, 23561.0, 23612.0, 23722.0, 23716.0, 23623.0, 23587.0, 23542.0, 23587.0, 23650.0, 23665.0, 23644.0, 23582.0, 23600.0, 23656.0]
    },
    "slices": {}
  }
}