{
  "AcquisitionMatrixPE": 104,
  "AcquisitionNumber": 1,
  "AcquisitionTime": "10:47:3.725000",
  "BandwidthPerPixelPhaseEncode": 17.17,
  "BaseResolution": 104,
  "BodyPartExamined": "BRAIN",
  "CoilString": "HC1-7;NC1_2",
  "ConsistencyInfo": "N4_VE11C_LATEST_20160120",
  "ConversionSoftware": "dcm2niix",
  "ConversionSoftwareVersion": "v1.0.20190902",
  "DerivedVendorReportedEchoSpacing": 0.000560011,
  "DeviceSerialNumber": "167006",
  "DwellTime": 2.1e-06,
  "EchoTime": 0.037,
  "EchoTrainLength": 104,
  "EffectiveEchoSpacing": 0.000560011,
  "FlipAngle": 52,
  "ImageComments": "Unaliased_MB4_PE3_LB",
  "ImageOrientationPatientDICOM": [0.999748, 0.0122423, 0.0188247, -0.00226835, 0.889087, -0.457734],
  "ImageType": [
    "ORIGINAL",
    "PRIMARY",
    "P",
    "MB",
    "ND",
    "MOSAIC"
],
  "ImagingFrequency": 123.259,
  "InPlanePhaseEncodingDirectionDICOM": "COL",
  "InstitutionAddress": "Chemin_Queen-Mary_4565_Montreal_District_CA_H3W_1W5",
  "InstitutionName": "IUGM",
  "InstitutionalDepartmentName": "Department",
  "MRAcquisitionType": "2D",
  "MagneticFieldStrength": 3,
  "Manufacturer": "Siemens",
  "ManufacturersModelName": "Prisma_fit",
  "Modality": "MR",
  "MultibandAccelerationFactor": 4,
  "PartialFourier": 1,
  "PatientPosition": "HFS",
  "PercentPhaseFOV": 100,
  "PhaseEncodingDirection": "j",
  "PhaseEncodingSteps": 104,
  "PhaseResolution": 1,
  "PixelBandwidth": 2290,
  "ProcedureStepDescription": "memory_things",
  "ProtocolName": "func_task-things_run-1",
  "PulseSequenceDetails": "%CustomerSeq%_cmrr_mbep2d_bold",
  "ReceiveCoilActiveElements": "HC1-7;NC1,2",
  "ReceiveCoilName": "HeadNeck_64",
  "ReconMatrixPE": 104,
  "RepetitionTime": 1.49,
  "SAR": 0.0476736,
  "ScanOptions": "FS",
  "ScanningSequence": "EP",
  "SequenceName": "epfid2d1_104",
  "SequenceVariant": "SK_SS",
  "SeriesDescription": "func_task-things_run-1",
  "SeriesNumber": 11,
  "ShimSetting": [623, -7189, -8863, 360, 13, -92, -21, -22],
  "SliceThickness": 2,
  "SliceTiming": [0, 0.7825, 0.0975, 0.8825, 0.195, 0.98, 0.2925, 1.0775, 0.3925, 1.175, 0.49, 1.2725, 0.5875, 1.3725, 0.685, 0, 0.7825, 0.0975, 0.8825, 0.195, 0.98, 0.2925, 1.0775, 0.3925, 1.175, 0.49, 1.2725, 0.5875, 1.3725, 0.685, 0, 0.7825, 0.0975, 0.8825, 0.195, 0.98, 0.2925, 1.0775, 0.3925, 1.175, 0.49, 1.2725, 0.5875, 1.3725, 0.685, 0, 0.7825, 0.0975, 0.8825, 0.195, 0.98, 0.2925, 1.0775, 0.3925, 1.175, 0.49, 1.2725, 0.5875, 1.3725, 0.685],
  "SoftwareVersions": "syngo_MR_E11",
  "SpacingBetweenSlices": 2,
  "StationName": "MRC35049",
  "TaskName": "things",
  "TotalReadoutTime": 0.0576811,
  "TxRefAmp": 268.19,
  "WipMemBlock": "3e40f4a9-1ed8-4fbd-a68b-d0b5f0c99577||Sequence: R016 ve11c/master r/e634e98; Dec 19 2017 11:00:25 by eja",
  "dcmmeta_affine": [
    [-1.9994957447052002, -0.004536708351224661, 0.04468095302581787, 106.13023376464844],
    [-0.024484604597091675, 1.7781730890274048, -0.9151508212089539, -55.400474548339844],
    [0.03764934837818146, 0.9154670238494873, 1.777780294418335, -96.76380157470703],
    [0.0, 0.0, 0.0, 1.0]
],
  "dcmmeta_reorient_transform": [
    [0.0, -1.0, 0.0, 103.0],
    [1.0, 0.0, 0.0, 0.0],
    [0.0, 0.0, 1.0, 0.0],
    [0.0, 0.0, 0.0, 1.0]
],
  "dcmmeta_shape": [104, 104, 60, 190],
  "dcmmeta_slice_dim": 2,
  "dcmmeta_version": 0.6,
  "global": {
    "const": {
      "AcquisitionMatrix": [104, 0, 0, 104],
      "AngioFlag": "N",
      "BitsAllocated": 16,
      "BitsStored": 16,
      "BodyPartExamined": "BRAIN",
      "Columns": 832,
      "EchoNumbers": 1,
      "EchoTime": 37.0,
      "EchoTrainLength": 104,
      "FlipAngle": 52.0,
      "HighBit": 15,
      "ImageOrientationPatient": [0.99974784705826, 0.0122423025362, 0.01882467346301, -0.0022683542092, 0.88908653908151, -0.4577335257475],
      "ImagePositionPatient": [-831.82802597917, -783.91874930211, 317.05495089782],
      "ImageType": [
        "ORIGINAL",
        "PRIMARY",
        "P",
        "MB",
        "ND",
        "MOSAIC"
],
      "ImagedNucleus": "1H",
      "ImagingFrequency": 123.25893,
      "InPlanePhaseEncodingDirection": "COL",
      "LargestImagePixelValue": 4095,
      "MRAcquisitionType": "2D",
      "MagneticFieldStrength": 3.0,
      "Manufacturer": "SIEMENS",
      "ManufacturerModelName": "Prisma_fit",
      "Modality": "MR",
      "NumberOfAverages": 1.0,
      "NumberOfPhaseEncodingSteps": 104,
      "PercentPhaseFieldOfView": 100.0,
      "PercentSampling": 100.0,
      "PerformedProcedureStepStartTime": "103523.433000",
      "PhotometricInterpretation": "MONOCHROME2",
      "PixelBandwidth": 2290.0,
      "PixelRepresentation": 0,
      "PixelSpacing": [2.0, 2.0],
      "ProtocolName": "func_task-things_run-1",
      "RepetitionTime": 1490.0,
      "RescaleIntercept": -4096.0,
      "RescaleSlope": 2.0,
      "RescaleType": "US",
      "Rows": 832,
      "SAR": 0.04767359533401,
      "SamplesPerPixel": 1,
      "ScanOptions": "FS",
      "ScanningSequence": "EP",
      "SequenceName": "epfid2d1_104",
      "SequenceVariant": [
        "SK",
        "SS"
],
      "SeriesDescription": "func_task-things_run-1",
      "SeriesNumber": 11,
      "SeriesTime": "104823.715000",
      "SliceLocation": -58.29149140233,
      "SliceThickness": 2.0,
      "SmallestImagePixelValue": 0,
      "SoftwareVersions": "syngo MR E11",
      "SpacingBetweenSlices": 2.0000000148559,
      "SpecificCharacterSet": "ISO_IR 100",
      "StudyID": "1",
      "StudyTime": "103523.318000",
      "TransmitCoilName": "Body",
      "VariableFlipAngleFlag": "N",
      "WindowCenterWidthExplanation": "Algo1",
      "dBdt": 0.0},
    "slices": {}
  },
  "time": {
    "samples": {
      "AcquisitionNumber": [1, 2, 3, 4, 5, 6, 7, 8, 9, 10, 11, 12, 13, 14, 15, 16, 17, 18, 19, 20, 21, 22, 23, 24, 25, 26, 27, 28, 29, 30, 31, 32, 33, 34, 35, 36, 37, 38, 39, 40, 41, 42, 43, 44, 45, 46, 47, 48, 49, 50, 51, 52, 53, 54, 55, 56, 57, 58, 59, 60, 61, 62, 63, 64, 65, 66, 67, 68, 69, 70, 71, 72, 73, 74, 75, 76, 77, 78, 79, 80, 81, 82, 83, 84, 85, 86, 87, 88, 89, 90, 91, 92, 93, 94, 95, 96, 97, 98, 99, 100, 101, 102, 103, 104, 105, 106, 107, 108, 109, 110, 111, 112, 113, 114, 115, 116, 117, 118, 119, 120, 121, 122, 123, 124, 125, 126, 127, 128, 129, 130, 131, 132, 133, 134, 135, 136, 137, 138, 139, 140, 141, 142, 143, 144, 145, 146, 147, 148, 149, 150, 151, 152, 153, 154, 155, 156, 157, 158, 159, 160, 161, 162, 163, 164, 165, 166, 167, 168, 169, 170, 171, 172, 173, 174, 175, 176, 177, 178, 179, 180, 181, 182, 183, 184, 185, 186, 187, 188, 189, 190],
      "AcquisitionTime": ["104703.725000", "104705.215000", "104706.705000", "104708.195000", "104709.685000", "104711.175000", "104712.665000", "104714.155000", "104715.645000", "104717.135000", "104718.625000", "104720.115000", "104721.605000", "104723.095000", "104724.585000", "104726.075000", "104727.565000", "104729.055000", "104730.545000", "104732.035000", "104733.525000", "104735.015000", "104736.505000", "104737.995000", "104739.485000", "104740.975000", "104742.465000", "104743.955000", "104745.445000", "104746.935000", "104748.425000", "104749.915000", "104751.405000", "104752.895000", "104754.385000", "104755.875000", "104757.365000", "104758.855000", "104800.345000", "104801.835000", "104803.325000", "104804.815000", "104806.305000", "104807.795000", "104809.285000", "104810.775000", "104812.265000", "104813.755000", "104815.245000", "104816.735000", "104818.225000", "104819.715000", "104821.205000", "104822.695000", "104824.185000", "104825.675000", "104827.165000", "104828.655000", "104830.145000", "104831.635000", "104833.125000", "104834.615000", "104836.105000", "104837.595000", "104839.085000", "104840.575000", "104842.065000", "104843.555000", "104845.045000", "104846.535000", "104848.025000", "104849.515000", "104851.005000", "104852.495000", "104853.985000", "104855.475000", "104856.965000", "104858.455000", "104859.945000", "104901.435000", "104902.925000", "104904.415000", "104905.905000", "104907.395000", "104908.885000", "104910.375000", "104911.865000", "104913.355000", "104914.845000", "104916.335000", "104917.825000", "104919.315000", "104920.805000", "104922.295000", "104923.785000", "104925.275000", "104926.765000", "104928.255000", "104929.745000", "104931.235000", "104932.725000", "104934.215000", "104935.705000", "104937.195000", "104938.685000", "104940.175000", "104941.665000", "104943.155000", "104944.645000", "104946.135000", "104947.625000", "104949.115000", "104950.605000", "104952.095000", "104953.585000", "104955.075000", "104956.565000", "104958.055000", "104959.545000", "105001.035000", "105002.525000", "105004.015000", "105005.505000", "105006.995000", "105008.485000", "105009.975000", "105011.465000", "105012.955000", "105014.445000", "105015.935000", "105017.425000", "105018.915000", "105020.405000", "105021.895000", "105023.385000", "105024.875000", "105026.365000", "105027.855000", "105029.345000", "105030.835000", "105032.325000", "105033.815000", "105035.305000", "105036.795000", "105038.285000", "105039.775000", "105041.265000", "105042.755000", "105044.245000", "105045.735000", "105047.225000", "105048.715000", "105050.205000", "105051.695000", "105053.185000", "105054.675000", "105056.165000", "105057.655000", "105059.145000", "105100.635000", "105102.125000", "105103.615000", "105105.105000", "105106.595000", "105108.085000", "105109.575000", "105111.065000", "105112.555000", "105114.045000", "105115.535000", "105117.025000", "105118.515000", "105120.005000", "105121.495000", "105122.985000", "105124.475000", "105125.965000", "105127.455000", "105128.945000", "105130.435000", "105131.925000", "105133.415000", "105134.905000", "105136.395000", "105137.885000", "105139.375000", "105140.865000", "105142.355000", "105143.845000", "105145.335000"],
      "ContentTime": ["104823.717000", "104823.720000", "104823.723000", "104823.725000", "104823.728000", "104823.730000", "104823.733000", "104823.735000", "104823.738000", "104823.741000", "104823.743000", "104823.746000", "104823.748000", "104823.751000", "104823.753000", "104823.756000", "104823.758000", "104823.761000", "104823.763000", "104823.766000", "104823.769000", "104823.771000", "104823.782000", "104823.784000", "104823.787000", "104823.789000", "104843.646000", "104843.649000", "104843.651000", "104843.654000", "104843.656000", "104843.659000", "104843.661000", "104843.664000", "104843.666000", "104843.669000", "104843.671000", "104843.674000", "104843.677000", "104843.679000", "104843.682000", "104843.684000", "104843.687000", "104843.689000", "104843.692000", "104843.694000", "104903.645000", "104903.648000", "104903.650000", "104903.653000", "104903.655000", "104903.658000", "104903.660000", "104903.663000", "104903.666000", "104903.668000", "104903.671000", "104903.673000", "104903.676000", "104903.678000", "104903.681000", "104903.683000", "104903.686000", "104903.689000", "104903.691000", "104903.694000", "104923.655000", "104923.658000", "104923.661000", "104923.663000", "104923.666000", "104923.668000", "104923.671000", "104923.673000", "104923.676000", "104923.678000", "104923.681000", "104923.683000", "104923.686000", "104923.689000", "104923.691000", "104923.694000", "104923.696000", "104923.699000", "104923.701000", "104923.704000", "104943.644000", "104943.647000", "104943.649000", "104943.652000", "104943.654000", "104943.657000", "104943.660000", "104943.662000", "104943.665000", "104943.667000", "104943.670000", "104943.672000", "104943.675000", "104943.677000", "104943.680000", "104943.682000", "104943.685000", "104943.696000", "104943.698000", "104943.701000", "105023.668000", "105023.671000", "105023.674000", "105023.676000", "105023.679000", "105023.681000", "105023.684000", "105023.686000", "105023.689000", "105023.692000", "105023.694000", "105023.697000", "105023.699000", "105023.702000", "105023.704000", "105023.713000", "105023.716000", "105023.718000", "105023.721000", "105023.723000", "105023.726000", "105023.729000", "105023.740000", "105023.743000", "105023.746000", "105023.748000", "105023.751000", "105103.681000", "105103.684000", "105103.687000", "105103.689000", "105103.692000", "105103.695000", "105103.697000", "105103.700000", "105103.702000", "105103.705000", "105103.707000", "105103.710000", "105103.712000", "105103.715000", "105103.718000", "105103.720000", "105103.723000", "105103.725000", "105103.728000", "105103.731000", "105103.733000", "105103.736000", "105103.738000", "105103.741000", "105103.744000", "105103.746000", "105103.749000", "105143.678000", "105143.680000", "105143.683000", "105143.686000", "105143.688000", "105143.691000", "105143.693000", "105143.696000", "105143.699000", "105143.701000", "105143.704000", "105143.706000", "105143.709000", "105143.711000", "105143.714000", "105143.717000", "105143.719000", "105143.722000", "105143.724000", "105143.727000", "105143.729000", "105143.732000", "105143.735000", "105143.737000", "105143.740000", "105143.742000", "105143.745000", "105147.699000", "105147.702000", "105147.705000"],
      "InstanceCreationTime": ["104823.717000", "104823.720000", "104823.723000", "104823.725000", "104823.728000", "104823.730000", "104823.733000", "104823.735000", "104823.738000", "104823.741000", "104823.743000", "104823.746000", "104823.748000", "104823.751000", "104823.753000", "104823.756000", "104823.758000", "104823.761000", "104823.763000", "104823.766000", "104823.769000", "104823.771000", "104823.782000", "104823.784000", "104823.787000", "104823.789000", "104843.646000", "104843.649000", "104843.651000", "104843.654000", "104843.656000", "104843.659000", "104843.661000", "104843.664000", "104843.666000", "104843.669000", "104843.671000", "104843.674000", "104843.677000", "104843.679000", "104843.682000", "104843.684000", "104843.687000", "104843.689000", "104843.692000", "104843.694000", "104903.645000", "104903.648000", "104903.650000", "104903.653000", "104903.655000", "104903.658000", "104903.660000", "104903.663000", "104903.666000", "104903.668000", "104903.671000", "104903.673000", "104903.676000", "104903.678000", "104903.681000", "104903.683000", "104903.686000", "104903.689000", "104903.691000", "104903.694000", "104923.655000", "104923.658000", "104923.661000", "104923.663000", "104923.666000", "104923.668000", "104923.671000", "104923.673000", "104923.676000", "104923.678000", "104923.681000", "104923.683000", "104923.686000", "104923.689000", "104923.691000", "104923.694000", "104923.696000", "104923.699000", "104923.701000", "104923.704000", "104943.644000", "104943.647000", "104943.649000", "104943.652000", "104943.654000", "104943.657000", "104943.660000", "104943.662000", "104943.665000", "104943.667000", "104943.670000", "104943.672000", "104943.675000", "104943.677000", "104943.680000", "104943.682000", "104943.685000", "104943.696000", "104943.698000", "104943.701000", "105023.668000", "105023.671000", "105023.674000", "105023.676000", "105023.679000", "105023.681000", "105023.684000", "105023.686000", "105023.689000", "105023.692000", "105023.694000", "105023.697000", "105023.699000", "105023.702000", "105023.704000", "105023.713000", "105023.716000", "105023.718000", "105023.721000", "105023.723000", "105023.726000", "105023.729000", "105023.740000", "105023.743000", "105023.746000", "105023.748000", "105023.751000", "105103.681000", "105103.684000", "105103.687000", "105103.689000", "105103.692000", "105103.695000", "105103.697000", "105103.700000", "105103.702000", "105103.705000", "105103.707000", "105103.710000", "105103.712000", "105103.715000", "105103.718000", "105103.720000", "105103.723000", "105103.725000", "105103.728000", "105103.731000", "105103.733000", "105103.736000", "105103.738000", "105103.741000", "105103.744000", "105103.746000", "105103.749000", "105143.678000", "105143.680000", "105143.683000", "105143.686000", "105143.688000", "105143.691000", "105143.693000", "105143.696000", "105143.699000", "105143.701000", "105143.704000", "105143.706000", "105143.709000", "105143.711000", "105143.714000", "105143.717000", "105143.719000", "105143.722000", "105143.724000", "105143.727000", "105143.729000", "105143.732000", "105143.735000", "105143.737000", "105143.740000", "105143.742000", "105143.745000", "105147.699000", "105147.702000", "105147.705000"],
      "InstanceNumber": [1, 2, 3, 4, 5, 6, 7, 8, 9, 10, 11, 12, 13, 14, 15, 16, 17, 18, 19, 20, 21, 22, 23, 24, 25, 26, 27, 28, 29, 30, 31, 32, 33, 34, 35, 36, 37, 38, 39, 40, 41, 42, 43, 44, 45, 46, 47, 48, 49, 50, 51, 52, 53, 54, 55, 56, 57, 58, 59, 60, 61, 62, 63, 64, 65, 66, 67, 68, 69, 70, 71, 72, 73, 74, 75, 76, 77, 78, 79, 80, 81, 82, 83, 84, 85, 86, 87, 88, 89, 90, 91, 92, 93, 94, 95, 96, 97, 98, 99, 100, 101, 102, 103, 104, 105, 106, 107, 108, 109, 110, 111, 112, 113, 114, 115, 116, 117, 118, 119, 120, 121, 122, 123, 124, 125, 126, 127, 128, 129, 130, 131, 132, 133, 134, 135, 136, 137, 138, 139, 140, 141, 142, 143, 144, 145, 146, 147, 148, 149, 150, 151, 152, 153, 154, 155, 156, 157, 158, 159, 160, 161, 162, 163, 164, 165, 166, 167, 168, 169, 170, 171, 172, 173, 174, 175, 176, 177, 178, 179, 180, 181, 182, 183, 184, 185, 186, 187, 188, 189, 190],
      "WindowCenter": [4724.0, 4746.0, 4744.0, 4744.0, 4746.0, 4744.0, 4746.0, 4746.0, 4748.0, 4746.0, 4754.0, 4748.0, 4722.0, 4746.0, 4724.0, 4740.0, 4742.0, 4724.0, 4746.0, 4728.0, 4744.0, 4746.0, 4742.0, 4718.0, 4742.0, 4758.0, 4758.0, 4744.0, 4744.0, 4740.0, 4744.0, 4766.0, 4758.0, 4742.0, 4722.0, 4720.0, 4738.0, 4760.0, 4716.0, 4738.0, 4742.0, 4744.0, 4748.0, 4758.0, 4774.0, 4732.0, 4740.0, 4740.0, 4762.0, 4764.0, 4738.0, 4744.0, 4766.0, 4798.0, 4758.0, 4768.0, 4764.0, 4788.0, 4744.0, 4744.0, 4752.0, 4762.0, 4756.0, 4752.0, 4750.0, 4728.0, 4742.0, 4742.0, 4716.0, 4718.0, 4718.0, 4740.0, 4740.0, 4742.0, 4744.0, 4750.0, 4750.0, 4744.0, 4744.0, 4748.0, 4744.0, 4752.0, 4722.0, 4744.0, 4744.0, 4744.0, 4726.0, 4742.0, 4752.0, 4724.0, 4742.0, 4742.0, 4738.0, 4746.0, 4724.0, 4742.0, 4744.0, 4748.0, 4728.0, 4748.0, 4732.0, 4744.0, 4742.0, 4766.0, 4744.0, 4742.0, 4746.0, 4744.0, 4748.0, 4742.0, 4750.0, 4748.0, 4748.0, 4746.0, 4746.0, 4740.0, 4722.0, 4742.0, 4726.0, 4748.0, 4754.0, 4726.0, 4744.0, 4740.0, 4762.0, 4740.0, 4740.0, 4750.0, 4744.0, 4756.0, 4726.0, 4746.0, 4740.0, 4742.0, 4740.0, 4744.0, 4744.0, 4742.0, 4742.0, 4742.0, 4726.0, 4746.0, 4758.0, 4752.0, 4738.0, 4762.0, 4766.0, 4760.0, 4744.0, 4748.0, 4760.0, 4770.0, 4748.0, 4744.0, 4742.0, 4716.0, 4740.0, 4720.0, 4744.0, 4742.0, 4748.0, 4750.0, 4750.0, 4758.0, 4746.0, 4752.0, 4740.0, 4742.0, 4766.0, 4744.0, 4746.0, 4746.0, 4770.0, 4802.0, 4726.0, 4764.0, 4818.0, 4828.0, 4740.0, 4720.0, 4752.0, 4794.0, 4766.0, 4756.0, 4748.0, 4742.0, 4742.0, 4764.0, 4740.0, 4740.0],
      "WindowWidth": [18500.0, 18534.0, 18528.0, 18536.0, 18532.0, 18536.0, 18532.0, 18536.0, 18532.0, 18536.0, 18532.0, 18530.0, 18496.0, 18534.0, 18498.0, 18530.0, 18532.0, 18500.0, 18534.0, 18498.0, 18536.0, 18534.0, 18538.0, 18498.0, 18534.0, 18534.0, 18532.0, 18534.0, 18528.0, 18534.0, 18532.0, 18534.0, 18532.0, 18536.0, 18496.0, 18500.0, 18534.0, 18560.0, 18498.0, 18530.0, 18532.0, 18528.0, 18532.0, 18536.0, 18540.0, 18500.0, 18534.0, 18536.0, 18562.0, 18564.0, 18530.0, 18530.0, 18534.0, 18558.0, 18534.0, 18568.0, 18570.0, 18600.0, 18536.0, 18536.0, 18534.0, 18538.0, 18536.0, 18536.0, 18534.0, 18498.0, 18534.0, 18532.0, 18494.0, 18498.0, 18502.0, 18534.0, 18532.0, 18530.0, 18532.0, 18532.0, 18534.0, 18530.0, 18530.0, 18532.0, 18530.0, 18538.0, 18500.0, 18530.0, 18534.0, 18532.0, 18502.0, 18530.0, 18530.0, 18498.0, 18530.0, 18538.0, 18530.0, 18538.0, 18502.0, 18530.0, 18534.0, 18530.0, 18500.0, 18532.0, 18498.0, 18532.0, 18534.0, 18568.0, 18532.0, 18530.0, 18530.0, 18536.0, 18530.0, 18530.0, 18526.0, 18536.0, 18530.0, 18530.0, 18534.0, 18532.0, 18504.0, 18532.0, 18500.0, 18530.0, 18532.0, 18496.0, 18534.0, 18534.0, 18566.0, 18530.0, 18528.0, 18530.0, 18532.0, 18530.0, 18500.0, 18532.0, 18530.0, 18530.0, 18534.0, 18530.0, 18530.0, 18530.0, 18532.0, 18534.0, 18498.0, 18532.0, 18536.0, 18534.0, 18534.0, 18568.0, 18566.0, 18566.0, 18530.0, 18534.0, 18540.0, 18536.0, 18532.0, 18528.0, 18532.0, 18496.0, 18536.0, 18498.0, 18534.0, 18534.0, 18532.0, 18530.0, 18536.0, 18540.0, 18534.0, 18532.0, 18530.0, 18536.0, 18568.0, 18530.0, 18538.0, 18538.0, 18532.0, 18548.0, 18498.0, 18566.0, 18644.0, 18652.0, 18540.0, 18496.0, 18534.0, 18568.0, 18540.0, 18532.0, 18534.0, 18534.0, 18534.0, 18566.0, 18534.0, 18534.0]
    },
    "slices": {}
  }
}