{
  "AcquisitionMatrixPE": 104,
  "AcquisitionNumber": 1,
  "AcquisitionTime": "11:05:49.845000",
  "BandwidthPerPixelPhaseEncode": 17.17,
  "BaseResolution": 104,
  "BodyPartExamined": "BRAIN",
  "CoilString": "HC1-7;NC1_2",
  "ConsistencyInfo": "N4_VE11C_LATEST_20160120",
  "ConversionSoftware": "dcm2niix",
  "ConversionSoftwareVersion": "v1.0.20190902",
  "DerivedVendorReportedEchoSpacing": 0.000560011,
  "DeviceSerialNumber": "167006",
  "DwellTime": 2.1e-06,
  "EchoTime": 0.037,
  "EchoTrainLength": 104,
  "EffectiveEchoSpacing": 0.000560011,
  "FlipAngle": 52,
  "ImageComments": "Unaliased_MB4_PE3_LB",
  "ImageOrientationPatientDICOM": [0.999748, 0.0122423, 0.0188247, -0.00226835, 0.889087, -0.457734],
  "ImageType": [
    "ORIGINAL",
    "PRIMARY",
    "P",
    "MB",
    "ND",
    "MOSAIC"
],
  "ImagingFrequency": 123.259,
  "InPlanePhaseEncodingDirectionDICOM": "COL",
  "InstitutionAddress": "Chemin_Queen-Mary_4565_Montreal_District_CA_H3W_1W5",
  "InstitutionName": "IUGM",
  "InstitutionalDepartmentName": "Department",
  "MRAcquisitionType": "2D",
  "MagneticFieldStrength": 3,
  "Manufacturer": "Siemens",
  "ManufacturersModelName": "Prisma_fit",
  "Modality": "MR",
  "MultibandAccelerationFactor": 4,
  "PartialFourier": 1,
  "PatientPosition": "HFS",
  "PercentPhaseFOV": 100,
  "PhaseEncodingDirection": "j",
  "PhaseEncodingSteps": 104,
  "PhaseResolution": 1,
  "PixelBandwidth": 2290,
  "ProcedureStepDescription": "memory_things",
  "ProtocolName": "func_task-things_run-4",
  "PulseSequenceDetails": "%CustomerSeq%_cmrr_mbep2d_bold",
  "ReceiveCoilActiveElements": "HC1-7;NC1,2",
  "ReceiveCoilName": "HeadNeck_64",
  "ReconMatrixPE": 104,
  "RepetitionTime": 1.49,
  "SAR": 0.0476736,
  "ScanOptions": "FS",
  "ScanningSequence": "EP",
  "SequenceName": "epfid2d1_104",
  "SequenceVariant": "SK_SS",
  "SeriesDescription": "func_task-things_run-4",
  "SeriesNumber": 20,
  "ShimSetting": [623, -7189, -8863, 360, 13, -92, -21, -22],
  "SliceThickness": 2,
  "SliceTiming": [0, 0.785, 0.0975, 0.8825, 0.1975, 0.98, 0.295, 1.0775, 0.3925, 1.1775, 0.49, 1.275, 0.5875, 1.3725, 0.6875, 0, 0.785, 0.0975, 0.8825, 0.1975, 0.98, 0.295, 1.0775, 0.3925, 1.1775, 0.49, 1.275, 0.5875, 1.3725, 0.6875, 0, 0.785, 0.0975, 0.8825, 0.1975, 0.98, 0.295, 1.0775, 0.3925, 1.1775, 0.49, 1.275, 0.5875, 1.3725, 0.6875, 0, 0.785, 0.0975, 0.8825, 0.1975, 0.98, 0.295, 1.0775, 0.3925, 1.1775, 0.49, 1.275, 0.5875, 1.3725, 0.6875],
  "SoftwareVersions": "syngo_MR_E11",
  "SpacingBetweenSlices": 2,
  "StationName": "MRC35049",
  "TaskName": "things",
  "TotalReadoutTime": 0.0576811,
  "TxRefAmp": 268.19,
  "WipMemBlock": "4ad7729e-95ff-4970-b3cb-14b8116551a4||Sequence: R016 ve11c/master r/e634e98; Dec 19 2017 11:00:25 by eja",
  "dcmmeta_affine": [
    [-1.9994957447052002, -0.004536708351224661, 0.04468095302581787, 106.13023376464844],
    [-0.024484604597091675, 1.7781730890274048, -0.9151508212089539, -55.400474548339844],
    [0.03764934837818146, 0.9154670238494873, 1.777780294418335, -96.76380157470703],
    [0.0, 0.0, 0.0, 1.0]
],
  "dcmmeta_reorient_transform": [
    [0.0, -1.0, 0.0, 103.0],
    [1.0, 0.0, 0.0, 0.0],
    [0.0, 0.0, 1.0, 0.0],
    [0.0, 0.0, 0.0, 1.0]
],
  "dcmmeta_shape": [104, 104, 60, 190],
  "dcmmeta_slice_dim": 2,
  "dcmmeta_version": 0.6,
  "global": {
    "const": {
      "AcquisitionMatrix": [104, 0, 0, 104],
      "AngioFlag": "N",
      "BitsAllocated": 16,
      "BitsStored": 16,
      "BodyPartExamined": "BRAIN",
      "Columns": 832,
      "EchoNumbers": 1,
      "EchoTime": 37.0,
      "EchoTrainLength": 104,
      "FlipAngle": 52.0,
      "HighBit": 15,
      "ImageOrientationPatient": [0.99974784705826, 0.0122423025362, 0.01882467346301, -0.0022683542092, 0.88908653908151, -0.4577335257475],
      "ImagePositionPatient": [-831.82802597917, -783.91874930211, 317.05495089782],
      "ImageType": [
        "ORIGINAL",
        "PRIMARY",
        "P",
        "MB",
        "ND",
        "MOSAIC"
],
      "ImagedNucleus": "1H",
      "ImagingFrequency": 123.258939,
      "InPlanePhaseEncodingDirection": "COL",
      "LargestImagePixelValue": 4095,
      "MRAcquisitionType": "2D",
      "MagneticFieldStrength": 3.0,
      "Manufacturer": "SIEMENS",
      "ManufacturerModelName": "Prisma_fit",
      "Modality": "MR",
      "NumberOfAverages": 1.0,
      "NumberOfPhaseEncodingSteps": 104,
      "PercentPhaseFieldOfView": 100.0,
      "PercentSampling": 100.0,
      "PerformedProcedureStepStartTime": "103523.433000",
      "PhotometricInterpretation": "MONOCHROME2",
      "PixelBandwidth": 2290.0,
      "PixelRepresentation": 0,
      "PixelSpacing": [2.0, 2.0],
      "ProtocolName": "func_task-things_run-4",
      "RepetitionTime": 1490.0,
      "RescaleIntercept": -4096.0,
      "RescaleSlope": 2.0,
      "RescaleType": "US",
      "Rows": 832,
      "SAR": 0.04767359533401,
      "SamplesPerPixel": 1,
      "ScanOptions": "FS",
      "ScanningSequence": "EP",
      "SequenceName": "epfid2d1_104",
      "SequenceVariant": [
        "SK",
        "SS"
],
      "SeriesDescription": "func_task-things_run-4",
      "SeriesNumber": 20,
      "SeriesTime": "110703.700000",
      "SliceLocation": -58.29149140233,
      "SliceThickness": 2.0,
      "SmallestImagePixelValue": 0,
      "SoftwareVersions": "syngo MR E11",
      "SpacingBetweenSlices": 2.0000000148559,
      "SpecificCharacterSet": "ISO_IR 100",
      "StudyID": "1",
      "StudyTime": "103523.318000",
      "TransmitCoilName": "Body",
      "VariableFlipAngleFlag": "N",
      "WindowCenterWidthExplanation": "Algo1",
      "dBdt": 0.0},
    "slices": {}
  },
  "time": {
    "samples": {
      "AcquisitionNumber": [1, 2, 3, 4, 5, 6, 7, 8, 9, 10, 11, 12, 13, 14, 15, 16, 17, 18, 19, 20, 21, 22, 23, 24, 25, 26, 27, 28, 29, 30, 31, 32, 33, 34, 35, 36, 37, 38, 39, 40, 41, 42, 43, 44, 45, 46, 47, 48, 49, 50, 51, 52, 53, 54, 55, 56, 57, 58, 59, 60, 61, 62, 63, 64, 65, 66, 67, 68, 69, 70, 71, 72, 73, 74, 75, 76, 77, 78, 79, 80, 81, 82, 83, 84, 85, 86, 87, 88, 89, 90, 91, 92, 93, 94, 95, 96, 97, 98, 99, 100, 101, 102, 103, 104, 105, 106, 107, 108, 109, 110, 111, 112, 113, 114, 115, 116, 117, 118, 119, 120, 121, 122, 123, 124, 125, 126, 127, 128, 129, 130, 131, 132, 133, 134, 135, 136, 137, 138, 139, 140, 141, 142, 143, 144, 145, 146, 147, 148, 149, 150, 151, 152, 153, 154, 155, 156, 157, 158, 159, 160, 161, 162, 163, 164, 165, 166, 167, 168, 169, 170, 171, 172, 173, 174, 175, 176, 177, 178, 179, 180, 181, 182, 183, 184, 185, 186, 187, 188, 189, 190],
      "AcquisitionTime": ["110549.845000", "110551.335000", "110552.825000", "110554.315000", "110555.805000", "110557.295000", "110558.785000", "110600.275000", "110601.765000", "110603.255000", "110604.745000", "110606.235000", "110607.725000", "110609.215000", "110610.705000", "110612.195000", "110613.685000", "110615.175000", "110616.665000", "110618.155000", "110619.645000", "110621.135000", "110622.625000", "110624.115000", "110625.605000", "110627.095000", "110628.585000", "110630.075000", "110631.565000", "110633.055000", "110634.545000", "110636.035000", "110637.525000", "110639.015000", "110640.505000", "110641.995000", "110643.485000", "110644.975000", "110646.465000", "110647.955000", "110649.445000", "110650.935000", "110652.425000", "110653.915000", "110655.405000", "110656.895000", "110658.385000", "110659.875000", "110701.365000", "110702.855000", "110704.345000", "110705.835000", "110707.325000", "110708.815000", "110710.305000", "110711.795000", "110713.285000", "110714.775000", "110716.265000", "110717.755000", "110719.245000", "110720.735000", "110722.225000", "110723.715000", "110725.205000", "110726.695000", "110728.185000", "110729.675000", "110731.165000", "110732.655000", "110734.145000", "110735.635000", "110737.125000", "110738.615000", "110740.105000", "110741.595000", "110743.085000", "110744.575000", "110746.065000", "110747.555000", "110749.045000", "110750.535000", "110752.025000", "110753.515000", "110755.005000", "110756.495000", "110757.985000", "110759.475000", "110800.965000", "110802.455000", "110803.945000", "110805.435000", "110806.925000", "110808.415000", "110809.905000", "110811.395000", "110812.885000", "110814.375000", "110815.865000", "110817.355000", "110818.845000", "110820.335000", "110821.825000", "110823.315000", "110824.805000", "110826.295000", "110827.785000", "110829.275000", "110830.765000", "110832.255000", "110833.745000", "110835.235000", "110836.725000", "110838.215000", "110839.705000", "110841.195000", "110842.685000", "110844.175000", "110845.665000", "110847.155000", "110848.645000", "110850.135000", "110851.625000", "110853.115000", "110854.605000", "110856.095000", "110857.585000", "110859.075000", "110900.565000", "110902.055000", "110903.545000", "110905.035000", "110906.525000", "110908.015000", "110909.505000", "110910.995000", "110912.485000", "110913.975000", "110915.465000", "110916.955000", "110918.445000", "110919.935000", "110921.425000", "110922.915000", "110924.405000", "110925.895000", "110927.385000", "110928.875000", "110930.365000", "110931.855000", "110933.345000", "110934.835000", "110936.325000", "110937.815000", "110939.305000", "110940.795000", "110942.285000", "110943.775000", "110945.265000", "110946.755000", "110948.245000", "110949.735000", "110951.225000", "110952.715000", "110954.205000", "110955.695000", "110957.185000", "110958.675000", "111000.165000", "111001.655000", "111003.145000", "111004.635000", "111006.125000", "111007.615000", "111009.105000", "111010.595000", "111012.085000", "111013.575000", "111015.065000", "111016.555000", "111018.045000", "111019.535000", "111021.025000", "111022.515000", "111024.005000", "111025.495000", "111026.985000", "111028.475000", "111029.965000", "111031.455000"],
      "ContentTime": ["110703.702000", "110703.705000", "110703.708000", "110703.710000", "110703.713000", "110703.715000", "110703.718000", "110703.721000", "110703.723000", "110703.726000", "110703.728000", "110703.731000", "110703.733000", "110703.736000", "110703.738000", "110703.741000", "110703.743000", "110703.746000", "110703.749000", "110703.751000", "110723.699000", "110723.702000", "110723.705000", "110723.707000", "110723.710000", "110723.719000", "110723.722000", "110723.725000", "110723.727000", "110723.730000", "110723.732000", "110723.735000", "110723.738000", "110723.740000", "110723.743000", "110723.745000", "110723.748000", "110723.751000", "110723.753000", "110723.756000", "110743.658000", "110743.661000", "110743.664000", "110743.666000", "110743.669000", "110743.671000", "110743.674000", "110743.676000", "110743.679000", "110743.681000", "110743.684000", "110743.686000", "110743.689000", "110743.692000", "110743.694000", "110743.697000", "110743.708000", "110743.710000", "110743.713000", "110743.716000", "110743.718000", "110803.658000", "110803.661000", "110803.664000", "110803.666000", "110803.669000", "110803.671000", "110803.674000", "110803.677000", "110803.679000", "110803.682000", "110803.684000", "110803.687000", "110803.690000", "110803.692000", "110803.695000", "110803.698000", "110803.700000", "110803.703000", "110803.705000", "110803.708000", "110823.657000", "110823.660000", "110823.663000", "110823.665000", "110823.668000", "110823.671000", "110823.673000", "110823.676000", "110823.678000", "110823.681000", "110823.684000", "110823.686000", "110823.689000", "110823.691000", "110823.694000", "110823.697000", "110823.699000", "110823.702000", "110823.704000", "110823.707000", "110904.110000", "110904.120000", "110904.122000", "110904.125000", "110904.128000", "110904.130000", "110904.133000", "110904.135000", "110904.138000", "110904.141000", "110904.143000", "110904.146000", "110904.149000", "110904.151000", "110904.154000", "110904.157000", "110904.159000", "110904.162000", "110904.164000", "110904.167000", "110904.170000", "110904.172000", "110904.175000", "110904.177000", "110904.180000", "110904.182000", "110904.185000", "110904.188000", "110943.684000", "110943.687000", "110943.689000", "110943.692000", "110943.695000", "110943.697000", "110943.700000", "110943.703000", "110943.705000", "110943.708000", "110943.710000", "110943.713000", "110943.716000", "110943.718000", "110943.721000", "110943.723000", "110943.726000", "110943.729000", "110943.731000", "110943.734000", "110943.737000", "110943.739000", "110943.742000", "110943.744000", "110943.747000", "110943.750000", "110943.752000", "111023.680000", "111023.683000", "111023.694000", "111023.697000", "111023.700000", "111023.702000", "111023.705000", "111023.707000", "111023.710000", "111023.713000", "111023.715000", "111023.718000", "111023.721000", "111023.723000", "111023.726000", "111023.728000", "111023.731000", "111023.734000", "111023.736000", "111023.739000", "111023.742000", "111023.744000", "111023.747000", "111023.749000", "111023.752000", "111023.755000", "111023.757000", "111034.056000", "111034.059000", "111034.061000", "111034.064000", "111034.071000", "111034.074000", "111034.076000"],
      "InstanceCreationTime": ["110703.702000", "110703.705000", "110703.708000", "110703.710000", "110703.713000", "110703.715000", "110703.718000", "110703.721000", "110703.723000", "110703.726000", "110703.728000", "110703.731000", "110703.733000", "110703.736000", "110703.738000", "110703.741000", "110703.743000", "110703.746000", "110703.749000", "110703.751000", "110723.699000", "110723.702000", "110723.705000", "110723.707000", "110723.710000", "110723.719000", "110723.722000", "110723.725000", "110723.727000", "110723.730000", "110723.732000", "110723.735000", "110723.738000", "110723.740000", "110723.743000", "110723.745000", "110723.748000", "110723.751000", "110723.753000", "110723.756000", "110743.658000", "110743.661000", "110743.664000", "110743.666000", "110743.669000", "110743.671000", "110743.674000", "110743.676000", "110743.679000", "110743.681000", "110743.684000", "110743.686000", "110743.689000", "110743.692000", "110743.694000", "110743.697000", "110743.708000", "110743.710000", "110743.713000", "110743.716000", "110743.718000", "110803.658000", "110803.661000", "110803.664000", "110803.666000", "110803.669000", "110803.671000", "110803.674000", "110803.677000", "110803.679000", "110803.682000", "110803.684000", "110803.687000", "110803.690000", "110803.692000", "110803.695000", "110803.698000", "110803.700000", "110803.703000", "110803.705000", "110803.708000", "110823.657000", "110823.660000", "110823.663000", "110823.665000", "110823.668000", "110823.671000", "110823.673000", "110823.676000", "110823.678000", "110823.681000", "110823.684000", "110823.686000", "110823.689000", "110823.691000", "110823.694000", "110823.697000", "110823.699000", "110823.702000", "110823.704000", "110823.707000", "110904.110000", "110904.120000", "110904.122000", "110904.125000", "110904.128000", "110904.130000", "110904.133000", "110904.135000", "110904.138000", "110904.141000", "110904.143000", "110904.146000", "110904.149000", "110904.151000", "110904.154000", "110904.157000", "110904.159000", "110904.162000", "110904.164000", "110904.167000", "110904.170000", "110904.172000", "110904.175000", "110904.177000", "110904.180000", "110904.182000", "110904.185000", "110904.188000", "110943.684000", "110943.687000", "110943.689000", "110943.692000", "110943.695000", "110943.697000", "110943.700000", "110943.703000", "110943.705000", "110943.708000", "110943.710000", "110943.713000", "110943.716000", "110943.718000", "110943.721000", "110943.723000", "110943.726000", "110943.729000", "110943.731000", "110943.734000", "110943.737000", "110943.739000", "110943.742000", "110943.744000", "110943.747000", "110943.750000", "110943.752000", "111023.680000", "111023.683000", "111023.694000", "111023.697000", "111023.700000", "111023.702000", "111023.705000", "111023.707000", "111023.710000", "111023.713000", "111023.715000", "111023.718000", "111023.721000", "111023.723000", "111023.726000", "111023.728000", "111023.731000", "111023.734000", "111023.736000", "111023.739000", "111023.742000", "111023.744000", "111023.747000", "111023.749000", "111023.752000", "111023.755000", "111023.757000", "111034.056000", "111034.059000", "111034.061000", "111034.064000", "111034.071000", "111034.074000", "111034.076000"],
      "InstanceNumber": [1, 2, 3, 4, 5, 6, 7, 8, 9, 10, 11, 12, 13, 14, 15, 16, 17, 18, 19, 20, 21, 22, 23, 24, 25, 26, 27, 28, 29, 30, 31, 32, 33, 34, 35, 36, 37, 38, 39, 40, 41, 42, 43, 44, 45, 46, 47, 48, 49, 50, 51, 52, 53, 54, 55, 56, 57, 58, 59, 60, 61, 62, 63, 64, 65, 66, 67, 68, 69, 70, 71, 72, 73, 74, 75, 76, 77, 78, 79, 80, 81, 82, 83, 84, 85, 86, 87, 88, 89, 90, 91, 92, 93, 94, 95, 96, 97, 98, 99, 100, 101, 102, 103, 104, 105, 106, 107, 108, 109, 110, 111, 112, 113, 114, 115, 116, 117, 118, 119, 120, 121, 122, 123, 124, 125, 126, 127, 128, 129, 130, 131, 132, 133, 134, 135, 136, 137, 138, 139, 140, 141, 142, 143, 144, 145, 146, 147, 148, 149, 150, 151, 152, 153, 154, 155, 156, 157, 158, 159, 160, 161, 162, 163, 164, 165, 166, 167, 168, 169, 170, 171, 172, 173, 174, 175, 176, 177, 178, 179, 180, 181, 182, 183, 184, 185, 186, 187, 188, 189, 190],
      "WindowCenter": [4748.0, 4752.0, 4730.0, 4704.0, 4774.0, 4852.0, 4852.0, 4780.0, 4696.0, 4708.0, 4708.0, 4714.0, 4722.0, 4770.0, 4808.0, 4838.0, 4814.0, 4812.0, 4810.0, 4850.0, 4792.0, 4706.0, 4708.0, 4704.0, 4706.0, 4712.0, 4732.0, 4774.0, 4818.0, 4816.0, 4810.0, 4774.0, 4742.0, 4736.0, 4774.0, 4750.0, 4730.0, 4750.0, 4744.0, 4736.0, 4740.0, 4736.0, 4738.0, 4744.0, 4814.0, 4814.0, 4748.0, 4746.0, 4732.0, 4704.0, 4736.0, 4730.0, 4740.0, 4816.0, 4814.0, 4740.0, 4778.0, 4752.0, 4726.0, 4696.0, 4700.0, 4730.0, 4784.0, 4782.0, 4774.0, 4812.0, 4816.0, 4744.0, 4702.0, 4718.0, 4730.0, 4748.0, 4748.0, 4744.0, 4744.0, 4746.0, 4748.0, 4776.0, 4744.0, 4772.0, 4814.0, 4822.0, 4752.0, 4716.0, 4692.0, 4690.0, 4722.0, 4736.0, 4748.0, 4780.0, 4782.0, 4846.0, 4850.0, 4780.0, 4728.0, 4702.0, 4716.0, 4696.0, 4728.0, 4734.0, 4782.0, 4806.0, 4780.0, 4848.0, 4846.0, 4754.0, 4692.0, 4708.0, 4708.0, 4708.0, 4740.0, 4776.0, 4812.0, 4812.0, 4808.0, 4782.0, 4746.0, 4732.0, 4746.0, 4742.0, 4730.0, 4734.0, 4740.0, 4734.0, 4782.0, 4782.0, 4748.0, 4734.0, 4734.0, 4768.0, 4774.0, 4742.0, 4776.0, 4786.0, 4742.0, 4778.0, 4788.0, 4740.0, 4720.0, 4730.0, 4722.0, 4706.0, 4752.0, 4770.0, 4778.0, 4808.0, 4750.0, 4746.0, 4740.0, 4744.0, 4734.0, 4750.0, 4776.0, 4742.0, 4810.0, 4786.0, 4740.0, 4740.0, 4730.0, 4720.0, 4736.0, 4752.0, 4752.0, 4744.0, 4746.0, 4740.0, 4736.0, 4736.0, 4766.0, 4816.0, 4772.0, 4768.0, 4788.0, 4746.0, 4730.0, 4744.0, 4732.0, 4722.0, 4742.0, 4748.0, 4740.0, 4778.0, 4746.0, 4748.0, 4814.0, 4854.0, 4820.0, 4742.0, 4712.0, 4702.0],
      "WindowWidth": [18488.0, 18484.0, 18486.0, 18458.0, 18512.0, 18534.0, 18530.0, 18504.0, 18466.0, 18512.0, 18514.0, 18506.0, 18494.0, 18516.0, 18544.0, 18574.0, 18540.0, 18540.0, 18542.0, 18546.0, 18486.0, 18454.0, 18510.0, 18504.0, 18514.0, 18492.0, 18494.0, 18518.0, 18536.0, 18538.0, 18540.0, 18506.0, 18486.0, 18494.0, 18516.0, 18486.0, 18488.0, 18490.0, 18484.0, 18492.0, 18490.0, 18488.0, 18490.0, 18486.0, 18532.0, 18532.0, 18486.0, 18492.0, 18494.0, 18458.0, 18494.0, 18492.0, 18484.0, 18522.0, 18524.0, 18480.0, 18514.0, 18478.0, 18496.0, 18464.0, 18466.0, 18494.0, 18516.0, 18510.0, 18510.0, 18536.0, 18524.0, 18480.0, 18466.0, 18504.0, 18486.0, 18484.0, 18490.0, 18480.0, 18486.0, 18490.0, 18486.0, 18514.0, 18486.0, 18510.0, 18526.0, 18524.0, 18482.0, 18498.0, 18466.0, 18464.0, 18496.0, 18490.0, 18486.0, 18518.0, 18512.0, 18558.0, 18550.0, 18508.0, 18492.0, 18462.0, 18502.0, 18462.0, 18494.0, 18490.0, 18508.0, 18542.0, 18516.0, 18550.0, 18548.0, 18484.0, 18464.0, 18506.0, 18506.0, 18464.0, 18486.0, 18516.0, 18534.0, 18534.0, 18542.0, 18514.0, 18486.0, 18490.0, 18482.0, 18486.0, 18496.0, 18490.0, 18488.0, 18490.0, 18510.0, 18508.0, 18484.0, 18482.0, 18490.0, 18524.0, 18512.0, 18490.0, 18512.0, 18504.0, 18488.0, 18520.0, 18506.0, 18482.0, 18492.0, 18488.0, 18498.0, 18458.0, 18490.0, 18514.0, 18516.0, 18542.0, 18480.0, 18486.0, 18490.0, 18488.0, 18492.0, 18490.0, 18508.0, 18494.0, 18538.0, 18508.0, 18484.0, 18496.0, 18488.0, 18496.0, 18494.0, 18476.0, 18486.0, 18490.0, 18486.0, 18490.0, 18490.0, 18492.0, 18520.0, 18538.0, 18510.0, 18522.0, 18514.0, 18484.0, 18490.0, 18484.0, 18488.0, 18488.0, 18490.0, 18488.0, 18488.0, 18514.0, 18484.0, 18488.0, 18528.0, 18536.0, 18514.0, 18484.0, 18504.0, 18512.0]
    },
    "slices": {}
  }
}