{
  "AcquisitionMatrixPE": 104,
  "AcquisitionNumber": 1,
  "AcquisitionTime": "11:12:1.420000",
  "BandwidthPerPixelPhaseEncode": 17.17,
  "BaseResolution": 104,
  "BodyPartExamined": "BRAIN",
  "CoilString": "HC1-7;NC1_2",
  "ConsistencyInfo": "N4_VE11C_LATEST_20160120",
  "ConversionSoftware": "dcm2niix",
  "ConversionSoftwareVersion": "v1.0.20190902",
  "DerivedVendorReportedEchoSpacing": 0.000560011,
  "DeviceSerialNumber": "167006",
  "DwellTime": 2.1e-06,
  "EchoTime": 0.037,
  "EchoTrainLength": 104,
  "EffectiveEchoSpacing": 0.000560011,
  "FlipAngle": 52,
  "ImageComments": "Unaliased_MB4_PE3_LB",
  "ImageOrientationPatientDICOM": [0.999748, 0.0122423, 0.0188247, -0.00226835, 0.889087, -0.457734],
  "ImageType": [
    "ORIGINAL",
    "PRIMARY",
    "P",
    "MB",
    "ND",
    "MOSAIC"
],
  "ImagingFrequency": 123.259,
  "InPlanePhaseEncodingDirectionDICOM": "COL",
  "InstitutionAddress": "Chemin_Queen-Mary_4565_Montreal_District_CA_H3W_1W5",
  "InstitutionName": "IUGM",
  "InstitutionalDepartmentName": "Department",
  "MRAcquisitionType": "2D",
  "MagneticFieldStrength": 3,
  "Manufacturer": "Siemens",
  "ManufacturersModelName": "Prisma_fit",
  "Modality": "MR",
  "MultibandAccelerationFactor": 4,
  "PartialFourier": 1,
  "PatientPosition": "HFS",
  "PercentPhaseFOV": 100,
  "PhaseEncodingDirection": "j",
  "PhaseEncodingSteps": 104,
  "PhaseResolution": 1,
  "PixelBandwidth": 2290,
  "ProcedureStepDescription": "memory_things",
  "ProtocolName": "func_task-things_run-5",
  "PulseSequenceDetails": "%CustomerSeq%_cmrr_mbep2d_bold",
  "ReceiveCoilActiveElements": "HC1-7;NC1,2",
  "ReceiveCoilName": "HeadNeck_64",
  "ReconMatrixPE": 104,
  "RepetitionTime": 1.49,
  "SAR": 0.0476736,
  "ScanOptions": "FS",
  "ScanningSequence": "EP",
  "SequenceName": "epfid2d1_104",
  "SequenceVariant": "SK_SS",
  "SeriesDescription": "func_task-things_run-5",
  "SeriesNumber": 23,
  "ShimSetting": [623, -7189, -8863, 360, 13, -92, -21, -22],
  "SliceThickness": 2,
  "SliceTiming": [0, 0.7825, 0.0975, 0.8825, 0.195, 0.98, 0.295, 1.0775, 0.3925, 1.175, 0.49, 1.2725, 0.5875, 1.3725, 0.685, 0, 0.7825, 0.0975, 0.8825, 0.195, 0.98, 0.295, 1.0775, 0.3925, 1.175, 0.49, 1.2725, 0.5875, 1.3725, 0.685, 0, 0.7825, 0.0975, 0.8825, 0.195, 0.98, 0.295, 1.0775, 0.3925, 1.175, 0.49, 1.2725, 0.5875, 1.3725, 0.685, 0, 0.7825, 0.0975, 0.8825, 0.195, 0.98, 0.295, 1.0775, 0.3925, 1.175, 0.49, 1.2725, 0.5875, 1.3725, 0.685],
  "SoftwareVersions": "syngo_MR_E11",
  "SpacingBetweenSlices": 2,
  "StationName": "MRC35049",
  "TaskName": "things",
  "TotalReadoutTime": 0.0576811,
  "TxRefAmp": 268.19,
  "WipMemBlock": "2e4a4c8a-6479-4049-8862-b8eef640cf17||Sequence: R016 ve11c/master r/e634e98; Dec 19 2017 11:00:25 by eja",
  "dcmmeta_affine": [
    [-1.9994957447052002, -0.004536708351224661, 0.04468095302581787, 106.13023376464844],
    [-0.024484604597091675, 1.7781730890274048, -0.9151508212089539, -55.400474548339844],
    [0.03764934837818146, 0.9154670238494873, 1.777780294418335, -96.76380157470703],
    [0.0, 0.0, 0.0, 1.0]
],
  "dcmmeta_reorient_transform": [
    [0.0, -1.0, 0.0, 103.0],
    [1.0, 0.0, 0.0, 0.0],
    [0.0, 0.0, 1.0, 0.0],
    [0.0, 0.0, 0.0, 1.0]
],
  "dcmmeta_shape": [104, 104, 60, 190],
  "dcmmeta_slice_dim": 2,
  "dcmmeta_version": 0.6,
  "global": {
    "const": {
      "AcquisitionMatrix": [104, 0, 0, 104],
      "AngioFlag": "N",
      "BitsAllocated": 16,
      "BitsStored": 16,
      "BodyPartExamined": "BRAIN",
      "Columns": 832,
      "EchoNumbers": 1,
      "EchoTime": 37.0,
      "EchoTrainLength": 104,
      "FlipAngle": 52.0,
      "HighBit": 15,
      "ImageOrientationPatient": [0.99974784705826, 0.0122423025362, 0.01882467346301, -0.0022683542092, 0.88908653908151, -0.4577335257475],
      "ImagePositionPatient": [-831.82802597917, -783.91874930211, 317.05495089782],
      "ImageType": [
        "ORIGINAL",
        "PRIMARY",
        "P",
        "MB",
        "ND",
        "MOSAIC"
],
      "ImagedNucleus": "1H",
      "ImagingFrequency": 123.258942,
      "InPlanePhaseEncodingDirection": "COL",
      "LargestImagePixelValue": 4095,
      "MRAcquisitionType": "2D",
      "MagneticFieldStrength": 3.0,
      "Manufacturer": "SIEMENS",
      "ManufacturerModelName": "Prisma_fit",
      "Modality": "MR",
      "NumberOfAverages": 1.0,
      "NumberOfPhaseEncodingSteps": 104,
      "PercentPhaseFieldOfView": 100.0,
      "PercentSampling": 100.0,
      "PerformedProcedureStepStartTime": "103523.433000",
      "PhotometricInterpretation": "MONOCHROME2",
      "PixelBandwidth": 2290.0,
      "PixelRepresentation": 0,
      "PixelSpacing": [2.0, 2.0],
      "ProtocolName": "func_task-things_run-5",
      "RepetitionTime": 1490.0,
      "RescaleIntercept": -4096.0,
      "RescaleSlope": 2.0,
      "RescaleType": "US",
      "Rows": 832,
      "SAR": 0.04767359533401,
      "SamplesPerPixel": 1,
      "ScanOptions": "FS",
      "ScanningSequence": "EP",
      "SequenceName": "epfid2d1_104",
      "SequenceVariant": [
        "SK",
        "SS"
],
      "SeriesDescription": "func_task-things_run-5",
      "SeriesNumber": 23,
      "SeriesTime": "111312.696000",
      "SliceLocation": -58.29149140233,
      "SliceThickness": 2.0,
      "SmallestImagePixelValue": 0,
      "SoftwareVersions": "syngo MR E11",
      "SpacingBetweenSlices": 2.0000000148559,
      "SpecificCharacterSet": "ISO_IR 100",
      "StudyID": "1",
      "StudyTime": "103523.318000",
      "TransmitCoilName": "Body",
      "VariableFlipAngleFlag": "N",
      "WindowCenterWidthExplanation": "Algo1",
      "dBdt": 0.0},
    "slices": {}
  },
  "time": {
    "samples": {
      "AcquisitionNumber": [1, 2, 3, 4, 5, 6, 7, 8, 9, 10, 11, 12, 13, 14, 15, 16, 17, 18, 19, 20, 21, 22, 23, 24, 25, 26, 27, 28, 29, 30, 31, 32, 33, 34, 35, 36, 37, 38, 39, 40, 41, 42, 43, 44, 45, 46, 47, 48, 49, 50, 51, 52, 53, 54, 55, 56, 57, 58, 59, 60, 61, 62, 63, 64, 65, 66, 67, 68, 69, 70, 71, 72, 73, 74, 75, 76, 77, 78, 79, 80, 81, 82, 83, 84, 85, 86, 87, 88, 89, 90, 91, 92, 93, 94, 95, 96, 97, 98, 99, 100, 101, 102, 103, 104, 105, 106, 107, 108, 109, 110, 111, 112, 113, 114, 115, 116, 117, 118, 119, 120, 121, 122, 123, 124, 125, 126, 127, 128, 129, 130, 131, 132, 133, 134, 135, 136, 137, 138, 139, 140, 141, 142, 143, 144, 145, 146, 147, 148, 149, 150, 151, 152, 153, 154, 155, 156, 157, 158, 159, 160, 161, 162, 163, 164, 165, 166, 167, 168, 169, 170, 171, 172, 173, 174, 175, 176, 177, 178, 179, 180, 181, 182, 183, 184, 185, 186, 187, 188, 189, 190],
      "AcquisitionTime": ["111201.420000", "111202.910000", "111204.400000", "111205.890000", "111207.380000", "111208.870000", "111210.360000", "111211.850000", "111213.340000", "111214.830000", "111216.320000", "111217.810000", "111219.300000", "111220.790000", "111222.280000", "111223.770000", "111225.260000", "111226.750000", "111228.240000", "111229.730000", "111231.220000", "111232.710000", "111234.200000", "111235.690000", "111237.180000", "111238.670000", "111240.160000", "111241.650000", "111243.140000", "111244.630000", "111246.120000", "111247.610000", "111249.100000", "111250.590000", "111252.080000", "111253.570000", "111255.060000", "111256.550000", "111258.040000", "111259.530000", "111301.020000", "111302.510000", "111304.000000", "111305.490000", "111306.980000", "111308.470000", "111309.960000", "111311.450000", "111312.940000", "111314.430000", "111315.920000", "111317.410000", "111318.900000", "111320.390000", "111321.880000", "111323.370000", "111324.860000", "111326.350000", "111327.840000", "111329.330000", "111330.820000", "111332.310000", "111333.800000", "111335.290000", "111336.780000", "111338.270000", "111339.760000", "111341.250000", "111342.740000", "111344.230000", "111345.720000", "111347.210000", "111348.700000", "111350.190000", "111351.680000", "111353.170000", "111354.660000", "111356.150000", "111357.640000", "111359.130000", "111400.620000", "111402.110000", "111403.600000", "111405.090000", "111406.580000", "111408.070000", "111409.560000", "111411.050000", "111412.540000", "111414.030000", "111415.520000", "111417.010000", "111418.500000", "111419.990000", "111421.480000", "111422.970000", "111424.460000", "111425.950000", "111427.440000", "111428.930000", "111430.420000", "111431.910000", "111433.400000", "111434.890000", "111436.380000", "111437.870000", "111439.360000", "111440.850000", "111442.340000", "111443.830000", "111445.320000", "111446.810000", "111448.300000", "111449.790000", "111451.280000", "111452.770000", "111454.260000", "111455.750000", "111457.240000", "111458.730000", "111500.220000", "111501.710000", "111503.200000", "111504.690000", "111506.180000", "111507.670000", "111509.160000", "111510.650000", "111512.140000", "111513.630000", "111515.120000", "111516.610000", "111518.100000", "111519.590000", "111521.080000", "111522.570000", "111524.060000", "111525.550000", "111527.040000", "111528.530000", "111530.020000", "111531.510000", "111533.000000", "111534.490000", "111535.980000", "111537.470000", "111538.960000", "111540.450000", "111541.940000", "111543.430000", "111544.920000", "111546.410000", "111547.900000", "111549.390000", "111550.880000", "111552.370000", "111553.860000", "111555.350000", "111556.840000", "111558.330000", "111559.820000", "111601.310000", "111602.800000", "111604.290000", "111605.780000", "111607.270000", "111608.760000", "111610.250000", "111611.740000", "111613.230000", "111614.720000", "111616.210000", "111617.700000", "111619.190000", "111620.680000", "111622.170000", "111623.660000", "111625.150000", "111626.640000", "111628.130000", "111629.620000", "111631.110000", "111632.600000", "111634.090000", "111635.580000", "111637.070000", "111638.560000", "111640.050000", "111641.540000", "111643.030000"],
      "ContentTime": ["111312.698000", "111312.701000", "111312.704000", "111312.706000", "111312.709000", "111312.712000", "111312.714000", "111312.717000", "111312.719000", "111312.722000", "111312.725000", "111312.727000", "111312.730000", "111312.733000", "111312.735000", "111332.668000", "111332.670000", "111332.673000", "111332.675000", "111332.678000", "111332.681000", "111332.684000", "111332.686000", "111332.689000", "111332.692000", "111332.695000", "111332.697000", "111332.700000", "111332.703000", "111332.705000", "111332.708000", "111332.711000", "111332.713000", "111332.716000", "111332.718000", "111352.661000", "111352.664000", "111352.666000", "111352.669000", "111352.671000", "111352.674000", "111352.677000", "111352.679000", "111352.682000", "111352.684000", "111352.687000", "111352.693000", "111352.695000", "111352.698000", "111352.701000", "111352.703000", "111352.706000", "111352.709000", "111352.711000", "111352.714000", "111412.678000", "111412.681000", "111412.684000", "111412.686000", "111412.689000", "111412.692000", "111412.694000", "111412.697000", "111412.699000", "111412.702000", "111412.704000", "111412.707000", "111412.710000", "111412.712000", "111412.715000", "111412.718000", "111412.720000", "111412.723000", "111412.725000", "111412.728000", "111432.665000", "111432.668000", "111432.670000", "111432.673000", "111432.676000", "111432.678000", "111432.681000", "111432.683000", "111432.686000", "111432.689000", "111432.691000", "111432.694000", "111432.697000", "111432.699000", "111432.702000", "111432.704000", "111432.707000", "111432.710000", "111432.712000", "111432.717000", "111432.719000", "111512.718000", "111512.721000", "111512.724000", "111512.726000", "111512.729000", "111512.732000", "111512.734000", "111512.737000", "111512.747000", "111512.750000", "111512.752000", "111512.755000", "111512.758000", "111512.760000", "111512.763000", "111512.766000", "111512.793000", "111512.795000", "111512.798000", "111512.801000", "111512.804000", "111512.806000", "111512.809000", "111512.812000", "111512.815000", "111512.817000", "111512.820000", "111512.822000", "111512.825000", "111512.828000", "111512.831000", "111552.691000", "111552.694000", "111552.697000", "111552.700000", "111552.702000", "111552.705000", "111552.707000", "111552.710000", "111552.713000", "111552.715000", "111552.718000", "111552.720000", "111552.723000", "111552.725000", "111552.728000", "111552.731000", "111552.733000", "111552.736000", "111552.739000", "111552.742000", "111552.744000", "111552.747000", "111552.749000", "111552.752000", "111552.755000", "111552.757000", "111552.760000", "111632.706000", "111632.709000", "111632.712000", "111632.714000", "111632.717000", "111632.720000", "111632.723000", "111632.725000", "111632.732000", "111632.735000", "111632.737000", "111632.740000", "111632.743000", "111632.746000", "111632.748000", "111632.751000", "111632.754000", "111632.757000", "111632.759000", "111632.762000", "111632.765000", "111632.768000", "111632.770000", "111632.773000", "111632.776000", "111632.779000", "111632.782000", "111645.596000", "111645.599000", "111645.601000", "111645.604000", "111645.622000", "111645.625000", "111645.628000", "111645.630000", "111645.633000"],
      "InstanceCreationTime": ["111312.698000", "111312.701000", "111312.704000", "111312.706000", "111312.709000", "111312.712000", "111312.714000", "111312.717000", "111312.719000", "111312.722000", "111312.725000", "111312.727000", "111312.730000", "111312.733000", "111312.735000", "111332.668000", "111332.670000", "111332.673000", "111332.675000", "111332.678000", "111332.681000", "111332.684000", "111332.686000", "111332.689000", "111332.692000", "111332.695000", "111332.697000", "111332.700000", "111332.703000", "111332.705000", "111332.708000", "111332.711000", "111332.713000", "111332.716000", "111332.718000", "111352.661000", "111352.664000", "111352.666000", "111352.669000", "111352.671000", "111352.674000", "111352.677000", "111352.679000", "111352.682000", "111352.684000", "111352.687000", "111352.693000", "111352.695000", "111352.698000", "111352.701000", "111352.703000", "111352.706000", "111352.709000", "111352.711000", "111352.714000", "111412.678000", "111412.681000", "111412.684000", "111412.686000", "111412.689000", "111412.692000", "111412.694000", "111412.697000", "111412.699000", "111412.702000", "111412.704000", "111412.707000", "111412.710000", "111412.712000", "111412.715000", "111412.718000", "111412.720000", "111412.723000", "111412.725000", "111412.728000", "111432.665000", "111432.668000", "111432.670000", "111432.673000", "111432.676000", "111432.678000", "111432.681000", "111432.683000", "111432.686000", "111432.689000", "111432.691000", "111432.694000", "111432.697000", "111432.699000", "111432.702000", "111432.704000", "111432.707000", "111432.710000", "111432.712000", "111432.717000", "111432.719000", "111512.718000", "111512.721000", "111512.724000", "111512.726000", "111512.729000", "111512.732000", "111512.734000", "111512.737000", "111512.747000", "111512.750000", "111512.752000", "111512.755000", "111512.758000", "111512.760000", "111512.763000", "111512.766000", "111512.793000", "111512.795000", "111512.798000", "111512.801000", "111512.804000", "111512.806000", "111512.809000", "111512.812000", "111512.815000", "111512.817000", "111512.820000", "111512.822000", "111512.825000", "111512.828000", "111512.831000", "111552.691000", "111552.694000", "111552.697000", "111552.700000", "111552.702000", "111552.705000", "111552.707000", "111552.710000", "111552.713000", "111552.715000", "111552.718000", "111552.720000", "111552.723000", "111552.725000", "111552.728000", "111552.731000", "111552.733000", "111552.736000", "111552.739000", "111552.742000", "111552.744000", "111552.747000", "111552.749000", "111552.752000", "111552.755000", "111552.757000", "111552.760000", "111632.706000", "111632.709000", "111632.712000", "111632.714000", "111632.717000", "111632.720000", "111632.723000", "111632.725000", "111632.732000", "111632.735000", "111632.737000", "111632.740000", "111632.743000", "111632.746000", "111632.748000", "111632.751000", "111632.754000", "111632.757000", "111632.759000", "111632.762000", "111632.765000", "111632.768000", "111632.770000", "111632.773000", "111632.776000", "111632.779000", "111632.782000", "111645.596000", "111645.599000", "111645.601000", "111645.604000", "111645.622000", "111645.625000", "111645.628000", "111645.630000", "111645.633000"],
      "InstanceNumber": [1, 2, 3, 4, 5, 6, 7, 8, 9, 10, 11, 12, 13, 14, 15, 16, 17, 18, 19, 20, 21, 22, 23, 24, 25, 26, 27, 28, 29, 30, 31, 32, 33, 34, 35, 36, 37, 38, 39, 40, 41, 42, 43, 44, 45, 46, 47, 48, 49, 50, 51, 52, 53, 54, 55, 56, 57, 58, 59, 60, 61, 62, 63, 64, 65, 66, 67, 68, 69, 70, 71, 72, 73, 74, 75, 76, 77, 78, 79, 80, 81, 82, 83, 84, 85, 86, 87, 88, 89, 90, 91, 92, 93, 94, 95, 96, 97, 98, 99, 100, 101, 102, 103, 104, 105, 106, 107, 108, 109, 110, 111, 112, 113, 114, 115, 116, 117, 118, 119, 120, 121, 122, 123, 124, 125, 126, 127, 128, 129, 130, 131, 132, 133, 134, 135, 136, 137, 138, 139, 140, 141, 142, 143, 144, 145, 146, 147, 148, 149, 150, 151, 152, 153, 154, 155, 156, 157, 158, 159, 160, 161, 162, 163, 164, 165, 166, 167, 168, 169, 170, 171, 172, 173, 174, 175, 176, 177, 178, 179, 180, 181, 182, 183, 184, 185, 186, 187, 188, 189, 190],
      "WindowCenter": [4694.0, 4694.0, 4734.0, 4706.0, 4714.0, 4710.0, 4708.0, 4708.0, 4690.0, 4690.0, 4706.0, 4734.0, 4718.0, 4702.0, 4688.0, 4708.0, 4710.0, 4704.0, 4686.0, 4708.0, 4694.0, 4700.0, 4696.0, 4716.0, 4702.0, 4732.0, 4694.0, 4696.0, 4702.0, 4712.0, 4682.0, 4704.0, 4706.0, 4708.0, 4714.0, 4692.0, 4718.0, 4734.0, 4754.0, 4710.0, 4714.0, 4706.0, 4726.0, 4726.0, 4726.0, 4712.0, 4710.0, 4734.0, 4738.0, 4782.0, 4754.0, 4692.0, 4722.0, 4724.0, 4750.0, 4726.0, 4684.0, 4696.0, 4732.0, 4744.0, 4710.0, 4698.0, 4708.0, 4710.0, 4690.0, 4690.0, 4686.0, 4704.0, 4708.0, 4688.0, 4692.0, 4686.0, 4702.0, 4688.0, 4686.0, 4708.0, 4692.0, 4694.0, 4716.0, 4692.0, 4712.0, 4712.0, 4742.0, 4754.0, 4700.0, 4684.0, 4682.0, 4722.0, 4704.0, 4680.0, 4708.0, 4746.0, 4756.0, 4702.0, 4710.0, 4700.0, 4724.0, 4704.0, 4708.0, 4712.0, 4706.0, 4690.0, 4704.0, 4686.0, 4712.0, 4752.0, 4706.0, 4702.0, 4744.0, 4748.0, 4726.0, 4710.0, 4718.0, 4734.0, 4744.0, 4814.0, 4820.0, 4720.0, 4706.0, 4694.0, 4716.0, 4746.0, 4742.0, 4722.0, 4690.0, 4710.0, 4740.0, 4746.0, 4784.0, 4718.0, 4708.0, 4724.0, 4722.0, 4722.0, 4706.0, 4710.0, 4714.0, 4740.0, 4708.0, 4738.0, 4710.0, 4686.0, 4680.0, 4702.0, 4700.0, 4692.0, 4700.0, 4694.0, 4686.0, 4706.0, 4708.0, 4702.0, 4756.0, 4752.0, 4696.0, 4724.0, 4746.0, 4722.0, 4686.0, 4706.0, 4706.0, 4698.0, 4692.0, 4688.0, 4696.0, 4694.0, 4688.0, 4684.0, 4706.0, 4708.0, 4714.0, 4788.0, 4760.0, 4692.0, 4722.0, 4768.0, 4772.0, 4748.0, 4708.0, 4700.0, 4746.0, 4850.0, 4878.0, 4790.0, 4692.0, 4720.0, 4828.0, 4868.0, 4804.0, 4726.0],
      "WindowWidth": [18474.0, 18470.0, 18486.0, 18460.0, 18500.0, 18512.0, 18514.0, 18502.0, 18468.0, 18472.0, 18456.0, 18486.0, 18498.0, 18466.0, 18470.0, 18504.0, 18508.0, 18510.0, 18470.0, 18506.0, 18462.0, 18468.0, 18468.0, 18498.0, 18466.0, 18490.0, 18470.0, 18462.0, 18462.0, 18508.0, 18466.0, 18508.0, 18502.0, 18504.0, 18504.0, 18460.0, 18506.0, 18486.0, 18478.0, 18460.0, 18510.0, 18506.0, 18548.0, 18552.0, 18544.0, 18508.0, 18456.0, 18492.0, 18488.0, 18504.0, 18476.0, 18462.0, 18544.0, 18552.0, 18584.0, 18554.0, 18470.0, 18470.0, 18490.0, 18480.0, 18458.0, 18468.0, 18504.0, 18520.0, 18466.0, 18468.0, 18472.0, 18456.0, 18458.0, 18474.0, 18468.0, 18476.0, 18508.0, 18466.0, 18470.0, 18510.0, 18464.0, 18466.0, 18502.0, 18474.0, 18502.0, 18506.0, 18476.0, 18470.0, 18458.0, 18476.0, 18474.0, 18548.0, 18518.0, 18482.0, 18512.0, 18478.0, 18466.0, 18462.0, 18510.0, 18516.0, 18548.0, 18512.0, 18458.0, 18454.0, 18460.0, 18466.0, 18506.0, 18474.0, 18458.0, 18480.0, 18456.0, 18510.0, 18586.0, 18590.0, 18556.0, 18520.0, 18504.0, 18492.0, 18482.0, 18528.0, 18512.0, 18446.0, 18518.0, 18514.0, 18554.0, 18592.0, 18584.0, 18550.0, 18474.0, 18450.0, 18476.0, 18482.0, 18500.0, 18450.0, 18510.0, 18548.0, 18552.0, 18554.0, 18522.0, 18512.0, 18462.0, 18480.0, 18460.0, 18486.0, 18462.0, 18478.0, 18476.0, 18520.0, 18518.0, 18466.0, 18456.0, 18466.0, 18474.0, 18508.0, 18512.0, 18464.0, 18466.0, 18470.0, 18466.0, 18552.0, 18590.0, 18554.0, 18470.0, 18464.0, 18456.0, 18464.0, 18468.0, 18472.0, 18460.0, 18466.0, 18476.0, 18478.0, 18510.0, 18508.0, 18454.0, 18486.0, 18464.0, 18466.0, 18556.0, 18624.0, 18628.0, 18592.0, 18520.0, 18468.0, 18480.0, 18542.0, 18556.0, 18488.0, 18466.0, 18562.0, 18704.0, 18744.0, 18668.0, 18562.0]
    },
    "slices": {}
  }
}