{
  "AcquisitionMatrixPE": 104,
  "AcquisitionNumber": 1,
  "AcquisitionTime": "11:12:1.420000",
  "BandwidthPerPixelPhaseEncode": 17.17,
  "BaseResolution": 104,
  "BodyPartExamined": "BRAIN",
  "CoilString": "HC1-7;NC1_2",
  "ConsistencyInfo": "N4_VE11C_LATEST_20160120",
  "ConversionSoftware": "dcm2niix",
  "ConversionSoftwareVersion": "v1.0.20190902",
  "DerivedVendorReportedEchoSpacing": 0.000560011,
  "DeviceSerialNumber": "167006",
  "DwellTime": 2.1e-06,
  "EchoTime": 0.037,
  "EchoTrainLength": 104,
  "EffectiveEchoSpacing": 0.000560011,
  "FlipAngle": 52,
  "ImageComments": "Unaliased_MB4_PE3_LB",
  "ImageOrientationPatientDICOM": [0.999748, 0.0122423, 0.0188247, -0.00226835, 0.889087, -0.457734],
  "ImageType": [
    "ORIGINAL",
    "PRIMARY",
    "M",
    "MB",
    "ND",
    "MOSAIC"
],
  "ImagingFrequency": 123.259,
  "InPlanePhaseEncodingDirectionDICOM": "COL",
  "InstitutionAddress": "Chemin_Queen-Mary_4565_Montreal_District_CA_H3W_1W5",
  "InstitutionName": "IUGM",
  "InstitutionalDepartmentName": "Department",
  "MRAcquisitionType": "2D",
  "MagneticFieldStrength": 3,
  "Manufacturer": "Siemens",
  "ManufacturersModelName": "Prisma_fit",
  "Modality": "MR",
  "MultibandAccelerationFactor": 4,
  "PartialFourier": 1,
  "PatientPosition": "HFS",
  "PercentPhaseFOV": 100,
  "PhaseEncodingDirection": "j",
  "PhaseEncodingSteps": 104,
  "PhaseResolution": 1,
  "PixelBandwidth": 2290,
  "ProcedureStepDescription": "memory_things",
  "ProtocolName": "func_task-things_run-5",
  "PulseSequenceDetails": "%CustomerSeq%_cmrr_mbep2d_bold",
  "ReceiveCoilActiveElements": "HC1-7;NC1,2",
  "ReceiveCoilName": "HeadNeck_64",
  "ReconMatrixPE": 104,
  "RepetitionTime": 1.49,
  "SAR": 0.0476736,
  "ScanOptions": "FS",
  "ScanningSequence": "EP",
  "SequenceName": "epfid2d1_104",
  "SequenceVariant": "SK_SS",
  "SeriesDescription": "func_task-things_run-5",
  "SeriesNumber": 22,
  "ShimSetting": [623, -7189, -8863, 360, 13, -92, -21, -22],
  "SliceThickness": 2,
  "SliceTiming": [0, 0.7825, 0.0975, 0.8825, 0.195, 0.98, 0.295, 1.0775, 0.3925, 1.175, 0.49, 1.2725, 0.5875, 1.3725, 0.685, 0, 0.7825, 0.0975, 0.8825, 0.195, 0.98, 0.295, 1.0775, 0.3925, 1.175, 0.49, 1.2725, 0.5875, 1.3725, 0.685, 0, 0.7825, 0.0975, 0.8825, 0.195, 0.98, 0.295, 1.0775, 0.3925, 1.175, 0.49, 1.2725, 0.5875, 1.3725, 0.685, 0, 0.7825, 0.0975, 0.8825, 0.195, 0.98, 0.295, 1.0775, 0.3925, 1.175, 0.49, 1.2725, 0.5875, 1.3725, 0.685],
  "SoftwareVersions": "syngo_MR_E11",
  "SpacingBetweenSlices": 2,
  "StationName": "MRC35049",
  "TaskName": "things",
  "TotalReadoutTime": 0.0576811,
  "TxRefAmp": 268.19,
  "WipMemBlock": "2e4a4c8a-6479-4049-8862-b8eef640cf17||Sequence: R016 ve11c/master r/e634e98; Dec 19 2017 11:00:25 by eja",
  "dcmmeta_affine": [
    [-1.9994957447052002, -0.004536708351224661, 0.04468095302581787, 106.13023376464844],
    [-0.024484604597091675, 1.7781730890274048, -0.9151508212089539, -55.400474548339844],
    [0.03764934837818146, 0.9154670238494873, 1.777780294418335, -96.76380157470703],
    [0.0, 0.0, 0.0, 1.0]
],
  "dcmmeta_reorient_transform": [
    [0.0, -1.0, 0.0, 103.0],
    [1.0, 0.0, 0.0, 0.0],
    [0.0, 0.0, 1.0, 0.0],
    [0.0, 0.0, 0.0, 1.0]
],
  "dcmmeta_shape": [104, 104, 60, 190],
  "dcmmeta_slice_dim": 2,
  "dcmmeta_version": 0.6,
  "global": {
    "const": {
      "AcquisitionMatrix": [104, 0, 0, 104],
      "AngioFlag": "N",
      "BitsAllocated": 16,
      "BitsStored": 16,
      "BodyPartExamined": "BRAIN",
      "Columns": 832,
      "EchoNumbers": 1,
      "EchoTime": 37.0,
      "EchoTrainLength": 104,
      "FlipAngle": 52.0,
      "HighBit": 15,
      "ImageOrientationPatient": [0.99974784705826, 0.0122423025362, 0.01882467346301, -0.0022683542092, 0.88908653908151, -0.4577335257475],
      "ImagePositionPatient": [-831.82802597917, -783.91874930211, 317.05495089782],
      "ImageType": [
        "ORIGINAL",
        "PRIMARY",
        "M",
        "MB",
        "ND",
        "MOSAIC"
],
      "ImagedNucleus": "1H",
      "ImagingFrequency": 123.258942,
      "InPlanePhaseEncodingDirection": "COL",
      "MRAcquisitionType": "2D",
      "MagneticFieldStrength": 3.0,
      "Manufacturer": "SIEMENS",
      "ManufacturerModelName": "Prisma_fit",
      "Modality": "MR",
      "NumberOfAverages": 1.0,
      "NumberOfPhaseEncodingSteps": 104,
      "PercentPhaseFieldOfView": 100.0,
      "PercentSampling": 100.0,
      "PerformedProcedureStepStartTime": "103523.433000",
      "PhotometricInterpretation": "MONOCHROME2",
      "PixelBandwidth": 2290.0,
      "PixelRepresentation": 0,
      "PixelSpacing": [2.0, 2.0],
      "ProtocolName": "func_task-things_run-5",
      "RepetitionTime": 1490.0,
      "Rows": 832,
      "SAR": 0.04767359533401,
      "SamplesPerPixel": 1,
      "ScanOptions": "FS",
      "ScanningSequence": "EP",
      "SequenceName": "epfid2d1_104",
      "SequenceVariant": [
        "SK",
        "SS"
],
      "SeriesDescription": "func_task-things_run-5",
      "SeriesNumber": 22,
      "SeriesTime": "111312.598000",
      "SliceLocation": -58.29149140233,
      "SliceThickness": 2.0,
      "SmallestImagePixelValue": 0,
      "SoftwareVersions": "syngo MR E11",
      "SpacingBetweenSlices": 2.0000000148559,
      "SpecificCharacterSet": "ISO_IR 100",
      "StudyID": "1",
      "StudyTime": "103523.318000",
      "TransmitCoilName": "Body",
      "VariableFlipAngleFlag": "N",
      "WindowCenterWidthExplanation": "Algo1",
      "dBdt": 0.0},
    "slices": {}
  },
  "time": {
    "samples": {
      "AcquisitionNumber": [1, 2, 3, 4, 5, 6, 7, 8, 9, 10, 11, 12, 13, 14, 15, 16, 17, 18, 19, 20, 21, 22, 23, 24, 25, 26, 27, 28, 29, 30, 31, 32, 33, 34, 35, 36, 37, 38, 39, 40, 41, 42, 43, 44, 45, 46, 47, 48, 49, 50, 51, 52, 53, 54, 55, 56, 57, 58, 59, 60, 61, 62, 63, 64, 65, 66, 67, 68, 69, 70, 71, 72, 73, 74, 75, 76, 77, 78, 79, 80, 81, 82, 83, 84, 85, 86, 87, 88, 89, 90, 91, 92, 93, 94, 95, 96, 97, 98, 99, 100, 101, 102, 103, 104, 105, 106, 107, 108, 109, 110, 111, 112, 113, 114, 115, 116, 117, 118, 119, 120, 121, 122, 123, 124, 125, 126, 127, 128, 129, 130, 131, 132, 133, 134, 135, 136, 137, 138, 139, 140, 141, 142, 143, 144, 145, 146, 147, 148, 149, 150, 151, 152, 153, 154, 155, 156, 157, 158, 159, 160, 161, 162, 163, 164, 165, 166, 167, 168, 169, 170, 171, 172, 173, 174, 175, 176, 177, 178, 179, 180, 181, 182, 183, 184, 185, 186, 187, 188, 189, 190],
      "AcquisitionTime": ["111201.420000", "111202.910000", "111204.400000", "111205.890000", "111207.380000", "111208.870000", "111210.360000", "111211.850000", "111213.340000", "111214.830000", "111216.320000", "111217.810000", "111219.300000", "111220.790000", "111222.280000", "111223.770000", "111225.260000", "111226.750000", "111228.240000", "111229.730000", "111231.220000", "111232.710000", "111234.200000", "111235.690000", "111237.180000", "111238.670000", "111240.160000", "111241.650000", "111243.140000", "111244.630000", "111246.120000", "111247.610000", "111249.100000", "111250.590000", "111252.080000", "111253.570000", "111255.060000", "111256.550000", "111258.040000", "111259.530000", "111301.020000", "111302.510000", "111304.000000", "111305.490000", "111306.980000", "111308.470000", "111309.960000", "111311.450000", "111312.940000", "111314.430000", "111315.920000", "111317.410000", "111318.900000", "111320.390000", "111321.880000", "111323.370000", "111324.860000", "111326.350000", "111327.840000", "111329.330000", "111330.820000", "111332.310000", "111333.800000", "111335.290000", "111336.780000", "111338.270000", "111339.760000", "111341.250000", "111342.740000", "111344.230000", "111345.720000", "111347.210000", "111348.700000", "111350.190000", "111351.680000", "111353.170000", "111354.660000", "111356.150000", "111357.640000", "111359.130000", "111400.620000", "111402.110000", "111403.600000", "111405.090000", "111406.580000", "111408.070000", "111409.560000", "111411.050000", "111412.540000", "111414.030000", "111415.520000", "111417.010000", "111418.500000", "111419.990000", "111421.480000", "111422.970000", "111424.460000", "111425.950000", "111427.440000", "111428.930000", "111430.420000", "111431.910000", "111433.400000", "111434.890000", "111436.380000", "111437.870000", "111439.360000", "111440.850000", "111442.340000", "111443.830000", "111445.320000", "111446.810000", "111448.300000", "111449.790000", "111451.280000", "111452.770000", "111454.260000", "111455.750000", "111457.240000", "111458.730000", "111500.220000", "111501.710000", "111503.200000", "111504.690000", "111506.180000", "111507.670000", "111509.160000", "111510.650000", "111512.140000", "111513.630000", "111515.120000", "111516.610000", "111518.100000", "111519.590000", "111521.080000", "111522.570000", "111524.060000", "111525.550000", "111527.040000", "111528.530000", "111530.020000", "111531.510000", "111533.000000", "111534.490000", "111535.980000", "111537.470000", "111538.960000", "111540.450000", "111541.940000", "111543.430000", "111544.920000", "111546.410000", "111547.900000", "111549.390000", "111550.880000", "111552.370000", "111553.860000", "111555.350000", "111556.840000", "111558.330000", "111559.820000", "111601.310000", "111602.800000", "111604.290000", "111605.780000", "111607.270000", "111608.760000", "111610.250000", "111611.740000", "111613.230000", "111614.720000", "111616.210000", "111617.700000", "111619.190000", "111620.680000", "111622.170000", "111623.660000", "111625.150000", "111626.640000", "111628.130000", "111629.620000", "111631.110000", "111632.600000", "111634.090000", "111635.580000", "111637.070000", "111638.560000", "111640.050000", "111641.540000", "111643.030000"],
      "ContentTime": ["111312.602000", "111312.606000", "111312.609000", "111312.613000", "111312.616000", "111312.620000", "111312.623000", "111312.637000", "111312.640000", "111312.643000", "111312.647000", "111312.650000", "111312.654000", "111312.657000", "111312.661000", "111332.550000", "111332.554000", "111332.557000", "111332.561000", "111332.564000", "111332.568000", "111332.571000", "111332.574000", "111332.578000", "111332.581000", "111332.585000", "111332.588000", "111332.592000", "111332.600000", "111332.604000", "111332.607000", "111332.610000", "111332.614000", "111332.617000", "111332.621000", "111352.550000", "111352.554000", "111352.557000", "111352.561000", "111352.564000", "111352.568000", "111352.571000", "111352.575000", "111352.578000", "111352.582000", "111352.585000", "111352.589000", "111352.592000", "111352.596000", "111352.599000", "111352.602000", "111352.606000", "111352.609000", "111352.613000", "111352.616000", "111412.551000", "111412.555000", "111412.558000", "111412.562000", "111412.565000", "111412.569000", "111412.572000", "111412.576000", "111412.579000", "111412.583000", "111412.586000", "111412.590000", "111412.594000", "111412.598000", "111412.602000", "111412.606000", "111412.610000", "111412.613000", "111412.617000", "111412.621000", "111432.551000", "111432.555000", "111432.558000", "111432.562000", "111432.565000", "111432.569000", "111432.573000", "111432.576000", "111432.580000", "111432.583000", "111432.587000", "111432.590000", "111432.593000", "111432.597000", "111432.600000", "111432.604000", "111432.607000", "111432.611000", "111432.614000", "111432.618000", "111432.621000", "111512.562000", "111512.566000", "111512.569000", "111512.573000", "111512.576000", "111512.580000", "111512.583000", "111512.587000", "111512.590000", "111512.594000", "111512.597000", "111512.601000", "111512.604000", "111512.607000", "111512.611000", "111512.614000", "111512.618000", "111512.621000", "111512.625000", "111512.628000", "111512.632000", "111512.635000", "111512.639000", "111512.642000", "111512.646000", "111512.649000", "111512.653000", "111512.656000", "111512.660000", "111512.663000", "111512.667000", "111552.550000", "111552.554000", "111552.558000", "111552.561000", "111552.564000", "111552.568000", "111552.571000", "111552.575000", "111552.578000", "111552.590000", "111552.593000", "111552.596000", "111552.600000", "111552.603000", "111552.607000", "111552.610000", "111552.614000", "111552.617000", "111552.621000", "111552.624000", "111552.627000", "111552.631000", "111552.634000", "111552.638000", "111552.641000", "111552.645000", "111552.648000", "111632.552000", "111632.556000", "111632.559000", "111632.563000", "111632.567000", "111632.570000", "111632.574000", "111632.578000", "111632.582000", "111632.585000", "111632.589000", "111632.593000", "111632.596000", "111632.600000", "111632.604000", "111632.607000", "111632.611000", "111632.614000", "111632.618000", "111632.622000", "111632.625000", "111632.629000", "111632.632000", "111632.636000", "111632.640000", "111632.643000", "111632.647000", "111645.526000", "111645.530000", "111645.534000", "111645.537000", "111645.541000", "111645.544000", "111645.548000", "111645.552000", "111645.555000"],
      "InstanceCreationTime": ["111312.602000", "111312.606000", "111312.609000", "111312.613000", "111312.616000", "111312.620000", "111312.623000", "111312.637000", "111312.640000", "111312.643000", "111312.647000", "111312.650000", "111312.654000", "111312.657000", "111312.661000", "111332.550000", "111332.554000", "111332.557000", "111332.561000", "111332.564000", "111332.568000", "111332.571000", "111332.574000", "111332.578000", "111332.581000", "111332.585000", "111332.588000", "111332.592000", "111332.600000", "111332.604000", "111332.607000", "111332.610000", "111332.614000", "111332.617000", "111332.621000", "111352.550000", "111352.554000", "111352.557000", "111352.561000", "111352.564000", "111352.568000", "111352.571000", "111352.575000", "111352.578000", "111352.582000", "111352.585000", "111352.589000", "111352.592000", "111352.596000", "111352.599000", "111352.602000", "111352.606000", "111352.609000", "111352.613000", "111352.616000", "111412.551000", "111412.555000", "111412.558000", "111412.562000", "111412.565000", "111412.569000", "111412.572000", "111412.576000", "111412.579000", "111412.583000", "111412.586000", "111412.590000", "111412.594000", "111412.598000", "111412.602000", "111412.606000", "111412.610000", "111412.613000", "111412.617000", "111412.621000", "111432.551000", "111432.555000", "111432.558000", "111432.562000", "111432.565000", "111432.569000", "111432.573000", "111432.576000", "111432.580000", "111432.583000", "111432.587000", "111432.590000", "111432.593000", "111432.597000", "111432.600000", "111432.604000", "111432.607000", "111432.611000", "111432.614000", "111432.618000", "111432.621000", "111512.562000", "111512.566000", "111512.569000", "111512.573000", "111512.576000", "111512.580000", "111512.583000", "111512.587000", "111512.590000", "111512.594000", "111512.597000", "111512.601000", "111512.604000", "111512.607000", "111512.611000", "111512.614000", "111512.618000", "111512.621000", "111512.625000", "111512.628000", "111512.632000", "111512.635000", "111512.639000", "111512.642000", "111512.646000", "111512.649000", "111512.653000", "111512.656000", "111512.660000", "111512.663000", "111512.667000", "111552.550000", "111552.554000", "111552.558000", "111552.561000", "111552.564000", "111552.568000", "111552.571000", "111552.575000", "111552.578000", "111552.590000", "111552.593000", "111552.596000", "111552.600000", "111552.603000", "111552.607000", "111552.610000", "111552.614000", "111552.617000", "111552.621000", "111552.624000", "111552.627000", "111552.631000", "111552.634000", "111552.638000", "111552.641000", "111552.645000", "111552.648000", "111632.552000", "111632.556000", "111632.559000", "111632.563000", "111632.567000", "111632.570000", "111632.574000", "111632.578000", "111632.582000", "111632.585000", "111632.589000", "111632.593000", "111632.596000", "111632.600000", "111632.604000", "111632.607000", "111632.611000", "111632.614000", "111632.618000", "111632.622000", "111632.625000", "111632.629000", "111632.632000", "111632.636000", "111632.640000", "111632.643000", "111632.647000", "111645.526000", "111645.530000", "111645.534000", "111645.537000", "111645.541000", "111645.544000", "111645.548000", "111645.552000", "111645.555000"],
      "InstanceNumber": [1, 2, 3, 4, 5, 6, 7, 8, 9, 10, 11, 12, 13, 14, 15, 16, 17, 18, 19, 20, 21, 22, 23, 24, 25, 26, 27, 28, 29, 30, 31, 32, 33, 34, 35, 36, 37, 38, 39, 40, 41, 42, 43, 44, 45, 46, 47, 48, 49, 50, 51, 52, 53, 54, 55, 56, 57, 58, 59, 60, 61, 62, 63, 64, 65, 66, 67, 68, 69, 70, 71, 72, 73, 74, 75, 76, 77, 78, 79, 80, 81, 82, 83, 84, 85, 86, 87, 88, 89, 90, 91, 92, 93, 94, 95, 96, 97, 98, 99, 100, 101, 102, 103, 104, 105, 106, 107, 108, 109, 110, 111, 112, 113, 114, 115, 116, 117, 118, 119, 120, 121, 122, 123, 124, 125, 126, 127, 128, 129, 130, 131, 132, 133, 134, 135, 136, 137, 138, 139, 140, 141, 142, 143, 144, 145, 146, 147, 148, 149, 150, 151, 152, 153, 154, 155, 156, 157, 158, 159, 160, 161, 162, 163, 164, 165, 166, 167, 168, 169, 170, 171, 172, 173, 174, 175, 176, 177, 178, 179, 180, 181, 182, 183, 184, 185, 186, 187, 188, 189, 190],
      "LargestImagePixelValue": [46492, 45009, 44518, 44838, 44716, 44019, 43609, 42939, 43567, 43872, 43800, 44491, 44124, 43328, 44785, 43518, 43781, 44552, 43811, 44978, 43647, 44478, 43798, 44220, 42872, 43754, 44586, 43477, 43883, 43247, 42897, 43359, 43227, 43296, 43549, 44022, 44365, 43382, 44493, 44494, 44881, 44721, 44304, 43970, 43680, 44138, 43480, 43831, 44133, 43643, 45646, 44237, 44562, 44926, 44732, 44328, 44519, 44530, 43905, 44245, 44625, 44096, 43931, 44718, 44400, 45043, 44573, 44328, 44351, 44759, 44112, 44497, 44588, 44326, 44549, 44690, 43957, 44243, 43987, 43862, 43918, 43624, 43875, 43984, 45850, 45554, 43665, 43561, 44207, 44030, 44304, 43160, 43759, 46166, 45769, 45231, 45399, 43354, 42922, 44757, 45751, 45206, 45164, 44596, 42901, 43595, 46256, 46984, 46672, 44903, 44125, 43428, 43264, 43050, 43181, 43545, 44338, 46730, 46920, 46045, 45542, 46224, 44878, 44109, 43824, 43405, 45133, 45500, 44499, 46524, 46677, 45228, 44640, 44201, 43651, 44814, 43831, 45063, 46155, 45047, 45615, 46413, 45014, 45024, 44504, 43138, 45026, 46538, 46601, 45952, 45816, 45161, 43851, 46262, 46800, 45563, 46428, 45266, 42560, 43562, 45128, 45537, 45173, 44800, 45110, 44993, 45356, 45888, 45400, 44611, 42636, 44054, 46233, 46140, 45878, 46047, 45333, 43936, 43123, 43447, 44044, 43985, 45028, 47246, 45590, 46417, 46935, 46031, 44832, 43347],
      "WindowCenter": [11047.0, 10963.0, 10930.0, 10925.0, 10911.0, 10886.0, 10879.0, 10884.0, 10908.0, 10925.0, 10925.0, 10908.0, 10890.0, 10891.0, 10908.0, 10889.0, 10888.0, 10929.0, 10961.0, 10970.0, 10905.0, 10911.0, 10873.0, 10904.0, 10907.0, 10891.0, 10889.0, 10891.0, 10900.0, 10850.0, 10861.0, 10856.0, 10883.0, 10903.0, 10895.0, 10889.0, 10855.0, 10833.0, 10884.0, 10893.0, 10863.0, 10844.0, 10828.0, 10864.0, 10907.0, 10928.0, 10917.0, 10866.0, 10844.0, 10862.0, 10908.0, 10913.0, 10892.0, 10870.0, 10871.0, 10870.0, 10872.0, 10873.0, 10854.0, 10860.0, 10856.0, 10845.0, 10845.0, 10867.0, 10890.0, 10907.0, 10885.0, 10878.0, 10857.0, 10858.0, 10870.0, 10891.0, 10899.0, 10893.0, 10867.0, 10863.0, 10840.0, 10837.0, 10840.0, 10819.0, 10813.0, 10818.0, 10847.0, 10854.0, 10866.0, 10829.0, 10796.0, 10834.0, 10872.0, 10882.0, 10878.0, 10875.0, 10872.0, 10862.0, 10843.0, 10821.0, 10848.0, 10835.0, 10844.0, 10861.0, 10850.0, 10831.0, 10818.0, 10822.0, 10836.0, 10889.0, 10899.0, 10867.0, 10834.0, 10807.0, 10822.0, 10833.0, 10819.0, 10810.0, 10806.0, 10835.0, 10862.0, 10893.0, 10885.0, 10850.0, 10841.0, 10861.0, 10861.0, 10850.0, 10850.0, 10860.0, 10872.0, 10866.0, 10849.0, 10844.0, 10844.0, 10847.0, 10850.0, 10856.0, 10844.0, 10854.0, 10847.0, 10862.0, 10854.0, 10850.0, 10861.0, 10857.0, 10811.0, 10818.0, 10849.0, 10879.0, 10889.0, 10897.0, 10853.0, 10856.0, 10862.0, 10851.0, 10861.0, 10898.0, 10883.0, 10830.0, 10799.0, 10763.0, 10778.0, 10835.0, 10877.0, 10856.0, 10821.0, 10811.0, 10819.0, 10835.0, 10826.0, 10825.0, 10817.0, 10805.0, 10809.0, 10863.0, 10898.0, 10868.0, 10817.0, 10796.0, 10808.0, 10827.0, 10827.0, 10825.0, 10823.0, 10832.0, 10869.0, 10877.0, 10855.0, 10842.0, 10824.0, 10821.0, 10823.0, 10823.0],
      "WindowWidth": [23840.0, 23603.0, 23508.0, 23485.0, 23445.0, 23389.0, 23370.0, 23383.0, 23434.0, 23473.0, 23474.0, 23435.0, 23391.0, 23396.0, 23431.0, 23391.0, 23387.0, 23477.0, 23552.0, 23566.0, 23425.0, 23430.0, 23353.0, 23418.0, 23433.0, 23393.0, 23384.0, 23393.0, 23415.0, 23304.0, 23330.0, 23316.0, 23376.0, 23420.0, 23403.0, 23385.0, 23303.0, 23258.0, 23367.0, 23394.0, 23326.0, 23278.0, 23244.0, 23326.0, 23425.0, 23472.0, 23451.0, 23329.0, 23282.0, 23325.0, 23424.0, 23441.0, 23394.0, 23339.0, 23337.0, 23335.0, 23340.0, 23343.0, 23304.0, 23315.0, 23306.0, 23281.0, 23282.0, 23328.0, 23383.0, 23420.0, 23371.0, 23359.0, 23309.0, 23306.0, 23336.0, 23385.0, 23400.0, 23390.0, 23328.0, 23312.0, 23264.0, 23255.0, 23265.0, 23218.0, 23205.0, 23215.0, 23280.0, 23300.0, 23319.0, 23242.0, 23170.0, 23253.0, 23340.0, 23362.0, 23355.0, 23349.0, 23340.0, 23305.0, 23265.0, 23215.0, 23274.0, 23260.0, 23282.0, 23310.0, 23278.0, 23238.0, 23208.0, 23219.0, 23262.0, 23382.0, 23392.0, 23315.0, 23239.0, 23182.0, 23220.0, 23250.0, 23220.0, 23193.0, 23184.0, 23253.0, 23312.0, 23378.0, 23364.0, 23283.0, 23265.0, 23301.0, 23307.0, 23286.0, 23288.0, 23312.0, 23330.0, 23318.0, 23283.0, 23266.0, 23263.0, 23278.0, 23284.0, 23302.0, 23277.0, 23292.0, 23283.0, 23310.0, 23288.0, 23283.0, 23305.0, 23295.0, 23197.0, 23205.0, 23283.0, 23358.0, 23378.0, 23386.0, 23287.0, 23293.0, 23308.0, 23284.0, 23320.0, 23396.0, 23357.0, 23242.0, 23162.0, 23088.0, 23130.0, 23255.0, 23349.0, 23295.0, 23214.0, 23190.0, 23209.0, 23246.0, 23228.0, 23221.0, 23204.0, 23180.0, 23199.0, 23321.0, 23395.0, 23322.0, 23212.0, 23155.0, 23182.0, 23237.0, 23242.0, 23231.0, 23223.0, 23246.0, 23331.0, 23338.0, 23298.0, 23265.0, 23217.0, 23217.0, 23223.0, 23234.0]
    },
    "slices": {}
  }
}