{
  "AcquisitionMatrixPE": 104,
  "AcquisitionNumber": 1,
  "AcquisitionTime": "10:59:35.680000",
  "BandwidthPerPixelPhaseEncode": 17.17,
  "BaseResolution": 104,
  "BodyPartExamined": "BRAIN",
  "CoilString": "HC1-7;NC1_2",
  "ConsistencyInfo": "N4_VE11C_LATEST_20160120",
  "ConversionSoftware": "dcm2niix",
  "ConversionSoftwareVersion": "v1.0.20190902",
  "DerivedVendorReportedEchoSpacing": 0.000560011,
  "DeviceSerialNumber": "167006",
  "DwellTime": 2.1e-06,
  "EchoTime": 0.037,
  "EchoTrainLength": 104,
  "EffectiveEchoSpacing": 0.000560011,
  "FlipAngle": 52,
  "ImageComments": "Unaliased_MB4_PE3_LB",
  "ImageOrientationPatientDICOM": [0.999748, 0.0122423, 0.0188247, -0.00226835, 0.889087, -0.457734],
  "ImageType": [
    "ORIGINAL",
    "PRIMARY",
    "M",
    "MB",
    "ND",
    "MOSAIC"
],
  "ImagingFrequency": 123.259,
  "InPlanePhaseEncodingDirectionDICOM": "COL",
  "InstitutionAddress": "Chemin_Queen-Mary_4565_Montreal_District_CA_H3W_1W5",
  "InstitutionName": "IUGM",
  "InstitutionalDepartmentName": "Department",
  "MRAcquisitionType": "2D",
  "MagneticFieldStrength": 3,
  "Manufacturer": "Siemens",
  "ManufacturersModelName": "Prisma_fit",
  "Modality": "MR",
  "MultibandAccelerationFactor": 4,
  "PartialFourier": 1,
  "PatientPosition": "HFS",
  "PercentPhaseFOV": 100,
  "PhaseEncodingDirection": "j",
  "PhaseEncodingSteps": 104,
  "PhaseResolution": 1,
  "PixelBandwidth": 2290,
  "ProcedureStepDescription": "memory_things",
  "ProtocolName": "func_task-things_run-3",
  "PulseSequenceDetails": "%CustomerSeq%_cmrr_mbep2d_bold",
  "ReceiveCoilActiveElements": "HC1-7;NC1,2",
  "ReceiveCoilName": "HeadNeck_64",
  "ReconMatrixPE": 104,
  "RepetitionTime": 1.49,
  "SAR": 0.0476736,
  "ScanOptions": "FS",
  "ScanningSequence": "EP",
  "SequenceName": "epfid2d1_104",
  "SequenceVariant": "SK_SS",
  "SeriesDescription": "func_task-things_run-3",
  "SeriesNumber": 16,
  "ShimSetting": [623, -7189, -8863, 360, 13, -92, -21, -22],
  "SliceThickness": 2,
  "SliceTiming": [0, 0.7825, 0.0975, 0.88, 0.195, 0.98, 0.2925, 1.0775, 0.39, 1.175, 0.49, 1.2725, 0.5875, 1.37, 0.685, 0, 0.7825, 0.0975, 0.88, 0.195, 0.98, 0.2925, 1.0775, 0.39, 1.175, 0.49, 1.2725, 0.5875, 1.37, 0.685, 0, 0.7825, 0.0975, 0.88, 0.195, 0.98, 0.2925, 1.0775, 0.39, 1.175, 0.49, 1.2725, 0.5875, 1.37, 0.685, 0, 0.7825, 0.0975, 0.88, 0.195, 0.98, 0.2925, 1.0775, 0.39, 1.175, 0.49, 1.2725, 0.5875, 1.37, 0.685],
  "SoftwareVersions": "syngo_MR_E11",
  "SpacingBetweenSlices": 2,
  "StationName": "MRC35049",
  "TaskName": "things",
  "TotalReadoutTime": 0.0576811,
  "TxRefAmp": 268.19,
  "WipMemBlock": "9c6a56f1-d4e6-4d39-b9de-688b338c65c6||Sequence: R016 ve11c/master r/e634e98; Dec 19 2017 11:00:25 by eja",
  "dcmmeta_affine": [
    [-1.9994957447052002, -0.004536708351224661, 0.04468095302581787, 106.13023376464844],
    [-0.024484604597091675, 1.7781730890274048, -0.9151508212089539, -55.400474548339844],
    [0.03764934837818146, 0.9154670238494873, 1.777780294418335, -96.76380157470703],
    [0.0, 0.0, 0.0, 1.0]
],
  "dcmmeta_reorient_transform": [
    [0.0, -1.0, 0.0, 103.0],
    [1.0, 0.0, 0.0, 0.0],
    [0.0, 0.0, 1.0, 0.0],
    [0.0, 0.0, 0.0, 1.0]
],
  "dcmmeta_shape": [104, 104, 60, 190],
  "dcmmeta_slice_dim": 2,
  "dcmmeta_version": 0.6,
  "global": {
    "const": {
      "AcquisitionMatrix": [104, 0, 0, 104],
      "AngioFlag": "N",
      "BitsAllocated": 16,
      "BitsStored": 16,
      "BodyPartExamined": "BRAIN",
      "Columns": 832,
      "EchoNumbers": 1,
      "EchoTime": 37.0,
      "EchoTrainLength": 104,
      "FlipAngle": 52.0,
      "HighBit": 15,
      "ImageOrientationPatient": [0.99974784705826, 0.0122423025362, 0.01882467346301, -0.0022683542092, 0.88908653908151, -0.4577335257475],
      "ImagePositionPatient": [-831.82802597917, -783.91874930211, 317.05495089782],
      "ImageType": [
        "ORIGINAL",
        "PRIMARY",
        "M",
        "MB",
        "ND",
        "MOSAIC"
],
      "ImagedNucleus": "1H",
      "ImagingFrequency": 123.258936,
      "InPlanePhaseEncodingDirection": "COL",
      "MRAcquisitionType": "2D",
      "MagneticFieldStrength": 3.0,
      "Manufacturer": "SIEMENS",
      "ManufacturerModelName": "Prisma_fit",
      "Modality": "MR",
      "NumberOfAverages": 1.0,
      "NumberOfPhaseEncodingSteps": 104,
      "PercentPhaseFieldOfView": 100.0,
      "PercentSampling": 100.0,
      "PerformedProcedureStepStartTime": "103523.433000",
      "PhotometricInterpretation": "MONOCHROME2",
      "PixelBandwidth": 2290.0,
      "PixelRepresentation": 0,
      "PixelSpacing": [2.0, 2.0],
      "ProtocolName": "func_task-things_run-3",
      "RepetitionTime": 1490.0,
      "Rows": 832,
      "SAR": 0.04767359533401,
      "SamplesPerPixel": 1,
      "ScanOptions": "FS",
      "ScanningSequence": "EP",
      "SequenceName": "epfid2d1_104",
      "SequenceVariant": [
        "SK",
        "SS"
],
      "SeriesDescription": "func_task-things_run-3",
      "SeriesNumber": 16,
      "SeriesTime": "110052.634000",
      "SliceLocation": -58.29149140233,
      "SliceThickness": 2.0,
      "SmallestImagePixelValue": 0,
      "SoftwareVersions": "syngo MR E11",
      "SpacingBetweenSlices": 2.0000000148559,
      "SpecificCharacterSet": "ISO_IR 100",
      "StudyID": "1",
      "StudyTime": "103523.318000",
      "TransmitCoilName": "Body",
      "VariableFlipAngleFlag": "N",
      "WindowCenterWidthExplanation": "Algo1",
      "dBdt": 0.0},
    "slices": {}
  },
  "time": {
    "samples": {
      "AcquisitionNumber": [1, 2, 3, 4, 5, 6, 7, 8, 9, 10, 11, 12, 13, 14, 15, 16, 17, 18, 19, 20, 21, 22, 23, 24, 25, 26, 27, 28, 29, 30, 31, 32, 33, 34, 35, 36, 37, 38, 39, 40, 41, 42, 43, 44, 45, 46, 47, 48, 49, 50, 51, 52, 53, 54, 55, 56, 57, 58, 59, 60, 61, 62, 63, 64, 65, 66, 67, 68, 69, 70, 71, 72, 73, 74, 75, 76, 77, 78, 79, 80, 81, 82, 83, 84, 85, 86, 87, 88, 89, 90, 91, 92, 93, 94, 95, 96, 97, 98, 99, 100, 101, 102, 103, 104, 105, 106, 107, 108, 109, 110, 111, 112, 113, 114, 115, 116, 117, 118, 119, 120, 121, 122, 123, 124, 125, 126, 127, 128, 129, 130, 131, 132, 133, 134, 135, 136, 137, 138, 139, 140, 141, 142, 143, 144, 145, 146, 147, 148, 149, 150, 151, 152, 153, 154, 155, 156, 157, 158, 159, 160, 161, 162, 163, 164, 165, 166, 167, 168, 169, 170, 171, 172, 173, 174, 175, 176, 177, 178, 179, 180, 181, 182, 183, 184, 185, 186, 187, 188, 189, 190],
      "AcquisitionTime": ["105935.680000", "105937.170000", "105938.660000", "105940.150000", "105941.640000", "105943.130000", "105944.620000", "105946.110000", "105947.600000", "105949.090000", "105950.580000", "105952.070000", "105953.560000", "105955.050000", "105956.540000", "105958.030000", "105959.520000", "110001.010000", "110002.500000", "110003.990000", "110005.480000", "110006.970000", "110008.460000", "110009.950000", "110011.440000", "110012.930000", "110014.420000", "110015.910000", "110017.400000", "110018.890000", "110020.380000", "110021.870000", "110023.360000", "110024.850000", "110026.340000", "110027.830000", "110029.320000", "110030.810000", "110032.300000", "110033.790000", "110035.280000", "110036.770000", "110038.260000", "110039.750000", "110041.240000", "110042.730000", "110044.220000", "110045.710000", "110047.200000", "110048.690000", "110050.180000", "110051.670000", "110053.160000", "110054.650000", "110056.140000", "110057.630000", "110059.120000", "110100.610000", "110102.100000", "110103.590000", "110105.080000", "110106.570000", "110108.060000", "110109.550000", "110111.040000", "110112.530000", "110114.020000", "110115.510000", "110117.000000", "110118.490000", "110119.980000", "110121.470000", "110122.960000", "110124.450000", "110125.940000", "110127.430000", "110128.920000", "110130.410000", "110131.900000", "110133.390000", "110134.880000", "110136.370000", "110137.860000", "110139.350000", "110140.840000", "110142.330000", "110143.820000", "110145.310000", "110146.800000", "110148.290000", "110149.780000", "110151.270000", "110152.760000", "110154.250000", "110155.740000", "110157.230000", "110158.720000", "110200.210000", "110201.700000", "110203.190000", "110204.680000", "110206.170000", "110207.660000", "110209.150000", "110210.640000", "110212.130000", "110213.620000", "110215.110000", "110216.600000", "110218.090000", "110219.580000", "110221.070000", "110222.560000", "110224.050000", "110225.540000", "110227.030000", "110228.520000", "110230.010000", "110231.500000", "110232.990000", "110234.480000", "110235.970000", "110237.460000", "110238.950000", "110240.440000", "110241.930000", "110243.420000", "110244.910000", "110246.400000", "110247.890000", "110249.380000", "110250.870000", "110252.360000", "110253.850000", "110255.340000", "110256.830000", "110258.320000", "110259.810000", "110301.300000", "110302.790000", "110304.280000", "110305.770000", "110307.260000", "110308.750000", "110310.240000", "110311.730000", "110313.220000", "110314.710000", "110316.200000", "110317.690000", "110319.180000", "110320.670000", "110322.160000", "110323.650000", "110325.140000", "110326.630000", "110328.120000", "110329.610000", "110331.100000", "110332.590000", "110334.080000", "110335.570000", "110337.060000", "110338.550000", "110340.040000", "110341.530000", "110343.020000", "110344.510000", "110346.000000", "110347.490000", "110348.980000", "110350.470000", "110351.960000", "110353.450000", "110354.940000", "110356.430000", "110357.920000", "110359.410000", "110400.900000", "110402.390000", "110403.880000", "110405.370000", "110406.860000", "110408.350000", "110409.840000", "110411.330000", "110412.820000", "110414.310000", "110415.800000", "110417.290000"],
      "ContentTime": ["110052.638000", "110052.641000", "110052.645000", "110052.648000", "110052.651000", "110052.662000", "110052.666000", "110052.669000", "110052.672000", "110052.676000", "110052.679000", "110052.683000", "110052.686000", "110052.689000", "110052.693000", "110052.696000", "110052.700000", "110052.703000", "110052.706000", "110052.710000", "110052.713000", "110052.717000", "110052.720000", "110052.723000", "110112.593000", "110112.597000", "110112.601000", "110112.604000", "110112.608000", "110112.611000", "110112.614000", "110112.618000", "110112.621000", "110112.625000", "110112.628000", "110112.632000", "110112.635000", "110112.639000", "110112.644000", "110112.665000", "110112.669000", "110112.672000", "110112.676000", "110112.679000", "110132.592000", "110132.596000", "110132.599000", "110132.603000", "110132.606000", "110132.610000", "110132.614000", "110132.618000", "110132.621000", "110132.624000", "110132.628000", "110132.631000", "110132.635000", "110132.638000", "110132.641000", "110132.645000", "110132.648000", "110132.651000", "110132.655000", "110132.658000", "110132.662000", "110152.592000", "110152.596000", "110152.599000", "110152.603000", "110152.606000", "110152.610000", "110152.613000", "110152.616000", "110152.620000", "110152.623000", "110152.627000", "110152.630000", "110152.633000", "110152.637000", "110152.640000", "110152.644000", "110152.647000", "110152.650000", "110152.654000", "110152.657000", "110212.592000", "110212.596000", "110212.599000", "110212.603000", "110212.606000", "110212.610000", "110212.613000", "110212.616000", "110212.620000", "110212.623000", "110212.627000", "110212.630000", "110212.633000", "110212.637000", "110212.640000", "110212.644000", "110212.647000", "110212.650000", "110212.654000", "110212.657000", "110252.593000", "110252.597000", "110252.600000", "110252.604000", "110252.607000", "110252.620000", "110252.623000", "110252.627000", "110252.630000", "110252.634000", "110252.637000", "110252.641000", "110252.644000", "110252.648000", "110252.651000", "110252.654000", "110252.658000", "110252.662000", "110252.665000", "110252.668000", "110252.672000", "110252.675000", "110252.679000", "110252.682000", "110252.686000", "110252.689000", "110252.693000", "110332.593000", "110332.597000", "110332.601000", "110332.605000", "110332.608000", "110332.612000", "110332.615000", "110332.619000", "110332.622000", "110332.625000", "110332.629000", "110332.632000", "110332.636000", "110332.639000", "110332.642000", "110332.646000", "110332.649000", "110332.653000", "110332.656000", "110332.660000", "110332.663000", "110332.667000", "110332.670000", "110332.674000", "110332.677000", "110332.680000", "110412.592000", "110412.596000", "110412.599000", "110412.603000", "110412.606000", "110412.610000", "110412.613000", "110412.617000", "110412.620000", "110412.624000", "110412.627000", "110412.631000", "110412.634000", "110412.637000", "110412.641000", "110412.644000", "110412.648000", "110412.651000", "110412.654000", "110412.658000", "110412.662000", "110412.665000", "110412.668000", "110412.672000", "110412.675000", "110412.679000", "110412.682000", "110418.983000", "110418.987000", "110418.991000", "110418.994000", "110418.998000"],
      "InstanceCreationTime": ["110052.638000", "110052.641000", "110052.645000", "110052.648000", "110052.651000", "110052.662000", "110052.666000", "110052.669000", "110052.672000", "110052.676000", "110052.679000", "110052.683000", "110052.686000", "110052.689000", "110052.693000", "110052.696000", "110052.700000", "110052.703000", "110052.706000", "110052.710000", "110052.713000", "110052.717000", "110052.720000", "110052.723000", "110112.593000", "110112.597000", "110112.601000", "110112.604000", "110112.608000", "110112.611000", "110112.614000", "110112.618000", "110112.621000", "110112.625000", "110112.628000", "110112.632000", "110112.635000", "110112.639000", "110112.644000", "110112.665000", "110112.669000", "110112.672000", "110112.676000", "110112.679000", "110132.592000", "110132.596000", "110132.599000", "110132.603000", "110132.606000", "110132.610000", "110132.614000", "110132.618000", "110132.621000", "110132.624000", "110132.628000", "110132.631000", "110132.635000", "110132.638000", "110132.641000", "110132.645000", "110132.648000", "110132.651000", "110132.655000", "110132.658000", "110132.662000", "110152.592000", "110152.596000", "110152.599000", "110152.603000", "110152.606000", "110152.610000", "110152.613000", "110152.616000", "110152.620000", "110152.623000", "110152.627000", "110152.630000", "110152.633000", "110152.637000", "110152.640000", "110152.644000", "110152.647000", "110152.650000", "110152.654000", "110152.657000", "110212.592000", "110212.596000", "110212.599000", "110212.603000", "110212.606000", "110212.610000", "110212.613000", "110212.616000", "110212.620000", "110212.623000", "110212.627000", "110212.630000", "110212.633000", "110212.637000", "110212.640000", "110212.644000", "110212.647000", "110212.650000", "110212.654000", "110212.657000", "110252.593000", "110252.597000", "110252.600000", "110252.604000", "110252.607000", "110252.620000", "110252.623000", "110252.627000", "110252.630000", "110252.634000", "110252.637000", "110252.641000", "110252.644000", "110252.648000", "110252.651000", "110252.654000", "110252.658000", "110252.662000", "110252.665000", "110252.668000", "110252.672000", "110252.675000", "110252.679000", "110252.682000", "110252.686000", "110252.689000", "110252.693000", "110332.593000", "110332.597000", "110332.601000", "110332.605000", "110332.608000", "110332.612000", "110332.615000", "110332.619000", "110332.622000", "110332.625000", "110332.629000", "110332.632000", "110332.636000", "110332.639000", "110332.642000", "110332.646000", "110332.649000", "110332.653000", "110332.656000", "110332.660000", "110332.663000", "110332.667000", "110332.670000", "110332.674000", "110332.677000", "110332.680000", "110412.592000", "110412.596000", "110412.599000", "110412.603000", "110412.606000", "110412.610000", "110412.613000", "110412.617000", "110412.620000", "110412.624000", "110412.627000", "110412.631000", "110412.634000", "110412.637000", "110412.641000", "110412.644000", "110412.648000", "110412.651000", "110412.654000", "110412.658000", "110412.662000", "110412.665000", "110412.668000", "110412.672000", "110412.675000", "110412.679000", "110412.682000", "110418.983000", "110418.987000", "110418.991000", "110418.994000", "110418.998000"],
      "InstanceNumber": [1, 2, 3, 4, 5, 6, 7, 8, 9, 10, 11, 12, 13, 14, 15, 16, 17, 18, 19, 20, 21, 22, 23, 24, 25, 26, 27, 28, 29, 30, 31, 32, 33, 34, 35, 36, 37, 38, 39, 40, 41, 42, 43, 44, 45, 46, 47, 48, 49, 50, 51, 52, 53, 54, 55, 56, 57, 58, 59, 60, 61, 62, 63, 64, 65, 66, 67, 68, 69, 70, 71, 72, 73, 74, 75, 76, 77, 78, 79, 80, 81, 82, 83, 84, 85, 86, 87, 88, 89, 90, 91, 92, 93, 94, 95, 96, 97, 98, 99, 100, 101, 102, 103, 104, 105, 106, 107, 108, 109, 110, 111, 112, 113, 114, 115, 116, 117, 118, 119, 120, 121, 122, 123, 124, 125, 126, 127, 128, 129, 130, 131, 132, 133, 134, 135, 136, 137, 138, 139, 140, 141, 142, 143, 144, 145, 146, 147, 148, 149, 150, 151, 152, 153, 154, 155, 156, 157, 158, 159, 160, 161, 162, 163, 164, 165, 166, 167, 168, 169, 170, 171, 172, 173, 174, 175, 176, 177, 178, 179, 180, 181, 182, 183, 184, 185, 186, 187, 188, 189, 190],
      "LargestImagePixelValue": [46031, 43767, 43274, 43262, 43521, 43224, 42914, 43459, 42619, 42121, 41858, 42491, 41937, 43014, 42967, 43172, 43243, 42376, 43038, 42965, 42354, 42172, 42955, 42516, 43376, 43326, 42776, 42942, 42525, 43402, 43025, 44246, 42770, 43071, 43178, 42463, 42229, 43084, 42095, 41593, 43581, 42626, 43562, 42848, 43253, 42161, 42819, 42455, 42680, 42531, 42395, 42551, 43212, 42205, 42590, 42950, 42725, 43020, 42106, 43235, 42597, 43162, 42133, 42933, 42294, 43474, 43259, 42798, 42179, 42259, 42862, 42611, 43071, 43272, 42909, 42975, 43765, 43035, 42471, 42240, 41867, 42487, 42598, 42867, 43284, 43081, 43173, 42906, 43561, 42540, 44664, 41626, 42549, 42179, 42656, 42976, 42871, 43200, 42608, 42356, 42530, 42807, 43447, 42608, 42225, 42644, 43379, 42492, 42774, 42859, 44040, 43438, 43182, 42421, 42761, 42936, 42395, 42016, 43378, 42671, 42695, 42707, 43571, 42463, 42436, 42520, 42501, 42532, 42659, 42928, 42897, 42777, 43567, 42826, 42146, 42909, 43732, 42597, 42880, 42471, 43060, 42002, 42395, 42906, 42292, 41913, 42522, 42471, 42931, 42273, 42417, 43502, 43577, 43471, 41999, 42205, 42005, 42518, 42082, 42737, 42333, 42749, 42140, 42857, 42472, 42660, 42297, 43257, 42664, 42878, 43188, 42799, 42188, 42954, 42556, 42350, 42293, 42052, 42743, 42786, 42365, 42904, 42761, 43081, 44028, 43250, 42044, 42390, 42058, 42586],
      "WindowCenter": [11041.0, 10971.0, 10940.0, 10929.0, 10939.0, 10936.0, 10948.0, 10958.0, 10949.0, 10929.0, 10926.0, 10946.0, 10948.0, 10957.0, 10955.0, 10956.0, 10957.0, 10942.0, 10943.0, 10924.0, 10912.0, 10890.0, 10915.0, 10951.0, 10988.0, 10978.0, 10960.0, 10946.0, 10904.0, 10890.0, 10876.0, 10915.0, 10966.0, 10986.0, 10964.0, 10946.0, 10912.0, 10892.0, 10887.0, 10945.0, 10996.0, 10957.0, 10920.0, 10892.0, 10909.0, 10908.0, 10903.0, 10889.0, 10880.0, 10895.0, 10915.0, 10943.0, 10951.0, 10925.0, 10883.0, 10873.0, 10908.0, 10945.0, 10944.0, 10923.0, 10900.0, 10917.0, 10915.0, 10902.0, 10878.0, 10895.0, 10944.0, 10967.0, 10943.0, 10920.0, 10905.0, 10904.0, 10917.0, 10918.0, 10899.0, 10902.0, 10919.0, 10903.0, 10884.0, 10869.0, 10850.0, 10862.0, 10887.0, 10900.0, 10910.0, 10883.0, 10903.0, 10919.0, 10947.0, 10940.0, 10937.0, 10870.0, 10865.0, 10881.0, 10903.0, 10921.0, 10922.0, 10913.0, 10892.0, 10876.0, 10873.0, 10887.0, 10894.0, 10870.0, 10864.0, 10886.0, 10924.0, 10918.0, 10918.0, 10916.0, 10922.0, 10914.0, 10914.0, 10920.0, 10934.0, 10928.0, 10901.0, 10862.0, 10871.0, 10887.0, 10936.0, 10950.0, 10917.0, 10883.0, 10862.0, 10905.0, 10947.0, 10938.0, 10932.0, 10894.0, 10918.0, 10894.0, 10902.0, 10901.0, 10904.0, 10916.0, 10936.0, 10887.0, 10853.0, 10848.0, 10889.0, 10905.0, 10904.0, 10879.0, 10884.0, 10893.0, 10901.0, 10902.0, 10898.0, 10887.0, 10883.0, 10902.0, 10898.0, 10907.0, 10875.0, 10879.0, 10883.0, 10900.0, 10894.0, 10898.0, 10875.0, 10880.0, 10876.0, 10863.0, 10874.0, 10885.0, 10894.0, 10903.0, 10890.0, 10890.0, 10877.0, 10904.0, 10921.0, 10940.0, 10933.0, 10899.0, 10851.0, 10839.0, 10869.0, 10914.0, 10905.0, 10913.0, 10914.0, 10884.0, 10896.0, 10893.0, 10886.0, 10894.0, 10888.0, 10886.0],
      "WindowWidth": [23824.0, 23632.0, 23544.0, 23506.0, 23522.0, 23506.0, 23533.0, 23554.0, 23536.0, 23493.0, 23487.0, 23526.0, 23535.0, 23554.0, 23550.0, 23546.0, 23547.0, 23519.0, 23520.0, 23478.0, 23453.0, 23405.0, 23454.0, 23537.0, 23622.0, 23600.0, 23557.0, 23525.0, 23433.0, 23392.0, 23365.0, 23447.0, 23571.0, 23618.0, 23570.0, 23530.0, 23453.0, 23404.0, 23395.0, 23530.0, 23640.0, 23557.0, 23466.0, 23398.0, 23437.0, 23438.0, 23422.0, 23393.0, 23376.0, 23408.0, 23455.0, 23521.0, 23536.0, 23482.0, 23383.0, 23355.0, 23435.0, 23520.0, 23521.0, 23473.0, 23417.0, 23452.0, 23453.0, 23421.0, 23369.0, 23403.0, 23517.0, 23572.0, 23523.0, 23466.0, 23431.0, 23427.0, 23451.0, 23454.0, 23413.0, 23422.0, 23454.0, 23427.0, 23382.0, 23350.0, 23307.0, 23329.0, 23384.0, 23417.0, 23437.0, 23376.0, 23420.0, 23464.0, 23526.0, 23517.0, 23501.0, 23366.0, 23344.0, 23379.0, 23427.0, 23467.0, 23467.0, 23441.0, 23397.0, 23360.0, 23355.0, 23388.0, 23405.0, 23354.0, 23341.0, 23386.0, 23471.0, 23461.0, 23462.0, 23460.0, 23464.0, 23454.0, 23454.0, 23470.0, 23498.0, 23483.0, 23426.0, 23335.0, 23345.0, 23389.0, 23501.0, 23535.0, 23457.0, 23383.0, 23333.0, 23428.0, 23526.0, 23506.0, 23494.0, 23409.0, 23462.0, 23409.0, 23419.0, 23422.0, 23432.0, 23454.0, 23495.0, 23391.0, 23312.0, 23297.0, 23387.0, 23434.0, 23433.0, 23368.0, 23381.0, 23401.0, 23420.0, 23419.0, 23410.0, 23389.0, 23378.0, 23423.0, 23410.0, 23432.0, 23367.0, 23370.0, 23380.0, 23418.0, 23407.0, 23412.0, 23357.0, 23367.0, 23362.0, 23336.0, 23359.0, 23386.0, 23410.0, 23423.0, 23405.0, 23401.0, 23367.0, 23429.0, 23469.0, 23509.0, 23499.0, 23419.0, 23308.0, 23277.0, 23341.0, 23444.0, 23431.0, 23447.0, 23450.0, 23380.0, 23404.0, 23399.0, 23391.0, 23405.0, 23395.0, 23386.0]
    },
    "slices": {}
  }
}