{
  "AcquisitionMatrixPE": 104,
  "AcquisitionNumber": 1,
  "AcquisitionTime": "10:53:16.550000",
  "BandwidthPerPixelPhaseEncode": 17.17,
  "BaseResolution": 104,
  "BodyPartExamined": "BRAIN",
  "CoilString": "HC1-7;NC1_2",
  "ConsistencyInfo": "N4_VE11C_LATEST_20160120",
  "ConversionSoftware": "dcm2niix",
  "ConversionSoftwareVersion": "v1.0.20190902",
  "DerivedVendorReportedEchoSpacing": 0.000560011,
  "DeviceSerialNumber": "167006",
  "DwellTime": 2.1e-06,
  "EchoTime": 0.037,
  "EchoTrainLength": 104,
  "EffectiveEchoSpacing": 0.000560011,
  "FlipAngle": 52,
  "ImageComments": "Unaliased_MB4_PE3_LB",
  "ImageOrientationPatientDICOM": [0.999748, 0.0122423, 0.0188247, -0.00226835, 0.889087, -0.457734],
  "ImageType": [
    "ORIGINAL",
    "PRIMARY",
    "M",
    "MB",
    "ND",
    "MOSAIC"
],
  "ImagingFrequency": 123.259,
  "InPlanePhaseEncodingDirectionDICOM": "COL",
  "InstitutionAddress": "Chemin_Queen-Mary_4565_Montreal_District_CA_H3W_1W5",
  "InstitutionName": "IUGM",
  "InstitutionalDepartmentName": "Department",
  "MRAcquisitionType": "2D",
  "MagneticFieldStrength": 3,
  "Manufacturer": "Siemens",
  "ManufacturersModelName": "Prisma_fit",
  "Modality": "MR",
  "MultibandAccelerationFactor": 4,
  "PartialFourier": 1,
  "PatientPosition": "HFS",
  "PercentPhaseFOV": 100,
  "PhaseEncodingDirection": "j",
  "PhaseEncodingSteps": 104,
  "PhaseResolution": 1,
  "PixelBandwidth": 2290,
  "ProcedureStepDescription": "memory_things",
  "ProtocolName": "func_task-things_run-2",
  "PulseSequenceDetails": "%CustomerSeq%_cmrr_mbep2d_bold",
  "ReceiveCoilActiveElements": "HC1-7;NC1,2",
  "ReceiveCoilName": "HeadNeck_64",
  "ReconMatrixPE": 104,
  "RepetitionTime": 1.49,
  "SAR": 0.0476736,
  "ScanOptions": "FS",
  "ScanningSequence": "EP",
  "SequenceName": "epfid2d1_104",
  "SequenceVariant": "SK_SS",
  "SeriesDescription": "func_task-things_run-2",
  "SeriesNumber": 13,
  "ShimSetting": [623, -7189, -8863, 360, 13, -92, -21, -22],
  "SliceThickness": 2,
  "SliceTiming": [0, 0.785, 0.0975, 0.8825, 0.1975, 0.98, 0.295, 1.0775, 0.3925, 1.1775, 0.49, 1.275, 0.5875, 1.3725, 0.6875, 0, 0.785, 0.0975, 0.8825, 0.1975, 0.98, 0.295, 1.0775, 0.3925, 1.1775, 0.49, 1.275, 0.5875, 1.3725, 0.6875, 0, 0.785, 0.0975, 0.8825, 0.1975, 0.98, 0.295, 1.0775, 0.3925, 1.1775, 0.49, 1.275, 0.5875, 1.3725, 0.6875, 0, 0.785, 0.0975, 0.8825, 0.1975, 0.98, 0.295, 1.0775, 0.3925, 1.1775, 0.49, 1.275, 0.5875, 1.3725, 0.6875],
  "SoftwareVersions": "syngo_MR_E11",
  "SpacingBetweenSlices": 2,
  "StationName": "MRC35049",
  "TaskName": "things",
  "TotalReadoutTime": 0.0576811,
  "TxRefAmp": 268.19,
  "WipMemBlock": "5afc2ed6-cb0b-44dc-950c-6db0a48b82ed||Sequence: R016 ve11c/master r/e634e98; Dec 19 2017 11:00:25 by eja",
  "dcmmeta_affine": [
    [-1.9994957447052002, -0.004536708351224661, 0.04468095302581787, 106.13023376464844],
    [-0.024484604597091675, 1.7781730890274048, -0.9151508212089539, -55.400474548339844],
    [0.03764934837818146, 0.9154670238494873, 1.777780294418335, -96.76380157470703],
    [0.0, 0.0, 0.0, 1.0]
],
  "dcmmeta_reorient_transform": [
    [0.0, -1.0, 0.0, 103.0],
    [1.0, 0.0, 0.0, 0.0],
    [0.0, 0.0, 1.0, 0.0],
    [0.0, 0.0, 0.0, 1.0]
],
  "dcmmeta_shape": [104, 104, 60, 190],
  "dcmmeta_slice_dim": 2,
  "dcmmeta_version": 0.6,
  "global": {
    "const": {
      "AcquisitionMatrix": [104, 0, 0, 104],
      "AngioFlag": "N",
      "BitsAllocated": 16,
      "BitsStored": 16,
      "BodyPartExamined": "BRAIN",
      "Columns": 832,
      "EchoNumbers": 1,
      "EchoTime": 37.0,
      "EchoTrainLength": 104,
      "FlipAngle": 52.0,
      "HighBit": 15,
      "ImageOrientationPatient": [0.99974784705826, 0.0122423025362, 0.01882467346301, -0.0022683542092, 0.88908653908151, -0.4577335257475],
      "ImagePositionPatient": [-831.82802597917, -783.91874930211, 317.05495089782],
      "ImageType": [
        "ORIGINAL",
        "PRIMARY",
        "M",
        "MB",
        "ND",
        "MOSAIC"
],
      "ImagedNucleus": "1H",
      "ImagingFrequency": 123.258935,
      "InPlanePhaseEncodingDirection": "COL",
      "MRAcquisitionType": "2D",
      "MagneticFieldStrength": 3.0,
      "Manufacturer": "SIEMENS",
      "ManufacturerModelName": "Prisma_fit",
      "Modality": "MR",
      "NumberOfAverages": 1.0,
      "NumberOfPhaseEncodingSteps": 104,
      "PercentPhaseFieldOfView": 100.0,
      "PercentSampling": 100.0,
      "PerformedProcedureStepStartTime": "103523.433000",
      "PhotometricInterpretation": "MONOCHROME2",
      "PixelBandwidth": 2290.0,
      "PixelRepresentation": 0,
      "PixelSpacing": [2.0, 2.0],
      "ProtocolName": "func_task-things_run-2",
      "RepetitionTime": 1490.0,
      "Rows": 832,
      "SAR": 0.04767359533401,
      "SamplesPerPixel": 1,
      "ScanOptions": "FS",
      "ScanningSequence": "EP",
      "SequenceName": "epfid2d1_104",
      "SequenceVariant": [
        "SK",
        "SS"
],
      "SeriesDescription": "func_task-things_run-2",
      "SeriesNumber": 13,
      "SeriesTime": "105432.590000",
      "SliceLocation": -58.29149140233,
      "SliceThickness": 2.0,
      "SmallestImagePixelValue": 0,
      "SoftwareVersions": "syngo MR E11",
      "SpacingBetweenSlices": 2.0000000148559,
      "SpecificCharacterSet": "ISO_IR 100",
      "StudyID": "1",
      "StudyTime": "103523.318000",
      "TransmitCoilName": "Body",
      "VariableFlipAngleFlag": "N",
      "WindowCenterWidthExplanation": "Algo1",
      "dBdt": 0.0},
    "slices": {}
  },
  "time": {
    "samples": {
      "AcquisitionNumber": [1, 2, 3, 4, 5, 6, 7, 8, 9, 10, 11, 12, 13, 14, 15, 16, 17, 18, 19, 20, 21, 22, 23, 24, 25, 26, 27, 28, 29, 30, 31, 32, 33, 34, 35, 36, 37, 38, 39, 40, 41, 42, 43, 44, 45, 46, 47, 48, 49, 50, 51, 52, 53, 54, 55, 56, 57, 58, 59, 60, 61, 62, 63, 64, 65, 66, 67, 68, 69, 70, 71, 72, 73, 74, 75, 76, 77, 78, 79, 80, 81, 82, 83, 84, 85, 86, 87, 88, 89, 90, 91, 92, 93, 94, 95, 96, 97, 98, 99, 100, 101, 102, 103, 104, 105, 106, 107, 108, 109, 110, 111, 112, 113, 114, 115, 116, 117, 118, 119, 120, 121, 122, 123, 124, 125, 126, 127, 128, 129, 130, 131, 132, 133, 134, 135, 136, 137, 138, 139, 140, 141, 142, 143, 144, 145, 146, 147, 148, 149, 150, 151, 152, 153, 154, 155, 156, 157, 158, 159, 160, 161, 162, 163, 164, 165, 166, 167, 168, 169, 170, 171, 172, 173, 174, 175, 176, 177, 178, 179, 180, 181, 182, 183, 184, 185, 186, 187, 188, 189, 190],
      "AcquisitionTime": ["105316.550000", "105318.040000", "105319.530000", "105321.020000", "105322.510000", "105324.000000", "105325.490000", "105326.980000", "105328.470000", "105329.960000", "105331.450000", "105332.940000", "105334.430000", "105335.920000", "105337.410000", "105338.900000", "105340.390000", "105341.880000", "105343.370000", "105344.860000", "105346.350000", "105347.840000", "105349.330000", "105350.820000", "105352.310000", "105353.800000", "105355.290000", "105356.780000", "105358.270000", "105359.760000", "105401.250000", "105402.740000", "105404.230000", "105405.720000", "105407.210000", "105408.700000", "105410.190000", "105411.680000", "105413.170000", "105414.660000", "105416.150000", "105417.640000", "105419.130000", "105420.620000", "105422.110000", "105423.600000", "105425.090000", "105426.580000", "105428.070000", "105429.560000", "105431.050000", "105432.540000", "105434.030000", "105435.520000", "105437.010000", "105438.500000", "105439.990000", "105441.480000", "105442.970000", "105444.460000", "105445.950000", "105447.440000", "105448.930000", "105450.420000", "105451.910000", "105453.400000", "105454.890000", "105456.380000", "105457.870000", "105459.360000", "105500.850000", "105502.340000", "105503.830000", "105505.320000", "105506.810000", "105508.300000", "105509.790000", "105511.280000", "105512.770000", "105514.260000", "105515.750000", "105517.240000", "105518.730000", "105520.220000", "105521.710000", "105523.200000", "105524.690000", "105526.180000", "105527.670000", "105529.160000", "105530.650000", "105532.140000", "105533.630000", "105535.120000", "105536.610000", "105538.100000", "105539.590000", "105541.080000", "105542.570000", "105544.060000", "105545.550000", "105547.040000", "105548.530000", "105550.020000", "105551.510000", "105553.000000", "105554.490000", "105555.980000", "105557.470000", "105558.960000", "105600.450000", "105601.940000", "105603.430000", "105604.920000", "105606.410000", "105607.900000", "105609.390000", "105610.880000", "105612.370000", "105613.860000", "105615.350000", "105616.840000", "105618.330000", "105619.820000", "105621.310000", "105622.800000", "105624.290000", "105625.780000", "105627.270000", "105628.760000", "105630.250000", "105631.740000", "105633.230000", "105634.720000", "105636.210000", "105637.700000", "105639.190000", "105640.680000", "105642.170000", "105643.660000", "105645.150000", "105646.640000", "105648.130000", "105649.620000", "105651.110000", "105652.600000", "105654.090000", "105655.580000", "105657.070000", "105658.560000", "105700.050000", "105701.540000", "105703.030000", "105704.520000", "105706.010000", "105707.500000", "105708.990000", "105710.480000", "105711.970000", "105713.460000", "105714.950000", "105716.440000", "105717.930000", "105719.420000", "105720.910000", "105722.400000", "105723.890000", "105725.380000", "105726.870000", "105728.360000", "105729.850000", "105731.340000", "105732.830000", "105734.320000", "105735.810000", "105737.300000", "105738.790000", "105740.280000", "105741.770000", "105743.260000", "105744.750000", "105746.240000", "105747.730000", "105749.220000", "105750.710000", "105752.200000", "105753.690000", "105755.180000", "105756.670000", "105758.160000"],
      "ContentTime": ["105432.593000", "105432.597000", "105432.600000", "105432.609000", "105432.612000", "105432.615000", "105432.619000", "105432.622000", "105432.626000", "105432.629000", "105432.632000", "105432.636000", "105432.639000", "105432.643000", "105432.646000", "105432.649000", "105432.653000", "105432.656000", "105432.660000", "105432.663000", "105432.667000", "105452.550000", "105452.554000", "105452.557000", "105452.561000", "105452.564000", "105452.567000", "105452.571000", "105452.590000", "105452.593000", "105452.597000", "105452.600000", "105452.614000", "105452.617000", "105452.621000", "105452.624000", "105452.628000", "105452.631000", "105452.634000", "105452.638000", "105452.641000", "105512.550000", "105512.554000", "105512.557000", "105512.561000", "105512.564000", "105512.568000", "105512.571000", "105512.574000", "105512.578000", "105512.581000", "105512.585000", "105512.600000", "105512.603000", "105512.606000", "105512.610000", "105512.613000", "105512.617000", "105512.620000", "105512.623000", "105512.627000", "105532.551000", "105532.555000", "105532.558000", "105532.562000", "105532.565000", "105532.569000", "105532.572000", "105532.576000", "105532.579000", "105532.583000", "105532.586000", "105532.589000", "105532.593000", "105532.596000", "105532.600000", "105532.603000", "105532.606000", "105532.610000", "105532.613000", "105532.617000", "105552.551000", "105552.555000", "105552.558000", "105552.562000", "105552.565000", "105552.569000", "105552.572000", "105552.577000", "105552.580000", "105552.584000", "105552.588000", "105552.591000", "105552.596000", "105552.600000", "105552.604000", "105552.607000", "105552.611000", "105552.614000", "105552.618000", "105552.621000", "105632.551000", "105632.555000", "105632.558000", "105632.562000", "105632.565000", "105632.569000", "105632.572000", "105632.576000", "105632.579000", "105632.583000", "105632.586000", "105632.590000", "105632.593000", "105632.596000", "105632.600000", "105632.617000", "105632.621000", "105632.624000", "105632.628000", "105632.631000", "105632.635000", "105632.638000", "105632.641000", "105632.645000", "105632.648000", "105632.652000", "105632.655000", "105632.659000", "105632.662000", "105632.666000", "105712.550000", "105712.554000", "105712.558000", "105712.561000", "105712.564000", "105712.568000", "105712.571000", "105712.582000", "105712.585000", "105712.589000", "105712.592000", "105712.596000", "105712.599000", "105712.603000", "105712.606000", "105712.610000", "105712.613000", "105712.616000", "105712.620000", "105712.623000", "105712.627000", "105712.630000", "105712.634000", "105712.637000", "105712.640000", "105712.644000", "105712.647000", "105752.551000", "105752.555000", "105752.558000", "105752.562000", "105752.565000", "105752.569000", "105752.572000", "105752.575000", "105752.580000", "105752.584000", "105752.588000", "105752.591000", "105752.594000", "105752.598000", "105752.601000", "105752.604000", "105752.608000", "105752.611000", "105752.615000", "105752.618000", "105752.622000", "105752.625000", "105752.628000", "105752.632000", "105752.635000", "105752.639000", "105800.232000", "105800.235000", "105800.239000", "105800.243000", "105800.246000", "105800.250000"],
      "InstanceCreationTime": ["105432.593000", "105432.597000", "105432.600000", "105432.609000", "105432.612000", "105432.615000", "105432.619000", "105432.622000", "105432.626000", "105432.629000", "105432.632000", "105432.636000", "105432.639000", "105432.643000", "105432.646000", "105432.649000", "105432.653000", "105432.656000", "105432.660000", "105432.663000", "105432.667000", "105452.550000", "105452.554000", "105452.557000", "105452.561000", "105452.564000", "105452.567000", "105452.571000", "105452.590000", "105452.593000", "105452.597000", "105452.600000", "105452.614000", "105452.617000", "105452.621000", "105452.624000", "105452.628000", "105452.631000", "105452.634000", "105452.638000", "105452.641000", "105512.550000", "105512.554000", "105512.557000", "105512.561000", "105512.564000", "105512.568000", "105512.571000", "105512.574000", "105512.578000", "105512.581000", "105512.585000", "105512.600000", "105512.603000", "105512.606000", "105512.610000", "105512.613000", "105512.617000", "105512.620000", "105512.623000", "105512.627000", "105532.551000", "105532.555000", "105532.558000", "105532.562000", "105532.565000", "105532.569000", "105532.572000", "105532.576000", "105532.579000", "105532.583000", "105532.586000", "105532.589000", "105532.593000", "105532.596000", "105532.600000", "105532.603000", "105532.606000", "105532.610000", "105532.613000", "105532.617000", "105552.551000", "105552.555000", "105552.558000", "105552.562000", "105552.565000", "105552.569000", "105552.572000", "105552.577000", "105552.580000", "105552.584000", "105552.588000", "105552.591000", "105552.596000", "105552.600000", "105552.604000", "105552.607000", "105552.611000", "105552.614000", "105552.618000", "105552.621000", "105632.551000", "105632.555000", "105632.558000", "105632.562000", "105632.565000", "105632.569000", "105632.572000", "105632.576000", "105632.579000", "105632.583000", "105632.586000", "105632.590000", "105632.593000", "105632.596000", "105632.600000", "105632.617000", "105632.621000", "105632.624000", "105632.628000", "105632.631000", "105632.635000", "105632.638000", "105632.641000", "105632.645000", "105632.648000", "105632.652000", "105632.655000", "105632.659000", "105632.662000", "105632.666000", "105712.550000", "105712.554000", "105712.558000", "105712.561000", "105712.564000", "105712.568000", "105712.571000", "105712.582000", "105712.585000", "105712.589000", "105712.592000", "105712.596000", "105712.599000", "105712.603000", "105712.606000", "105712.610000", "105712.613000", "105712.616000", "105712.620000", "105712.623000", "105712.627000", "105712.630000", "105712.634000", "105712.637000", "105712.640000", "105712.644000", "105712.647000", "105752.551000", "105752.555000", "105752.558000", "105752.562000", "105752.565000", "105752.569000", "105752.572000", "105752.575000", "105752.580000", "105752.584000", "105752.588000", "105752.591000", "105752.594000", "105752.598000", "105752.601000", "105752.604000", "105752.608000", "105752.611000", "105752.615000", "105752.618000", "105752.622000", "105752.625000", "105752.628000", "105752.632000", "105752.635000", "105752.639000", "105800.232000", "105800.235000", "105800.239000", "105800.243000", "105800.246000", "105800.250000"],
      "InstanceNumber": [1, 2, 3, 4, 5, 6, 7, 8, 9, 10, 11, 12, 13, 14, 15, 16, 17, 18, 19, 20, 21, 22, 23, 24, 25, 26, 27, 28, 29, 30, 31, 32, 33, 34, 35, 36, 37, 38, 39, 40, 41, 42, 43, 44, 45, 46, 47, 48, 49, 50, 51, 52, 53, 54, 55, 56, 57, 58, 59, 60, 61, 62, 63, 64, 65, 66, 67, 68, 69, 70, 71, 72, 73, 74, 75, 76, 77, 78, 79, 80, 81, 82, 83, 84, 85, 86, 87, 88, 89, 90, 91, 92, 93, 94, 95, 96, 97, 98, 99, 100, 101, 102, 103, 104, 105, 106, 107, 108, 109, 110, 111, 112, 113, 114, 115, 116, 117, 118, 119, 120, 121, 122, 123, 124, 125, 126, 127, 128, 129, 130, 131, 132, 133, 134, 135, 136, 137, 138, 139, 140, 141, 142, 143, 144, 145, 146, 147, 148, 149, 150, 151, 152, 153, 154, 155, 156, 157, 158, 159, 160, 161, 162, 163, 164, 165, 166, 167, 168, 169, 170, 171, 172, 173, 174, 175, 176, 177, 178, 179, 180, 181, 182, 183, 184, 185, 186, 187, 188, 189, 190],
      "LargestImagePixelValue": [47660, 45555, 46453, 45217, 44871, 44106, 43984, 47272, 46833, 45856, 45423, 43612, 44273, 42984, 44236, 43109, 44444, 43979, 45459, 43591, 44136, 46728, 44196, 45744, 45303, 43278, 44941, 43709, 43813, 44661, 43957, 45475, 44039, 44454, 43487, 44143, 43800, 43065, 44753, 43442, 44756, 44404, 43698, 44497, 42650, 44285, 43675, 44925, 43639, 44561, 44648, 43427, 44118, 44132, 43456, 43122, 43423, 43948, 42962, 46117, 43605, 44580, 43530, 43929, 42681, 43641, 42907, 43674, 43182, 44270, 43460, 43897, 46511, 45018, 45045, 44004, 43762, 43155, 43393, 43266, 43031, 45112, 42918, 45063, 45698, 44310, 45556, 43427, 44452, 42525, 43055, 43066, 43401, 45257, 43834, 45536, 44921, 42652, 43514, 45203, 46878, 43877, 42708, 43639, 43223, 43574, 42894, 43161, 44887, 44963, 44312, 45103, 43172, 43380, 46423, 46219, 44994, 45152, 43114, 44810, 43997, 43030, 44219, 43320, 44620, 43777, 44539, 43920, 44786, 44221, 44406, 42784, 45333, 45518, 44717, 43361, 44595, 43796, 44876, 43283, 44796, 44131, 43369, 45493, 44068, 45175, 44088, 44445, 44305, 43226, 44060, 43618, 44851, 44266, 44655, 43690, 44505, 42821, 44413, 44009, 44741, 43859, 44498, 43567, 44073, 43742, 44549, 44124, 44833, 43103, 44216, 44538, 43837, 42929, 43511, 42199, 43242, 43361, 42962, 43152, 43796, 43381, 43345, 43369, 43438, 42692, 44629, 46657, 45738, 44066],
      "WindowCenter": [11086.0, 10999.0, 10986.0, 10992.0, 11007.0, 10988.0, 11016.0, 11073.0, 11019.0, 10984.0, 10975.0, 10975.0, 10984.0, 10976.0, 10977.0, 10958.0, 10964.0, 10957.0, 10962.0, 10948.0, 10989.0, 11032.0, 11002.0, 10988.0, 10992.0, 10979.0, 11001.0, 10976.0, 10972.0, 11000.0, 10994.0, 11000.0, 10974.0, 10954.0, 10940.0, 10943.0, 10938.0, 10927.0, 10938.0, 10938.0, 10956.0, 10956.0, 10956.0, 10958.0, 10951.0, 10985.0, 10989.0, 10984.0, 10972.0, 10983.0, 10985.0, 10975.0, 10981.0, 10972.0, 10953.0, 10942.0, 10958.0, 10957.0, 10956.0, 10965.0, 10935.0, 10966.0, 10972.0, 10973.0, 10937.0, 10937.0, 10919.0, 10937.0, 10938.0, 10962.0, 10950.0, 10974.0, 11019.0, 10982.0, 10965.0, 10927.0, 10924.0, 10943.0, 10982.0, 10973.0, 10956.0, 10956.0, 10931.0, 10967.0, 10983.0, 10964.0, 10978.0, 10950.0, 10928.0, 10901.0, 10934.0, 10946.0, 10968.0, 10990.0, 10966.0, 10957.0, 10910.0, 10905.0, 10969.0, 11023.0, 11021.0, 10958.0, 10945.0, 10954.0, 10946.0, 10926.0, 10901.0, 10916.0, 10941.0, 10955.0, 10934.0, 10946.0, 10942.0, 10969.0, 11007.0, 10983.0, 10963.0, 10978.0, 10978.0, 10997.0, 10968.0, 10933.0, 10937.0, 10915.0, 10926.0, 10922.0, 10932.0, 10924.0, 10938.0, 10935.0, 10919.0, 10908.0, 10981.0, 11010.0, 11007.0, 10993.0, 10993.0, 10973.0, 10973.0, 10946.0, 10945.0, 10948.0, 10954.0, 10967.0, 10931.0, 10954.0, 10963.0, 10961.0, 10931.0, 10886.0, 10898.0, 10922.0, 10973.0, 10970.0, 10932.0, 10930.0, 10933.0, 10902.0, 10905.0, 10912.0, 10952.0, 10949.0, 10944.0, 10932.0, 10930.0, 10930.0, 10927.0, 10929.0, 10931.0, 10926.0, 10936.0, 10928.0, 10921.0, 10919.0, 10913.0, 10906.0, 10940.0, 10943.0, 10929.0, 10924.0, 10923.0, 10918.0, 10917.0, 10910.0, 10889.0, 10919.0, 10973.0, 11002.0, 10964.0, 10930.0],
      "WindowWidth": [23920.0, 23690.0, 23631.0, 23642.0, 23677.0, 23627.0, 23691.0, 23807.0, 23686.0, 23605.0, 23582.0, 23589.0, 23610.0, 23595.0, 23592.0, 23551.0, 23558.0, 23544.0, 23549.0, 23528.0, 23620.0, 23709.0, 23654.0, 23612.0, 23619.0, 23601.0, 23645.0, 23594.0, 23582.0, 23640.0, 23629.0, 23635.0, 23581.0, 23535.0, 23505.0, 23509.0, 23501.0, 23480.0, 23497.0, 23504.0, 23542.0, 23544.0, 23547.0, 23549.0, 23538.0, 23611.0, 23624.0, 23605.0, 23579.0, 23603.0, 23608.0, 23591.0, 23599.0, 23580.0, 23539.0, 23515.0, 23548.0, 23546.0, 23552.0, 23561.0, 23497.0, 23568.0, 23582.0, 23586.0, 23504.0, 23500.0, 23461.0, 23496.0, 23501.0, 23554.0, 23534.0, 23586.0, 23683.0, 23601.0, 23562.0, 23482.0, 23470.0, 23513.0, 23603.0, 23586.0, 23546.0, 23535.0, 23490.0, 23565.0, 23597.0, 23562.0, 23588.0, 23533.0, 23483.0, 23423.0, 23495.0, 23524.0, 23571.0, 23615.0, 23566.0, 23544.0, 23437.0, 23433.0, 23574.0, 23694.0, 23679.0, 23549.0, 23522.0, 23539.0, 23520.0, 23470.0, 23415.0, 23448.0, 23503.0, 23533.0, 23492.0, 23514.0, 23516.0, 23582.0, 23654.0, 23596.0, 23556.0, 23591.0, 23594.0, 23632.0, 23568.0, 23490.0, 23490.0, 23449.0, 23467.0, 23463.0, 23484.0, 23468.0, 23497.0, 23493.0, 23460.0, 23435.0, 23595.0, 23665.0, 23657.0, 23632.0, 23625.0, 23583.0, 23579.0, 23523.0, 23515.0, 23526.0, 23541.0, 23566.0, 23486.0, 23534.0, 23558.0, 23551.0, 23484.0, 23387.0, 23405.0, 23463.0, 23574.0, 23575.0, 23479.0, 23478.0, 23486.0, 23422.0, 23423.0, 23438.0, 23528.0, 23529.0, 23513.0, 23490.0, 23483.0, 23484.0, 23474.0, 23482.0, 23482.0, 23476.0, 23497.0, 23481.0, 23465.0, 23467.0, 23450.0, 23437.0, 23509.0, 23517.0, 23485.0, 23470.0, 23468.0, 23458.0, 23455.0, 23441.0, 23391.0, 23462.0, 23584.0, 23645.0, 23561.0, 23486.0]
    },
    "slices": {}
  }
}