{
  "AcquisitionMatrixPE": 104,
  "AcquisitionNumber": 1,
  "AcquisitionTime": "11:18:10.045000",
  "BandwidthPerPixelPhaseEncode": 17.17,
  "BaseResolution": 104,
  "BodyPartExamined": "BRAIN",
  "CoilString": "HC1-7;NC1_2",
  "ConsistencyInfo": "N4_VE11C_LATEST_20160120",
  "ConversionSoftware": "dcm2niix",
  "ConversionSoftwareVersion": "v1.0.20190902",
  "DerivedVendorReportedEchoSpacing": 0.000560011,
  "DeviceSerialNumber": "167006",
  "DwellTime": 2.1e-06,
  "EchoTime": 0.037,
  "EchoTrainLength": 104,
  "EffectiveEchoSpacing": 0.000560011,
  "FlipAngle": 52,
  "ImageComments": "Unaliased_MB4_PE3_LB",
  "ImageOrientationPatientDICOM": [0.999748, 0.0122423, 0.0188247, -0.00226835, 0.889087, -0.457734],
  "ImageType": [
    "ORIGINAL",
    "PRIMARY",
    "P",
    "MB",
    "ND",
    "MOSAIC"
],
  "ImagingFrequency": 123.259,
  "InPlanePhaseEncodingDirectionDICOM": "COL",
  "InstitutionAddress": "Chemin_Queen-Mary_4565_Montreal_District_CA_H3W_1W5",
  "InstitutionName": "IUGM",
  "InstitutionalDepartmentName": "Department",
  "MRAcquisitionType": "2D",
  "MagneticFieldStrength": 3,
  "Manufacturer": "Siemens",
  "ManufacturersModelName": "Prisma_fit",
  "Modality": "MR",
  "MultibandAccelerationFactor": 4,
  "PartialFourier": 1,
  "PatientPosition": "HFS",
  "PercentPhaseFOV": 100,
  "PhaseEncodingDirection": "j",
  "PhaseEncodingSteps": 104,
  "PhaseResolution": 1,
  "PixelBandwidth": 2290,
  "ProcedureStepDescription": "memory_things",
  "ProtocolName": "func_task-things_run-6",
  "PulseSequenceDetails": "%CustomerSeq%_cmrr_mbep2d_bold",
  "ReceiveCoilActiveElements": "HC1-7;NC1,2",
  "ReceiveCoilName": "HeadNeck_64",
  "ReconMatrixPE": 104,
  "RepetitionTime": 1.49,
  "SAR": 0.0476736,
  "ScanOptions": "FS",
  "ScanningSequence": "EP",
  "SequenceName": "epfid2d1_104",
  "SequenceVariant": "SK_SS",
  "SeriesDescription": "func_task-things_run-6",
  "SeriesNumber": 26,
  "ShimSetting": [623, -7189, -8863, 360, 13, -92, -21, -22],
  "SliceThickness": 2,
  "SliceTiming": [0, 0.7825, 0.0975, 0.8825, 0.195, 0.98, 0.2925, 1.0775, 0.3925, 1.175, 0.49, 1.2725, 0.5875, 1.3725, 0.685, 0, 0.7825, 0.0975, 0.8825, 0.195, 0.98, 0.2925, 1.0775, 0.3925, 1.175, 0.49, 1.2725, 0.5875, 1.3725, 0.685, 0, 0.7825, 0.0975, 0.8825, 0.195, 0.98, 0.2925, 1.0775, 0.3925, 1.175, 0.49, 1.2725, 0.5875, 1.3725, 0.685, 0, 0.7825, 0.0975, 0.8825, 0.195, 0.98, 0.2925, 1.0775, 0.3925, 1.175, 0.49, 1.2725, 0.5875, 1.3725, 0.685],
  "SoftwareVersions": "syngo_MR_E11",
  "SpacingBetweenSlices": 2,
  "StationName": "MRC35049",
  "TaskName": "things",
  "TotalReadoutTime": 0.0576811,
  "TxRefAmp": 268.19,
  "WipMemBlock": "9274520b-3c4f-41ba-89e1-48387170d4f6||Sequence: R016 ve11c/master r/e634e98; Dec 19 2017 11:00:25 by eja",
  "dcmmeta_affine": [
    [-1.9994957447052002, -0.004536708351224661, 0.04468095302581787, 106.13023376464844],
    [-0.024484604597091675, 1.7781730890274048, -0.9151508212089539, -55.400474548339844],
    [0.03764934837818146, 0.9154670238494873, 1.777780294418335, -96.76380157470703],
    [0.0, 0.0, 0.0, 1.0]
],
  "dcmmeta_reorient_transform": [
    [0.0, -1.0, 0.0, 103.0],
    [1.0, 0.0, 0.0, 0.0],
    [0.0, 0.0, 1.0, 0.0],
    [0.0, 0.0, 0.0, 1.0]
],
  "dcmmeta_shape": [104, 104, 60, 190],
  "dcmmeta_slice_dim": 2,
  "dcmmeta_version": 0.6,
  "global": {
    "const": {
      "AcquisitionMatrix": [104, 0, 0, 104],
      "AngioFlag": "N",
      "BitsAllocated": 16,
      "BitsStored": 16,
      "BodyPartExamined": "BRAIN",
      "Columns": 832,
      "EchoNumbers": 1,
      "EchoTime": 37.0,
      "EchoTrainLength": 104,
      "FlipAngle": 52.0,
      "HighBit": 15,
      "ImageOrientationPatient": [0.99974784705826, 0.0122423025362, 0.01882467346301, -0.0022683542092, 0.88908653908151, -0.4577335257475],
      "ImagePositionPatient": [-831.82802597917, -783.91874930211, 317.05495089782],
      "ImageType": [
        "ORIGINAL",
        "PRIMARY",
        "P",
        "MB",
        "ND",
        "MOSAIC"
],
      "ImagedNucleus": "1H",
      "ImagingFrequency": 123.258946,
      "InPlanePhaseEncodingDirection": "COL",
      "LargestImagePixelValue": 4095,
      "MRAcquisitionType": "2D",
      "MagneticFieldStrength": 3.0,
      "Manufacturer": "SIEMENS",
      "ManufacturerModelName": "Prisma_fit",
      "Modality": "MR",
      "NumberOfAverages": 1.0,
      "NumberOfPhaseEncodingSteps": 104,
      "PercentPhaseFieldOfView": 100.0,
      "PercentSampling": 100.0,
      "PerformedProcedureStepStartTime": "103523.433000",
      "PhotometricInterpretation": "MONOCHROME2",
      "PixelBandwidth": 2290.0,
      "PixelRepresentation": 0,
      "PixelSpacing": [2.0, 2.0],
      "ProtocolName": "func_task-things_run-6",
      "RepetitionTime": 1490.0,
      "RescaleIntercept": -4096.0,
      "RescaleSlope": 2.0,
      "RescaleType": "US",
      "Rows": 832,
      "SAR": 0.04767359533401,
      "SamplesPerPixel": 1,
      "ScanOptions": "FS",
      "ScanningSequence": "EP",
      "SequenceName": "epfid2d1_104",
      "SequenceVariant": [
        "SK",
        "SS"
],
      "SeriesDescription": "func_task-things_run-6",
      "SeriesNumber": 26,
      "SeriesTime": "111932.795000",
      "SliceLocation": -58.29149140233,
      "SliceThickness": 2.0,
      "SmallestImagePixelValue": 0,
      "SoftwareVersions": "syngo MR E11",
      "SpacingBetweenSlices": 2.0000000148559,
      "SpecificCharacterSet": "ISO_IR 100",
      "StudyID": "1",
      "StudyTime": "103523.318000",
      "TransmitCoilName": "Body",
      "VariableFlipAngleFlag": "N",
      "WindowCenterWidthExplanation": "Algo1",
      "dBdt": 0.0},
    "slices": {}
  },
  "time": {
    "samples": {
      "AcquisitionNumber": [1, 2, 3, 4, 5, 6, 7, 8, 9, 10, 11, 12, 13, 14, 15, 16, 17, 18, 19, 20, 21, 22, 23, 24, 25, 26, 27, 28, 29, 30, 31, 32, 33, 34, 35, 36, 37, 38, 39, 40, 41, 42, 43, 44, 45, 46, 47, 48, 49, 50, 51, 52, 53, 54, 55, 56, 57, 58, 59, 60, 61, 62, 63, 64, 65, 66, 67, 68, 69, 70, 71, 72, 73, 74, 75, 76, 77, 78, 79, 80, 81, 82, 83, 84, 85, 86, 87, 88, 89, 90, 91, 92, 93, 94, 95, 96, 97, 98, 99, 100, 101, 102, 103, 104, 105, 106, 107, 108, 109, 110, 111, 112, 113, 114, 115, 116, 117, 118, 119, 120, 121, 122, 123, 124, 125, 126, 127, 128, 129, 130, 131, 132, 133, 134, 135, 136, 137, 138, 139, 140, 141, 142, 143, 144, 145, 146, 147, 148, 149, 150, 151, 152, 153, 154, 155, 156, 157, 158, 159, 160, 161, 162, 163, 164, 165, 166, 167, 168, 169, 170, 171, 172, 173, 174, 175, 176, 177, 178, 179, 180, 181, 182, 183, 184, 185, 186, 187, 188, 189, 190],
      "AcquisitionTime": ["111810.045000", "111811.535000", "111813.025000", "111814.515000", "111816.005000", "111817.495000", "111818.985000", "111820.475000", "111821.965000", "111823.455000", "111824.945000", "111826.435000", "111827.925000", "111829.415000", "111830.905000", "111832.395000", "111833.885000", "111835.375000", "111836.865000", "111838.355000", "111839.845000", "111841.335000", "111842.825000", "111844.315000", "111845.805000", "111847.295000", "111848.785000", "111850.275000", "111851.765000", "111853.255000", "111854.745000", "111856.235000", "111857.725000", "111859.215000", "111900.705000", "111902.195000", "111903.685000", "111905.175000", "111906.665000", "111908.155000", "111909.645000", "111911.135000", "111912.625000", "111914.115000", "111915.605000", "111917.095000", "111918.585000", "111920.075000", "111921.565000", "111923.055000", "111924.545000", "111926.035000", "111927.525000", "111929.015000", "111930.505000", "111931.995000", "111933.485000", "111934.975000", "111936.465000", "111937.955000", "111939.445000", "111940.935000", "111942.425000", "111943.915000", "111945.405000", "111946.895000", "111948.385000", "111949.875000", "111951.365000", "111952.855000", "111954.345000", "111955.835000", "111957.325000", "111958.815000", "112000.305000", "112001.795000", "112003.285000", "112004.775000", "112006.265000", "112007.755000", "112009.245000", "112010.735000", "112012.225000", "112013.715000", "112015.205000", "112016.695000", "112018.185000", "112019.675000", "112021.165000", "112022.655000", "112024.145000", "112025.635000", "112027.125000", "112028.615000", "112030.105000", "112031.595000", "112033.085000", "112034.575000", "112036.065000", "112037.555000", "112039.045000", "112040.535000", "112042.025000", "112043.515000", "112045.005000", "112046.495000", "112047.985000", "112049.475000", "112050.965000", "112052.455000", "112053.945000", "112055.435000", "112056.925000", "112058.415000", "112059.905000", "112101.395000", "112102.885000", "112104.375000", "112105.865000", "112107.355000", "112108.845000", "112110.335000", "112111.825000", "112113.315000", "112114.805000", "112116.295000", "112117.785000", "112119.275000", "112120.765000", "112122.255000", "112123.745000", "112125.235000", "112126.725000", "112128.215000", "112129.705000", "112131.195000", "112132.685000", "112134.175000", "112135.665000", "112137.155000", "112138.645000", "112140.135000", "112141.625000", "112143.115000", "112144.605000", "112146.095000", "112147.585000", "112149.075000", "112150.565000", "112152.055000", "112153.545000", "112155.035000", "112156.525000", "112158.015000", "112159.505000", "112200.995000", "112202.485000", "112203.975000", "112205.465000", "112206.955000", "112208.445000", "112209.935000", "112211.425000", "112212.915000", "112214.405000", "112215.895000", "112217.385000", "112218.875000", "112220.365000", "112221.855000", "112223.345000", "112224.835000", "112226.325000", "112227.815000", "112229.305000", "112230.795000", "112232.285000", "112233.775000", "112235.265000", "112236.755000", "112238.245000", "112239.735000", "112241.225000", "112242.715000", "112244.205000", "112245.695000", "112247.185000", "112248.675000", "112250.165000", "112251.655000"],
      "ContentTime": ["111932.797000", "111932.800000", "111932.803000", "111932.805000", "111932.808000", "111932.810000", "111932.813000", "111932.816000", "111932.818000", "111932.821000", "111932.823000", "111932.826000", "111932.828000", "111932.831000", "111932.834000", "111932.836000", "111932.839000", "111932.847000", "111932.850000", "111932.852000", "111932.855000", "111932.858000", "111932.860000", "111932.863000", "111932.865000", "111932.868000", "111932.871000", "111932.873000", "111932.876000", "111952.709000", "111952.712000", "111952.714000", "111952.717000", "111952.719000", "111952.722000", "111952.725000", "111952.727000", "111952.730000", "111952.733000", "111952.736000", "111952.739000", "111952.742000", "111952.744000", "111952.747000", "111952.750000", "111952.752000", "111952.755000", "111952.757000", "111952.760000", "112012.702000", "112012.705000", "112012.707000", "112012.710000", "112012.713000", "112012.715000", "112012.718000", "112012.720000", "112012.723000", "112012.726000", "112012.728000", "112012.731000", "112012.733000", "112012.736000", "112012.738000", "112012.741000", "112012.744000", "112012.746000", "112012.749000", "112012.751000", "112032.737000", "112032.749000", "112032.752000", "112032.754000", "112032.757000", "112032.760000", "112032.762000", "112032.765000", "112032.767000", "112032.770000", "112032.772000", "112032.775000", "112032.778000", "112032.780000", "112032.783000", "112032.786000", "112032.788000", "112032.791000", "112032.793000", "112032.796000", "112112.774000", "112112.776000", "112112.779000", "112112.782000", "112112.784000", "112112.787000", "112112.790000", "112112.792000", "112112.795000", "112112.797000", "112112.800000", "112112.803000", "112112.805000", "112112.808000", "112112.810000", "112112.813000", "112112.816000", "112112.818000", "112112.821000", "112112.824000", "112112.826000", "112112.829000", "112112.831000", "112112.834000", "112112.837000", "112112.839000", "112112.842000", "112112.845000", "112112.847000", "112112.850000", "112112.852000", "112112.855000", "112112.858000", "112152.752000", "112152.755000", "112152.757000", "112152.760000", "112152.763000", "112152.765000", "112152.768000", "112152.771000", "112152.773000", "112152.776000", "112152.779000", "112152.781000", "112152.784000", "112152.786000", "112152.789000", "112152.792000", "112152.794000", "112152.797000", "112152.800000", "112152.802000", "112152.805000", "112152.808000", "112152.810000", "112152.813000", "112152.816000", "112152.818000", "112152.821000", "112232.731000", "112232.735000", "112232.739000", "112232.743000", "112232.746000", "112232.749000", "112232.752000", "112232.755000", "112232.758000", "112232.760000", "112232.763000", "112232.766000", "112232.768000", "112232.771000", "112232.774000", "112232.776000", "112232.779000", "112232.782000", "112232.784000", "112232.787000", "112232.789000", "112232.792000", "112232.795000", "112232.797000", "112232.800000", "112232.802000", "112253.761000", "112253.764000", "112253.767000", "112253.800000", "112253.803000", "112253.806000", "112253.808000", "112253.811000", "112253.814000", "112253.816000", "112253.819000", "112253.821000", "112253.824000", "112253.827000", "112253.829000"],
      "InstanceCreationTime": ["111932.797000", "111932.800000", "111932.803000", "111932.805000", "111932.808000", "111932.810000", "111932.813000", "111932.816000", "111932.818000", "111932.821000", "111932.823000", "111932.826000", "111932.828000", "111932.831000", "111932.834000", "111932.836000", "111932.839000", "111932.847000", "111932.850000", "111932.852000", "111932.855000", "111932.858000", "111932.860000", "111932.863000", "111932.865000", "111932.868000", "111932.871000", "111932.873000", "111932.876000", "111952.709000", "111952.712000", "111952.714000", "111952.717000", "111952.719000", "111952.722000", "111952.725000", "111952.727000", "111952.730000", "111952.733000", "111952.736000", "111952.739000", "111952.742000", "111952.744000", "111952.747000", "111952.750000", "111952.752000", "111952.755000", "111952.757000", "111952.760000", "112012.702000", "112012.705000", "112012.707000", "112012.710000", "112012.713000", "112012.715000", "112012.718000", "112012.720000", "112012.723000", "112012.726000", "112012.728000", "112012.731000", "112012.733000", "112012.736000", "112012.738000", "112012.741000", "112012.744000", "112012.746000", "112012.749000", "112012.751000", "112032.737000", "112032.749000", "112032.752000", "112032.754000", "112032.757000", "112032.760000", "112032.762000", "112032.765000", "112032.767000", "112032.770000", "112032.772000", "112032.775000", "112032.778000", "112032.780000", "112032.783000", "112032.786000", "112032.788000", "112032.791000", "112032.793000", "112032.796000", "112112.774000", "112112.776000", "112112.779000", "112112.782000", "112112.784000", "112112.787000", "112112.790000", "112112.792000", "112112.795000", "112112.797000", "112112.800000", "112112.803000", "112112.805000", "112112.808000", "112112.810000", "112112.813000", "112112.816000", "112112.818000", "112112.821000", "112112.824000", "112112.826000", "112112.829000", "112112.831000", "112112.834000", "112112.837000", "112112.839000", "112112.842000", "112112.845000", "112112.847000", "112112.850000", "112112.852000", "112112.855000", "112112.858000", "112152.752000", "112152.755000", "112152.757000", "112152.760000", "112152.763000", "112152.765000", "112152.768000", "112152.771000", "112152.773000", "112152.776000", "112152.779000", "112152.781000", "112152.784000", "112152.786000", "112152.789000", "112152.792000", "112152.794000", "112152.797000", "112152.800000", "112152.802000", "112152.805000", "112152.808000", "112152.810000", "112152.813000", "112152.816000", "112152.818000", "112152.821000", "112232.731000", "112232.735000", "112232.739000", "112232.743000", "112232.746000", "112232.749000", "112232.752000", "112232.755000", "112232.758000", "112232.760000", "112232.763000", "112232.766000", "112232.768000", "112232.771000", "112232.774000", "112232.776000", "112232.779000", "112232.782000", "112232.784000", "112232.787000", "112232.789000", "112232.792000", "112232.795000", "112232.797000", "112232.800000", "112232.802000", "112253.761000", "112253.764000", "112253.767000", "112253.800000", "112253.803000", "112253.806000", "112253.808000", "112253.811000", "112253.814000", "112253.816000", "112253.819000", "112253.821000", "112253.824000", "112253.827000", "112253.829000"],
      "InstanceNumber": [1, 2, 3, 4, 5, 6, 7, 8, 9, 10, 11, 12, 13, 14, 15, 16, 17, 18, 19, 20, 21, 22, 23, 24, 25, 26, 27, 28, 29, 30, 31, 32, 33, 34, 35, 36, 37, 38, 39, 40, 41, 42, 43, 44, 45, 46, 47, 48, 49, 50, 51, 52, 53, 54, 55, 56, 57, 58, 59, 60, 61, 62, 63, 64, 65, 66, 67, 68, 69, 70, 71, 72, 73, 74, 75, 76, 77, 78, 79, 80, 81, 82, 83, 84, 85, 86, 87, 88, 89, 90, 91, 92, 93, 94, 95, 96, 97, 98, 99, 100, 101, 102, 103, 104, 105, 106, 107, 108, 109, 110, 111, 112, 113, 114, 115, 116, 117, 118, 119, 120, 121, 122, 123, 124, 125, 126, 127, 128, 129, 130, 131, 132, 133, 134, 135, 136, 137, 138, 139, 140, 141, 142, 143, 144, 145, 146, 147, 148, 149, 150, 151, 152, 153, 154, 155, 156, 157, 158, 159, 160, 161, 162, 163, 164, 165, 166, 167, 168, 169, 170, 171, 172, 173, 174, 175, 176, 177, 178, 179, 180, 181, 182, 183, 184, 185, 186, 187, 188, 189, 190],
      "WindowCenter": [4704.0, 4704.0, 4702.0, 4704.0, 4688.0, 4710.0, 4698.0, 4676.0, 4722.0, 4772.0, 4776.0, 4770.0, 4722.0, 4684.0, 4712.0, 4710.0, 4696.0, 4684.0, 4698.0, 4692.0, 4672.0, 4674.0, 4742.0, 4808.0, 4810.0, 4776.0, 4722.0, 4706.0, 4696.0, 4752.0, 4792.0, 4746.0, 4682.0, 4744.0, 4872.0, 4878.0, 4840.0, 4748.0, 4708.0, 4790.0, 4784.0, 4710.0, 4680.0, 4746.0, 4810.0, 4836.0, 4774.0, 4700.0, 4694.0, 4702.0, 4698.0, 4692.0, 4682.0, 4724.0, 4698.0, 4678.0, 4678.0, 4720.0, 4698.0, 4698.0, 4698.0, 4698.0, 4680.0, 4706.0, 4702.0, 4700.0, 4680.0, 4704.0, 4698.0, 4682.0, 4696.0, 4676.0, 4680.0, 4672.0, 4718.0, 4774.0, 4744.0, 4718.0, 4700.0, 4682.0, 4686.0, 4690.0, 4704.0, 4700.0, 4682.0, 4678.0, 4662.0, 4674.0, 4692.0, 4772.0, 4804.0, 4778.0, 4702.0, 4688.0, 4696.0, 4690.0, 4686.0, 4688.0, 4686.0, 4680.0, 4696.0, 4696.0, 4696.0, 4690.0, 4672.0, 4774.0, 4814.0, 4808.0, 4752.0, 4724.0, 4710.0, 4700.0, 4726.0, 4726.0, 4692.0, 4722.0, 4714.0, 4694.0, 4718.0, 4848.0, 4878.0, 4844.0, 4752.0, 4710.0, 4746.0, 4826.0, 4814.0, 4698.0, 4726.0, 4842.0, 4844.0, 4716.0, 4678.0, 4660.0, 4680.0, 4700.0, 4702.0, 4702.0, 4700.0, 4704.0, 4696.0, 4704.0, 4684.0, 4722.0, 4742.0, 4724.0, 4678.0, 4682.0, 4698.0, 4722.0, 4720.0, 4724.0, 4702.0, 4706.0, 4738.0, 4762.0, 4724.0, 4682.0, 4804.0, 4906.0, 4878.0, 4814.0, 4748.0, 4706.0, 4700.0, 4744.0, 4792.0, 4758.0, 4692.0, 4744.0, 4838.0, 4876.0, 4778.0, 4718.0, 4700.0, 4692.0, 4756.0, 4750.0, 4694.0, 4698.0, 4774.0, 4838.0, 4780.0, 4748.0, 4724.0, 4694.0, 4756.0, 4796.0, 4760.0, 4666.0],
      "WindowWidth": [18510.0, 18512.0, 18512.0, 18520.0, 18466.0, 18454.0, 18458.0, 18472.0, 18558.0, 18632.0, 18638.0, 18628.0, 18552.0, 18478.0, 18454.0, 18454.0, 18462.0, 18478.0, 18510.0, 18462.0, 18428.0, 18476.0, 18598.0, 18682.0, 18678.0, 18630.0, 18550.0, 18510.0, 18466.0, 18482.0, 18486.0, 18482.0, 18474.0, 18594.0, 18750.0, 18750.0, 18712.0, 18588.0, 18466.0, 18490.0, 18492.0, 18466.0, 18480.0, 18592.0, 18680.0, 18710.0, 18628.0, 18514.0, 18464.0, 18464.0, 18462.0, 18466.0, 18480.0, 18554.0, 18510.0, 18468.0, 18472.0, 18550.0, 18514.0, 18510.0, 18518.0, 18512.0, 18478.0, 18518.0, 18514.0, 18510.0, 18478.0, 18460.0, 18458.0, 18474.0, 18516.0, 18468.0, 18470.0, 18480.0, 18558.0, 18636.0, 18590.0, 18548.0, 18514.0, 18482.0, 18468.0, 18472.0, 18462.0, 18460.0, 18472.0, 18476.0, 18434.0, 18470.0, 18516.0, 18634.0, 18670.0, 18632.0, 18514.0, 18468.0, 18470.0, 18466.0, 18472.0, 18470.0, 18458.0, 18478.0, 18516.0, 18510.0, 18462.0, 18464.0, 18482.0, 18632.0, 18682.0, 18670.0, 18594.0, 18546.0, 18504.0, 18464.0, 18490.0, 18490.0, 18464.0, 18496.0, 18460.0, 18460.0, 18552.0, 18716.0, 18744.0, 18714.0, 18594.0, 18518.0, 18488.0, 18514.0, 18518.0, 18466.0, 18556.0, 18716.0, 18712.0, 18556.0, 18472.0, 18432.0, 18472.0, 18510.0, 18516.0, 18516.0, 18514.0, 18514.0, 18466.0, 18462.0, 18476.0, 18548.0, 18584.0, 18554.0, 18466.0, 18468.0, 18504.0, 18548.0, 18548.0, 18554.0, 18516.0, 18508.0, 18484.0, 18468.0, 18452.0, 18466.0, 18672.0, 18776.0, 18750.0, 18678.0, 18586.0, 18508.0, 18462.0, 18490.0, 18504.0, 18468.0, 18462.0, 18586.0, 18714.0, 18748.0, 18634.0, 18550.0, 18514.0, 18464.0, 18478.0, 18474.0, 18458.0, 18516.0, 18630.0, 18710.0, 18632.0, 18584.0, 18546.0, 18464.0, 18478.0, 18474.0, 18466.0, 18432.0]
    },
    "slices": {}
  }
}