{
  "AcquisitionMatrixPE": 104,
  "AcquisitionNumber": 1,
  "AcquisitionTime": "13:41:11.147500",
  "BandwidthPerPixelPhaseEncode": 17.17,
  "BaseResolution": 104,
  "BodyPartExamined": "BRAIN",
  "CoilCombinationMethod": "Sum of Squares",
  "ConsistencyInfo": "N4_VE11C_LATEST_20160120",
  "ConversionSoftware": "dcm2niix",
  "ConversionSoftwareVersion": "v1.0.20211006",
  "DerivedVendorReportedEchoSpacing": 0.000560011,
  "DeviceSerialNumber": "167006",
  "DwellTime": 2.1e-06,
  "EchoTime": 0.037,
  "EchoTime1": 0.037,
  "EchoTime2": 0.001,
  "EchoTrainLength": 104,
  "EffectiveEchoSpacing": 0.000560011,
  "FlipAngle": 52,
  "HeudiconvVersion": "0.10.0",
  "ImageComments": "Unaliased MB4/PE3/LB",
  "ImageOrientationPatientDICOM": [0.999235, 0.0029908, 0.0389992, 0.00854583, 0.956289, -0.292298],
  "ImageOrientationText": "Tra>Cor(-17.0)>Sag(2.2)",
  "ImageType": [
    "ORIGINAL",
    "PRIMARY",
    "P",
    "MB",
    "ND",
    "MOSAIC",
    "PHASE"
],
  "ImagingFrequency": 123.259,
  "InPlanePhaseEncodingDirectionDICOM": "COL",
  "InstitutionAddress": "Chemin Queen-Mary 4565,Montreal,District,CA,H3W 1W5",
  "InstitutionName": "IUGM",
  "InstitutionalDepartmentName": "Department",
  "MRAcquisitionType": "2D",
  "MagneticFieldStrength": 3,
  "Manufacturer": "Siemens",
  "ManufacturersModelName": "Prisma_fit",
  "MatrixCoilMode": "SENSE",
  "Modality": "MR",
  "MultibandAccelerationFactor": 4,
  "PartialFourier": 1,
  "PatientPosition": "HFS",
  "PercentPhaseFOV": 100,
  "PercentSampling": 100,
  "PhaseEncodingDirection": "j",
  "PhaseEncodingSteps": 104,
  "PhaseResolution": 1,
  "PixelBandwidth": 2290,
  "ProcedureStepDescription": "memory^things",
  "ProtocolName": "func_task-things_run-4",
  "PulseSequenceDetails": "%CustomerSeq%\\cmrr_mbep2d_bold",
  "ReceiveCoilActiveElements": "HC1-7;NC1,2",
  "ReceiveCoilName": "HeadNeck_64",
  "ReconMatrixPE": 104,
  "RepetitionTime": 1.49,
  "SAR": 0.0380342,
  "ScanOptions": "FS",
  "ScanningSequence": "EP",
  "SequenceName": "epfid2d1_104",
  "SequenceVariant": "SK\\SS",
  "SeriesDescription": "func_task-things_run-4",
  "SeriesNumber": 20,
  "ShimSetting": [635, -7194, -8761, 704, 24, 42, 12, 3],
  "SliceThickness": 2,
  "SliceTiming": [0, 0.7825, 0.0975, 0.8825, 0.195, 0.98, 0.295, 1.0775, 0.3925, 1.175, 0.49, 1.2725, 0.5875, 1.3725, 0.685, 0, 0.7825, 0.0975, 0.8825, 0.195, 0.98, 0.295, 1.0775, 0.3925, 1.175, 0.49, 1.2725, 0.5875, 1.3725, 0.685, 0, 0.7825, 0.0975, 0.8825, 0.195, 0.98, 0.295, 1.0775, 0.3925, 1.175, 0.49, 1.2725, 0.5875, 1.3725, 0.685, 0, 0.7825, 0.0975, 0.8825, 0.195, 0.98, 0.295, 1.0775, 0.3925, 1.175, 0.49, 1.2725, 0.5875, 1.3725, 0.685],
  "SoftwareVersions": "syngo MR E11",
  "SpacingBetweenSlices": 2,
  "StationName": "MRC35049",
  "TaskName": "things",
  "TotalReadoutTime": 0.0576811,
  "TxRefAmp": 218.843,
  "WipMemBlock": "4d19635c-7ae3-42e7-b909-1bcdec75d177||Sequence: R016 ve11c/master r/e634e98; Dec 19 2017 11:00:25 by eja",
  "dcmmeta_affine": [
    [-1.998469591140747, 0.0170916598290205, 0.07633738219738007, 106.06011199951172],
    [-0.005981605499982834, 1.9125784635543823, -0.5848144292831421, -71.04920959472656],
    [0.0779983401298523, 0.5845952033996582, 1.91106379032135, -61.29252624511719],
    [0.0, 0.0, 0.0, 1.0]
],
  "dcmmeta_reorient_transform": [
    [0.0, -1.0, 0.0, 103.0],
    [1.0, 0.0, 0.0, 0.0],
    [0.0, 0.0, 1.0, 0.0],
    [0.0, 0.0, 0.0, 1.0]
],
  "dcmmeta_shape": [104, 104, 60, 190],
  "dcmmeta_slice_dim": 2,
  "dcmmeta_version": 0.6,
  "global": {
    "const": {
      "AcquisitionMatrix": [104, 0, 0, 104],
      "AngioFlag": "N",
      "BitsAllocated": 16,
      "BitsStored": 16,
      "BodyPartExamined": "BRAIN",
      "Columns": 832,
      "EchoNumbers": 1,
      "EchoTime": 37.0,
      "EchoTrainLength": 104,
      "FlipAngle": 52.0,
      "HighBit": 15,
      "ImageOrientationPatient": [0.99923476716692, 0.00299080283111, 0.03899916900771, 0.00854583026069, 0.95628922705659, -0.2922975932174],
      "ImagePositionPatient": [-841.48482604972, -824.3022306704, 183.32203056536],
      "ImageType": [
        "ORIGINAL",
        "PRIMARY",
        "P",
        "MB",
        "ND",
        "MOSAIC"
],
      "ImagedNucleus": "1H",
      "ImagingFrequency": 123.25888,
      "InPlanePhaseEncodingDirection": "COL",
      "LargestImagePixelValue": 4095,
      "MRAcquisitionType": "2D",
      "MagneticFieldStrength": 3.0,
      "Manufacturer": "SIEMENS",
      "ManufacturerModelName": "Prisma_fit",
      "Modality": "MR",
      "NumberOfAverages": 1.0,
      "NumberOfPhaseEncodingSteps": 104,
      "PercentPhaseFieldOfView": 100.0,
      "PercentSampling": 100.0,
      "PerformedProcedureStepStartTime": "115408.209000",
      "PhotometricInterpretation": "MONOCHROME2",
      "PixelBandwidth": 2290.0,
      "PixelRepresentation": 0,
      "PixelSpacing": [2.0, 2.0],
      "ProtocolName": "func_task-things_run-4",
      "RepetitionTime": 1490.0,
      "RescaleIntercept": -4096.0,
      "RescaleSlope": 2.0,
      "RescaleType": "US",
      "Rows": 832,
      "SAR": 0.03803424272915,
      "SamplesPerPixel": 1,
      "ScanOptions": "FS",
      "ScanningSequence": "EP",
      "SequenceName": "epfid2d1_104",
      "SequenceVariant": [
        "SK",
        "SS"
],
      "SeriesDescription": "func_task-things_run-4",
      "SeriesNumber": 20,
      "SeriesTime": "134244.605000",
      "SliceLocation": -33.743486928894,
      "SliceThickness": 2.0,
      "SmallestImagePixelValue": 0,
      "SoftwareVersions": "syngo MR E11",
      "SpacingBetweenSlices": 2.0000000233182,
      "SpecificCharacterSet": "ISO_IR 100",
      "StudyID": "1",
      "StudyTime": "115408.138000",
      "TransmitCoilName": "Body",
      "VariableFlipAngleFlag": "N",
      "WindowCenterWidthExplanation": "Algo1",
      "dBdt": 0.0},
    "slices": {}
  },
  "time": {
    "samples": {
      "AcquisitionNumber": [1, 2, 3, 4, 5, 6, 7, 8, 9, 10, 11, 12, 13, 14, 15, 16, 17, 18, 19, 20, 21, 22, 23, 24, 25, 26, 27, 28, 29, 30, 31, 32, 33, 34, 35, 36, 37, 38, 39, 40, 41, 42, 43, 44, 45, 46, 47, 48, 49, 50, 51, 52, 53, 54, 55, 56, 57, 58, 59, 60, 61, 62, 63, 64, 65, 66, 67, 68, 69, 70, 71, 72, 73, 74, 75, 76, 77, 78, 79, 80, 81, 82, 83, 84, 85, 86, 87, 88, 89, 90, 91, 92, 93, 94, 95, 96, 97, 98, 99, 100, 101, 102, 103, 104, 105, 106, 107, 108, 109, 110, 111, 112, 113, 114, 115, 116, 117, 118, 119, 120, 121, 122, 123, 124, 125, 126, 127, 128, 129, 130, 131, 132, 133, 134, 135, 136, 137, 138, 139, 140, 141, 142, 143, 144, 145, 146, 147, 148, 149, 150, 151, 152, 153, 154, 155, 156, 157, 158, 159, 160, 161, 162, 163, 164, 165, 166, 167, 168, 169, 170, 171, 172, 173, 174, 175, 176, 177, 178, 179, 180, 181, 182, 183, 184, 185, 186, 187, 188, 189, 190],
      "AcquisitionTime": ["134111.147500", "134112.637500", "134114.127500", "134115.617500", "134117.107500", "134118.597500", "134120.087500", "134121.577500", "134123.067500", "134124.557500", "134126.047500", "134127.537500", "134129.027500", "134130.517500", "134132.007500", "134133.497500", "134134.987500", "134136.477500", "134137.967500", "134139.457500", "134140.947500", "134142.437500", "134143.927500", "134145.417500", "134146.907500", "134148.397500", "134149.887500", "134151.377500", "134152.867500", "134154.357500", "134155.847500", "134157.337500", "134158.827500", "134200.317500", "134201.807500", "134203.297500", "134204.787500", "134206.277500", "134207.767500", "134209.257500", "134210.747500", "134212.237500", "134213.727500", "134215.217500", "134216.707500", "134218.197500", "134219.687500", "134221.177500", "134222.667500", "134224.157500", "134225.647500", "134227.137500", "134228.627500", "134230.117500", "134231.607500", "134233.097500", "134234.587500", "134236.077500", "134237.567500", "134239.057500", "134240.547500", "134242.037500", "134243.527500", "134245.017500", "134246.507500", "134247.997500", "134249.487500", "134250.977500", "134252.467500", "134253.957500", "134255.447500", "134256.937500", "134258.427500", "134259.917500", "134301.407500", "134302.897500", "134304.387500", "134305.877500", "134307.367500", "134308.857500", "134310.347500", "134311.837500", "134313.327500", "134314.817500", "134316.307500", "134317.797500", "134319.287500", "134320.777500", "134322.267500", "134323.757500", "134325.247500", "134326.737500", "134328.227500", "134329.717500", "134331.207500", "134332.697500", "134334.187500", "134335.677500", "134337.167500", "134338.657500", "134340.147500", "134341.637500", "134343.127500", "134344.617500", "134346.107500", "134347.597500", "134349.087500", "134350.577500", "134352.067500", "134353.557500", "134355.047500", "134356.537500", "134358.027500", "134359.517500", "134401.007500", "134402.497500", "134403.987500", "134405.477500", "134406.967500", "134408.457500", "134409.947500", "134411.437500", "134412.927500", "134414.417500", "134415.907500", "134417.397500", "134418.887500", "134420.377500", "134421.867500", "134423.357500", "134424.847500", "134426.337500", "134427.827500", "134429.317500", "134430.807500", "134432.297500", "134433.787500", "134435.277500", "134436.767500", "134438.257500", "134439.747500", "134441.237500", "134442.727500", "134444.217500", "134445.707500", "134447.197500", "134448.687500", "134450.177500", "134451.667500", "134453.157500", "134454.647500", "134456.137500", "134457.627500", "134459.117500", "134500.607500", "134502.097500", "134503.587500", "134505.077500", "134506.567500", "134508.057500", "134509.547500", "134511.037500", "134512.527500", "134514.017500", "134515.507500", "134516.997500", "134518.487500", "134519.977500", "134521.467500", "134522.957500", "134524.447500", "134525.937500", "134527.427500", "134528.917500", "134530.407500", "134531.897500", "134533.387500", "134534.877500", "134536.367500", "134537.857500", "134539.347500", "134540.837500", "134542.327500", "134543.817500", "134545.307500", "134546.797500", "134548.287500", "134549.777500", "134551.267500", "134552.757500"],
      "ContentTime": ["134244.607000", "134244.610000", "134244.613000", "134244.615000", "134244.618000", "134244.620000", "134244.623000", "134244.625000", "134244.628000", "134244.630000", "134244.633000", "134244.635000", "134244.638000", "134244.640000", "134244.643000", "134244.646000", "134244.648000", "134244.651000", "134244.654000", "134244.657000", "134244.660000", "134244.664000", "134244.668000", "134244.671000", "134244.674000", "134244.676000", "134244.679000", "134244.682000", "134244.684000", "134244.687000", "134244.689000", "134244.692000", "134244.695000", "134244.697000", "134244.700000", "134244.702000", "134244.705000", "134244.707000", "134244.710000", "134304.484000", "134304.487000", "134304.489000", "134304.492000", "134304.494000", "134304.497000", "134304.499000", "134304.502000", "134304.504000", "134304.507000", "134304.509000", "134304.512000", "134304.514000", "134304.517000", "134304.519000", "134304.522000", "134304.524000", "134304.527000", "134304.529000", "134304.532000", "134324.466000", "134324.469000", "134324.471000", "134324.474000", "134324.477000", "134324.479000", "134324.482000", "134324.484000", "134324.487000", "134324.489000", "134324.492000", "134324.494000", "134324.497000", "134324.499000", "134324.502000", "134324.504000", "134324.507000", "134324.509000", "134324.512000", "134324.514000", "134324.517000", "134344.488000", "134344.490000", "134344.493000", "134344.496000", "134344.498000", "134344.501000", "134344.503000", "134344.506000", "134344.508000", "134344.511000", "134344.517000", "134344.520000", "134344.522000", "134344.534000", "134344.537000", "134344.539000", "134344.542000", "134344.544000", "134344.547000", "134344.549000", "134424.507000", "134424.510000", "134424.512000", "134424.515000", "134424.517000", "134424.520000", "134424.523000", "134424.525000", "134424.528000", "134424.530000", "134424.533000", "134424.535000", "134424.548000", "134424.551000", "134424.554000", "134424.556000", "134424.558000", "134424.561000", "134424.564000", "134424.566000", "134424.569000", "134424.571000", "134424.574000", "134424.576000", "134424.579000", "134424.582000", "134424.584000", "134424.586000", "134424.589000", "134504.498000", "134504.501000", "134504.510000", "134504.513000", "134504.515000", "134504.518000", "134504.520000", "134504.523000", "134504.525000", "134504.528000", "134504.530000", "134504.533000", "134504.535000", "134504.538000", "134504.541000", "134504.543000", "134504.546000", "134504.548000", "134504.551000", "134504.553000", "134504.556000", "134504.558000", "134504.561000", "134504.563000", "134504.566000", "134504.568000", "134524.467000", "134524.470000", "134524.473000", "134524.475000", "134524.478000", "134524.480000", "134524.483000", "134524.485000", "134524.488000", "134524.490000", "134524.493000", "134524.496000", "134524.498000", "134524.501000", "134555.230000", "134555.233000", "134555.244000", "134555.247000", "134555.250000", "134555.253000", "134555.256000", "134555.259000", "134555.261000", "134555.264000", "134555.267000", "134555.270000", "134555.273000", "134555.276000", "134555.279000", "134555.281000", "134555.284000", "134555.286000", "134555.289000", "134555.292000", "134555.294000"],
      "InstanceCreationTime": ["134244.607000", "134244.610000", "134244.613000", "134244.615000", "134244.618000", "134244.620000", "134244.623000", "134244.625000", "134244.628000", "134244.630000", "134244.633000", "134244.635000", "134244.638000", "134244.640000", "134244.643000", "134244.646000", "134244.648000", "134244.651000", "134244.654000", "134244.657000", "134244.660000", "134244.664000", "134244.668000", "134244.671000", "134244.674000", "134244.676000", "134244.679000", "134244.682000", "134244.684000", "134244.687000", "134244.689000", "134244.692000", "134244.695000", "134244.697000", "134244.700000", "134244.702000", "134244.705000", "134244.707000", "134244.710000", "134304.484000", "134304.487000", "134304.489000", "134304.492000", "134304.494000", "134304.497000", "134304.499000", "134304.502000", "134304.504000", "134304.507000", "134304.509000", "134304.512000", "134304.514000", "134304.517000", "134304.519000", "134304.522000", "134304.524000", "134304.527000", "134304.529000", "134304.532000", "134324.466000", "134324.469000", "134324.471000", "134324.474000", "134324.477000", "134324.479000", "134324.482000", "134324.484000", "134324.487000", "134324.489000", "134324.492000", "134324.494000", "134324.497000", "134324.499000", "134324.502000", "134324.504000", "134324.507000", "134324.509000", "134324.512000", "134324.514000", "134324.517000", "134344.488000", "134344.490000", "134344.493000", "134344.496000", "134344.498000", "134344.501000", "134344.503000", "134344.506000", "134344.508000", "134344.511000", "134344.517000", "134344.520000", "134344.522000", "134344.534000", "134344.537000", "134344.539000", "134344.542000", "134344.544000", "134344.547000", "134344.549000", "134424.507000", "134424.510000", "134424.512000", "134424.515000", "134424.517000", "134424.520000", "134424.523000", "134424.525000", "134424.528000", "134424.530000", "134424.533000", "134424.535000", "134424.548000", "134424.551000", "134424.554000", "134424.556000", "134424.558000", "134424.561000", "134424.564000", "134424.566000", "134424.569000", "134424.571000", "134424.574000", "134424.576000", "134424.579000", "134424.582000", "134424.584000", "134424.586000", "134424.589000", "134504.498000", "134504.501000", "134504.510000", "134504.513000", "134504.515000", "134504.518000", "134504.520000", "134504.523000", "134504.525000", "134504.528000", "134504.530000", "134504.533000", "134504.535000", "134504.538000", "134504.541000", "134504.543000", "134504.546000", "134504.548000", "134504.551000", "134504.553000", "134504.556000", "134504.558000", "134504.561000", "134504.563000", "134504.566000", "134504.568000", "134524.467000", "134524.470000", "134524.473000", "134524.475000", "134524.478000", "134524.480000", "134524.483000", "134524.485000", "134524.488000", "134524.490000", "134524.493000", "134524.496000", "134524.498000", "134524.501000", "134555.230000", "134555.233000", "134555.244000", "134555.247000", "134555.250000", "134555.253000", "134555.256000", "134555.259000", "134555.261000", "134555.264000", "134555.267000", "134555.270000", "134555.273000", "134555.276000", "134555.279000", "134555.281000", "134555.284000", "134555.286000", "134555.289000", "134555.292000", "134555.294000"],
      "InstanceNumber": [1, 2, 3, 4, 5, 6, 7, 8, 9, 10, 11, 12, 13, 14, 15, 16, 17, 18, 19, 20, 21, 22, 23, 24, 25, 26, 27, 28, 29, 30, 31, 32, 33, 34, 35, 36, 37, 38, 39, 40, 41, 42, 43, 44, 45, 46, 47, 48, 49, 50, 51, 52, 53, 54, 55, 56, 57, 58, 59, 60, 61, 62, 63, 64, 65, 66, 67, 68, 69, 70, 71, 72, 73, 74, 75, 76, 77, 78, 79, 80, 81, 82, 83, 84, 85, 86, 87, 88, 89, 90, 91, 92, 93, 94, 95, 96, 97, 98, 99, 100, 101, 102, 103, 104, 105, 106, 107, 108, 109, 110, 111, 112, 113, 114, 115, 116, 117, 118, 119, 120, 121, 122, 123, 124, 125, 126, 127, 128, 129, 130, 131, 132, 133, 134, 135, 136, 137, 138, 139, 140, 141, 142, 143, 144, 145, 146, 147, 148, 149, 150, 151, 152, 153, 154, 155, 156, 157, 158, 159, 160, 161, 162, 163, 164, 165, 166, 167, 168, 169, 170, 171, 172, 173, 174, 175, 176, 177, 178, 179, 180, 181, 182, 183, 184, 185, 186, 187, 188, 189, 190],
      "WindowCenter": [4876.0, 4872.0, 4872.0, 4870.0, 4876.0, 4872.0, 4870.0, 4872.0, 4874.0, 4872.0, 4870.0, 4868.0, 4874.0, 4872.0, 4874.0, 4872.0, 4874.0, 4872.0, 4870.0, 4870.0, 4872.0, 4874.0, 4870.0, 4870.0, 4868.0, 4870.0, 4870.0, 4894.0, 4870.0, 4870.0, 4872.0, 4868.0, 4870.0, 4872.0, 4874.0, 4868.0, 4870.0, 4874.0, 4872.0, 4870.0, 4896.0, 4872.0, 4874.0, 4872.0, 4874.0, 4870.0, 4872.0, 4870.0, 4868.0, 4874.0, 4872.0, 4870.0, 4898.0, 4872.0, 4870.0, 4870.0, 4872.0, 4872.0, 4870.0, 4872.0, 4890.0, 4872.0, 4870.0, 4874.0, 4872.0, 4872.0, 4870.0, 4870.0, 4866.0, 4870.0, 4870.0, 4872.0, 4872.0, 4874.0, 4870.0, 4894.0, 4874.0, 4872.0, 4868.0, 4870.0, 4874.0, 4870.0, 4874.0, 4870.0, 4872.0, 4872.0, 4870.0, 4870.0, 4870.0, 4872.0, 4876.0, 4868.0, 4870.0, 4870.0, 4874.0, 4870.0, 4870.0, 4872.0, 4872.0, 4868.0, 4870.0, 4870.0, 4896.0, 4872.0, 4868.0, 4870.0, 4870.0, 4872.0, 4870.0, 4874.0, 4874.0, 4870.0, 4872.0, 4870.0, 4874.0, 4872.0, 4870.0, 4894.0, 4866.0, 4870.0, 4874.0, 4874.0, 4870.0, 4874.0, 4872.0, 4872.0, 4872.0, 4872.0, 4872.0, 4870.0, 4868.0, 4868.0, 4872.0, 4872.0, 4872.0, 4872.0, 4894.0, 4870.0, 4872.0, 4874.0, 4872.0, 4870.0, 4868.0, 4870.0, 4870.0, 4872.0, 4870.0, 4872.0, 4872.0, 4870.0, 4872.0, 4870.0, 4870.0, 4872.0, 4872.0, 4872.0, 4872.0, 4874.0, 4870.0, 4870.0, 4868.0, 4872.0, 4872.0, 4874.0, 4872.0, 4866.0, 4868.0, 4870.0, 4870.0, 4870.0, 4872.0, 4870.0, 4870.0, 4870.0, 4870.0, 4872.0, 4870.0, 4868.0, 4868.0, 4870.0, 4870.0, 4872.0, 4872.0, 4870.0, 4868.0, 4874.0, 4870.0, 4870.0, 4870.0, 4874.0],
      "WindowWidth": [18676.0, 18684.0, 18684.0, 18684.0, 18678.0, 18676.0, 18676.0, 18670.0, 18682.0, 18674.0, 18680.0, 18678.0, 18680.0, 18682.0, 18686.0, 18682.0, 18680.0, 18680.0, 18678.0, 18676.0, 18672.0, 18682.0, 18680.0, 18684.0, 18676.0, 18678.0, 18678.0, 18712.0, 18680.0, 18684.0, 18678.0, 18684.0, 18676.0, 18684.0, 18680.0, 18676.0, 18678.0, 18682.0, 18682.0, 18680.0, 18714.0, 18676.0, 18684.0, 18680.0, 18682.0, 18674.0, 18682.0, 18674.0, 18678.0, 18676.0, 18684.0, 18680.0, 18714.0, 18672.0, 18678.0, 18676.0, 18684.0, 18678.0, 18684.0, 18680.0, 18718.0, 18678.0, 18680.0, 18684.0, 18684.0, 18686.0, 18680.0, 18682.0, 18682.0, 18676.0, 18678.0, 18682.0, 18686.0, 18688.0, 18676.0, 18716.0, 18680.0, 18684.0, 18678.0, 18684.0, 18672.0, 18678.0, 18678.0, 18682.0, 18680.0, 18682.0, 18676.0, 18682.0, 18680.0, 18680.0, 18680.0, 18674.0, 18680.0, 18680.0, 18686.0, 18680.0, 18684.0, 18676.0, 18678.0, 18676.0, 18682.0, 18678.0, 18714.0, 18680.0, 18680.0, 18680.0, 18678.0, 18682.0, 18682.0, 18680.0, 18680.0, 18684.0, 18686.0, 18678.0, 18674.0, 18688.0, 18682.0, 18720.0, 18680.0, 18694.0, 18674.0, 18682.0, 18676.0, 18684.0, 18682.0, 18682.0, 18682.0, 18682.0, 18684.0, 18682.0, 18678.0, 18682.0, 18686.0, 18674.0, 18680.0, 18676.0, 18716.0, 18674.0, 18688.0, 18678.0, 18688.0, 18678.0, 18682.0, 18680.0, 18676.0, 18680.0, 18680.0, 18680.0, 18680.0, 18680.0, 18688.0, 18682.0, 18680.0, 18682.0, 18680.0, 18684.0, 18682.0, 18684.0, 18676.0, 18684.0, 18672.0, 18682.0, 18684.0, 18682.0, 18680.0, 18678.0, 18686.0, 18678.0, 18686.0, 18672.0, 18684.0, 18678.0, 18686.0, 18676.0, 18680.0, 18686.0, 18680.0, 18680.0, 18680.0, 18680.0, 18680.0, 18684.0, 18686.0, 18686.0, 18674.0, 18686.0, 18670.0, 18686.0, 18678.0, 18686.0]
    },
    "slices": {}
  }
}