{
  "AcquisitionMatrixPE": 104,
  "AcquisitionNumber": 1,
  "AcquisitionTime": "13:22:10.815000",
  "BandwidthPerPixelPhaseEncode": 17.17,
  "BaseResolution": 104,
  "BodyPartExamined": "BRAIN",
  "CoilCombinationMethod": "Sum of Squares",
  "ConsistencyInfo": "N4_VE11C_LATEST_20160120",
  "ConversionSoftware": "dcm2niix",
  "ConversionSoftwareVersion": "v1.0.20211006",
  "DerivedVendorReportedEchoSpacing": 0.000560011,
  "DeviceSerialNumber": "167006",
  "DwellTime": 2.1e-06,
  "EchoTime": 0.037,
  "EchoTime1": 0.037,
  "EchoTime2": 0.001,
  "EchoTrainLength": 104,
  "EffectiveEchoSpacing": 0.000560011,
  "FlipAngle": 52,
  "HeudiconvVersion": "0.10.0",
  "ImageComments": "Unaliased MB4/PE3/LB",
  "ImageOrientationPatientDICOM": [0.999235, 0.0029908, 0.0389992, 0.00854583, 0.956289, -0.292298],
  "ImageOrientationText": "Tra>Cor(-17.0)>Sag(2.2)",
  "ImageType": [
    "ORIGINAL",
    "PRIMARY",
    "P",
    "MB",
    "ND",
    "MOSAIC",
    "PHASE"
],
  "ImagingFrequency": 123.259,
  "InPlanePhaseEncodingDirectionDICOM": "COL",
  "InstitutionAddress": "Chemin Queen-Mary 4565,Montreal,District,CA,H3W 1W5",
  "InstitutionName": "IUGM",
  "InstitutionalDepartmentName": "Department",
  "MRAcquisitionType": "2D",
  "MagneticFieldStrength": 3,
  "Manufacturer": "Siemens",
  "ManufacturersModelName": "Prisma_fit",
  "MatrixCoilMode": "SENSE",
  "Modality": "MR",
  "MultibandAccelerationFactor": 4,
  "PartialFourier": 1,
  "PatientPosition": "HFS",
  "PercentPhaseFOV": 100,
  "PercentSampling": 100,
  "PhaseEncodingDirection": "j",
  "PhaseEncodingSteps": 104,
  "PhaseResolution": 1,
  "PixelBandwidth": 2290,
  "ProcedureStepDescription": "memory^things",
  "ProtocolName": "func_task-things_run-1",
  "PulseSequenceDetails": "%CustomerSeq%\\cmrr_mbep2d_bold",
  "ReceiveCoilActiveElements": "HC1-7;NC1,2",
  "ReceiveCoilName": "HeadNeck_64",
  "ReconMatrixPE": 104,
  "RepetitionTime": 1.49,
  "SAR": 0.0380342,
  "ScanOptions": "FS",
  "ScanningSequence": "EP",
  "SequenceName": "epfid2d1_104",
  "SequenceVariant": "SK\\SS",
  "SeriesDescription": "func_task-things_run-1",
  "SeriesNumber": 11,
  "ShimSetting": [635, -7194, -8761, 704, 24, 42, 12, 3],
  "SliceThickness": 2,
  "SliceTiming": [0, 0.785, 0.1, 0.8825, 0.1975, 0.98, 0.295, 1.08, 0.3925, 1.1775, 0.49, 1.275, 0.59, 1.3725, 0.6875, 0, 0.785, 0.1, 0.8825, 0.1975, 0.98, 0.295, 1.08, 0.3925, 1.1775, 0.49, 1.275, 0.59, 1.3725, 0.6875, 0, 0.785, 0.1, 0.8825, 0.1975, 0.98, 0.295, 1.08, 0.3925, 1.1775, 0.49, 1.275, 0.59, 1.3725, 0.6875, 0, 0.785, 0.1, 0.8825, 0.1975, 0.98, 0.295, 1.08, 0.3925, 1.1775, 0.49, 1.275, 0.59, 1.3725, 0.6875],
  "SoftwareVersions": "syngo MR E11",
  "SpacingBetweenSlices": 2,
  "StationName": "MRC35049",
  "TaskName": "things",
  "TotalReadoutTime": 0.0576811,
  "TxRefAmp": 218.843,
  "WipMemBlock": "823bd539-6d03-4e41-8cd0-44997f3a58e2||Sequence: R016 ve11c/master r/e634e98; Dec 19 2017 11:00:25 by eja",
  "dcmmeta_affine": [
    [-1.998469591140747, 0.0170916598290205, 0.07633738219738007, 106.06011199951172],
    [-0.005981605499982834, 1.9125784635543823, -0.5848144292831421, -71.04920959472656],
    [0.0779983401298523, 0.5845952033996582, 1.91106379032135, -61.29252624511719],
    [0.0, 0.0, 0.0, 1.0]
],
  "dcmmeta_reorient_transform": [
    [0.0, -1.0, 0.0, 103.0],
    [1.0, 0.0, 0.0, 0.0],
    [0.0, 0.0, 1.0, 0.0],
    [0.0, 0.0, 0.0, 1.0]
],
  "dcmmeta_shape": [104, 104, 60, 190],
  "dcmmeta_slice_dim": 2,
  "dcmmeta_version": 0.6,
  "global": {
    "const": {
      "AcquisitionMatrix": [104, 0, 0, 104],
      "AngioFlag": "N",
      "BitsAllocated": 16,
      "BitsStored": 16,
      "BodyPartExamined": "BRAIN",
      "Columns": 832,
      "EchoNumbers": 1,
      "EchoTime": 37.0,
      "EchoTrainLength": 104,
      "FlipAngle": 52.0,
      "HighBit": 15,
      "ImageOrientationPatient": [0.99923476716692, 0.00299080283111, 0.03899916900771, 0.00854583026069, 0.95628922705659, -0.2922975932174],
      "ImagePositionPatient": [-841.48482604972, -824.3022306704, 183.32203056536],
      "ImageType": [
        "ORIGINAL",
        "PRIMARY",
        "P",
        "MB",
        "ND",
        "MOSAIC"
],
      "ImagedNucleus": "1H",
      "ImagingFrequency": 123.258868,
      "InPlanePhaseEncodingDirection": "COL",
      "LargestImagePixelValue": 4095,
      "MRAcquisitionType": "2D",
      "MagneticFieldStrength": 3.0,
      "Manufacturer": "SIEMENS",
      "ManufacturerModelName": "Prisma_fit",
      "Modality": "MR",
      "NumberOfAverages": 1.0,
      "NumberOfPhaseEncodingSteps": 104,
      "PercentPhaseFieldOfView": 100.0,
      "PercentSampling": 100.0,
      "PerformedProcedureStepStartTime": "115408.209000",
      "PhotometricInterpretation": "MONOCHROME2",
      "PixelBandwidth": 2290.0,
      "PixelRepresentation": 0,
      "PixelSpacing": [2.0, 2.0],
      "ProtocolName": "func_task-things_run-1",
      "RepetitionTime": 1490.0,
      "RescaleIntercept": -4096.0,
      "RescaleSlope": 2.0,
      "RescaleType": "US",
      "Rows": 832,
      "SAR": 0.03803424272915,
      "SamplesPerPixel": 1,
      "ScanOptions": "FS",
      "ScanningSequence": "EP",
      "SequenceName": "epfid2d1_104",
      "SequenceVariant": [
        "SK",
        "SS"
],
      "SeriesDescription": "func_task-things_run-1",
      "SeriesNumber": 11,
      "SeriesTime": "132324.521000",
      "SliceLocation": -33.743486928894,
      "SliceThickness": 2.0,
      "SmallestImagePixelValue": 0,
      "SoftwareVersions": "syngo MR E11",
      "SpacingBetweenSlices": 2.0000000233182,
      "SpecificCharacterSet": "ISO_IR 100",
      "StudyID": "1",
      "StudyTime": "115408.138000",
      "TransmitCoilName": "Body",
      "VariableFlipAngleFlag": "N",
      "WindowCenterWidthExplanation": "Algo1",
      "dBdt": 0.0},
    "slices": {}
  },
  "time": {
    "samples": {
      "AcquisitionNumber": [1, 2, 3, 4, 5, 6, 7, 8, 9, 10, 11, 12, 13, 14, 15, 16, 17, 18, 19, 20, 21, 22, 23, 24, 25, 26, 27, 28, 29, 30, 31, 32, 33, 34, 35, 36, 37, 38, 39, 40, 41, 42, 43, 44, 45, 46, 47, 48, 49, 50, 51, 52, 53, 54, 55, 56, 57, 58, 59, 60, 61, 62, 63, 64, 65, 66, 67, 68, 69, 70, 71, 72, 73, 74, 75, 76, 77, 78, 79, 80, 81, 82, 83, 84, 85, 86, 87, 88, 89, 90, 91, 92, 93, 94, 95, 96, 97, 98, 99, 100, 101, 102, 103, 104, 105, 106, 107, 108, 109, 110, 111, 112, 113, 114, 115, 116, 117, 118, 119, 120, 121, 122, 123, 124, 125, 126, 127, 128, 129, 130, 131, 132, 133, 134, 135, 136, 137, 138, 139, 140, 141, 142, 143, 144, 145, 146, 147, 148, 149, 150, 151, 152, 153, 154, 155, 156, 157, 158, 159, 160, 161, 162, 163, 164, 165, 166, 167, 168, 169, 170, 171, 172, 173, 174, 175, 176, 177, 178, 179, 180, 181, 182, 183, 184, 185, 186, 187, 188, 189, 190],
      "AcquisitionTime": ["132210.815000", "132212.305000", "132213.795000", "132215.285000", "132216.775000", "132218.265000", "132219.755000", "132221.245000", "132222.735000", "132224.225000", "132225.715000", "132227.205000", "132228.695000", "132230.185000", "132231.675000", "132233.165000", "132234.655000", "132236.145000", "132237.635000", "132239.125000", "132240.615000", "132242.105000", "132243.595000", "132245.085000", "132246.575000", "132248.065000", "132249.555000", "132251.045000", "132252.535000", "132254.025000", "132255.515000", "132257.005000", "132258.495000", "132259.985000", "132301.475000", "132302.965000", "132304.455000", "132305.945000", "132307.435000", "132308.925000", "132310.415000", "132311.905000", "132313.395000", "132314.885000", "132316.375000", "132317.865000", "132319.355000", "132320.845000", "132322.335000", "132323.825000", "132325.315000", "132326.805000", "132328.295000", "132329.785000", "132331.275000", "132332.765000", "132334.255000", "132335.745000", "132337.235000", "132338.725000", "132340.215000", "132341.705000", "132343.195000", "132344.685000", "132346.175000", "132347.665000", "132349.155000", "132350.645000", "132352.135000", "132353.625000", "132355.115000", "132356.605000", "132358.095000", "132359.585000", "132401.075000", "132402.565000", "132404.055000", "132405.545000", "132407.035000", "132408.525000", "132410.015000", "132411.505000", "132412.995000", "132414.485000", "132415.975000", "132417.465000", "132418.955000", "132420.445000", "132421.935000", "132423.425000", "132424.915000", "132426.405000", "132427.895000", "132429.385000", "132430.875000", "132432.365000", "132433.855000", "132435.345000", "132436.835000", "132438.325000", "132439.815000", "132441.305000", "132442.795000", "132444.285000", "132445.775000", "132447.265000", "132448.755000", "132450.245000", "132451.735000", "132453.225000", "132454.715000", "132456.205000", "132457.695000", "132459.185000", "132500.675000", "132502.165000", "132503.655000", "132505.145000", "132506.635000", "132508.125000", "132509.615000", "132511.105000", "132512.595000", "132514.085000", "132515.575000", "132517.065000", "132518.555000", "132520.045000", "132521.535000", "132523.025000", "132524.515000", "132526.005000", "132527.495000", "132528.985000", "132530.475000", "132531.965000", "132533.455000", "132534.945000", "132536.435000", "132537.925000", "132539.415000", "132540.905000", "132542.395000", "132543.885000", "132545.375000", "132546.865000", "132548.355000", "132549.845000", "132551.335000", "132552.825000", "132554.315000", "132555.805000", "132557.295000", "132558.785000", "132600.275000", "132601.765000", "132603.255000", "132604.745000", "132606.235000", "132607.725000", "132609.215000", "132610.705000", "132612.195000", "132613.685000", "132615.175000", "132616.665000", "132618.155000", "132619.645000", "132621.135000", "132622.625000", "132624.115000", "132625.605000", "132627.095000", "132628.585000", "132630.075000", "132631.565000", "132633.055000", "132634.545000", "132636.035000", "132637.525000", "132639.015000", "132640.505000", "132641.995000", "132643.485000", "132644.975000", "132646.465000", "132647.955000", "132649.445000", "132650.935000", "132652.425000"],
      "ContentTime": ["132324.523000", "132324.526000", "132324.529000", "132324.531000", "132324.534000", "132324.536000", "132324.539000", "132324.541000", "132324.544000", "132324.546000", "132324.549000", "132324.552000", "132324.554000", "132324.557000", "132324.559000", "132324.562000", "132324.564000", "132324.567000", "132324.569000", "132324.576000", "132404.549000", "132404.552000", "132404.555000", "132404.557000", "132404.560000", "132404.562000", "132404.565000", "132404.568000", "132404.570000", "132404.573000", "132404.575000", "132404.578000", "132404.580000", "132404.583000", "132404.585000", "132404.588000", "132404.590000", "132404.593000", "132404.595000", "132404.598000", "132404.600000", "132404.603000", "132404.605000", "132404.608000", "132404.610000", "132404.613000", "132404.616000", "132404.618000", "132404.621000", "132404.623000", "132404.626000", "132404.628000", "132404.631000", "132404.633000", "132404.636000", "132404.638000", "132404.641000", "132404.643000", "132404.646000", "132424.479000", "132424.482000", "132424.484000", "132424.487000", "132424.490000", "132424.493000", "132424.497000", "132424.501000", "132424.504000", "132424.507000", "132424.510000", "132424.513000", "132424.515000", "132424.518000", "132424.520000", "132424.523000", "132424.526000", "132424.528000", "132424.531000", "132424.533000", "132444.513000", "132444.516000", "132444.519000", "132444.521000", "132444.524000", "132444.526000", "132444.529000", "132444.532000", "132444.534000", "132444.537000", "132444.540000", "132444.542000", "132444.545000", "132444.547000", "132444.550000", "132444.552000", "132444.555000", "132444.557000", "132444.560000", "132444.563000", "132444.565000", "132524.526000", "132524.529000", "132524.531000", "132524.534000", "132524.536000", "132524.539000", "132524.541000", "132524.544000", "132524.546000", "132524.549000", "132524.551000", "132524.554000", "132524.557000", "132524.559000", "132524.562000", "132524.564000", "132524.567000", "132524.569000", "132524.572000", "132524.574000", "132524.577000", "132524.580000", "132524.582000", "132524.585000", "132524.587000", "132524.590000", "132524.592000", "132524.595000", "132524.597000", "132604.500000", "132604.502000", "132604.505000", "132604.507000", "132604.510000", "132604.513000", "132604.515000", "132604.518000", "132604.520000", "132604.523000", "132604.525000", "132604.528000", "132604.530000", "132604.533000", "132604.535000", "132604.538000", "132604.540000", "132604.543000", "132604.545000", "132604.548000", "132604.551000", "132604.553000", "132604.556000", "132604.558000", "132604.561000", "132604.563000", "132604.566000", "132644.519000", "132644.522000", "132644.525000", "132644.527000", "132644.530000", "132644.532000", "132644.535000", "132644.537000", "132644.540000", "132644.542000", "132644.545000", "132644.547000", "132644.562000", "132644.575000", "132644.578000", "132644.581000", "132644.583000", "132644.586000", "132644.588000", "132644.591000", "132644.593000", "132644.596000", "132644.599000", "132644.601000", "132644.604000", "132644.606000", "132644.609000", "132654.386000", "132654.389000", "132654.392000", "132654.394000", "132654.405000", "132654.408000", "132654.410000"],
      "InstanceCreationTime": ["132324.523000", "132324.526000", "132324.529000", "132324.531000", "132324.534000", "132324.536000", "132324.539000", "132324.541000", "132324.544000", "132324.546000", "132324.549000", "132324.552000", "132324.554000", "132324.557000", "132324.559000", "132324.562000", "132324.564000", "132324.567000", "132324.569000", "132324.576000", "132404.549000", "132404.552000", "132404.555000", "132404.557000", "132404.560000", "132404.562000", "132404.565000", "132404.568000", "132404.570000", "132404.573000", "132404.575000", "132404.578000", "132404.580000", "132404.583000", "132404.585000", "132404.588000", "132404.590000", "132404.593000", "132404.595000", "132404.598000", "132404.600000", "132404.603000", "132404.605000", "132404.608000", "132404.610000", "132404.613000", "132404.616000", "132404.618000", "132404.621000", "132404.623000", "132404.626000", "132404.628000", "132404.631000", "132404.633000", "132404.636000", "132404.638000", "132404.641000", "132404.643000", "132404.646000", "132424.479000", "132424.482000", "132424.484000", "132424.487000", "132424.490000", "132424.493000", "132424.497000", "132424.501000", "132424.504000", "132424.507000", "132424.510000", "132424.513000", "132424.515000", "132424.518000", "132424.520000", "132424.523000", "132424.526000", "132424.528000", "132424.531000", "132424.533000", "132444.513000", "132444.516000", "132444.519000", "132444.521000", "132444.524000", "132444.526000", "132444.529000", "132444.532000", "132444.534000", "132444.537000", "132444.540000", "132444.542000", "132444.545000", "132444.547000", "132444.550000", "132444.552000", "132444.555000", "132444.557000", "132444.560000", "132444.563000", "132444.565000", "132524.526000", "132524.529000", "132524.531000", "132524.534000", "132524.536000", "132524.539000", "132524.541000", "132524.544000", "132524.546000", "132524.549000", "132524.551000", "132524.554000", "132524.557000", "132524.559000", "132524.562000", "132524.564000", "132524.567000", "132524.569000", "132524.572000", "132524.574000", "132524.577000", "132524.580000", "132524.582000", "132524.585000", "132524.587000", "132524.590000", "132524.592000", "132524.595000", "132524.597000", "132604.500000", "132604.502000", "132604.505000", "132604.507000", "132604.510000", "132604.513000", "132604.515000", "132604.518000", "132604.520000", "132604.523000", "132604.525000", "132604.528000", "132604.530000", "132604.533000", "132604.535000", "132604.538000", "132604.540000", "132604.543000", "132604.545000", "132604.548000", "132604.551000", "132604.553000", "132604.556000", "132604.558000", "132604.561000", "132604.563000", "132604.566000", "132644.519000", "132644.522000", "132644.525000", "132644.527000", "132644.530000", "132644.532000", "132644.535000", "132644.537000", "132644.540000", "132644.542000", "132644.545000", "132644.547000", "132644.562000", "132644.575000", "132644.578000", "132644.581000", "132644.583000", "132644.586000", "132644.588000", "132644.591000", "132644.593000", "132644.596000", "132644.599000", "132644.601000", "132644.604000", "132644.606000", "132644.609000", "132654.386000", "132654.389000", "132654.392000", "132654.394000", "132654.405000", "132654.408000", "132654.410000"],
      "InstanceNumber": [1, 2, 3, 4, 5, 6, 7, 8, 9, 10, 11, 12, 13, 14, 15, 16, 17, 18, 19, 20, 21, 22, 23, 24, 25, 26, 27, 28, 29, 30, 31, 32, 33, 34, 35, 36, 37, 38, 39, 40, 41, 42, 43, 44, 45, 46, 47, 48, 49, 50, 51, 52, 53, 54, 55, 56, 57, 58, 59, 60, 61, 62, 63, 64, 65, 66, 67, 68, 69, 70, 71, 72, 73, 74, 75, 76, 77, 78, 79, 80, 81, 82, 83, 84, 85, 86, 87, 88, 89, 90, 91, 92, 93, 94, 95, 96, 97, 98, 99, 100, 101, 102, 103, 104, 105, 106, 107, 108, 109, 110, 111, 112, 113, 114, 115, 116, 117, 118, 119, 120, 121, 122, 123, 124, 125, 126, 127, 128, 129, 130, 131, 132, 133, 134, 135, 136, 137, 138, 139, 140, 141, 142, 143, 144, 145, 146, 147, 148, 149, 150, 151, 152, 153, 154, 155, 156, 157, 158, 159, 160, 161, 162, 163, 164, 165, 166, 167, 168, 169, 170, 171, 172, 173, 174, 175, 176, 177, 178, 179, 180, 181, 182, 183, 184, 185, 186, 187, 188, 189, 190],
      "WindowCenter": [4868.0, 4888.0, 4868.0, 4862.0, 4868.0, 4866.0, 4868.0, 4864.0, 4868.0, 4864.0, 4866.0, 4864.0, 4868.0, 4866.0, 4868.0, 4868.0, 4868.0, 4866.0, 4866.0, 4864.0, 4864.0, 4868.0, 4866.0, 4862.0, 4868.0, 4866.0, 4868.0, 4870.0, 4862.0, 4868.0, 4864.0, 4866.0, 4864.0, 4866.0, 4866.0, 4864.0, 4864.0, 4866.0, 4864.0, 4862.0, 4868.0, 4888.0, 4888.0, 4866.0, 4868.0, 4864.0, 4868.0, 4868.0, 4866.0, 4866.0, 4868.0, 4864.0, 4864.0, 4864.0, 4866.0, 4864.0, 4888.0, 4866.0, 4866.0, 4864.0, 4862.0, 4890.0, 4866.0, 4864.0, 4862.0, 4866.0, 4868.0, 4888.0, 4868.0, 4866.0, 4864.0, 4866.0, 4866.0, 4866.0, 4868.0, 4866.0, 4862.0, 4864.0, 4890.0, 4866.0, 4868.0, 4888.0, 4888.0, 4864.0, 4866.0, 4866.0, 4866.0, 4888.0, 4862.0, 4888.0, 4866.0, 4866.0, 4886.0, 4864.0, 4864.0, 4866.0, 4864.0, 4866.0, 4862.0, 4868.0, 4864.0, 4866.0, 4886.0, 4888.0, 4866.0, 4864.0, 4888.0, 4888.0, 4864.0, 4864.0, 4864.0, 4862.0, 4862.0, 4864.0, 4860.0, 4864.0, 4888.0, 4886.0, 4866.0, 4866.0, 4862.0, 4864.0, 4888.0, 4866.0, 4862.0, 4866.0, 4888.0, 4864.0, 4862.0, 4862.0, 4866.0, 4868.0, 4862.0, 4864.0, 4862.0, 4858.0, 4866.0, 4864.0, 4866.0, 4862.0, 4864.0, 4888.0, 4866.0, 4864.0, 4862.0, 4864.0, 4866.0, 4862.0, 4862.0, 4888.0, 4864.0, 4864.0, 4888.0, 4866.0, 4864.0, 4866.0, 4866.0, 4862.0, 4864.0, 4864.0, 4862.0, 4862.0, 4864.0, 4864.0, 4868.0, 4866.0, 4884.0, 4888.0, 4860.0, 4866.0, 4862.0, 4862.0, 4864.0, 4864.0, 4862.0, 4862.0, 4886.0, 4866.0, 4888.0, 4888.0, 4890.0, 4864.0, 4862.0, 4864.0, 4866.0, 4862.0, 4864.0, 4864.0, 4886.0, 4864.0],
      "WindowWidth": [18690.0, 18730.0, 18696.0, 18694.0, 18694.0, 18696.0, 18696.0, 18700.0, 18696.0, 18698.0, 18692.0, 18702.0, 18698.0, 18698.0, 18698.0, 18690.0, 18700.0, 18696.0, 18698.0, 18696.0, 18694.0, 18700.0, 18696.0, 18698.0, 18696.0, 18698.0, 18698.0, 18690.0, 18694.0, 18696.0, 18702.0, 18692.0, 18696.0, 18698.0, 18702.0, 18694.0, 18696.0, 18700.0, 18696.0, 18690.0, 18698.0, 18732.0, 18726.0, 18698.0, 18696.0, 18700.0, 18702.0, 18702.0, 18698.0, 18702.0, 18696.0, 18696.0, 18698.0, 18700.0, 18702.0, 18698.0, 18730.0, 18700.0, 18700.0, 18694.0, 18696.0, 18728.0, 18700.0, 18696.0, 18700.0, 18698.0, 18704.0, 18732.0, 18704.0, 18696.0, 18698.0, 18694.0, 18702.0, 18700.0, 18700.0, 18698.0, 18694.0, 18702.0, 18734.0, 18700.0, 18696.0, 18732.0, 18726.0, 18696.0, 18696.0, 18698.0, 18698.0, 18734.0, 18700.0, 18736.0, 18700.0, 18700.0, 18730.0, 18698.0, 18706.0, 18696.0, 18698.0, 18698.0, 18706.0, 18700.0, 18704.0, 18702.0, 18732.0, 18732.0, 18702.0, 18700.0, 18730.0, 18732.0, 18700.0, 18700.0, 18700.0, 18702.0, 18694.0, 18698.0, 18696.0, 18698.0, 18726.0, 18732.0, 18702.0, 18702.0, 18698.0, 18700.0, 18734.0, 18698.0, 18700.0, 18700.0, 18734.0, 18700.0, 18696.0, 18694.0, 18696.0, 18702.0, 18696.0, 18698.0, 18700.0, 18700.0, 18702.0, 18698.0, 18704.0, 18702.0, 18696.0, 18732.0, 18700.0, 18702.0, 18698.0, 18704.0, 18702.0, 18698.0, 18700.0, 18734.0, 18700.0, 18702.0, 18732.0, 18696.0, 18698.0, 18702.0, 18704.0, 18696.0, 18706.0, 18698.0, 18700.0, 18700.0, 18702.0, 18698.0, 18700.0, 18696.0, 18732.0, 18732.0, 18702.0, 18704.0, 18698.0, 18698.0, 18704.0, 18698.0, 18698.0, 18700.0, 18732.0, 18702.0, 18728.0, 18732.0, 18728.0, 18704.0, 18694.0, 18706.0, 18700.0, 18702.0, 18698.0, 18702.0, 18726.0, 18700.0]
    },
    "slices": {}
  }
}