{
  "AcquisitionMatrixPE": 104,
  "AcquisitionNumber": 1,
  "AcquisitionTime": "13:28:28.220000",
  "BandwidthPerPixelPhaseEncode": 17.17,
  "BaseResolution": 104,
  "BodyPartExamined": "BRAIN",
  "CoilCombinationMethod": "Sum of Squares",
  "ConsistencyInfo": "N4_VE11C_LATEST_20160120",
  "ConversionSoftware": "dcm2niix",
  "ConversionSoftwareVersion": "v1.0.20211006",
  "DerivedVendorReportedEchoSpacing": 0.000560011,
  "DeviceSerialNumber": "167006",
  "DwellTime": 2.1e-06,
  "EchoTime": 0.037,
  "EchoTrainLength": 104,
  "EffectiveEchoSpacing": 0.000560011,
  "FlipAngle": 52,
  "HeudiconvVersion": "0.10.0",
  "ImageComments": "Unaliased MB4/PE3/LB",
  "ImageOrientationPatientDICOM": [0.999235, 0.0029908, 0.0389992, 0.00854583, 0.956289, -0.292298],
  "ImageOrientationText": "Tra>Cor(-17.0)>Sag(2.2)",
  "ImageType": [
    "ORIGINAL",
    "PRIMARY",
    "M",
    "MB",
    "ND",
    "MOSAIC"
],
  "ImagingFrequency": 123.259,
  "InPlanePhaseEncodingDirectionDICOM": "COL",
  "InstitutionAddress": "Chemin Queen-Mary 4565,Montreal,District,CA,H3W 1W5",
  "InstitutionName": "IUGM",
  "InstitutionalDepartmentName": "Department",
  "MRAcquisitionType": "2D",
  "MagneticFieldStrength": 3,
  "Manufacturer": "Siemens",
  "ManufacturersModelName": "Prisma_fit",
  "MatrixCoilMode": "SENSE",
  "Modality": "MR",
  "MultibandAccelerationFactor": 4,
  "PartialFourier": 1,
  "PatientPosition": "HFS",
  "PercentPhaseFOV": 100,
  "PercentSampling": 100,
  "PhaseEncodingDirection": "j",
  "PhaseEncodingSteps": 104,
  "PhaseResolution": 1,
  "PixelBandwidth": 2290,
  "ProcedureStepDescription": "memory^things",
  "ProtocolName": "func_task-things_run-2",
  "PulseSequenceDetails": "%CustomerSeq%\\cmrr_mbep2d_bold",
  "ReceiveCoilActiveElements": "HC1-7;NC1,2",
  "ReceiveCoilName": "HeadNeck_64",
  "ReconMatrixPE": 104,
  "RepetitionTime": 1.49,
  "SAR": 0.0380342,
  "ScanOptions": "FS",
  "ScanningSequence": "EP",
  "SequenceName": "epfid2d1_104",
  "SequenceVariant": "SK\\SS",
  "SeriesDescription": "func_task-things_run-2",
  "SeriesNumber": 13,
  "ShimSetting": [635, -7194, -8761, 704, 24, 42, 12, 3],
  "SliceThickness": 2,
  "SliceTiming": [0, 0.785, 0.0975, 0.8825, 0.195, 0.98, 0.295, 1.0775, 0.3925, 1.175, 0.49, 1.275, 0.5875, 1.3725, 0.685, 0, 0.785, 0.0975, 0.8825, 0.195, 0.98, 0.295, 1.0775, 0.3925, 1.175, 0.49, 1.275, 0.5875, 1.3725, 0.685, 0, 0.785, 0.0975, 0.8825, 0.195, 0.98, 0.295, 1.0775, 0.3925, 1.175, 0.49, 1.275, 0.5875, 1.3725, 0.685, 0, 0.785, 0.0975, 0.8825, 0.195, 0.98, 0.295, 1.0775, 0.3925, 1.175, 0.49, 1.275, 0.5875, 1.3725, 0.685],
  "SoftwareVersions": "syngo MR E11",
  "SpacingBetweenSlices": 2,
  "StationName": "MRC35049",
  "TaskName": "things",
  "TotalReadoutTime": 0.0576811,
  "TxRefAmp": 218.843,
  "WipMemBlock": "bc8b1789-cb59-4dd2-90eb-b04b620bef3a||Sequence: R016 ve11c/master r/e634e98; Dec 19 2017 11:00:25 by eja",
  "dcmmeta_affine": [
    [-1.998469591140747, 0.0170916598290205, 0.07633738219738007, 106.06011199951172],
    [-0.005981605499982834, 1.9125784635543823, -0.5848144292831421, -71.04920959472656],
    [0.0779983401298523, 0.5845952033996582, 1.91106379032135, -61.29252624511719],
    [0.0, 0.0, 0.0, 1.0]
],
  "dcmmeta_reorient_transform": [
    [0.0, -1.0, 0.0, 103.0],
    [1.0, 0.0, 0.0, 0.0],
    [0.0, 0.0, 1.0, 0.0],
    [0.0, 0.0, 0.0, 1.0]
],
  "dcmmeta_shape": [104, 104, 60, 190],
  "dcmmeta_slice_dim": 2,
  "dcmmeta_version": 0.6,
  "global": {
    "const": {
      "AcquisitionMatrix": [104, 0, 0, 104],
      "AngioFlag": "N",
      "BitsAllocated": 16,
      "BitsStored": 16,
      "BodyPartExamined": "BRAIN",
      "Columns": 832,
      "EchoNumbers": 1,
      "EchoTime": 37.0,
      "EchoTrainLength": 104,
      "FlipAngle": 52.0,
      "HighBit": 15,
      "ImageOrientationPatient": [0.99923476716692, 0.00299080283111, 0.03899916900771, 0.00854583026069, 0.95628922705659, -0.2922975932174],
      "ImagePositionPatient": [-841.48482604972, -824.3022306704, 183.32203056536],
      "ImageType": [
        "ORIGINAL",
        "PRIMARY",
        "M",
        "MB",
        "ND",
        "MOSAIC"
],
      "ImagedNucleus": "1H",
      "ImagingFrequency": 123.258874,
      "InPlanePhaseEncodingDirection": "COL",
      "MRAcquisitionType": "2D",
      "MagneticFieldStrength": 3.0,
      "Manufacturer": "SIEMENS",
      "ManufacturerModelName": "Prisma_fit",
      "Modality": "MR",
      "NumberOfAverages": 1.0,
      "NumberOfPhaseEncodingSteps": 104,
      "PercentPhaseFieldOfView": 100.0,
      "PercentSampling": 100.0,
      "PerformedProcedureStepStartTime": "115408.209000",
      "PhotometricInterpretation": "MONOCHROME2",
      "PixelBandwidth": 2290.0,
      "PixelRepresentation": 0,
      "PixelSpacing": [2.0, 2.0],
      "ProtocolName": "func_task-things_run-2",
      "RepetitionTime": 1490.0,
      "Rows": 832,
      "SAR": 0.03803424272915,
      "SamplesPerPixel": 1,
      "ScanOptions": "FS",
      "ScanningSequence": "EP",
      "SequenceName": "epfid2d1_104",
      "SequenceVariant": [
        "SK",
        "SS"
],
      "SeriesDescription": "func_task-things_run-2",
      "SeriesNumber": 13,
      "SeriesTime": "132949.794000",
      "SliceLocation": -33.743486928894,
      "SliceThickness": 2.0,
      "SmallestImagePixelValue": 0,
      "SoftwareVersions": "syngo MR E11",
      "SpacingBetweenSlices": 2.0000000233182,
      "SpecificCharacterSet": "ISO_IR 100",
      "StudyID": "1",
      "StudyTime": "115408.138000",
      "TransmitCoilName": "Body",
      "VariableFlipAngleFlag": "N",
      "WindowCenterWidthExplanation": "Algo1",
      "dBdt": 0.0},
    "slices": {}
  },
  "time": {
    "samples": {
      "AcquisitionNumber": [1, 2, 3, 4, 5, 6, 7, 8, 9, 10, 11, 12, 13, 14, 15, 16, 17, 18, 19, 20, 21, 22, 23, 24, 25, 26, 27, 28, 29, 30, 31, 32, 33, 34, 35, 36, 37, 38, 39, 40, 41, 42, 43, 44, 45, 46, 47, 48, 49, 50, 51, 52, 53, 54, 55, 56, 57, 58, 59, 60, 61, 62, 63, 64, 65, 66, 67, 68, 69, 70, 71, 72, 73, 74, 75, 76, 77, 78, 79, 80, 81, 82, 83, 84, 85, 86, 87, 88, 89, 90, 91, 92, 93, 94, 95, 96, 97, 98, 99, 100, 101, 102, 103, 104, 105, 106, 107, 108, 109, 110, 111, 112, 113, 114, 115, 116, 117, 118, 119, 120, 121, 122, 123, 124, 125, 126, 127, 128, 129, 130, 131, 132, 133, 134, 135, 136, 137, 138, 139, 140, 141, 142, 143, 144, 145, 146, 147, 148, 149, 150, 151, 152, 153, 154, 155, 156, 157, 158, 159, 160, 161, 162, 163, 164, 165, 166, 167, 168, 169, 170, 171, 172, 173, 174, 175, 176, 177, 178, 179, 180, 181, 182, 183, 184, 185, 186, 187, 188, 189, 190],
      "AcquisitionTime": ["132828.220000", "132829.710000", "132831.200000", "132832.690000", "132834.180000", "132835.670000", "132837.160000", "132838.650000", "132840.140000", "132841.630000", "132843.120000", "132844.610000", "132846.100000", "132847.590000", "132849.080000", "132850.570000", "132852.060000", "132853.550000", "132855.040000", "132856.530000", "132858.020000", "132859.510000", "132901.000000", "132902.490000", "132903.980000", "132905.470000", "132906.960000", "132908.450000", "132909.940000", "132911.430000", "132912.920000", "132914.410000", "132915.900000", "132917.390000", "132918.880000", "132920.370000", "132921.860000", "132923.350000", "132924.840000", "132926.330000", "132927.820000", "132929.310000", "132930.800000", "132932.290000", "132933.780000", "132935.270000", "132936.760000", "132938.250000", "132939.740000", "132941.230000", "132942.720000", "132944.210000", "132945.700000", "132947.190000", "132948.680000", "132950.170000", "132951.660000", "132953.150000", "132954.640000", "132956.130000", "132957.620000", "132959.110000", "133000.600000", "133002.090000", "133003.580000", "133005.070000", "133006.560000", "133008.050000", "133009.540000", "133011.030000", "133012.520000", "133014.010000", "133015.500000", "133016.990000", "133018.480000", "133019.970000", "133021.460000", "133022.950000", "133024.440000", "133025.930000", "133027.420000", "133028.910000", "133030.400000", "133031.890000", "133033.380000", "133034.870000", "133036.360000", "133037.850000", "133039.340000", "133040.830000", "133042.320000", "133043.810000", "133045.300000", "133046.790000", "133048.280000", "133049.770000", "133051.260000", "133052.750000", "133054.240000", "133055.730000", "133057.220000", "133058.710000", "133100.200000", "133101.690000", "133103.180000", "133104.670000", "133106.160000", "133107.650000", "133109.140000", "133110.630000", "133112.120000", "133113.610000", "133115.100000", "133116.590000", "133118.080000", "133119.570000", "133121.060000", "133122.550000", "133124.040000", "133125.530000", "133127.020000", "133128.510000", "133130.000000", "133131.490000", "133132.980000", "133134.470000", "133135.960000", "133137.450000", "133138.940000", "133140.430000", "133141.920000", "133143.410000", "133144.900000", "133146.390000", "133147.880000", "133149.370000", "133150.860000", "133152.350000", "133153.840000", "133155.330000", "133156.820000", "133158.310000", "133159.800000", "133201.290000", "133202.780000", "133204.270000", "133205.760000", "133207.250000", "133208.740000", "133210.230000", "133211.720000", "133213.210000", "133214.700000", "133216.190000", "133217.680000", "133219.170000", "133220.660000", "133222.150000", "133223.640000", "133225.130000", "133226.620000", "133228.110000", "133229.600000", "133231.090000", "133232.580000", "133234.070000", "133235.560000", "133237.050000", "133238.540000", "133240.030000", "133241.520000", "133243.010000", "133244.500000", "133245.990000", "133247.480000", "133248.970000", "133250.460000", "133251.950000", "133253.440000", "133254.930000", "133256.420000", "133257.910000", "133259.400000", "133300.890000", "133302.380000", "133303.870000", "133305.360000", "133306.850000", "133308.340000", "133309.830000"],
      "ContentTime": ["132949.797000", "132949.801000", "132949.804000", "132949.808000", "132949.811000", "132949.814000", "132949.818000", "132949.821000", "132949.824000", "132949.828000", "132949.831000", "132949.835000", "132949.838000", "132949.841000", "132949.849000", "132949.852000", "132949.855000", "132949.858000", "132949.862000", "132949.865000", "132949.868000", "132949.872000", "132949.875000", "132949.878000", "132949.882000", "132949.885000", "132949.888000", "133009.755000", "133009.759000", "133009.762000", "133009.766000", "133009.769000", "133009.772000", "133009.776000", "133009.779000", "133009.782000", "133009.786000", "133009.789000", "133009.792000", "133009.796000", "133009.799000", "133009.802000", "133009.806000", "133009.809000", "133009.812000", "133009.816000", "133009.819000", "133009.822000", "133029.756000", "133029.760000", "133029.763000", "133029.766000", "133029.770000", "133029.773000", "133029.776000", "133029.780000", "133029.783000", "133029.786000", "133029.790000", "133029.793000", "133029.797000", "133029.800000", "133029.803000", "133029.806000", "133029.810000", "133029.813000", "133029.823000", "133029.826000", "133049.756000", "133049.760000", "133049.763000", "133049.766000", "133049.806000", "133049.809000", "133049.812000", "133049.815000", "133049.819000", "133049.822000", "133049.825000", "133049.828000", "133049.832000", "133049.835000", "133049.838000", "133049.842000", "133049.845000", "133049.858000", "133049.862000", "133049.865000", "133109.756000", "133109.760000", "133109.763000", "133109.766000", "133109.796000", "133109.799000", "133109.802000", "133109.805000", "133109.809000", "133109.812000", "133109.816000", "133109.819000", "133109.822000", "133109.826000", "133109.829000", "133109.832000", "133109.836000", "133109.839000", "133109.842000", "133109.845000", "133149.755000", "133149.759000", "133149.762000", "133149.766000", "133149.769000", "133149.772000", "133149.776000", "133149.779000", "133149.782000", "133149.786000", "133149.789000", "133149.792000", "133149.796000", "133149.799000", "133149.802000", "133149.805000", "133149.809000", "133149.812000", "133149.815000", "133149.822000", "133149.826000", "133149.829000", "133149.832000", "133149.836000", "133149.839000", "133149.842000", "133149.845000", "133229.755000", "133229.759000", "133229.762000", "133229.766000", "133229.769000", "133229.772000", "133229.776000", "133229.779000", "133229.782000", "133229.786000", "133229.789000", "133229.792000", "133229.796000", "133229.799000", "133229.802000", "133229.806000", "133229.810000", "133229.813000", "133229.816000", "133229.820000", "133229.823000", "133229.828000", "133229.831000", "133229.836000", "133229.839000", "133229.843000", "133309.756000", "133309.760000", "133309.763000", "133309.766000", "133309.770000", "133309.773000", "133309.777000", "133309.780000", "133309.783000", "133309.787000", "133309.790000", "133309.793000", "133309.797000", "133309.800000", "133309.803000", "133309.807000", "133309.810000", "133309.813000", "133309.817000", "133309.820000", "133309.823000", "133309.826000", "133309.830000", "133309.841000", "133309.844000", "133309.848000", "133309.851000", "133311.626000", "133311.630000"],
      "InstanceCreationTime": ["132949.797000", "132949.801000", "132949.804000", "132949.808000", "132949.811000", "132949.814000", "132949.818000", "132949.821000", "132949.824000", "132949.828000", "132949.831000", "132949.835000", "132949.838000", "132949.841000", "132949.849000", "132949.852000", "132949.855000", "132949.858000", "132949.862000", "132949.865000", "132949.868000", "132949.872000", "132949.875000", "132949.878000", "132949.882000", "132949.885000", "132949.888000", "133009.755000", "133009.759000", "133009.762000", "133009.766000", "133009.769000", "133009.772000", "133009.776000", "133009.779000", "133009.782000", "133009.786000", "133009.789000", "133009.792000", "133009.796000", "133009.799000", "133009.802000", "133009.806000", "133009.809000", "133009.812000", "133009.816000", "133009.819000", "133009.822000", "133029.756000", "133029.760000", "133029.763000", "133029.766000", "133029.770000", "133029.773000", "133029.776000", "133029.780000", "133029.783000", "133029.786000", "133029.790000", "133029.793000", "133029.797000", "133029.800000", "133029.803000", "133029.806000", "133029.810000", "133029.813000", "133029.823000", "133029.826000", "133049.756000", "133049.760000", "133049.763000", "133049.766000", "133049.806000", "133049.809000", "133049.812000", "133049.815000", "133049.819000", "133049.822000", "133049.825000", "133049.828000", "133049.832000", "133049.835000", "133049.838000", "133049.842000", "133049.845000", "133049.858000", "133049.862000", "133049.865000", "133109.756000", "133109.760000", "133109.763000", "133109.766000", "133109.796000", "133109.799000", "133109.802000", "133109.805000", "133109.809000", "133109.812000", "133109.816000", "133109.819000", "133109.822000", "133109.826000", "133109.829000", "133109.832000", "133109.836000", "133109.839000", "133109.842000", "133109.845000", "133149.755000", "133149.759000", "133149.762000", "133149.766000", "133149.769000", "133149.772000", "133149.776000", "133149.779000", "133149.782000", "133149.786000", "133149.789000", "133149.792000", "133149.796000", "133149.799000", "133149.802000", "133149.805000", "133149.809000", "133149.812000", "133149.815000", "133149.822000", "133149.826000", "133149.829000", "133149.832000", "133149.836000", "133149.839000", "133149.842000", "133149.845000", "133229.755000", "133229.759000", "133229.762000", "133229.766000", "133229.769000", "133229.772000", "133229.776000", "133229.779000", "133229.782000", "133229.786000", "133229.789000", "133229.792000", "133229.796000", "133229.799000", "133229.802000", "133229.806000", "133229.810000", "133229.813000", "133229.816000", "133229.820000", "133229.823000", "133229.828000", "133229.831000", "133229.836000", "133229.839000", "133229.843000", "133309.756000", "133309.760000", "133309.763000", "133309.766000", "133309.770000", "133309.773000", "133309.777000", "133309.780000", "133309.783000", "133309.787000", "133309.790000", "133309.793000", "133309.797000", "133309.800000", "133309.803000", "133309.807000", "133309.810000", "133309.813000", "133309.817000", "133309.820000", "133309.823000", "133309.826000", "133309.830000", "133309.841000", "133309.844000", "133309.848000", "133309.851000", "133311.626000", "133311.630000"],
      "InstanceNumber": [1, 2, 3, 4, 5, 6, 7, 8, 9, 10, 11, 12, 13, 14, 15, 16, 17, 18, 19, 20, 21, 22, 23, 24, 25, 26, 27, 28, 29, 30, 31, 32, 33, 34, 35, 36, 37, 38, 39, 40, 41, 42, 43, 44, 45, 46, 47, 48, 49, 50, 51, 52, 53, 54, 55, 56, 57, 58, 59, 60, 61, 62, 63, 64, 65, 66, 67, 68, 69, 70, 71, 72, 73, 74, 75, 76, 77, 78, 79, 80, 81, 82, 83, 84, 85, 86, 87, 88, 89, 90, 91, 92, 93, 94, 95, 96, 97, 98, 99, 100, 101, 102, 103, 104, 105, 106, 107, 108, 109, 110, 111, 112, 113, 114, 115, 116, 117, 118, 119, 120, 121, 122, 123, 124, 125, 126, 127, 128, 129, 130, 131, 132, 133, 134, 135, 136, 137, 138, 139, 140, 141, 142, 143, 144, 145, 146, 147, 148, 149, 150, 151, 152, 153, 154, 155, 156, 157, 158, 159, 160, 161, 162, 163, 164, 165, 166, 167, 168, 169, 170, 171, 172, 173, 174, 175, 176, 177, 178, 179, 180, 181, 182, 183, 184, 185, 186, 187, 188, 189, 190],
      "LargestImagePixelValue": [41084, 40137, 38905, 38221, 38328, 38283, 38293, 38430, 38690, 37999, 38681, 38315, 38288, 38026, 38104, 38179, 38212, 38520, 38030, 37930, 37916, 39083, 38905, 38507, 38140, 38126, 38617, 38396, 38169, 38435, 37960, 38262, 38413, 38393, 38300, 38112, 37678, 37717, 38545, 38303, 38345, 38373, 38181, 38068, 38194, 38635, 38708, 38006, 38318, 37917, 38042, 38014, 38119, 38447, 38061, 38238, 38175, 38035, 38677, 38544, 38703, 38643, 38976, 38322, 38216, 38325, 38224, 38377, 38570, 38342, 38026, 37875, 37926, 38048, 38490, 38500, 38656, 38103, 37978, 37964, 38148, 38463, 38452, 37874, 38302, 37900, 38353, 38283, 38449, 38548, 38504, 38281, 38347, 38415, 38478, 38276, 38177, 37954, 38199, 38389, 38299, 38566, 38133, 38149, 38190, 38507, 38217, 38404, 38775, 38587, 38015, 37623, 37973, 37939, 37954, 37812, 38197, 38888, 38755, 38479, 38790, 38115, 38301, 38036, 38511, 38749, 38721, 38167, 38597, 38700, 38470, 37953, 38308, 37846, 37940, 38452, 38090, 38330, 38596, 38111, 38239, 38050, 37626, 38060, 38355, 37954, 37472, 37692, 37835, 38024, 37848, 37567, 38088, 37852, 38314, 38146, 37806, 37614, 37860, 38153, 38332, 37770, 38086, 37994, 37961, 38382, 37893, 37708, 37743, 37855, 37807, 37453, 37845, 37731, 37994, 37963, 38181, 37905, 38337, 37851, 38504, 37875, 38057, 38260, 37854, 38386, 38207, 37969, 37566, 37640],
      "WindowCenter": [10105.0, 10079.0, 10071.0, 10055.0, 10051.0, 10047.0, 10047.0, 10048.0, 10049.0, 10043.0, 10047.0, 10048.0, 10042.0, 10035.0, 10033.0, 10033.0, 10033.0, 10025.0, 10015.0, 10005.0, 10006.0, 10025.0, 10044.0, 10046.0, 10033.0, 10024.0, 10037.0, 10031.0, 10033.0, 10040.0, 10040.0, 10040.0, 10046.0, 10048.0, 10041.0, 10034.0, 10010.0, 10000.0, 10004.0, 10020.0, 10037.0, 10034.0, 10017.0, 10000.0, 10003.0, 10020.0, 10052.0, 10050.0, 10048.0, 10026.0, 10023.0, 10022.0, 10024.0, 10024.0, 10023.0, 10013.0, 10012.0, 10008.0, 10020.0, 10024.0, 10029.0, 10029.0, 10029.0, 10030.0, 10032.0, 10040.0, 10032.0, 10031.0, 10037.0, 10047.0, 10042.0, 10021.0, 10007.0, 9999.0, 10013.0, 10032.0, 10044.0, 10041.0, 10034.0, 10026.0, 10016.0, 10030.0, 10040.0, 10044.0, 10043.0, 10029.0, 10017.0, 10005.0, 10012.0, 10022.0, 10024.0, 10023.0, 10024.0, 10023.0, 10023.0, 10023.0, 10016.0, 10016.0, 10025.0, 10030.0, 10031.0, 10023.0, 10017.0, 10024.0, 10035.0, 10041.0, 10035.0, 10041.0, 10047.0, 10050.0, 10037.0, 10037.0, 10044.0, 10052.0, 10045.0, 10037.0, 10032.0, 10029.0, 10030.0, 10041.0, 10039.0, 10025.0, 10009.0, 10000.0, 10005.0, 10015.0, 10015.0, 10011.0, 10029.0, 10040.0, 10067.0, 10073.0, 10057.0, 10024.0, 10005.0, 9999.0, 10002.0, 10031.0, 10060.0, 10058.0, 10042.0, 10021.0, 10012.0, 10024.0, 10039.0, 10030.0, 10006.0, 9996.0, 10001.0, 10016.0, 10010.0, 9995.0, 9990.0, 9998.0, 10013.0, 10015.0, 10001.0, 10000.0, 10000.0, 10014.0, 10022.0, 10016.0, 10009.0, 10008.0, 10024.0, 10032.0, 10028.0, 10020.0, 10025.0, 10028.0, 10028.0, 10018.0, 10018.0, 10020.0, 10019.0, 10014.0, 10006.0, 9990.0, 9996.0, 10005.0, 10015.0, 10010.0, 10008.0, 10003.0, 9984.0, 9987.0, 10004.0, 10024.0, 10022.0, 10011.0],
      "WindowWidth": [21529.0, 21452.0, 21422.0, 21381.0, 21362.0, 21348.0, 21345.0, 21349.0, 21351.0, 21342.0, 21344.0, 21349.0, 21337.0, 21323.0, 21315.0, 21316.0, 21316.0, 21297.0, 21275.0, 21250.0, 21255.0, 21292.0, 21336.0, 21342.0, 21315.0, 21296.0, 21320.0, 21310.0, 21319.0, 21331.0, 21331.0, 21330.0, 21342.0, 21347.0, 21332.0, 21315.0, 21264.0, 21241.0, 21246.0, 21281.0, 21320.0, 21317.0, 21277.0, 21242.0, 21243.0, 21284.0, 21355.0, 21355.0, 21346.0, 21300.0, 21291.0, 21287.0, 21294.0, 21295.0, 21291.0, 21267.0, 21265.0, 21260.0, 21283.0, 21296.0, 21304.0, 21302.0, 21300.0, 21303.0, 21310.0, 21328.0, 21311.0, 21308.0, 21320.0, 21342.0, 21333.0, 21287.0, 21254.0, 21239.0, 21270.0, 21312.0, 21336.0, 21331.0, 21317.0, 21299.0, 21278.0, 21304.0, 21328.0, 21342.0, 21337.0, 21306.0, 21275.0, 21247.0, 21263.0, 21287.0, 21293.0, 21290.0, 21293.0, 21290.0, 21290.0, 21289.0, 21275.0, 21274.0, 21294.0, 21303.0, 21304.0, 21289.0, 21278.0, 21293.0, 21317.0, 21327.0, 21318.0, 21331.0, 21343.0, 21348.0, 21324.0, 21324.0, 21340.0, 21358.0, 21342.0, 21323.0, 21306.0, 21299.0, 21304.0, 21329.0, 21322.0, 21291.0, 21254.0, 21235.0, 21246.0, 21271.0, 21270.0, 21264.0, 21299.0, 21327.0, 21388.0, 21404.0, 21366.0, 21293.0, 21248.0, 21234.0, 21245.0, 21306.0, 21374.0, 21373.0, 21338.0, 21287.0, 21266.0, 21288.0, 21322.0, 21307.0, 21254.0, 21230.0, 21239.0, 21273.0, 21260.0, 21227.0, 21210.0, 21229.0, 21262.0, 21270.0, 21240.0, 21234.0, 21234.0, 21264.0, 21284.0, 21272.0, 21257.0, 21256.0, 21291.0, 21309.0, 21301.0, 21285.0, 21294.0, 21305.0, 21302.0, 21279.0, 21277.0, 21283.0, 21280.0, 21265.0, 21245.0, 21212.0, 21223.0, 21246.0, 21270.0, 21263.0, 21256.0, 21240.0, 21200.0, 21205.0, 21244.0, 21294.0, 21293.0, 21264.0]
    },
    "slices": {}
  }
}