{
  "AcquisitionMatrixPE": 104,
  "AcquisitionNumber": 1,
  "AcquisitionTime": "13:28:28.220000",
  "BandwidthPerPixelPhaseEncode": 17.17,
  "BaseResolution": 104,
  "BodyPartExamined": "BRAIN",
  "CoilCombinationMethod": "Sum of Squares",
  "ConsistencyInfo": "N4_VE11C_LATEST_20160120",
  "ConversionSoftware": "dcm2niix",
  "ConversionSoftwareVersion": "v1.0.20211006",
  "DerivedVendorReportedEchoSpacing": 0.000560011,
  "DeviceSerialNumber": "167006",
  "DwellTime": 2.1e-06,
  "EchoTime": 0.037,
  "EchoTime1": 0.037,
  "EchoTime2": 0.001,
  "EchoTrainLength": 104,
  "EffectiveEchoSpacing": 0.000560011,
  "FlipAngle": 52,
  "HeudiconvVersion": "0.10.0",
  "ImageComments": "Unaliased MB4/PE3/LB",
  "ImageOrientationPatientDICOM": [0.999235, 0.0029908, 0.0389992, 0.00854583, 0.956289, -0.292298],
  "ImageOrientationText": "Tra>Cor(-17.0)>Sag(2.2)",
  "ImageType": [
    "ORIGINAL",
    "PRIMARY",
    "P",
    "MB",
    "ND",
    "MOSAIC",
    "PHASE"
],
  "ImagingFrequency": 123.259,
  "InPlanePhaseEncodingDirectionDICOM": "COL",
  "InstitutionAddress": "Chemin Queen-Mary 4565,Montreal,District,CA,H3W 1W5",
  "InstitutionName": "IUGM",
  "InstitutionalDepartmentName": "Department",
  "MRAcquisitionType": "2D",
  "MagneticFieldStrength": 3,
  "Manufacturer": "Siemens",
  "ManufacturersModelName": "Prisma_fit",
  "MatrixCoilMode": "SENSE",
  "Modality": "MR",
  "MultibandAccelerationFactor": 4,
  "PartialFourier": 1,
  "PatientPosition": "HFS",
  "PercentPhaseFOV": 100,
  "PercentSampling": 100,
  "PhaseEncodingDirection": "j",
  "PhaseEncodingSteps": 104,
  "PhaseResolution": 1,
  "PixelBandwidth": 2290,
  "ProcedureStepDescription": "memory^things",
  "ProtocolName": "func_task-things_run-2",
  "PulseSequenceDetails": "%CustomerSeq%\\cmrr_mbep2d_bold",
  "ReceiveCoilActiveElements": "HC1-7;NC1,2",
  "ReceiveCoilName": "HeadNeck_64",
  "ReconMatrixPE": 104,
  "RepetitionTime": 1.49,
  "SAR": 0.0380342,
  "ScanOptions": "FS",
  "ScanningSequence": "EP",
  "SequenceName": "epfid2d1_104",
  "SequenceVariant": "SK\\SS",
  "SeriesDescription": "func_task-things_run-2",
  "SeriesNumber": 14,
  "ShimSetting": [635, -7194, -8761, 704, 24, 42, 12, 3],
  "SliceThickness": 2,
  "SliceTiming": [0, 0.785, 0.0975, 0.8825, 0.195, 0.98, 0.295, 1.0775, 0.3925, 1.175, 0.49, 1.275, 0.5875, 1.3725, 0.685, 0, 0.785, 0.0975, 0.8825, 0.195, 0.98, 0.295, 1.0775, 0.3925, 1.175, 0.49, 1.275, 0.5875, 1.3725, 0.685, 0, 0.785, 0.0975, 0.8825, 0.195, 0.98, 0.295, 1.0775, 0.3925, 1.175, 0.49, 1.275, 0.5875, 1.3725, 0.685, 0, 0.785, 0.0975, 0.8825, 0.195, 0.98, 0.295, 1.0775, 0.3925, 1.175, 0.49, 1.275, 0.5875, 1.3725, 0.685],
  "SoftwareVersions": "syngo MR E11",
  "SpacingBetweenSlices": 2,
  "StationName": "MRC35049",
  "TaskName": "things",
  "TotalReadoutTime": 0.0576811,
  "TxRefAmp": 218.843,
  "WipMemBlock": "bc8b1789-cb59-4dd2-90eb-b04b620bef3a||Sequence: R016 ve11c/master r/e634e98; Dec 19 2017 11:00:25 by eja",
  "dcmmeta_affine": [
    [-1.998469591140747, 0.0170916598290205, 0.07633738219738007, 106.06011199951172],
    [-0.005981605499982834, 1.9125784635543823, -0.5848144292831421, -71.04920959472656],
    [0.0779983401298523, 0.5845952033996582, 1.91106379032135, -61.29252624511719],
    [0.0, 0.0, 0.0, 1.0]
],
  "dcmmeta_reorient_transform": [
    [0.0, -1.0, 0.0, 103.0],
    [1.0, 0.0, 0.0, 0.0],
    [0.0, 0.0, 1.0, 0.0],
    [0.0, 0.0, 0.0, 1.0]
],
  "dcmmeta_shape": [104, 104, 60, 190],
  "dcmmeta_slice_dim": 2,
  "dcmmeta_version": 0.6,
  "global": {
    "const": {
      "AcquisitionMatrix": [104, 0, 0, 104],
      "AngioFlag": "N",
      "BitsAllocated": 16,
      "BitsStored": 16,
      "BodyPartExamined": "BRAIN",
      "Columns": 832,
      "EchoNumbers": 1,
      "EchoTime": 37.0,
      "EchoTrainLength": 104,
      "FlipAngle": 52.0,
      "HighBit": 15,
      "ImageOrientationPatient": [0.99923476716692, 0.00299080283111, 0.03899916900771, 0.00854583026069, 0.95628922705659, -0.2922975932174],
      "ImagePositionPatient": [-841.48482604972, -824.3022306704, 183.32203056536],
      "ImageType": [
        "ORIGINAL",
        "PRIMARY",
        "P",
        "MB",
        "ND",
        "MOSAIC"
],
      "ImagedNucleus": "1H",
      "ImagingFrequency": 123.258874,
      "InPlanePhaseEncodingDirection": "COL",
      "LargestImagePixelValue": 4095,
      "MRAcquisitionType": "2D",
      "MagneticFieldStrength": 3.0,
      "Manufacturer": "SIEMENS",
      "ManufacturerModelName": "Prisma_fit",
      "Modality": "MR",
      "NumberOfAverages": 1.0,
      "NumberOfPhaseEncodingSteps": 104,
      "PercentPhaseFieldOfView": 100.0,
      "PercentSampling": 100.0,
      "PerformedProcedureStepStartTime": "115408.209000",
      "PhotometricInterpretation": "MONOCHROME2",
      "PixelBandwidth": 2290.0,
      "PixelRepresentation": 0,
      "PixelSpacing": [2.0, 2.0],
      "ProtocolName": "func_task-things_run-2",
      "RepetitionTime": 1490.0,
      "RescaleIntercept": -4096.0,
      "RescaleSlope": 2.0,
      "RescaleType": "US",
      "Rows": 832,
      "SAR": 0.03803424272915,
      "SamplesPerPixel": 1,
      "ScanOptions": "FS",
      "ScanningSequence": "EP",
      "SequenceName": "epfid2d1_104",
      "SequenceVariant": [
        "SK",
        "SS"
],
      "SeriesDescription": "func_task-things_run-2",
      "SeriesNumber": 14,
      "SeriesTime": "132949.959000",
      "SliceLocation": -33.743486928894,
      "SliceThickness": 2.0,
      "SmallestImagePixelValue": 0,
      "SoftwareVersions": "syngo MR E11",
      "SpacingBetweenSlices": 2.0000000233182,
      "SpecificCharacterSet": "ISO_IR 100",
      "StudyID": "1",
      "StudyTime": "115408.138000",
      "TransmitCoilName": "Body",
      "VariableFlipAngleFlag": "N",
      "WindowCenterWidthExplanation": "Algo1",
      "dBdt": 0.0},
    "slices": {}
  },
  "time": {
    "samples": {
      "AcquisitionNumber": [1, 2, 3, 4, 5, 6, 7, 8, 9, 10, 11, 12, 13, 14, 15, 16, 17, 18, 19, 20, 21, 22, 23, 24, 25, 26, 27, 28, 29, 30, 31, 32, 33, 34, 35, 36, 37, 38, 39, 40, 41, 42, 43, 44, 45, 46, 47, 48, 49, 50, 51, 52, 53, 54, 55, 56, 57, 58, 59, 60, 61, 62, 63, 64, 65, 66, 67, 68, 69, 70, 71, 72, 73, 74, 75, 76, 77, 78, 79, 80, 81, 82, 83, 84, 85, 86, 87, 88, 89, 90, 91, 92, 93, 94, 95, 96, 97, 98, 99, 100, 101, 102, 103, 104, 105, 106, 107, 108, 109, 110, 111, 112, 113, 114, 115, 116, 117, 118, 119, 120, 121, 122, 123, 124, 125, 126, 127, 128, 129, 130, 131, 132, 133, 134, 135, 136, 137, 138, 139, 140, 141, 142, 143, 144, 145, 146, 147, 148, 149, 150, 151, 152, 153, 154, 155, 156, 157, 158, 159, 160, 161, 162, 163, 164, 165, 166, 167, 168, 169, 170, 171, 172, 173, 174, 175, 176, 177, 178, 179, 180, 181, 182, 183, 184, 185, 186, 187, 188, 189, 190],
      "AcquisitionTime": ["132828.220000", "132829.710000", "132831.200000", "132832.690000", "132834.180000", "132835.670000", "132837.160000", "132838.650000", "132840.140000", "132841.630000", "132843.120000", "132844.610000", "132846.100000", "132847.590000", "132849.080000", "132850.570000", "132852.060000", "132853.550000", "132855.040000", "132856.530000", "132858.020000", "132859.510000", "132901.000000", "132902.490000", "132903.980000", "132905.470000", "132906.960000", "132908.450000", "132909.940000", "132911.430000", "132912.920000", "132914.410000", "132915.900000", "132917.390000", "132918.880000", "132920.370000", "132921.860000", "132923.350000", "132924.840000", "132926.330000", "132927.820000", "132929.310000", "132930.800000", "132932.290000", "132933.780000", "132935.270000", "132936.760000", "132938.250000", "132939.740000", "132941.230000", "132942.720000", "132944.210000", "132945.700000", "132947.190000", "132948.680000", "132950.170000", "132951.660000", "132953.150000", "132954.640000", "132956.130000", "132957.620000", "132959.110000", "133000.600000", "133002.090000", "133003.580000", "133005.070000", "133006.560000", "133008.050000", "133009.540000", "133011.030000", "133012.520000", "133014.010000", "133015.500000", "133016.990000", "133018.480000", "133019.970000", "133021.460000", "133022.950000", "133024.440000", "133025.930000", "133027.420000", "133028.910000", "133030.400000", "133031.890000", "133033.380000", "133034.870000", "133036.360000", "133037.850000", "133039.340000", "133040.830000", "133042.320000", "133043.810000", "133045.300000", "133046.790000", "133048.280000", "133049.770000", "133051.260000", "133052.750000", "133054.240000", "133055.730000", "133057.220000", "133058.710000", "133100.200000", "133101.690000", "133103.180000", "133104.670000", "133106.160000", "133107.650000", "133109.140000", "133110.630000", "133112.120000", "133113.610000", "133115.100000", "133116.590000", "133118.080000", "133119.570000", "133121.060000", "133122.550000", "133124.040000", "133125.530000", "133127.020000", "133128.510000", "133130.000000", "133131.490000", "133132.980000", "133134.470000", "133135.960000", "133137.450000", "133138.940000", "133140.430000", "133141.920000", "133143.410000", "133144.900000", "133146.390000", "133147.880000", "133149.370000", "133150.860000", "133152.350000", "133153.840000", "133155.330000", "133156.820000", "133158.310000", "133159.800000", "133201.290000", "133202.780000", "133204.270000", "133205.760000", "133207.250000", "133208.740000", "133210.230000", "133211.720000", "133213.210000", "133214.700000", "133216.190000", "133217.680000", "133219.170000", "133220.660000", "133222.150000", "133223.640000", "133225.130000", "133226.620000", "133228.110000", "133229.600000", "133231.090000", "133232.580000", "133234.070000", "133235.560000", "133237.050000", "133238.540000", "133240.030000", "133241.520000", "133243.010000", "133244.500000", "133245.990000", "133247.480000", "133248.970000", "133250.460000", "133251.950000", "133253.440000", "133254.930000", "133256.420000", "133257.910000", "133259.400000", "133300.890000", "133302.380000", "133303.870000", "133305.360000", "133306.850000", "133308.340000", "133309.830000"],
      "ContentTime": ["132949.961000", "132949.965000", "132949.967000", "132949.970000", "132949.973000", "132949.985000", "132949.988000", "132949.991000", "132949.993000", "132949.995000", "132949.998000", "132950.002000", "132950.004000", "132950.007000", "132950.009000", "132950.012000", "132950.014000", "132950.017000", "132950.019000", "132950.022000", "132950.024000", "132950.027000", "132950.029000", "132950.032000", "132950.034000", "132950.037000", "132950.039000", "133009.865000", "133009.868000", "133009.871000", "133009.873000", "133009.876000", "133009.878000", "133009.881000", "133009.883000", "133009.886000", "133009.888000", "133009.891000", "133009.893000", "133009.896000", "133009.898000", "133009.901000", "133009.903000", "133009.906000", "133009.908000", "133009.911000", "133009.913000", "133009.916000", "133029.859000", "133029.862000", "133029.865000", "133029.867000", "133029.870000", "133029.872000", "133029.875000", "133029.877000", "133029.880000", "133029.882000", "133029.885000", "133029.887000", "133029.890000", "133029.892000", "133029.895000", "133029.897000", "133029.900000", "133029.902000", "133029.905000", "133029.907000", "133049.910000", "133049.913000", "133049.915000", "133049.918000", "133049.930000", "133049.933000", "133049.935000", "133049.938000", "133049.940000", "133049.943000", "133049.945000", "133049.948000", "133049.950000", "133049.953000", "133049.955000", "133049.958000", "133049.960000", "133049.963000", "133049.965000", "133049.968000", "133109.898000", "133109.900000", "133109.903000", "133109.905000", "133109.908000", "133109.910000", "133109.913000", "133109.915000", "133109.918000", "133109.921000", "133109.923000", "133109.925000", "133109.928000", "133109.931000", "133109.933000", "133109.936000", "133109.938000", "133109.941000", "133109.943000", "133109.946000", "133149.894000", "133149.897000", "133149.899000", "133149.902000", "133149.904000", "133149.907000", "133149.909000", "133149.912000", "133149.914000", "133149.917000", "133149.919000", "133149.922000", "133149.924000", "133149.927000", "133149.930000", "133149.932000", "133149.935000", "133149.937000", "133149.940000", "133149.942000", "133149.945000", "133149.948000", "133149.950000", "133149.953000", "133149.955000", "133149.958000", "133149.960000", "133230.312000", "133230.314000", "133230.317000", "133230.319000", "133230.322000", "133230.324000", "133230.327000", "133230.330000", "133230.332000", "133230.335000", "133230.337000", "133230.340000", "133230.342000", "133230.345000", "133230.347000", "133230.350000", "133230.352000", "133230.355000", "133230.357000", "133230.360000", "133230.362000", "133230.365000", "133230.367000", "133230.370000", "133230.372000", "133230.375000", "133309.904000", "133309.907000", "133309.909000", "133309.912000", "133309.914000", "133309.917000", "133309.921000", "133309.923000", "133309.926000", "133309.928000", "133309.931000", "133309.934000", "133309.936000", "133309.939000", "133309.941000", "133309.944000", "133309.946000", "133309.949000", "133309.951000", "133309.954000", "133309.956000", "133309.959000", "133309.961000", "133309.964000", "133309.966000", "133309.969000", "133309.971000", "133311.659000", "133311.662000"],
      "InstanceCreationTime": ["132949.961000", "132949.965000", "132949.967000", "132949.970000", "132949.973000", "132949.985000", "132949.988000", "132949.991000", "132949.993000", "132949.995000", "132949.998000", "132950.002000", "132950.004000", "132950.007000", "132950.009000", "132950.012000", "132950.014000", "132950.017000", "132950.019000", "132950.022000", "132950.024000", "132950.027000", "132950.029000", "132950.032000", "132950.034000", "132950.037000", "132950.039000", "133009.865000", "133009.868000", "133009.871000", "133009.873000", "133009.876000", "133009.878000", "133009.881000", "133009.883000", "133009.886000", "133009.888000", "133009.891000", "133009.893000", "133009.896000", "133009.898000", "133009.901000", "133009.903000", "133009.906000", "133009.908000", "133009.911000", "133009.913000", "133009.916000", "133029.859000", "133029.862000", "133029.865000", "133029.867000", "133029.870000", "133029.872000", "133029.875000", "133029.877000", "133029.880000", "133029.882000", "133029.885000", "133029.887000", "133029.890000", "133029.892000", "133029.895000", "133029.897000", "133029.900000", "133029.902000", "133029.905000", "133029.907000", "133049.910000", "133049.913000", "133049.915000", "133049.918000", "133049.930000", "133049.933000", "133049.935000", "133049.938000", "133049.940000", "133049.943000", "133049.945000", "133049.948000", "133049.950000", "133049.953000", "133049.955000", "133049.958000", "133049.960000", "133049.963000", "133049.965000", "133049.968000", "133109.898000", "133109.900000", "133109.903000", "133109.905000", "133109.908000", "133109.910000", "133109.913000", "133109.915000", "133109.918000", "133109.921000", "133109.923000", "133109.925000", "133109.928000", "133109.931000", "133109.933000", "133109.936000", "133109.938000", "133109.941000", "133109.943000", "133109.946000", "133149.894000", "133149.897000", "133149.899000", "133149.902000", "133149.904000", "133149.907000", "133149.909000", "133149.912000", "133149.914000", "133149.917000", "133149.919000", "133149.922000", "133149.924000", "133149.927000", "133149.930000", "133149.932000", "133149.935000", "133149.937000", "133149.940000", "133149.942000", "133149.945000", "133149.948000", "133149.950000", "133149.953000", "133149.955000", "133149.958000", "133149.960000", "133230.312000", "133230.314000", "133230.317000", "133230.319000", "133230.322000", "133230.324000", "133230.327000", "133230.330000", "133230.332000", "133230.335000", "133230.337000", "133230.340000", "133230.342000", "133230.345000", "133230.347000", "133230.350000", "133230.352000", "133230.355000", "133230.357000", "133230.360000", "133230.362000", "133230.365000", "133230.367000", "133230.370000", "133230.372000", "133230.375000", "133309.904000", "133309.907000", "133309.909000", "133309.912000", "133309.914000", "133309.917000", "133309.921000", "133309.923000", "133309.926000", "133309.928000", "133309.931000", "133309.934000", "133309.936000", "133309.939000", "133309.941000", "133309.944000", "133309.946000", "133309.949000", "133309.951000", "133309.954000", "133309.956000", "133309.959000", "133309.961000", "133309.964000", "133309.966000", "133309.969000", "133309.971000", "133311.659000", "133311.662000"],
      "InstanceNumber": [1, 2, 3, 4, 5, 6, 7, 8, 9, 10, 11, 12, 13, 14, 15, 16, 17, 18, 19, 20, 21, 22, 23, 24, 25, 26, 27, 28, 29, 30, 31, 32, 33, 34, 35, 36, 37, 38, 39, 40, 41, 42, 43, 44, 45, 46, 47, 48, 49, 50, 51, 52, 53, 54, 55, 56, 57, 58, 59, 60, 61, 62, 63, 64, 65, 66, 67, 68, 69, 70, 71, 72, 73, 74, 75, 76, 77, 78, 79, 80, 81, 82, 83, 84, 85, 86, 87, 88, 89, 90, 91, 92, 93, 94, 95, 96, 97, 98, 99, 100, 101, 102, 103, 104, 105, 106, 107, 108, 109, 110, 111, 112, 113, 114, 115, 116, 117, 118, 119, 120, 121, 122, 123, 124, 125, 126, 127, 128, 129, 130, 131, 132, 133, 134, 135, 136, 137, 138, 139, 140, 141, 142, 143, 144, 145, 146, 147, 148, 149, 150, 151, 152, 153, 154, 155, 156, 157, 158, 159, 160, 161, 162, 163, 164, 165, 166, 167, 168, 169, 170, 171, 172, 173, 174, 175, 176, 177, 178, 179, 180, 181, 182, 183, 184, 185, 186, 187, 188, 189, 190],
      "WindowCenter": [4870.0, 4874.0, 4894.0, 4876.0, 4870.0, 4870.0, 4874.0, 4874.0, 4898.0, 4870.0, 4872.0, 4874.0, 4872.0, 4872.0, 4872.0, 4870.0, 4896.0, 4872.0, 4870.0, 4874.0, 4874.0, 4896.0, 4896.0, 4870.0, 4894.0, 4876.0, 4870.0, 4872.0, 4872.0, 4870.0, 4872.0, 4872.0, 4894.0, 4896.0, 4874.0, 4870.0, 4872.0, 4896.0, 4870.0, 4894.0, 4874.0, 4894.0, 4872.0, 4872.0, 4868.0, 4896.0, 4870.0, 4874.0, 4874.0, 4876.0, 4870.0, 4872.0, 4870.0, 4896.0, 4870.0, 4868.0, 4872.0, 4870.0, 4894.0, 4872.0, 4894.0, 4870.0, 4896.0, 4872.0, 4868.0, 4872.0, 4872.0, 4872.0, 4872.0, 4894.0, 4872.0, 4872.0, 4872.0, 4894.0, 4872.0, 4892.0, 4872.0, 4894.0, 4870.0, 4896.0, 4874.0, 4874.0, 4892.0, 4896.0, 4874.0, 4870.0, 4876.0, 4896.0, 4872.0, 4872.0, 4872.0, 4896.0, 4872.0, 4872.0, 4870.0, 4894.0, 4870.0, 4872.0, 4894.0, 4872.0, 4874.0, 4870.0, 4870.0, 4868.0, 4890.0, 4870.0, 4892.0, 4870.0, 4870.0, 4870.0, 4872.0, 4868.0, 4870.0, 4872.0, 4894.0, 4892.0, 4870.0, 4872.0, 4874.0, 4896.0, 4894.0, 4894.0, 4874.0, 4870.0, 4872.0, 4872.0, 4868.0, 4894.0, 4872.0, 4892.0, 4874.0, 4896.0, 4874.0, 4868.0, 4872.0, 4874.0, 4870.0, 4872.0, 4896.0, 4872.0, 4894.0, 4872.0, 4868.0, 4892.0, 4870.0, 4872.0, 4872.0, 4892.0, 4872.0, 4868.0, 4874.0, 4874.0, 4872.0, 4896.0, 4872.0, 4892.0, 4896.0, 4894.0, 4872.0, 4870.0, 4872.0, 4874.0, 4872.0, 4870.0, 4894.0, 4870.0, 4870.0, 4892.0, 4894.0, 4872.0, 4868.0, 4872.0, 4872.0, 4894.0, 4872.0, 4872.0, 4894.0, 4868.0, 4896.0, 4870.0, 4894.0, 4894.0, 4890.0, 4870.0, 4870.0, 4872.0, 4894.0, 4872.0, 4896.0, 4894.0],
      "WindowWidth": [18676.0, 18680.0, 18716.0, 18682.0, 18682.0, 18680.0, 18684.0, 18688.0, 18720.0, 18684.0, 18680.0, 18682.0, 18678.0, 18684.0, 18686.0, 18680.0, 18716.0, 18682.0, 18682.0, 18682.0, 18688.0, 18716.0, 18716.0, 18680.0, 18714.0, 18682.0, 18688.0, 18682.0, 18688.0, 18682.0, 18684.0, 18682.0, 18712.0, 18712.0, 18680.0, 18686.0, 18678.0, 18718.0, 18682.0, 18720.0, 18682.0, 18720.0, 18682.0, 18686.0, 18686.0, 18716.0, 18684.0, 18682.0, 18686.0, 18684.0, 18684.0, 18684.0, 18680.0, 18716.0, 18690.0, 18680.0, 18682.0, 18684.0, 18712.0, 18688.0, 18714.0, 18682.0, 18714.0, 18690.0, 18688.0, 18684.0, 18688.0, 18684.0, 18680.0, 18716.0, 18682.0, 18682.0, 18684.0, 18716.0, 18682.0, 18714.0, 18688.0, 18724.0, 18684.0, 18722.0, 18682.0, 18684.0, 18714.0, 18718.0, 18686.0, 18682.0, 18682.0, 18714.0, 18686.0, 18686.0, 18684.0, 18714.0, 18690.0, 18684.0, 18684.0, 18712.0, 18688.0, 18678.0, 18714.0, 18684.0, 18688.0, 18678.0, 18688.0, 18684.0, 18714.0, 18686.0, 18718.0, 18684.0, 18676.0, 18684.0, 18684.0, 18686.0, 18686.0, 18686.0, 18716.0, 18718.0, 18690.0, 18686.0, 18682.0, 18716.0, 18714.0, 18714.0, 18684.0, 18686.0, 18688.0, 18688.0, 18684.0, 18716.0, 18684.0, 18716.0, 18684.0, 18714.0, 18688.0, 18682.0, 18684.0, 18684.0, 18680.0, 18690.0, 18722.0, 18686.0, 18720.0, 18686.0, 18688.0, 18722.0, 18686.0, 18690.0, 18682.0, 18718.0, 18680.0, 18684.0, 18688.0, 18690.0, 18688.0, 18726.0, 18690.0, 18720.0, 18722.0, 18714.0, 18686.0, 18684.0, 18682.0, 18690.0, 18686.0, 18682.0, 18718.0, 18688.0, 18688.0, 18716.0, 18718.0, 18690.0, 18684.0, 18682.0, 18686.0, 18718.0, 18684.0, 18686.0, 18716.0, 18682.0, 18718.0, 18686.0, 18716.0, 18714.0, 18716.0, 18688.0, 18686.0, 18682.0, 18720.0, 18690.0, 18722.0, 18720.0]
    },
    "slices": {}
  }
}