{
  "AcquisitionMatrixPE": 104,
  "AcquisitionNumber": 1,
  "AcquisitionTime": "13:41:11.147500",
  "BandwidthPerPixelPhaseEncode": 17.17,
  "BaseResolution": 104,
  "BodyPartExamined": "BRAIN",
  "CoilCombinationMethod": "Sum of Squares",
  "ConsistencyInfo": "N4_VE11C_LATEST_20160120",
  "ConversionSoftware": "dcm2niix",
  "ConversionSoftwareVersion": "v1.0.20211006",
  "DerivedVendorReportedEchoSpacing": 0.000560011,
  "DeviceSerialNumber": "167006",
  "DwellTime": 2.1e-06,
  "EchoTime": 0.037,
  "EchoTrainLength": 104,
  "EffectiveEchoSpacing": 0.000560011,
  "FlipAngle": 52,
  "HeudiconvVersion": "0.10.0",
  "ImageComments": "Unaliased MB4/PE3/LB",
  "ImageOrientationPatientDICOM": [0.999235, 0.0029908, 0.0389992, 0.00854583, 0.956289, -0.292298],
  "ImageOrientationText": "Tra>Cor(-17.0)>Sag(2.2)",
  "ImageType": [
    "ORIGINAL",
    "PRIMARY",
    "M",
    "MB",
    "ND",
    "MOSAIC"
],
  "ImagingFrequency": 123.259,
  "InPlanePhaseEncodingDirectionDICOM": "COL",
  "InstitutionAddress": "Chemin Queen-Mary 4565,Montreal,District,CA,H3W 1W5",
  "InstitutionName": "IUGM",
  "InstitutionalDepartmentName": "Department",
  "MRAcquisitionType": "2D",
  "MagneticFieldStrength": 3,
  "Manufacturer": "Siemens",
  "ManufacturersModelName": "Prisma_fit",
  "MatrixCoilMode": "SENSE",
  "Modality": "MR",
  "MultibandAccelerationFactor": 4,
  "PartialFourier": 1,
  "PatientPosition": "HFS",
  "PercentPhaseFOV": 100,
  "PercentSampling": 100,
  "PhaseEncodingDirection": "j",
  "PhaseEncodingSteps": 104,
  "PhaseResolution": 1,
  "PixelBandwidth": 2290,
  "ProcedureStepDescription": "memory^things",
  "ProtocolName": "func_task-things_run-4",
  "PulseSequenceDetails": "%CustomerSeq%\\cmrr_mbep2d_bold",
  "ReceiveCoilActiveElements": "HC1-7;NC1,2",
  "ReceiveCoilName": "HeadNeck_64",
  "ReconMatrixPE": 104,
  "RepetitionTime": 1.49,
  "SAR": 0.0380342,
  "ScanOptions": "FS",
  "ScanningSequence": "EP",
  "SequenceName": "epfid2d1_104",
  "SequenceVariant": "SK\\SS",
  "SeriesDescription": "func_task-things_run-4",
  "SeriesNumber": 19,
  "ShimSetting": [635, -7194, -8761, 704, 24, 42, 12, 3],
  "SliceThickness": 2,
  "SliceTiming": [0, 0.7825, 0.0975, 0.8825, 0.195, 0.98, 0.295, 1.0775, 0.3925, 1.175, 0.49, 1.2725, 0.5875, 1.3725, 0.685, 0, 0.7825, 0.0975, 0.8825, 0.195, 0.98, 0.295, 1.0775, 0.3925, 1.175, 0.49, 1.2725, 0.5875, 1.3725, 0.685, 0, 0.7825, 0.0975, 0.8825, 0.195, 0.98, 0.295, 1.0775, 0.3925, 1.175, 0.49, 1.2725, 0.5875, 1.3725, 0.685, 0, 0.7825, 0.0975, 0.8825, 0.195, 0.98, 0.295, 1.0775, 0.3925, 1.175, 0.49, 1.2725, 0.5875, 1.3725, 0.685],
  "SoftwareVersions": "syngo MR E11",
  "SpacingBetweenSlices": 2,
  "StationName": "MRC35049",
  "TaskName": "things",
  "TotalReadoutTime": 0.0576811,
  "TxRefAmp": 218.843,
  "WipMemBlock": "4d19635c-7ae3-42e7-b909-1bcdec75d177||Sequence: R016 ve11c/master r/e634e98; Dec 19 2017 11:00:25 by eja",
  "dcmmeta_affine": [
    [-1.998469591140747, 0.0170916598290205, 0.07633738219738007, 106.06011199951172],
    [-0.005981605499982834, 1.9125784635543823, -0.5848144292831421, -71.04920959472656],
    [0.0779983401298523, 0.5845952033996582, 1.91106379032135, -61.29252624511719],
    [0.0, 0.0, 0.0, 1.0]
],
  "dcmmeta_reorient_transform": [
    [0.0, -1.0, 0.0, 103.0],
    [1.0, 0.0, 0.0, 0.0],
    [0.0, 0.0, 1.0, 0.0],
    [0.0, 0.0, 0.0, 1.0]
],
  "dcmmeta_shape": [104, 104, 60, 190],
  "dcmmeta_slice_dim": 2,
  "dcmmeta_version": 0.6,
  "global": {
    "const": {
      "AcquisitionMatrix": [104, 0, 0, 104],
      "AngioFlag": "N",
      "BitsAllocated": 16,
      "BitsStored": 16,
      "BodyPartExamined": "BRAIN",
      "Columns": 832,
      "EchoNumbers": 1,
      "EchoTime": 37.0,
      "EchoTrainLength": 104,
      "FlipAngle": 52.0,
      "HighBit": 15,
      "ImageOrientationPatient": [0.99923476716692, 0.00299080283111, 0.03899916900771, 0.00854583026069, 0.95628922705659, -0.2922975932174],
      "ImagePositionPatient": [-841.48482604972, -824.3022306704, 183.32203056536],
      "ImageType": [
        "ORIGINAL",
        "PRIMARY",
        "M",
        "MB",
        "ND",
        "MOSAIC"
],
      "ImagedNucleus": "1H",
      "ImagingFrequency": 123.25888,
      "InPlanePhaseEncodingDirection": "COL",
      "MRAcquisitionType": "2D",
      "MagneticFieldStrength": 3.0,
      "Manufacturer": "SIEMENS",
      "ManufacturerModelName": "Prisma_fit",
      "Modality": "MR",
      "NumberOfAverages": 1.0,
      "NumberOfPhaseEncodingSteps": 104,
      "PercentPhaseFieldOfView": 100.0,
      "PercentSampling": 100.0,
      "PerformedProcedureStepStartTime": "115408.209000",
      "PhotometricInterpretation": "MONOCHROME2",
      "PixelBandwidth": 2290.0,
      "PixelRepresentation": 0,
      "PixelSpacing": [2.0, 2.0],
      "ProtocolName": "func_task-things_run-4",
      "RepetitionTime": 1490.0,
      "Rows": 832,
      "SAR": 0.03803424272915,
      "SamplesPerPixel": 1,
      "ScanOptions": "FS",
      "ScanningSequence": "EP",
      "SequenceName": "epfid2d1_104",
      "SequenceVariant": [
        "SK",
        "SS"
],
      "SeriesDescription": "func_task-things_run-4",
      "SeriesNumber": 19,
      "SeriesTime": "134244.399000",
      "SliceLocation": -33.743486928894,
      "SliceThickness": 2.0,
      "SmallestImagePixelValue": 0,
      "SoftwareVersions": "syngo MR E11",
      "SpacingBetweenSlices": 2.0000000233182,
      "SpecificCharacterSet": "ISO_IR 100",
      "StudyID": "1",
      "StudyTime": "115408.138000",
      "TransmitCoilName": "Body",
      "VariableFlipAngleFlag": "N",
      "WindowCenterWidthExplanation": "Algo1",
      "dBdt": 0.0},
    "slices": {}
  },
  "time": {
    "samples": {
      "AcquisitionNumber": [1, 2, 3, 4, 5, 6, 7, 8, 9, 10, 11, 12, 13, 14, 15, 16, 17, 18, 19, 20, 21, 22, 23, 24, 25, 26, 27, 28, 29, 30, 31, 32, 33, 34, 35, 36, 37, 38, 39, 40, 41, 42, 43, 44, 45, 46, 47, 48, 49, 50, 51, 52, 53, 54, 55, 56, 57, 58, 59, 60, 61, 62, 63, 64, 65, 66, 67, 68, 69, 70, 71, 72, 73, 74, 75, 76, 77, 78, 79, 80, 81, 82, 83, 84, 85, 86, 87, 88, 89, 90, 91, 92, 93, 94, 95, 96, 97, 98, 99, 100, 101, 102, 103, 104, 105, 106, 107, 108, 109, 110, 111, 112, 113, 114, 115, 116, 117, 118, 119, 120, 121, 122, 123, 124, 125, 126, 127, 128, 129, 130, 131, 132, 133, 134, 135, 136, 137, 138, 139, 140, 141, 142, 143, 144, 145, 146, 147, 148, 149, 150, 151, 152, 153, 154, 155, 156, 157, 158, 159, 160, 161, 162, 163, 164, 165, 166, 167, 168, 169, 170, 171, 172, 173, 174, 175, 176, 177, 178, 179, 180, 181, 182, 183, 184, 185, 186, 187, 188, 189, 190],
      "AcquisitionTime": ["134111.147500", "134112.637500", "134114.127500", "134115.617500", "134117.107500", "134118.597500", "134120.087500", "134121.577500", "134123.067500", "134124.557500", "134126.047500", "134127.537500", "134129.027500", "134130.517500", "134132.007500", "134133.497500", "134134.987500", "134136.477500", "134137.967500", "134139.457500", "134140.947500", "134142.437500", "134143.927500", "134145.417500", "134146.907500", "134148.397500", "134149.887500", "134151.377500", "134152.867500", "134154.357500", "134155.847500", "134157.337500", "134158.827500", "134200.317500", "134201.807500", "134203.297500", "134204.787500", "134206.277500", "134207.767500", "134209.257500", "134210.747500", "134212.237500", "134213.727500", "134215.217500", "134216.707500", "134218.197500", "134219.687500", "134221.177500", "134222.667500", "134224.157500", "134225.647500", "134227.137500", "134228.627500", "134230.117500", "134231.607500", "134233.097500", "134234.587500", "134236.077500", "134237.567500", "134239.057500", "134240.547500", "134242.037500", "134243.527500", "134245.017500", "134246.507500", "134247.997500", "134249.487500", "134250.977500", "134252.467500", "134253.957500", "134255.447500", "134256.937500", "134258.427500", "134259.917500", "134301.407500", "134302.897500", "134304.387500", "134305.877500", "134307.367500", "134308.857500", "134310.347500", "134311.837500", "134313.327500", "134314.817500", "134316.307500", "134317.797500", "134319.287500", "134320.777500", "134322.267500", "134323.757500", "134325.247500", "134326.737500", "134328.227500", "134329.717500", "134331.207500", "134332.697500", "134334.187500", "134335.677500", "134337.167500", "134338.657500", "134340.147500", "134341.637500", "134343.127500", "134344.617500", "134346.107500", "134347.597500", "134349.087500", "134350.577500", "134352.067500", "134353.557500", "134355.047500", "134356.537500", "134358.027500", "134359.517500", "134401.007500", "134402.497500", "134403.987500", "134405.477500", "134406.967500", "134408.457500", "134409.947500", "134411.437500", "134412.927500", "134414.417500", "134415.907500", "134417.397500", "134418.887500", "134420.377500", "134421.867500", "134423.357500", "134424.847500", "134426.337500", "134427.827500", "134429.317500", "134430.807500", "134432.297500", "134433.787500", "134435.277500", "134436.767500", "134438.257500", "134439.747500", "134441.237500", "134442.727500", "134444.217500", "134445.707500", "134447.197500", "134448.687500", "134450.177500", "134451.667500", "134453.157500", "134454.647500", "134456.137500", "134457.627500", "134459.117500", "134500.607500", "134502.097500", "134503.587500", "134505.077500", "134506.567500", "134508.057500", "134509.547500", "134511.037500", "134512.527500", "134514.017500", "134515.507500", "134516.997500", "134518.487500", "134519.977500", "134521.467500", "134522.957500", "134524.447500", "134525.937500", "134527.427500", "134528.917500", "134530.407500", "134531.897500", "134533.387500", "134534.877500", "134536.367500", "134537.857500", "134539.347500", "134540.837500", "134542.327500", "134543.817500", "134545.307500", "134546.797500", "134548.287500", "134549.777500", "134551.267500", "134552.757500"],
      "ContentTime": ["134244.403000", "134244.406000", "134244.410000", "134244.413000", "134244.416000", "134244.420000", "134244.423000", "134244.426000", "134244.430000", "134244.433000", "134244.437000", "134244.440000", "134244.443000", "134244.447000", "134244.450000", "134244.453000", "134244.457000", "134244.460000", "134244.463000", "134244.466000", "134244.470000", "134244.473000", "134244.476000", "134244.479000", "134244.483000", "134244.486000", "134244.489000", "134244.493000", "134244.496000", "134244.500000", "134244.504000", "134244.508000", "134244.511000", "134244.514000", "134244.518000", "134244.521000", "134244.524000", "134244.528000", "134244.531000", "134304.364000", "134304.368000", "134304.371000", "134304.375000", "134304.379000", "134304.382000", "134304.386000", "134304.389000", "134304.393000", "134304.396000", "134304.400000", "134304.403000", "134304.406000", "134304.410000", "134304.413000", "134304.416000", "134304.420000", "134304.423000", "134304.426000", "134304.429000", "134324.363000", "134324.367000", "134324.370000", "134324.373000", "134324.377000", "134324.380000", "134324.383000", "134324.387000", "134324.390000", "134324.393000", "134324.397000", "134324.400000", "134324.403000", "134324.408000", "134324.411000", "134324.414000", "134324.418000", "134324.421000", "134324.424000", "134324.427000", "134324.431000", "134344.363000", "134344.367000", "134344.370000", "134344.373000", "134344.377000", "134344.380000", "134344.383000", "134344.387000", "134344.390000", "134344.393000", "134344.397000", "134344.413000", "134344.417000", "134344.420000", "134344.423000", "134344.427000", "134344.430000", "134344.433000", "134344.437000", "134344.440000", "134424.363000", "134424.367000", "134424.370000", "134424.374000", "134424.377000", "134424.380000", "134424.384000", "134424.387000", "134424.390000", "134424.393000", "134424.397000", "134424.400000", "134424.404000", "134424.407000", "134424.410000", "134424.413000", "134424.417000", "134424.420000", "134424.423000", "134424.427000", "134424.430000", "134424.433000", "134424.436000", "134424.439000", "134424.443000", "134424.446000", "134424.449000", "134424.453000", "134424.456000", "134504.363000", "134504.367000", "134504.372000", "134504.375000", "134504.379000", "134504.383000", "134504.387000", "134504.391000", "134504.395000", "134504.398000", "134504.402000", "134504.405000", "134504.409000", "134504.412000", "134504.415000", "134504.419000", "134504.422000", "134504.425000", "134504.429000", "134504.432000", "134504.435000", "134504.439000", "134504.442000", "134504.445000", "134504.449000", "134504.452000", "134524.363000", "134524.367000", "134524.370000", "134524.374000", "134524.377000", "134524.380000", "134524.384000", "134524.387000", "134524.390000", "134524.394000", "134524.397000", "134524.400000", "134524.404000", "134524.407000", "134555.101000", "134555.105000", "134555.109000", "134555.112000", "134555.125000", "134555.128000", "134555.131000", "134555.135000", "134555.138000", "134555.142000", "134555.145000", "134555.148000", "134555.152000", "134555.155000", "134555.158000", "134555.162000", "134555.165000", "134555.168000", "134555.172000", "134555.175000", "134555.178000"],
      "InstanceCreationTime": ["134244.403000", "134244.406000", "134244.410000", "134244.413000", "134244.416000", "134244.420000", "134244.423000", "134244.426000", "134244.430000", "134244.433000", "134244.437000", "134244.440000", "134244.443000", "134244.447000", "134244.450000", "134244.453000", "134244.457000", "134244.460000", "134244.463000", "134244.466000", "134244.470000", "134244.473000", "134244.476000", "134244.479000", "134244.483000", "134244.486000", "134244.489000", "134244.493000", "134244.496000", "134244.500000", "134244.504000", "134244.508000", "134244.511000", "134244.514000", "134244.518000", "134244.521000", "134244.524000", "134244.528000", "134244.531000", "134304.364000", "134304.368000", "134304.371000", "134304.375000", "134304.379000", "134304.382000", "134304.386000", "134304.389000", "134304.393000", "134304.396000", "134304.400000", "134304.403000", "134304.406000", "134304.410000", "134304.413000", "134304.416000", "134304.420000", "134304.423000", "134304.426000", "134304.429000", "134324.363000", "134324.367000", "134324.370000", "134324.373000", "134324.377000", "134324.380000", "134324.383000", "134324.387000", "134324.390000", "134324.393000", "134324.397000", "134324.400000", "134324.403000", "134324.408000", "134324.411000", "134324.414000", "134324.418000", "134324.421000", "134324.424000", "134324.427000", "134324.431000", "134344.363000", "134344.367000", "134344.370000", "134344.373000", "134344.377000", "134344.380000", "134344.383000", "134344.387000", "134344.390000", "134344.393000", "134344.397000", "134344.413000", "134344.417000", "134344.420000", "134344.423000", "134344.427000", "134344.430000", "134344.433000", "134344.437000", "134344.440000", "134424.363000", "134424.367000", "134424.370000", "134424.374000", "134424.377000", "134424.380000", "134424.384000", "134424.387000", "134424.390000", "134424.393000", "134424.397000", "134424.400000", "134424.404000", "134424.407000", "134424.410000", "134424.413000", "134424.417000", "134424.420000", "134424.423000", "134424.427000", "134424.430000", "134424.433000", "134424.436000", "134424.439000", "134424.443000", "134424.446000", "134424.449000", "134424.453000", "134424.456000", "134504.363000", "134504.367000", "134504.372000", "134504.375000", "134504.379000", "134504.383000", "134504.387000", "134504.391000", "134504.395000", "134504.398000", "134504.402000", "134504.405000", "134504.409000", "134504.412000", "134504.415000", "134504.419000", "134504.422000", "134504.425000", "134504.429000", "134504.432000", "134504.435000", "134504.439000", "134504.442000", "134504.445000", "134504.449000", "134504.452000", "134524.363000", "134524.367000", "134524.370000", "134524.374000", "134524.377000", "134524.380000", "134524.384000", "134524.387000", "134524.390000", "134524.394000", "134524.397000", "134524.400000", "134524.404000", "134524.407000", "134555.101000", "134555.105000", "134555.109000", "134555.112000", "134555.125000", "134555.128000", "134555.131000", "134555.135000", "134555.138000", "134555.142000", "134555.145000", "134555.148000", "134555.152000", "134555.155000", "134555.158000", "134555.162000", "134555.165000", "134555.168000", "134555.172000", "134555.175000", "134555.178000"],
      "InstanceNumber": [1, 2, 3, 4, 5, 6, 7, 8, 9, 10, 11, 12, 13, 14, 15, 16, 17, 18, 19, 20, 21, 22, 23, 24, 25, 26, 27, 28, 29, 30, 31, 32, 33, 34, 35, 36, 37, 38, 39, 40, 41, 42, 43, 44, 45, 46, 47, 48, 49, 50, 51, 52, 53, 54, 55, 56, 57, 58, 59, 60, 61, 62, 63, 64, 65, 66, 67, 68, 69, 70, 71, 72, 73, 74, 75, 76, 77, 78, 79, 80, 81, 82, 83, 84, 85, 86, 87, 88, 89, 90, 91, 92, 93, 94, 95, 96, 97, 98, 99, 100, 101, 102, 103, 104, 105, 106, 107, 108, 109, 110, 111, 112, 113, 114, 115, 116, 117, 118, 119, 120, 121, 122, 123, 124, 125, 126, 127, 128, 129, 130, 131, 132, 133, 134, 135, 136, 137, 138, 139, 140, 141, 142, 143, 144, 145, 146, 147, 148, 149, 150, 151, 152, 153, 154, 155, 156, 157, 158, 159, 160, 161, 162, 163, 164, 165, 166, 167, 168, 169, 170, 171, 172, 173, 174, 175, 176, 177, 178, 179, 180, 181, 182, 183, 184, 185, 186, 187, 188, 189, 190],
      "LargestImagePixelValue": [39521, 38212, 37650, 37094, 36843, 36944, 37142, 37551, 37444, 37330, 37328, 37324, 37481, 37279, 36804, 36827, 36910, 37272, 36999, 36469, 36563, 36882, 37153, 37238, 37082, 36579, 36826, 36979, 36876, 37135, 36981, 36954, 37269, 36903, 37000, 36691, 36516, 36714, 36750, 37260, 36897, 36974, 36907, 37036, 36788, 36882, 36779, 36928, 36807, 37058, 37248, 37151, 36993, 36806, 36347, 36440, 36683, 36756, 36530, 36321, 37230, 36234, 37122, 37142, 36951, 36716, 36617, 36761, 36539, 36887, 36605, 36867, 37085, 37254, 37424, 36792, 37146, 36760, 36810, 36629, 36964, 36944, 36625, 36948, 36677, 36950, 36811, 36463, 36927, 36768, 36817, 37076, 36926, 36647, 36890, 36841, 36683, 37096, 36816, 36718, 37109, 36970, 36667, 36787, 36802, 36832, 36599, 36184, 36460, 36211, 36830, 36751, 37000, 36644, 36328, 36805, 36853, 36685, 36966, 36600, 36765, 36998, 36856, 36410, 36492, 36498, 37002, 36830, 36534, 36273, 36741, 37144, 36988, 36544, 36463, 36475, 37141, 36424, 36415, 36673, 36458, 36297, 36522, 36518, 36790, 36425, 36647, 36430, 36765, 36191, 37068, 36666, 36545, 36128, 36257, 36491, 36610, 36479, 36418, 36731, 36520, 36440, 36446, 36953, 37071, 36819, 36651, 36786, 36975, 36391, 36779, 36788, 36611, 36677, 36411, 36559, 36886, 36583, 36511, 36669, 36713, 36687, 36551, 36655, 36744, 36498, 36626, 36900, 36326, 37166],
      "WindowCenter": [10072.0, 10032.0, 10025.0, 10012.0, 9997.0, 9985.0, 9981.0, 9985.0, 9994.0, 9988.0, 9989.0, 9996.0, 10003.0, 10005.0, 9995.0, 9992.0, 9991.0, 9999.0, 10007.0, 9997.0, 9994.0, 9984.0, 9982.0, 9995.0, 10000.0, 10001.0, 9994.0, 9989.0, 9981.0, 9980.0, 9988.0, 9999.0, 10006.0, 9993.0, 9982.0, 9967.0, 9964.0, 9973.0, 9974.0, 9978.0, 9972.0, 9980.0, 9984.0, 9984.0, 9986.0, 9983.0, 9992.0, 9993.0, 9984.0, 9973.0, 9971.0, 9986.0, 10015.0, 10019.0, 9998.0, 9978.0, 9975.0, 9982.0, 9994.0, 9996.0, 10001.0, 9973.0, 9981.0, 9989.0, 9992.0, 9993.0, 9987.0, 10002.0, 10015.0, 10007.0, 9981.0, 9969.0, 9973.0, 9981.0, 9990.0, 9992.0, 9991.0, 9985.0, 9991.0, 10002.0, 10003.0, 9987.0, 9967.0, 9963.0, 9965.0, 9983.0, 9991.0, 9978.0, 9975.0, 9969.0, 9973.0, 9981.0, 9992.0, 9995.0, 9993.0, 9977.0, 9975.0, 9980.0, 9982.0, 9974.0, 9972.0, 9964.0, 9958.0, 9972.0, 9976.0, 9976.0, 9970.0, 9963.0, 9969.0, 9971.0, 9981.0, 9985.0, 9986.0, 9979.0, 9961.0, 9956.0, 9949.0, 9967.0, 9982.0, 9979.0, 9977.0, 9975.0, 9968.0, 9963.0, 9960.0, 9967.0, 9982.0, 9978.0, 9959.0, 9937.0, 9941.0, 9962.0, 9972.0, 9970.0, 9979.0, 9972.0, 9984.0, 9980.0, 9980.0, 9977.0, 9971.0, 9970.0, 9980.0, 9988.0, 9985.0, 9970.0, 9962.0, 9960.0, 9966.0, 9969.0, 10000.0, 10007.0, 9999.0, 9975.0, 9955.0, 9947.0, 9957.0, 9961.0, 9970.0, 9988.0, 9996.0, 9975.0, 9955.0, 9959.0, 9975.0, 9988.0, 10003.0, 9989.0, 9970.0, 9953.0, 9965.0, 9991.0, 9997.0, 9994.0, 9972.0, 9962.0, 9965.0, 9960.0, 9953.0, 9957.0, 9958.0, 9975.0, 9980.0, 9988.0, 9980.0, 9971.0, 9961.0, 9974.0, 9976.0, 9977.0],
      "WindowWidth": [21447.0, 21340.0, 21309.0, 21275.0, 21238.0, 21207.0, 21192.0, 21199.0, 21219.0, 21207.0, 21212.0, 21227.0, 21242.0, 21248.0, 21228.0, 21218.0, 21216.0, 21233.0, 21252.0, 21234.0, 21225.0, 21202.0, 21196.0, 21223.0, 21237.0, 21241.0, 21224.0, 21209.0, 21193.0, 21190.0, 21207.0, 21235.0, 21247.0, 21222.0, 21196.0, 21164.0, 21156.0, 21176.0, 21181.0, 21185.0, 21173.0, 21192.0, 21204.0, 21205.0, 21208.0, 21198.0, 21217.0, 21220.0, 21201.0, 21175.0, 21168.0, 21200.0, 21270.0, 21280.0, 21235.0, 21189.0, 21181.0, 21197.0, 21228.0, 21233.0, 21240.0, 21180.0, 21192.0, 21208.0, 21217.0, 21221.0, 21208.0, 21241.0, 21273.0, 21253.0, 21196.0, 21165.0, 21171.0, 21190.0, 21212.0, 21218.0, 21213.0, 21200.0, 21213.0, 21240.0, 21243.0, 21208.0, 21158.0, 21146.0, 21154.0, 21197.0, 21214.0, 21189.0, 21179.0, 21167.0, 21176.0, 21192.0, 21221.0, 21225.0, 21219.0, 21183.0, 21177.0, 21188.0, 21194.0, 21173.0, 21168.0, 21151.0, 21143.0, 21171.0, 21182.0, 21182.0, 21171.0, 21159.0, 21168.0, 21173.0, 21191.0, 21202.0, 21205.0, 21191.0, 21151.0, 21135.0, 21122.0, 21162.0, 21193.0, 21193.0, 21187.0, 21179.0, 21165.0, 21157.0, 21148.0, 21161.0, 21193.0, 21184.0, 21141.0, 21095.0, 21102.0, 21148.0, 21169.0, 21174.0, 21192.0, 21179.0, 21200.0, 21195.0, 21191.0, 21184.0, 21174.0, 21172.0, 21193.0, 21211.0, 21203.0, 21168.0, 21151.0, 21148.0, 21160.0, 21167.0, 21235.0, 21257.0, 21238.0, 21182.0, 21135.0, 21120.0, 21138.0, 21149.0, 21169.0, 21211.0, 21227.0, 21183.0, 21136.0, 21143.0, 21178.0, 21211.0, 21244.0, 21212.0, 21167.0, 21130.0, 21158.0, 21215.0, 21234.0, 21225.0, 21174.0, 21152.0, 21154.0, 21145.0, 21132.0, 21137.0, 21141.0, 21178.0, 21196.0, 21213.0, 21192.0, 21169.0, 21147.0, 21175.0, 21181.0, 21182.0]
    },
    "slices": {}
  }
}