{
  "AcquisitionMatrixPE": 104,
  "AcquisitionNumber": 1,
  "AcquisitionTime": "13:34:59.010000",
  "BandwidthPerPixelPhaseEncode": 17.17,
  "BaseResolution": 104,
  "BodyPartExamined": "BRAIN",
  "CoilCombinationMethod": "Sum of Squares",
  "ConsistencyInfo": "N4_VE11C_LATEST_20160120",
  "ConversionSoftware": "dcm2niix",
  "ConversionSoftwareVersion": "v1.0.20211006",
  "DerivedVendorReportedEchoSpacing": 0.000560011,
  "DeviceSerialNumber": "167006",
  "DwellTime": 2.1e-06,
  "EchoTime": 0.037,
  "EchoTime1": 0.037,
  "EchoTime2": 0.001,
  "EchoTrainLength": 104,
  "EffectiveEchoSpacing": 0.000560011,
  "FlipAngle": 52,
  "HeudiconvVersion": "0.10.0",
  "ImageComments": "Unaliased MB4/PE3/LB",
  "ImageOrientationPatientDICOM": [0.999235, 0.0029908, 0.0389992, 0.00854583, 0.956289, -0.292298],
  "ImageOrientationText": "Tra>Cor(-17.0)>Sag(2.2)",
  "ImageType": [
    "ORIGINAL",
    "PRIMARY",
    "P",
    "MB",
    "ND",
    "MOSAIC",
    "PHASE"
],
  "ImagingFrequency": 123.259,
  "InPlanePhaseEncodingDirectionDICOM": "COL",
  "InstitutionAddress": "Chemin Queen-Mary 4565,Montreal,District,CA,H3W 1W5",
  "InstitutionName": "IUGM",
  "InstitutionalDepartmentName": "Department",
  "MRAcquisitionType": "2D",
  "MagneticFieldStrength": 3,
  "Manufacturer": "Siemens",
  "ManufacturersModelName": "Prisma_fit",
  "MatrixCoilMode": "SENSE",
  "Modality": "MR",
  "MultibandAccelerationFactor": 4,
  "PartialFourier": 1,
  "PatientPosition": "HFS",
  "PercentPhaseFOV": 100,
  "PercentSampling": 100,
  "PhaseEncodingDirection": "j",
  "PhaseEncodingSteps": 104,
  "PhaseResolution": 1,
  "PixelBandwidth": 2290,
  "ProcedureStepDescription": "memory^things",
  "ProtocolName": "func_task-things_run-3",
  "PulseSequenceDetails": "%CustomerSeq%\\cmrr_mbep2d_bold",
  "ReceiveCoilActiveElements": "HC1-7;NC1,2",
  "ReceiveCoilName": "HeadNeck_64",
  "ReconMatrixPE": 104,
  "RepetitionTime": 1.49,
  "SAR": 0.0380342,
  "ScanOptions": "FS",
  "ScanningSequence": "EP",
  "SequenceName": "epfid2d1_104",
  "SequenceVariant": "SK\\SS",
  "SeriesDescription": "func_task-things_run-3",
  "SeriesNumber": 17,
  "ShimSetting": [635, -7194, -8761, 704, 24, 42, 12, 3],
  "SliceThickness": 2,
  "SliceTiming": [0, 0.7825, 0.0975, 0.88, 0.195, 0.98, 0.2925, 1.0775, 0.39, 1.175, 0.49, 1.2725, 0.5875, 1.37, 0.685, 0, 0.7825, 0.0975, 0.88, 0.195, 0.98, 0.2925, 1.0775, 0.39, 1.175, 0.49, 1.2725, 0.5875, 1.37, 0.685, 0, 0.7825, 0.0975, 0.88, 0.195, 0.98, 0.2925, 1.0775, 0.39, 1.175, 0.49, 1.2725, 0.5875, 1.37, 0.685, 0, 0.7825, 0.0975, 0.88, 0.195, 0.98, 0.2925, 1.0775, 0.39, 1.175, 0.49, 1.2725, 0.5875, 1.37, 0.685],
  "SoftwareVersions": "syngo MR E11",
  "SpacingBetweenSlices": 2,
  "StationName": "MRC35049",
  "TaskName": "things",
  "TotalReadoutTime": 0.0576811,
  "TxRefAmp": 218.843,
  "WipMemBlock": "2a53a2b9-b1bf-4017-9a10-f5687064fcfe||Sequence: R016 ve11c/master r/e634e98; Dec 19 2017 11:00:25 by eja",
  "dcmmeta_affine": [
    [-1.998469591140747, 0.0170916598290205, 0.07633738219738007, 106.06011199951172],
    [-0.005981605499982834, 1.9125784635543823, -0.5848144292831421, -71.04920959472656],
    [0.0779983401298523, 0.5845952033996582, 1.91106379032135, -61.29252624511719],
    [0.0, 0.0, 0.0, 1.0]
],
  "dcmmeta_reorient_transform": [
    [0.0, -1.0, 0.0, 103.0],
    [1.0, 0.0, 0.0, 0.0],
    [0.0, 0.0, 1.0, 0.0],
    [0.0, 0.0, 0.0, 1.0]
],
  "dcmmeta_shape": [104, 104, 60, 190],
  "dcmmeta_slice_dim": 2,
  "dcmmeta_version": 0.6,
  "global": {
    "const": {
      "AcquisitionMatrix": [104, 0, 0, 104],
      "AngioFlag": "N",
      "BitsAllocated": 16,
      "BitsStored": 16,
      "BodyPartExamined": "BRAIN",
      "Columns": 832,
      "EchoNumbers": 1,
      "EchoTime": 37.0,
      "EchoTrainLength": 104,
      "FlipAngle": 52.0,
      "HighBit": 15,
      "ImageOrientationPatient": [0.99923476716692, 0.00299080283111, 0.03899916900771, 0.00854583026069, 0.95628922705659, -0.2922975932174],
      "ImagePositionPatient": [-841.48482604972, -824.3022306704, 183.32203056536],
      "ImageType": [
        "ORIGINAL",
        "PRIMARY",
        "P",
        "MB",
        "ND",
        "MOSAIC"
],
      "ImagedNucleus": "1H",
      "ImagingFrequency": 123.258877,
      "InPlanePhaseEncodingDirection": "COL",
      "LargestImagePixelValue": 4095,
      "MRAcquisitionType": "2D",
      "MagneticFieldStrength": 3.0,
      "Manufacturer": "SIEMENS",
      "ManufacturerModelName": "Prisma_fit",
      "Modality": "MR",
      "NumberOfAverages": 1.0,
      "NumberOfPhaseEncodingSteps": 104,
      "PercentPhaseFieldOfView": 100.0,
      "PercentSampling": 100.0,
      "PerformedProcedureStepStartTime": "115408.209000",
      "PhotometricInterpretation": "MONOCHROME2",
      "PixelBandwidth": 2290.0,
      "PixelRepresentation": 0,
      "PixelSpacing": [2.0, 2.0],
      "ProtocolName": "func_task-things_run-3",
      "RepetitionTime": 1490.0,
      "RescaleIntercept": -4096.0,
      "RescaleSlope": 2.0,
      "RescaleType": "US",
      "Rows": 832,
      "SAR": 0.03803424272915,
      "SamplesPerPixel": 1,
      "ScanOptions": "FS",
      "ScanningSequence": "EP",
      "SequenceName": "epfid2d1_104",
      "SequenceVariant": [
        "SK",
        "SS"
],
      "SeriesDescription": "func_task-things_run-3",
      "SeriesNumber": 17,
      "SeriesTime": "133613.079000",
      "SliceLocation": -33.743486928894,
      "SliceThickness": 2.0,
      "SmallestImagePixelValue": 0,
      "SoftwareVersions": "syngo MR E11",
      "SpacingBetweenSlices": 2.0000000233182,
      "SpecificCharacterSet": "ISO_IR 100",
      "StudyID": "1",
      "StudyTime": "115408.138000",
      "TransmitCoilName": "Body",
      "VariableFlipAngleFlag": "N",
      "WindowCenterWidthExplanation": "Algo1",
      "dBdt": 0.0},
    "slices": {}
  },
  "time": {
    "samples": {
      "AcquisitionNumber": [1, 2, 3, 4, 5, 6, 7, 8, 9, 10, 11, 12, 13, 14, 15, 16, 17, 18, 19, 20, 21, 22, 23, 24, 25, 26, 27, 28, 29, 30, 31, 32, 33, 34, 35, 36, 37, 38, 39, 40, 41, 42, 43, 44, 45, 46, 47, 48, 49, 50, 51, 52, 53, 54, 55, 56, 57, 58, 59, 60, 61, 62, 63, 64, 65, 66, 67, 68, 69, 70, 71, 72, 73, 74, 75, 76, 77, 78, 79, 80, 81, 82, 83, 84, 85, 86, 87, 88, 89, 90, 91, 92, 93, 94, 95, 96, 97, 98, 99, 100, 101, 102, 103, 104, 105, 106, 107, 108, 109, 110, 111, 112, 113, 114, 115, 116, 117, 118, 119, 120, 121, 122, 123, 124, 125, 126, 127, 128, 129, 130, 131, 132, 133, 134, 135, 136, 137, 138, 139, 140, 141, 142, 143, 144, 145, 146, 147, 148, 149, 150, 151, 152, 153, 154, 155, 156, 157, 158, 159, 160, 161, 162, 163, 164, 165, 166, 167, 168, 169, 170, 171, 172, 173, 174, 175, 176, 177, 178, 179, 180, 181, 182, 183, 184, 185, 186, 187, 188, 189, 190],
      "AcquisitionTime": ["133459.010000", "133500.500000", "133501.990000", "133503.480000", "133504.970000", "133506.460000", "133507.950000", "133509.440000", "133510.930000", "133512.420000", "133513.910000", "133515.400000", "133516.890000", "133518.380000", "133519.870000", "133521.360000", "133522.850000", "133524.340000", "133525.830000", "133527.320000", "133528.810000", "133530.300000", "133531.790000", "133533.280000", "133534.770000", "133536.260000", "133537.750000", "133539.240000", "133540.730000", "133542.220000", "133543.710000", "133545.200000", "133546.690000", "133548.180000", "133549.670000", "133551.160000", "133552.650000", "133554.140000", "133555.630000", "133557.120000", "133558.610000", "133600.100000", "133601.590000", "133603.080000", "133604.570000", "133606.060000", "133607.550000", "133609.040000", "133610.530000", "133612.020000", "133613.510000", "133615.000000", "133616.490000", "133617.980000", "133619.470000", "133620.960000", "133622.450000", "133623.940000", "133625.430000", "133626.920000", "133628.410000", "133629.900000", "133631.390000", "133632.880000", "133634.370000", "133635.860000", "133637.350000", "133638.840000", "133640.330000", "133641.820000", "133643.310000", "133644.800000", "133646.290000", "133647.780000", "133649.270000", "133650.760000", "133652.250000", "133653.740000", "133655.230000", "133656.720000", "133658.210000", "133659.700000", "133701.190000", "133702.680000", "133704.170000", "133705.660000", "133707.150000", "133708.640000", "133710.130000", "133711.620000", "133713.110000", "133714.600000", "133716.090000", "133717.580000", "133719.070000", "133720.560000", "133722.050000", "133723.540000", "133725.030000", "133726.520000", "133728.010000", "133729.500000", "133730.990000", "133732.480000", "133733.970000", "133735.460000", "133736.950000", "133738.440000", "133739.930000", "133741.420000", "133742.910000", "133744.400000", "133745.890000", "133747.380000", "133748.870000", "133750.360000", "133751.850000", "133753.340000", "133754.830000", "133756.320000", "133757.810000", "133759.300000", "133800.790000", "133802.280000", "133803.770000", "133805.260000", "133806.750000", "133808.240000", "133809.730000", "133811.220000", "133812.710000", "133814.200000", "133815.690000", "133817.180000", "133818.670000", "133820.160000", "133821.650000", "133823.140000", "133824.630000", "133826.120000", "133827.610000", "133829.100000", "133830.590000", "133832.080000", "133833.570000", "133835.060000", "133836.550000", "133838.040000", "133839.530000", "133841.020000", "133842.510000", "133844.000000", "133845.490000", "133846.980000", "133848.470000", "133849.960000", "133851.450000", "133852.940000", "133854.430000", "133855.920000", "133857.410000", "133858.900000", "133900.390000", "133901.880000", "133903.370000", "133904.860000", "133906.350000", "133907.840000", "133909.330000", "133910.820000", "133912.310000", "133913.800000", "133915.290000", "133916.780000", "133918.270000", "133919.760000", "133921.250000", "133922.740000", "133924.230000", "133925.720000", "133927.210000", "133928.700000", "133930.190000", "133931.680000", "133933.170000", "133934.660000", "133936.150000", "133937.640000", "133939.130000", "133940.620000"],
      "ContentTime": ["133613.081000", "133613.084000", "133613.087000", "133613.089000", "133613.092000", "133613.094000", "133613.097000", "133613.099000", "133613.125000", "133613.128000", "133613.130000", "133613.133000", "133613.136000", "133613.138000", "133613.140000", "133613.143000", "133633.085000", "133633.088000", "133633.090000", "133633.093000", "133633.095000", "133633.098000", "133633.100000", "133633.103000", "133633.105000", "133633.108000", "133633.110000", "133633.113000", "133633.115000", "133633.118000", "133633.120000", "133633.123000", "133633.126000", "133633.128000", "133633.130000", "133633.133000", "133653.073000", "133653.076000", "133653.079000", "133653.081000", "133653.084000", "133653.087000", "133653.089000", "133653.092000", "133653.094000", "133653.097000", "133653.100000", "133653.110000", "133653.112000", "133653.115000", "133653.118000", "133653.121000", "133653.124000", "133653.126000", "133653.129000", "133653.131000", "133713.084000", "133713.087000", "133713.090000", "133713.092000", "133713.094000", "133713.097000", "133713.100000", "133713.102000", "133713.105000", "133713.107000", "133713.110000", "133713.112000", "133713.115000", "133713.117000", "133713.120000", "133713.122000", "133713.125000", "133713.127000", "133713.130000", "133713.132000", "133713.135000", "133733.083000", "133733.086000", "133733.088000", "133733.090000", "133733.093000", "133733.096000", "133733.098000", "133733.101000", "133733.103000", "133733.106000", "133733.109000", "133733.111000", "133733.113000", "133733.116000", "133733.119000", "133733.121000", "133733.124000", "133733.126000", "133733.129000", "133733.131000", "133813.126000", "133813.128000", "133813.131000", "133813.133000", "133813.136000", "133813.139000", "133813.141000", "133813.144000", "133813.146000", "133813.149000", "133813.151000", "133813.154000", "133813.156000", "133813.159000", "133813.161000", "133813.164000", "133813.166000", "133813.169000", "133813.171000", "133813.174000", "133813.176000", "133813.179000", "133813.182000", "133813.184000", "133813.187000", "133813.191000", "133813.194000", "133813.196000", "133813.199000", "133813.201000", "133813.204000", "133813.206000", "133853.110000", "133853.113000", "133853.116000", "133853.118000", "133853.121000", "133853.123000", "133853.126000", "133853.128000", "133853.131000", "133853.133000", "133853.136000", "133853.138000", "133853.141000", "133853.143000", "133853.146000", "133853.148000", "133853.151000", "133853.153000", "133853.156000", "133853.159000", "133853.161000", "133853.164000", "133853.166000", "133853.169000", "133853.171000", "133853.174000", "133853.176000", "133933.119000", "133933.122000", "133933.124000", "133933.127000", "133933.129000", "133933.132000", "133933.134000", "133933.137000", "133933.140000", "133933.142000", "133933.145000", "133933.147000", "133933.150000", "133933.152000", "133933.155000", "133933.157000", "133933.160000", "133933.162000", "133933.165000", "133933.167000", "133933.170000", "133933.173000", "133933.175000", "133933.178000", "133933.180000", "133933.183000", "133933.185000", "133942.855000", "133942.858000", "133942.867000", "133942.869000", "133942.872000", "133942.874000", "133942.877000"],
      "InstanceCreationTime": ["133613.081000", "133613.084000", "133613.087000", "133613.089000", "133613.092000", "133613.094000", "133613.097000", "133613.099000", "133613.125000", "133613.128000", "133613.130000", "133613.133000", "133613.136000", "133613.138000", "133613.140000", "133613.143000", "133633.085000", "133633.088000", "133633.090000", "133633.093000", "133633.095000", "133633.098000", "133633.100000", "133633.103000", "133633.105000", "133633.108000", "133633.110000", "133633.113000", "133633.115000", "133633.118000", "133633.120000", "133633.123000", "133633.126000", "133633.128000", "133633.130000", "133633.133000", "133653.073000", "133653.076000", "133653.079000", "133653.081000", "133653.084000", "133653.087000", "133653.089000", "133653.092000", "133653.094000", "133653.097000", "133653.100000", "133653.110000", "133653.112000", "133653.115000", "133653.118000", "133653.121000", "133653.124000", "133653.126000", "133653.129000", "133653.131000", "133713.084000", "133713.087000", "133713.090000", "133713.092000", "133713.094000", "133713.097000", "133713.100000", "133713.102000", "133713.105000", "133713.107000", "133713.110000", "133713.112000", "133713.115000", "133713.117000", "133713.120000", "133713.122000", "133713.125000", "133713.127000", "133713.130000", "133713.132000", "133713.135000", "133733.083000", "133733.086000", "133733.088000", "133733.090000", "133733.093000", "133733.096000", "133733.098000", "133733.101000", "133733.103000", "133733.106000", "133733.109000", "133733.111000", "133733.113000", "133733.116000", "133733.119000", "133733.121000", "133733.124000", "133733.126000", "133733.129000", "133733.131000", "133813.126000", "133813.128000", "133813.131000", "133813.133000", "133813.136000", "133813.139000", "133813.141000", "133813.144000", "133813.146000", "133813.149000", "133813.151000", "133813.154000", "133813.156000", "133813.159000", "133813.161000", "133813.164000", "133813.166000", "133813.169000", "133813.171000", "133813.174000", "133813.176000", "133813.179000", "133813.182000", "133813.184000", "133813.187000", "133813.191000", "133813.194000", "133813.196000", "133813.199000", "133813.201000", "133813.204000", "133813.206000", "133853.110000", "133853.113000", "133853.116000", "133853.118000", "133853.121000", "133853.123000", "133853.126000", "133853.128000", "133853.131000", "133853.133000", "133853.136000", "133853.138000", "133853.141000", "133853.143000", "133853.146000", "133853.148000", "133853.151000", "133853.153000", "133853.156000", "133853.159000", "133853.161000", "133853.164000", "133853.166000", "133853.169000", "133853.171000", "133853.174000", "133853.176000", "133933.119000", "133933.122000", "133933.124000", "133933.127000", "133933.129000", "133933.132000", "133933.134000", "133933.137000", "133933.140000", "133933.142000", "133933.145000", "133933.147000", "133933.150000", "133933.152000", "133933.155000", "133933.157000", "133933.160000", "133933.162000", "133933.165000", "133933.167000", "133933.170000", "133933.173000", "133933.175000", "133933.178000", "133933.180000", "133933.183000", "133933.185000", "133942.855000", "133942.858000", "133942.867000", "133942.869000", "133942.872000", "133942.874000", "133942.877000"],
      "InstanceNumber": [1, 2, 3, 4, 5, 6, 7, 8, 9, 10, 11, 12, 13, 14, 15, 16, 17, 18, 19, 20, 21, 22, 23, 24, 25, 26, 27, 28, 29, 30, 31, 32, 33, 34, 35, 36, 37, 38, 39, 40, 41, 42, 43, 44, 45, 46, 47, 48, 49, 50, 51, 52, 53, 54, 55, 56, 57, 58, 59, 60, 61, 62, 63, 64, 65, 66, 67, 68, 69, 70, 71, 72, 73, 74, 75, 76, 77, 78, 79, 80, 81, 82, 83, 84, 85, 86, 87, 88, 89, 90, 91, 92, 93, 94, 95, 96, 97, 98, 99, 100, 101, 102, 103, 104, 105, 106, 107, 108, 109, 110, 111, 112, 113, 114, 115, 116, 117, 118, 119, 120, 121, 122, 123, 124, 125, 126, 127, 128, 129, 130, 131, 132, 133, 134, 135, 136, 137, 138, 139, 140, 141, 142, 143, 144, 145, 146, 147, 148, 149, 150, 151, 152, 153, 154, 155, 156, 157, 158, 159, 160, 161, 162, 163, 164, 165, 166, 167, 168, 169, 170, 171, 172, 173, 174, 175, 176, 177, 178, 179, 180, 181, 182, 183, 184, 185, 186, 187, 188, 189, 190],
      "WindowCenter": [4874.0, 4870.0, 4870.0, 4894.0, 4872.0, 4874.0, 4876.0, 4872.0, 4872.0, 4894.0, 4870.0, 4870.0, 4868.0, 4872.0, 4868.0, 4872.0, 4876.0, 4874.0, 4872.0, 4872.0, 4874.0, 4876.0, 4872.0, 4872.0, 4894.0, 4872.0, 4874.0, 4896.0, 4872.0, 4872.0, 4872.0, 4874.0, 4870.0, 4872.0, 4870.0, 4872.0, 4872.0, 4894.0, 4872.0, 4872.0, 4872.0, 4894.0, 4872.0, 4896.0, 4874.0, 4874.0, 4872.0, 4896.0, 4870.0, 4872.0, 4870.0, 4874.0, 4874.0, 4874.0, 4872.0, 4872.0, 4872.0, 4870.0, 4868.0, 4872.0, 4872.0, 4872.0, 4874.0, 4872.0, 4872.0, 4872.0, 4870.0, 4870.0, 4872.0, 4870.0, 4872.0, 4894.0, 4872.0, 4892.0, 4868.0, 4872.0, 4872.0, 4892.0, 4872.0, 4894.0, 4870.0, 4870.0, 4870.0, 4872.0, 4870.0, 4894.0, 4876.0, 4874.0, 4870.0, 4868.0, 4872.0, 4874.0, 4872.0, 4868.0, 4872.0, 4868.0, 4872.0, 4870.0, 4872.0, 4870.0, 4894.0, 4868.0, 4872.0, 4872.0, 4870.0, 4872.0, 4872.0, 4872.0, 4870.0, 4870.0, 4872.0, 4870.0, 4872.0, 4868.0, 4872.0, 4894.0, 4872.0, 4868.0, 4874.0, 4896.0, 4868.0, 4870.0, 4872.0, 4872.0, 4874.0, 4896.0, 4874.0, 4874.0, 4872.0, 4870.0, 4872.0, 4870.0, 4872.0, 4872.0, 4872.0, 4870.0, 4872.0, 4870.0, 4872.0, 4892.0, 4874.0, 4870.0, 4874.0, 4872.0, 4870.0, 4874.0, 4872.0, 4868.0, 4872.0, 4872.0, 4872.0, 4870.0, 4872.0, 4872.0, 4870.0, 4872.0, 4870.0, 4896.0, 4872.0, 4894.0, 4868.0, 4870.0, 4872.0, 4870.0, 4870.0, 4872.0, 4870.0, 4872.0, 4872.0, 4870.0, 4870.0, 4900.0, 4868.0, 4872.0, 4872.0, 4872.0, 4872.0, 4874.0, 4872.0, 4868.0, 4894.0, 4876.0, 4894.0, 4872.0, 4872.0, 4874.0, 4874.0, 4874.0, 4894.0, 4874.0],
      "WindowWidth": [18676.0, 18690.0, 18680.0, 18716.0, 18674.0, 18682.0, 18674.0, 18684.0, 18678.0, 18714.0, 18680.0, 18682.0, 18676.0, 18682.0, 18674.0, 18686.0, 18682.0, 18684.0, 18680.0, 18682.0, 18674.0, 18688.0, 18680.0, 18682.0, 18714.0, 18686.0, 18678.0, 18714.0, 18680.0, 18682.0, 18680.0, 18684.0, 18674.0, 18684.0, 18672.0, 18682.0, 18678.0, 18718.0, 18676.0, 18680.0, 18680.0, 18710.0, 18680.0, 18708.0, 18680.0, 18684.0, 18684.0, 18720.0, 18676.0, 18680.0, 18680.0, 18682.0, 18682.0, 18682.0, 18674.0, 18686.0, 18678.0, 18688.0, 18676.0, 18684.0, 18680.0, 18684.0, 18684.0, 18684.0, 18676.0, 18682.0, 18676.0, 18688.0, 18680.0, 18686.0, 18680.0, 18718.0, 18678.0, 18714.0, 18676.0, 18684.0, 18682.0, 18716.0, 18678.0, 18718.0, 18678.0, 18682.0, 18676.0, 18678.0, 18678.0, 18718.0, 18682.0, 18690.0, 18688.0, 18686.0, 18684.0, 18680.0, 18680.0, 18678.0, 18682.0, 18676.0, 18686.0, 18682.0, 18684.0, 18680.0, 18714.0, 18676.0, 18682.0, 18686.0, 18684.0, 18680.0, 18682.0, 18676.0, 18686.0, 18676.0, 18688.0, 18684.0, 18686.0, 18682.0, 18678.0, 18714.0, 18688.0, 18684.0, 18682.0, 18716.0, 18678.0, 18684.0, 18682.0, 18688.0, 18682.0, 18716.0, 18688.0, 18688.0, 18682.0, 18684.0, 18682.0, 18686.0, 18684.0, 18684.0, 18686.0, 18678.0, 18684.0, 18684.0, 18686.0, 18714.0, 18680.0, 18686.0, 18682.0, 18684.0, 18680.0, 18682.0, 18684.0, 18680.0, 18686.0, 18686.0, 18684.0, 18682.0, 18688.0, 18682.0, 18682.0, 18686.0, 18678.0, 18714.0, 18682.0, 18716.0, 18682.0, 18688.0, 18688.0, 18688.0, 18682.0, 18680.0, 18682.0, 18682.0, 18684.0, 18682.0, 18686.0, 18712.0, 18684.0, 18682.0, 18686.0, 18678.0, 18682.0, 18678.0, 18684.0, 18682.0, 18720.0, 18684.0, 18714.0, 18682.0, 18688.0, 18684.0, 18686.0, 18688.0, 18718.0, 18682.0]
    },
    "slices": {}
  }
}