{
  "AcquisitionMatrixPE": 104,
  "AcquisitionNumber": 1,
  "AcquisitionTime": "13:34:59.010000",
  "BandwidthPerPixelPhaseEncode": 17.17,
  "BaseResolution": 104,
  "BodyPartExamined": "BRAIN",
  "CoilCombinationMethod": "Sum of Squares",
  "ConsistencyInfo": "N4_VE11C_LATEST_20160120",
  "ConversionSoftware": "dcm2niix",
  "ConversionSoftwareVersion": "v1.0.20211006",
  "DerivedVendorReportedEchoSpacing": 0.000560011,
  "DeviceSerialNumber": "167006",
  "DwellTime": 2.1e-06,
  "EchoTime": 0.037,
  "EchoTrainLength": 104,
  "EffectiveEchoSpacing": 0.000560011,
  "FlipAngle": 52,
  "HeudiconvVersion": "0.10.0",
  "ImageComments": "Unaliased MB4/PE3/LB",
  "ImageOrientationPatientDICOM": [0.999235, 0.0029908, 0.0389992, 0.00854583, 0.956289, -0.292298],
  "ImageOrientationText": "Tra>Cor(-17.0)>Sag(2.2)",
  "ImageType": [
    "ORIGINAL",
    "PRIMARY",
    "M",
    "MB",
    "ND",
    "MOSAIC"
],
  "ImagingFrequency": 123.259,
  "InPlanePhaseEncodingDirectionDICOM": "COL",
  "InstitutionAddress": "Chemin Queen-Mary 4565,Montreal,District,CA,H3W 1W5",
  "InstitutionName": "IUGM",
  "InstitutionalDepartmentName": "Department",
  "MRAcquisitionType": "2D",
  "MagneticFieldStrength": 3,
  "Manufacturer": "Siemens",
  "ManufacturersModelName": "Prisma_fit",
  "MatrixCoilMode": "SENSE",
  "Modality": "MR",
  "MultibandAccelerationFactor": 4,
  "PartialFourier": 1,
  "PatientPosition": "HFS",
  "PercentPhaseFOV": 100,
  "PercentSampling": 100,
  "PhaseEncodingDirection": "j",
  "PhaseEncodingSteps": 104,
  "PhaseResolution": 1,
  "PixelBandwidth": 2290,
  "ProcedureStepDescription": "memory^things",
  "ProtocolName": "func_task-things_run-3",
  "PulseSequenceDetails": "%CustomerSeq%\\cmrr_mbep2d_bold",
  "ReceiveCoilActiveElements": "HC1-7;NC1,2",
  "ReceiveCoilName": "HeadNeck_64",
  "ReconMatrixPE": 104,
  "RepetitionTime": 1.49,
  "SAR": 0.0380342,
  "ScanOptions": "FS",
  "ScanningSequence": "EP",
  "SequenceName": "epfid2d1_104",
  "SequenceVariant": "SK\\SS",
  "SeriesDescription": "func_task-things_run-3",
  "SeriesNumber": 16,
  "ShimSetting": [635, -7194, -8761, 704, 24, 42, 12, 3],
  "SliceThickness": 2,
  "SliceTiming": [0, 0.7825, 0.0975, 0.88, 0.195, 0.98, 0.2925, 1.0775, 0.39, 1.175, 0.49, 1.2725, 0.5875, 1.37, 0.685, 0, 0.7825, 0.0975, 0.88, 0.195, 0.98, 0.2925, 1.0775, 0.39, 1.175, 0.49, 1.2725, 0.5875, 1.37, 0.685, 0, 0.7825, 0.0975, 0.88, 0.195, 0.98, 0.2925, 1.0775, 0.39, 1.175, 0.49, 1.2725, 0.5875, 1.37, 0.685, 0, 0.7825, 0.0975, 0.88, 0.195, 0.98, 0.2925, 1.0775, 0.39, 1.175, 0.49, 1.2725, 0.5875, 1.37, 0.685],
  "SoftwareVersions": "syngo MR E11",
  "SpacingBetweenSlices": 2,
  "StationName": "MRC35049",
  "TaskName": "things",
  "TotalReadoutTime": 0.0576811,
  "TxRefAmp": 218.843,
  "WipMemBlock": "2a53a2b9-b1bf-4017-9a10-f5687064fcfe||Sequence: R016 ve11c/master r/e634e98; Dec 19 2017 11:00:25 by eja",
  "dcmmeta_affine": [
    [-1.998469591140747, 0.0170916598290205, 0.07633738219738007, 106.06011199951172],
    [-0.005981605499982834, 1.9125784635543823, -0.5848144292831421, -71.04920959472656],
    [0.0779983401298523, 0.5845952033996582, 1.91106379032135, -61.29252624511719],
    [0.0, 0.0, 0.0, 1.0]
],
  "dcmmeta_reorient_transform": [
    [0.0, -1.0, 0.0, 103.0],
    [1.0, 0.0, 0.0, 0.0],
    [0.0, 0.0, 1.0, 0.0],
    [0.0, 0.0, 0.0, 1.0]
],
  "dcmmeta_shape": [104, 104, 60, 190],
  "dcmmeta_slice_dim": 2,
  "dcmmeta_version": 0.6,
  "global": {
    "const": {
      "AcquisitionMatrix": [104, 0, 0, 104],
      "AngioFlag": "N",
      "BitsAllocated": 16,
      "BitsStored": 16,
      "BodyPartExamined": "BRAIN",
      "Columns": 832,
      "EchoNumbers": 1,
      "EchoTime": 37.0,
      "EchoTrainLength": 104,
      "FlipAngle": 52.0,
      "HighBit": 15,
      "ImageOrientationPatient": [0.99923476716692, 0.00299080283111, 0.03899916900771, 0.00854583026069, 0.95628922705659, -0.2922975932174],
      "ImagePositionPatient": [-841.48482604972, -824.3022306704, 183.32203056536],
      "ImageType": [
        "ORIGINAL",
        "PRIMARY",
        "M",
        "MB",
        "ND",
        "MOSAIC"
],
      "ImagedNucleus": "1H",
      "ImagingFrequency": 123.258877,
      "InPlanePhaseEncodingDirection": "COL",
      "MRAcquisitionType": "2D",
      "MagneticFieldStrength": 3.0,
      "Manufacturer": "SIEMENS",
      "ManufacturerModelName": "Prisma_fit",
      "Modality": "MR",
      "NumberOfAverages": 1.0,
      "NumberOfPhaseEncodingSteps": 104,
      "PercentPhaseFieldOfView": 100.0,
      "PercentSampling": 100.0,
      "PerformedProcedureStepStartTime": "115408.209000",
      "PhotometricInterpretation": "MONOCHROME2",
      "PixelBandwidth": 2290.0,
      "PixelRepresentation": 0,
      "PixelSpacing": [2.0, 2.0],
      "ProtocolName": "func_task-things_run-3",
      "RepetitionTime": 1490.0,
      "Rows": 832,
      "SAR": 0.03803424272915,
      "SamplesPerPixel": 1,
      "ScanOptions": "FS",
      "ScanningSequence": "EP",
      "SequenceName": "epfid2d1_104",
      "SequenceVariant": [
        "SK",
        "SS"
],
      "SeriesDescription": "func_task-things_run-3",
      "SeriesNumber": 16,
      "SeriesTime": "133612.998000",
      "SliceLocation": -33.743486928894,
      "SliceThickness": 2.0,
      "SmallestImagePixelValue": 0,
      "SoftwareVersions": "syngo MR E11",
      "SpacingBetweenSlices": 2.0000000233182,
      "SpecificCharacterSet": "ISO_IR 100",
      "StudyID": "1",
      "StudyTime": "115408.138000",
      "TransmitCoilName": "Body",
      "VariableFlipAngleFlag": "N",
      "WindowCenterWidthExplanation": "Algo1",
      "dBdt": 0.0},
    "slices": {}
  },
  "time": {
    "samples": {
      "AcquisitionNumber": [1, 2, 3, 4, 5, 6, 7, 8, 9, 10, 11, 12, 13, 14, 15, 16, 17, 18, 19, 20, 21, 22, 23, 24, 25, 26, 27, 28, 29, 30, 31, 32, 33, 34, 35, 36, 37, 38, 39, 40, 41, 42, 43, 44, 45, 46, 47, 48, 49, 50, 51, 52, 53, 54, 55, 56, 57, 58, 59, 60, 61, 62, 63, 64, 65, 66, 67, 68, 69, 70, 71, 72, 73, 74, 75, 76, 77, 78, 79, 80, 81, 82, 83, 84, 85, 86, 87, 88, 89, 90, 91, 92, 93, 94, 95, 96, 97, 98, 99, 100, 101, 102, 103, 104, 105, 106, 107, 108, 109, 110, 111, 112, 113, 114, 115, 116, 117, 118, 119, 120, 121, 122, 123, 124, 125, 126, 127, 128, 129, 130, 131, 132, 133, 134, 135, 136, 137, 138, 139, 140, 141, 142, 143, 144, 145, 146, 147, 148, 149, 150, 151, 152, 153, 154, 155, 156, 157, 158, 159, 160, 161, 162, 163, 164, 165, 166, 167, 168, 169, 170, 171, 172, 173, 174, 175, 176, 177, 178, 179, 180, 181, 182, 183, 184, 185, 186, 187, 188, 189, 190],
      "AcquisitionTime": ["133459.010000", "133500.500000", "133501.990000", "133503.480000", "133504.970000", "133506.460000", "133507.950000", "133509.440000", "133510.930000", "133512.420000", "133513.910000", "133515.400000", "133516.890000", "133518.380000", "133519.870000", "133521.360000", "133522.850000", "133524.340000", "133525.830000", "133527.320000", "133528.810000", "133530.300000", "133531.790000", "133533.280000", "133534.770000", "133536.260000", "133537.750000", "133539.240000", "133540.730000", "133542.220000", "133543.710000", "133545.200000", "133546.690000", "133548.180000", "133549.670000", "133551.160000", "133552.650000", "133554.140000", "133555.630000", "133557.120000", "133558.610000", "133600.100000", "133601.590000", "133603.080000", "133604.570000", "133606.060000", "133607.550000", "133609.040000", "133610.530000", "133612.020000", "133613.510000", "133615.000000", "133616.490000", "133617.980000", "133619.470000", "133620.960000", "133622.450000", "133623.940000", "133625.430000", "133626.920000", "133628.410000", "133629.900000", "133631.390000", "133632.880000", "133634.370000", "133635.860000", "133637.350000", "133638.840000", "133640.330000", "133641.820000", "133643.310000", "133644.800000", "133646.290000", "133647.780000", "133649.270000", "133650.760000", "133652.250000", "133653.740000", "133655.230000", "133656.720000", "133658.210000", "133659.700000", "133701.190000", "133702.680000", "133704.170000", "133705.660000", "133707.150000", "133708.640000", "133710.130000", "133711.620000", "133713.110000", "133714.600000", "133716.090000", "133717.580000", "133719.070000", "133720.560000", "133722.050000", "133723.540000", "133725.030000", "133726.520000", "133728.010000", "133729.500000", "133730.990000", "133732.480000", "133733.970000", "133735.460000", "133736.950000", "133738.440000", "133739.930000", "133741.420000", "133742.910000", "133744.400000", "133745.890000", "133747.380000", "133748.870000", "133750.360000", "133751.850000", "133753.340000", "133754.830000", "133756.320000", "133757.810000", "133759.300000", "133800.790000", "133802.280000", "133803.770000", "133805.260000", "133806.750000", "133808.240000", "133809.730000", "133811.220000", "133812.710000", "133814.200000", "133815.690000", "133817.180000", "133818.670000", "133820.160000", "133821.650000", "133823.140000", "133824.630000", "133826.120000", "133827.610000", "133829.100000", "133830.590000", "133832.080000", "133833.570000", "133835.060000", "133836.550000", "133838.040000", "133839.530000", "133841.020000", "133842.510000", "133844.000000", "133845.490000", "133846.980000", "133848.470000", "133849.960000", "133851.450000", "133852.940000", "133854.430000", "133855.920000", "133857.410000", "133858.900000", "133900.390000", "133901.880000", "133903.370000", "133904.860000", "133906.350000", "133907.840000", "133909.330000", "133910.820000", "133912.310000", "133913.800000", "133915.290000", "133916.780000", "133918.270000", "133919.760000", "133921.250000", "133922.740000", "133924.230000", "133925.720000", "133927.210000", "133928.700000", "133930.190000", "133931.680000", "133933.170000", "133934.660000", "133936.150000", "133937.640000", "133939.130000", "133940.620000"],
      "ContentTime": ["133613.002000", "133613.006000", "133613.009000", "133613.013000", "133613.016000", "133613.019000", "133613.023000", "133613.026000", "133613.029000", "133613.033000", "133613.036000", "133613.039000", "133613.042000", "133613.046000", "133613.049000", "133613.052000", "133632.965000", "133632.969000", "133632.972000", "133632.976000", "133632.979000", "133632.982000", "133632.985000", "133632.989000", "133632.992000", "133632.995000", "133633.000000", "133633.003000", "133633.006000", "133633.010000", "133633.013000", "133633.016000", "133633.020000", "133633.023000", "133633.026000", "133633.030000", "133652.966000", "133652.970000", "133652.973000", "133652.977000", "133652.980000", "133652.983000", "133652.986000", "133652.990000", "133652.993000", "133652.996000", "133653.000000", "133653.003000", "133653.006000", "133653.010000", "133653.013000", "133653.016000", "133653.020000", "133653.023000", "133653.026000", "133653.030000", "133712.966000", "133712.970000", "133712.973000", "133712.977000", "133712.980000", "133712.983000", "133712.986000", "133712.990000", "133712.993000", "133712.996000", "133713.001000", "133713.004000", "133713.007000", "133713.011000", "133713.014000", "133713.017000", "133713.021000", "133713.024000", "133713.027000", "133713.031000", "133713.034000", "133732.966000", "133732.970000", "133732.973000", "133732.976000", "133732.980000", "133732.983000", "133732.986000", "133732.990000", "133732.993000", "133732.996000", "133733.001000", "133733.004000", "133733.007000", "133733.011000", "133733.031000", "133733.034000", "133733.038000", "133733.041000", "133733.044000", "133733.048000", "133812.965000", "133812.969000", "133812.972000", "133812.976000", "133812.979000", "133812.983000", "133812.986000", "133812.989000", "133812.993000", "133812.996000", "133813.000000", "133813.004000", "133813.007000", "133813.010000", "133813.014000", "133813.017000", "133813.020000", "133813.024000", "133813.027000", "133813.030000", "133813.034000", "133813.037000", "133813.040000", "133813.044000", "133813.047000", "133813.050000", "133813.054000", "133813.057000", "133813.060000", "133813.064000", "133813.067000", "133813.070000", "133852.965000", "133852.969000", "133852.973000", "133852.976000", "133852.980000", "133852.983000", "133852.986000", "133852.990000", "133852.993000", "133852.997000", "133853.000000", "133853.003000", "133853.006000", "133853.010000", "133853.013000", "133853.016000", "133853.020000", "133853.023000", "133853.026000", "133853.030000", "133853.033000", "133853.036000", "133853.040000", "133853.043000", "133853.046000", "133853.050000", "133853.053000", "133932.966000", "133932.970000", "133932.973000", "133932.977000", "133932.980000", "133932.983000", "133932.987000", "133932.990000", "133932.993000", "133932.997000", "133933.001000", "133933.005000", "133933.008000", "133933.011000", "133933.014000", "133933.018000", "133933.021000", "133933.025000", "133933.028000", "133933.031000", "133933.035000", "133933.038000", "133933.041000", "133933.051000", "133933.054000", "133933.057000", "133933.060000", "133942.785000", "133942.789000", "133942.793000", "133942.796000", "133942.799000", "133942.817000", "133942.820000"],
      "InstanceCreationTime": ["133613.002000", "133613.006000", "133613.009000", "133613.013000", "133613.016000", "133613.019000", "133613.023000", "133613.026000", "133613.029000", "133613.033000", "133613.036000", "133613.039000", "133613.042000", "133613.046000", "133613.049000", "133613.052000", "133632.965000", "133632.969000", "133632.972000", "133632.976000", "133632.979000", "133632.982000", "133632.985000", "133632.989000", "133632.992000", "133632.995000", "133633.000000", "133633.003000", "133633.006000", "133633.010000", "133633.013000", "133633.016000", "133633.020000", "133633.023000", "133633.026000", "133633.030000", "133652.966000", "133652.970000", "133652.973000", "133652.977000", "133652.980000", "133652.983000", "133652.986000", "133652.990000", "133652.993000", "133652.996000", "133653.000000", "133653.003000", "133653.006000", "133653.010000", "133653.013000", "133653.016000", "133653.020000", "133653.023000", "133653.026000", "133653.030000", "133712.966000", "133712.970000", "133712.973000", "133712.977000", "133712.980000", "133712.983000", "133712.986000", "133712.990000", "133712.993000", "133712.996000", "133713.001000", "133713.004000", "133713.007000", "133713.011000", "133713.014000", "133713.017000", "133713.021000", "133713.024000", "133713.027000", "133713.031000", "133713.034000", "133732.966000", "133732.970000", "133732.973000", "133732.976000", "133732.980000", "133732.983000", "133732.986000", "133732.990000", "133732.993000", "133732.996000", "133733.001000", "133733.004000", "133733.007000", "133733.011000", "133733.031000", "133733.034000", "133733.038000", "133733.041000", "133733.044000", "133733.048000", "133812.965000", "133812.969000", "133812.972000", "133812.976000", "133812.979000", "133812.983000", "133812.986000", "133812.989000", "133812.993000", "133812.996000", "133813.000000", "133813.004000", "133813.007000", "133813.010000", "133813.014000", "133813.017000", "133813.020000", "133813.024000", "133813.027000", "133813.030000", "133813.034000", "133813.037000", "133813.040000", "133813.044000", "133813.047000", "133813.050000", "133813.054000", "133813.057000", "133813.060000", "133813.064000", "133813.067000", "133813.070000", "133852.965000", "133852.969000", "133852.973000", "133852.976000", "133852.980000", "133852.983000", "133852.986000", "133852.990000", "133852.993000", "133852.997000", "133853.000000", "133853.003000", "133853.006000", "133853.010000", "133853.013000", "133853.016000", "133853.020000", "133853.023000", "133853.026000", "133853.030000", "133853.033000", "133853.036000", "133853.040000", "133853.043000", "133853.046000", "133853.050000", "133853.053000", "133932.966000", "133932.970000", "133932.973000", "133932.977000", "133932.980000", "133932.983000", "133932.987000", "133932.990000", "133932.993000", "133932.997000", "133933.001000", "133933.005000", "133933.008000", "133933.011000", "133933.014000", "133933.018000", "133933.021000", "133933.025000", "133933.028000", "133933.031000", "133933.035000", "133933.038000", "133933.041000", "133933.051000", "133933.054000", "133933.057000", "133933.060000", "133942.785000", "133942.789000", "133942.793000", "133942.796000", "133942.799000", "133942.817000", "133942.820000"],
      "InstanceNumber": [1, 2, 3, 4, 5, 6, 7, 8, 9, 10, 11, 12, 13, 14, 15, 16, 17, 18, 19, 20, 21, 22, 23, 24, 25, 26, 27, 28, 29, 30, 31, 32, 33, 34, 35, 36, 37, 38, 39, 40, 41, 42, 43, 44, 45, 46, 47, 48, 49, 50, 51, 52, 53, 54, 55, 56, 57, 58, 59, 60, 61, 62, 63, 64, 65, 66, 67, 68, 69, 70, 71, 72, 73, 74, 75, 76, 77, 78, 79, 80, 81, 82, 83, 84, 85, 86, 87, 88, 89, 90, 91, 92, 93, 94, 95, 96, 97, 98, 99, 100, 101, 102, 103, 104, 105, 106, 107, 108, 109, 110, 111, 112, 113, 114, 115, 116, 117, 118, 119, 120, 121, 122, 123, 124, 125, 126, 127, 128, 129, 130, 131, 132, 133, 134, 135, 136, 137, 138, 139, 140, 141, 142, 143, 144, 145, 146, 147, 148, 149, 150, 151, 152, 153, 154, 155, 156, 157, 158, 159, 160, 161, 162, 163, 164, 165, 166, 167, 168, 169, 170, 171, 172, 173, 174, 175, 176, 177, 178, 179, 180, 181, 182, 183, 184, 185, 186, 187, 188, 189, 190],
      "LargestImagePixelValue": [39982, 39424, 38139, 38124, 37313, 37359, 37407, 37559, 37775, 37926, 37543, 37560, 37904, 37420, 38033, 37602, 38023, 37909, 37867, 37698, 37615, 37647, 37769, 37744, 38009, 37601, 37240, 37521, 37779, 37475, 38075, 37597, 37432, 37865, 37670, 37547, 37628, 37632, 37749, 37584, 37991, 37694, 37471, 37339, 37223, 37604, 37632, 37397, 37517, 37831, 38044, 37522, 38079, 37528, 37939, 37353, 37269, 37403, 37842, 37618, 37825, 37473, 37383, 37596, 37760, 37763, 37326, 37621, 37769, 37627, 38009, 37406, 37902, 37482, 37563, 37307, 37406, 37842, 37204, 37320, 37498, 37392, 37429, 37040, 36881, 37267, 36847, 37258, 37051, 37597, 37340, 37154, 37241, 37213, 36841, 37046, 37071, 37158, 37781, 37159, 37641, 37427, 37858, 37082, 37436, 36742, 37400, 36895, 37483, 37089, 37274, 36979, 37460, 37040, 37618, 36705, 36640, 36778, 36848, 36818, 37002, 36831, 36896, 37318, 37210, 37171, 37291, 37359, 36807, 37107, 37242, 37166, 36918, 37156, 37530, 37123, 37273, 36693, 36762, 37255, 37952, 37444, 37093, 36777, 37146, 37622, 37010, 36700, 36722, 36917, 37364, 37235, 37188, 37154, 37034, 37083, 37128, 37024, 36963, 36845, 37178, 37119, 37265, 36891, 37157, 37072, 37173, 37414, 36855, 36976, 37130, 37257, 37240, 36935, 37163, 37050, 36926, 37115, 37284, 37183, 36951, 37315, 37020, 37263, 37321, 36479, 36741, 36890, 37062, 37119],
      "WindowCenter": [10105.0, 10066.0, 10050.0, 10065.0, 10060.0, 10051.0, 10026.0, 10014.0, 10011.0, 10026.0, 10037.0, 10038.0, 10014.0, 9997.0, 9999.0, 10001.0, 10014.0, 10017.0, 10017.0, 10013.0, 10003.0, 9999.0, 9992.0, 10009.0, 10025.0, 10028.0, 10009.0, 10004.0, 10000.0, 10003.0, 10015.0, 10010.0, 10002.0, 10001.0, 10001.0, 10008.0, 10001.0, 9993.0, 9983.0, 9981.0, 9988.0, 10005.0, 10002.0, 10003.0, 9995.0, 9993.0, 9991.0, 10002.0, 10002.0, 10002.0, 10009.0, 10004.0, 10008.0, 10004.0, 10008.0, 9996.0, 9987.0, 9978.0, 9981.0, 9994.0, 10008.0, 10002.0, 9995.0, 10000.0, 10008.0, 10018.0, 10007.0, 10002.0, 9984.0, 9974.0, 9980.0, 9992.0, 10001.0, 10002.0, 9995.0, 10002.0, 10008.0, 10012.0, 10006.0, 10014.0, 10014.0, 10019.0, 10012.0, 9996.0, 9987.0, 10003.0, 10022.0, 10025.0, 10009.0, 9990.0, 9970.0, 9970.0, 9987.0, 10013.0, 10026.0, 10027.0, 10012.0, 10005.0, 10001.0, 9996.0, 10012.0, 10015.0, 10021.0, 10015.0, 10017.0, 10016.0, 10014.0, 10006.0, 10011.0, 10005.0, 10006.0, 10005.0, 10020.0, 10023.0, 10022.0, 10003.0, 10001.0, 10008.0, 10023.0, 10025.0, 10007.0, 9983.0, 9971.0, 9977.0, 9992.0, 10005.0, 10011.0, 10012.0, 9998.0, 10004.0, 9999.0, 10001.0, 9993.0, 9998.0, 9997.0, 10004.0, 9999.0, 10001.0, 9992.0, 9990.0, 10000.0, 9994.0, 9989.0, 9983.0, 9979.0, 9990.0, 9994.0, 9991.0, 9991.0, 9984.0, 9985.0, 9969.0, 9967.0, 9975.0, 9979.0, 9988.0, 9988.0, 9982.0, 9988.0, 9975.0, 9977.0, 9970.0, 9962.0, 9965.0, 9980.0, 9988.0, 9981.0, 9977.0, 9954.0, 9961.0, 9988.0, 10005.0, 10007.0, 9985.0, 9982.0, 9988.0, 9988.0, 9965.0, 9953.0, 9944.0, 9954.0, 9978.0, 9991.0, 9991.0, 9980.0, 9957.0, 9962.0, 9964.0, 9989.0, 10005.0],
      "WindowWidth": [21525.0, 21414.0, 21368.0, 21395.0, 21382.0, 21356.0, 21298.0, 21269.0, 21261.0, 21294.0, 21320.0, 21323.0, 21270.0, 21231.0, 21231.0, 21239.0, 21266.0, 21274.0, 21272.0, 21265.0, 21240.0, 21230.0, 21216.0, 21256.0, 21292.0, 21301.0, 21260.0, 21246.0, 21237.0, 21245.0, 21269.0, 21260.0, 21240.0, 21237.0, 21236.0, 21253.0, 21236.0, 21219.0, 21194.0, 21190.0, 21204.0, 21243.0, 21242.0, 21246.0, 21228.0, 21217.0, 21213.0, 21239.0, 21241.0, 21240.0, 21253.0, 21245.0, 21252.0, 21247.0, 21250.0, 21226.0, 21207.0, 21186.0, 21188.0, 21222.0, 21252.0, 21243.0, 21228.0, 21236.0, 21251.0, 21277.0, 21257.0, 21240.0, 21197.0, 21174.0, 21186.0, 21220.0, 21240.0, 21241.0, 21228.0, 21241.0, 21255.0, 21263.0, 21252.0, 21268.0, 21268.0, 21277.0, 21262.0, 21228.0, 21207.0, 21242.0, 21286.0, 21294.0, 21257.0, 21214.0, 21169.0, 21172.0, 21211.0, 21269.0, 21302.0, 21304.0, 21270.0, 21247.0, 21234.0, 21229.0, 21263.0, 21272.0, 21284.0, 21273.0, 21276.0, 21273.0, 21269.0, 21250.0, 21257.0, 21246.0, 21249.0, 21247.0, 21280.0, 21287.0, 21285.0, 21247.0, 21242.0, 21257.0, 21289.0, 21293.0, 21252.0, 21198.0, 21169.0, 21183.0, 21217.0, 21248.0, 21260.0, 21262.0, 21232.0, 21241.0, 21233.0, 21240.0, 21224.0, 21231.0, 21230.0, 21244.0, 21235.0, 21240.0, 21219.0, 21213.0, 21229.0, 21220.0, 21212.0, 21200.0, 21187.0, 21209.0, 21223.0, 21220.0, 21219.0, 21206.0, 21199.0, 21164.0, 21159.0, 21177.0, 21191.0, 21210.0, 21211.0, 21201.0, 21211.0, 21185.0, 21184.0, 21166.0, 21150.0, 21160.0, 21192.0, 21209.0, 21193.0, 21180.0, 21134.0, 21148.0, 21211.0, 21250.0, 21252.0, 21207.0, 21197.0, 21209.0, 21210.0, 21160.0, 21129.0, 21109.0, 21134.0, 21186.0, 21220.0, 21218.0, 21192.0, 21141.0, 21149.0, 21157.0, 21211.0, 21244.0]
    },
    "slices": {}
  }
}