{
  "AcquisitionMatrixPE": 104,
  "AcquisitionNumber": 1,
  "AcquisitionTime": "17:31:12.327500",
  "BandwidthPerPixelPhaseEncode": 17.17,
  "BaseResolution": 104,
  "BodyPartExamined": "BRAIN",
  "CoilString": "HC1-7;NC1_2",
  "ConsistencyInfo": "N4_VE11C_LATEST_20160120",
  "ConversionSoftware": "dcm2niix",
  "ConversionSoftwareVersion": "v1.0.20190902",
  "DerivedVendorReportedEchoSpacing": 0.000560011,
  "DeviceSerialNumber": "167006",
  "DwellTime": 2.1e-06,
  "EchoTime": 0.037,
  "EchoTrainLength": 104,
  "EffectiveEchoSpacing": 0.000560011,
  "FlipAngle": 52,
  "ImageComments": "Unaliased_MB4_PE3_LB",
  "ImageOrientationPatientDICOM": [0.998585, 0.0314019, 0.0429121, -0.0134208, 0.929716, -0.368032],
  "ImageType": [
    "ORIGINAL",
    "PRIMARY",
    "M",
    "MB",
    "ND",
    "MOSAIC"
],
  "ImagingFrequency": 123.259,
  "InPlanePhaseEncodingDirectionDICOM": "COL",
  "InstitutionAddress": "Chemin_Queen-Mary_4565_Montreal_District_CA_H3W_1W5",
  "InstitutionName": "IUGM",
  "InstitutionalDepartmentName": "Department",
  "MRAcquisitionType": "2D",
  "MagneticFieldStrength": 3,
  "Manufacturer": "Siemens",
  "ManufacturersModelName": "Prisma_fit",
  "Modality": "MR",
  "MultibandAccelerationFactor": 4,
  "PartialFourier": 1,
  "PatientPosition": "HFS",
  "PercentPhaseFOV": 100,
  "PhaseEncodingDirection": "j",
  "PhaseEncodingSteps": 104,
  "PhaseResolution": 1,
  "PixelBandwidth": 2290,
  "ProcedureStepDescription": "memory_things",
  "ProtocolName": "func_task-things_run-2",
  "PulseSequenceDetails": "%CustomerSeq%_cmrr_mbep2d_bold",
  "ReceiveCoilActiveElements": "HC1-7;NC1,2",
  "ReceiveCoilName": "HeadNeck_64",
  "ReconMatrixPE": 104,
  "RepetitionTime": 1.49,
  "SAR": 0.0341731,
  "ScanOptions": "FS",
  "ScanningSequence": "EP",
  "SequenceName": "epfid2d1_104",
  "SequenceVariant": "SK_SS",
  "SeriesDescription": "func_task-things_run-2",
  "SeriesNumber": 13,
  "ShimSetting": [633, -7171, -8830, 616, 79, 70, -75, -13],
  "SliceThickness": 2,
  "SliceTiming": [0, 0.7825, 0.0975, 0.8825, 0.195, 0.98, 0.295, 1.0775, 0.3925, 1.175, 0.49, 1.2725, 0.5875, 1.3725, 0.685, 0, 0.7825, 0.0975, 0.8825, 0.195, 0.98, 0.295, 1.0775, 0.3925, 1.175, 0.49, 1.2725, 0.5875, 1.3725, 0.685, 0, 0.7825, 0.0975, 0.8825, 0.195, 0.98, 0.295, 1.0775, 0.3925, 1.175, 0.49, 1.2725, 0.5875, 1.3725, 0.685, 0, 0.7825, 0.0975, 0.8825, 0.195, 0.98, 0.295, 1.0775, 0.3925, 1.175, 0.49, 1.2725, 0.5875, 1.3725, 0.685],
  "SoftwareVersions": "syngo_MR_E11",
  "SpacingBetweenSlices": 2,
  "StationName": "MRC35049",
  "TaskName": "things",
  "TotalReadoutTime": 0.0576811,
  "TxRefAmp": 241.875,
  "WipMemBlock": "fb4bc074-0a03-4cab-8b00-497be3c5a660||Sequence: R016 ve11c/master r/e634e98; Dec 19 2017 11:00:25 by eja",
  "dcmmeta_affine": [
    [-1.9971704483032227, -0.026841633021831512, 0.10290606319904327, 106.38578033447266],
    [-0.06280387192964554, 1.8594322204589844, -0.7338716387748718, -55.698875427246094],
    [0.08582426607608795, 0.7360648512840271, 1.8576444387435913, -67.77163696289062],
    [0.0, 0.0, 0.0, 1.0]
],
  "dcmmeta_reorient_transform": [
    [0.0, -1.0, 0.0, 103.0],
    [1.0, 0.0, 0.0, 0.0],
    [0.0, 0.0, 1.0, 0.0],
    [0.0, 0.0, 0.0, 1.0]
],
  "dcmmeta_shape": [104, 104, 60, 190],
  "dcmmeta_slice_dim": 2,
  "dcmmeta_version": 0.6,
  "global": {
    "const": {
      "AcquisitionMatrix": [104, 0, 0, 104],
      "AngioFlag": "N",
      "BitsAllocated": 16,
      "BitsStored": 16,
      "BodyPartExamined": "BRAIN",
      "Columns": 832,
      "EchoNumbers": 1,
      "EchoTime": 37.0,
      "EchoTrainLength": 104,
      "FlipAngle": 52.0,
      "HighBit": 15,
      "ImageOrientationPatient": [0.99858523273139, 0.03140193737105, 0.04291213464916, -0.013420816498, 0.92971609120421, -0.3680324325932],
      "ImagePositionPatient": [-820.82078563819, -835.5165633, 244.73062148932],
      "ImageType": [
        "ORIGINAL",
        "PRIMARY",
        "M",
        "MB",
        "ND",
        "MOSAIC"
],
      "ImagedNucleus": "1H",
      "ImagingFrequency": 123.258922,
      "InPlanePhaseEncodingDirection": "COL",
      "MRAcquisitionType": "2D",
      "MagneticFieldStrength": 3.0,
      "Manufacturer": "SIEMENS",
      "ManufacturerModelName": "Prisma_fit",
      "Modality": "MR",
      "NumberOfAverages": 1.0,
      "NumberOfPhaseEncodingSteps": 104,
      "PercentPhaseFieldOfView": 100.0,
      "PercentSampling": 100.0,
      "PerformedProcedureStepStartTime": "170225.776000",
      "PhotometricInterpretation": "MONOCHROME2",
      "PixelBandwidth": 2290.0,
      "PixelRepresentation": 0,
      "PixelSpacing": [2.0, 2.0],
      "ProtocolName": "func_task-things_run-2",
      "RepetitionTime": 1490.0,
      "Rows": 832,
      "SAR": 0.03417309557543,
      "SamplesPerPixel": 1,
      "ScanOptions": "FS",
      "ScanningSequence": "EP",
      "SequenceName": "epfid2d1_104",
      "SequenceVariant": [
        "SK",
        "SS"
],
      "SeriesDescription": "func_task-things_run-2",
      "SeriesNumber": 13,
      "SeriesTime": "173214.978000",
      "SliceLocation": -37.036015663817,
      "SliceThickness": 2.0,
      "SmallestImagePixelValue": 0,
      "SoftwareVersions": "syngo MR E11",
      "SpacingBetweenSlices": 1.9999999874994,
      "SpecificCharacterSet": "ISO_IR 100",
      "StudyID": "1",
      "StudyTime": "170225.606000",
      "TransmitCoilName": "Body",
      "VariableFlipAngleFlag": "N",
      "WindowCenterWidthExplanation": "Algo1",
      "dBdt": 0.0},
    "slices": {}
  },
  "time": {
    "samples": {
      "AcquisitionNumber": [1, 2, 3, 4, 5, 6, 7, 8, 9, 10, 11, 12, 13, 14, 15, 16, 17, 18, 19, 20, 21, 22, 23, 24, 25, 26, 27, 28, 29, 30, 31, 32, 33, 34, 35, 36, 37, 38, 39, 40, 41, 42, 43, 44, 45, 46, 47, 48, 49, 50, 51, 52, 53, 54, 55, 56, 57, 58, 59, 60, 61, 62, 63, 64, 65, 66, 67, 68, 69, 70, 71, 72, 73, 74, 75, 76, 77, 78, 79, 80, 81, 82, 83, 84, 85, 86, 87, 88, 89, 90, 91, 92, 93, 94, 95, 96, 97, 98, 99, 100, 101, 102, 103, 104, 105, 106, 107, 108, 109, 110, 111, 112, 113, 114, 115, 116, 117, 118, 119, 120, 121, 122, 123, 124, 125, 126, 127, 128, 129, 130, 131, 132, 133, 134, 135, 136, 137, 138, 139, 140, 141, 142, 143, 144, 145, 146, 147, 148, 149, 150, 151, 152, 153, 154, 155, 156, 157, 158, 159, 160, 161, 162, 163, 164, 165, 166, 167, 168, 169, 170, 171, 172, 173, 174, 175, 176, 177, 178, 179, 180, 181, 182, 183, 184, 185, 186, 187, 188, 189, 190],
      "AcquisitionTime": ["173112.327500", "173113.817500", "173115.307500", "173116.797500", "173118.287500", "173119.777500", "173121.267500", "173122.757500", "173124.247500", "173125.737500", "173127.227500", "173128.717500", "173130.207500", "173131.697500", "173133.187500", "173134.677500", "173136.167500", "173137.657500", "173139.147500", "173140.637500", "173142.127500", "173143.617500", "173145.107500", "173146.597500", "173148.087500", "173149.577500", "173151.067500", "173152.557500", "173154.047500", "173155.537500", "173157.027500", "173158.517500", "173200.007500", "173201.497500", "173202.987500", "173204.477500", "173205.967500", "173207.457500", "173208.947500", "173210.437500", "173211.927500", "173213.417500", "173214.907500", "173216.397500", "173217.887500", "173219.377500", "173220.867500", "173222.357500", "173223.847500", "173225.337500", "173226.827500", "173228.317500", "173229.807500", "173231.297500", "173232.787500", "173234.277500", "173235.767500", "173237.257500", "173238.747500", "173240.237500", "173241.727500", "173243.217500", "173244.707500", "173246.197500", "173247.687500", "173249.177500", "173250.667500", "173252.157500", "173253.647500", "173255.137500", "173256.627500", "173258.117500", "173259.607500", "173301.097500", "173302.587500", "173304.077500", "173305.567500", "173307.057500", "173308.547500", "173310.037500", "173311.527500", "173313.017500", "173314.507500", "173315.997500", "173317.487500", "173318.977500", "173320.467500", "173321.957500", "173323.447500", "173324.937500", "173326.427500", "173327.917500", "173329.407500", "173330.897500", "173332.387500", "173333.877500", "173335.367500", "173336.857500", "173338.347500", "173339.837500", "173341.327500", "173342.817500", "173344.307500", "173345.797500", "173347.287500", "173348.777500", "173350.267500", "173351.757500", "173353.247500", "173354.737500", "173356.227500", "173357.717500", "173359.207500", "173400.697500", "173402.187500", "173403.677500", "173405.167500", "173406.657500", "173408.147500", "173409.637500", "173411.127500", "173412.617500", "173414.107500", "173415.597500", "173417.087500", "173418.577500", "173420.067500", "173421.557500", "173423.047500", "173424.537500", "173426.027500", "173427.517500", "173429.007500", "173430.497500", "173431.987500", "173433.477500", "173434.967500", "173436.457500", "173437.947500", "173439.437500", "173440.927500", "173442.417500", "173443.907500", "173445.397500", "173446.887500", "173448.377500", "173449.867500", "173451.357500", "173452.847500", "173454.337500", "173455.827500", "173457.317500", "173458.807500", "173500.297500", "173501.787500", "173503.277500", "173504.767500", "173506.257500", "173507.747500", "173509.237500", "173510.727500", "173512.217500", "173513.707500", "173515.197500", "173516.687500", "173518.177500", "173519.667500", "173521.157500", "173522.647500", "173524.137500", "173525.627500", "173527.117500", "173528.607500", "173530.097500", "173531.587500", "173533.077500", "173534.567500", "173536.057500", "173537.547500", "173539.037500", "173540.527500", "173542.017500", "173543.507500", "173544.997500", "173546.487500", "173547.977500", "173549.467500", "173550.957500", "173552.447500", "173553.937500"],
      "ContentTime": ["173214.981000", "173214.984000", "173214.988000", "173214.991000", "173214.994000", "173214.998000", "173215.008000", "173215.011000", "173215.015000", "173234.948000", "173234.952000", "173234.955000", "173234.958000", "173234.962000", "173234.965000", "173234.968000", "173234.972000", "173234.975000", "173234.978000", "173234.981000", "173234.985000", "173234.988000", "173234.992000", "173234.995000", "173234.998000", "173235.002000", "173235.005000", "173235.009000", "173235.012000", "173235.015000", "173254.948000", "173254.952000", "173254.955000", "173254.958000", "173254.962000", "173254.965000", "173254.968000", "173254.971000", "173254.975000", "173254.978000", "173254.981000", "173254.985000", "173254.988000", "173254.991000", "173254.995000", "173254.998000", "173255.001000", "173255.022000", "173255.025000", "173255.029000", "173314.949000", "173314.953000", "173314.956000", "173314.959000", "173314.963000", "173314.966000", "173314.969000", "173314.973000", "173314.976000", "173314.979000", "173314.982000", "173314.986000", "173314.989000", "173314.992000", "173314.996000", "173314.999000", "173315.002000", "173315.006000", "173315.009000", "173315.012000", "173334.949000", "173334.953000", "173334.956000", "173334.959000", "173334.963000", "173334.966000", "173334.970000", "173334.973000", "173334.977000", "173334.980000", "173334.983000", "173334.986000", "173334.990000", "173334.993000", "173334.996000", "173335.001000", "173335.004000", "173335.007000", "173335.011000", "173335.014000", "173335.017000", "173414.949000", "173414.953000", "173414.956000", "173414.960000", "173414.963000", "173414.966000", "173414.969000", "173414.973000", "173414.976000", "173414.979000", "173414.983000", "173414.986000", "173414.989000", "173414.993000", "173414.996000", "173415.000000", "173415.004000", "173415.007000", "173415.010000", "173415.014000", "173415.017000", "173415.020000", "173415.024000", "173415.027000", "173415.030000", "173415.034000", "173415.037000", "173415.040000", "173415.044000", "173415.047000", "173415.050000", "173454.948000", "173454.952000", "173454.955000", "173454.958000", "173454.962000", "173454.965000", "173454.969000", "173454.972000", "173454.975000", "173454.978000", "173454.982000", "173454.985000", "173454.989000", "173454.992000", "173454.995000", "173454.998000", "173455.003000", "173455.006000", "173455.009000", "173455.013000", "173455.016000", "173455.019000", "173455.023000", "173455.026000", "173455.029000", "173455.033000", "173455.036000", "173534.949000", "173534.953000", "173534.956000", "173534.960000", "173534.963000", "173534.967000", "173534.970000", "173534.980000", "173534.984000", "173534.987000", "173534.990000", "173534.994000", "173534.997000", "173535.001000", "173535.004000", "173535.007000", "173535.011000", "173535.014000", "173535.017000", "173535.021000", "173535.024000", "173535.028000", "173535.031000", "173535.035000", "173535.038000", "173535.041000", "173535.045000", "173555.658000", "173555.661000", "173555.665000", "173555.668000", "173555.671000", "173555.675000", "173555.678000", "173555.681000", "173555.685000", "173555.688000", "173555.692000", "173555.695000", "173555.698000", "173555.702000"],
      "InstanceCreationTime": ["173214.981000", "173214.984000", "173214.988000", "173214.991000", "173214.994000", "173214.998000", "173215.008000", "173215.011000", "173215.015000", "173234.948000", "173234.952000", "173234.955000", "173234.958000", "173234.962000", "173234.965000", "173234.968000", "173234.972000", "173234.975000", "173234.978000", "173234.981000", "173234.985000", "173234.988000", "173234.992000", "173234.995000", "173234.998000", "173235.002000", "173235.005000", "173235.009000", "173235.012000", "173235.015000", "173254.948000", "173254.952000", "173254.955000", "173254.958000", "173254.962000", "173254.965000", "173254.968000", "173254.971000", "173254.975000", "173254.978000", "173254.981000", "173254.985000", "173254.988000", "173254.991000", "173254.995000", "173254.998000", "173255.001000", "173255.022000", "173255.025000", "173255.029000", "173314.949000", "173314.953000", "173314.956000", "173314.959000", "173314.963000", "173314.966000", "173314.969000", "173314.973000", "173314.976000", "173314.979000", "173314.982000", "173314.986000", "173314.989000", "173314.992000", "173314.996000", "173314.999000", "173315.002000", "173315.006000", "173315.009000", "173315.012000", "173334.949000", "173334.953000", "173334.956000", "173334.959000", "173334.963000", "173334.966000", "173334.970000", "173334.973000", "173334.977000", "173334.980000", "173334.983000", "173334.986000", "173334.990000", "173334.993000", "173334.996000", "173335.001000", "173335.004000", "173335.007000", "173335.011000", "173335.014000", "173335.017000", "173414.949000", "173414.953000", "173414.956000", "173414.960000", "173414.963000", "173414.966000", "173414.969000", "173414.973000", "173414.976000", "173414.979000", "173414.983000", "173414.986000", "173414.989000", "173414.993000", "173414.996000", "173415.000000", "173415.004000", "173415.007000", "173415.010000", "173415.014000", "173415.017000", "173415.020000", "173415.024000", "173415.027000", "173415.030000", "173415.034000", "173415.037000", "173415.040000", "173415.044000", "173415.047000", "173415.050000", "173454.948000", "173454.952000", "173454.955000", "173454.958000", "173454.962000", "173454.965000", "173454.969000", "173454.972000", "173454.975000", "173454.978000", "173454.982000", "173454.985000", "173454.989000", "173454.992000", "173454.995000", "173454.998000", "173455.003000", "173455.006000", "173455.009000", "173455.013000", "173455.016000", "173455.019000", "173455.023000", "173455.026000", "173455.029000", "173455.033000", "173455.036000", "173534.949000", "173534.953000", "173534.956000", "173534.960000", "173534.963000", "173534.967000", "173534.970000", "173534.980000", "173534.984000", "173534.987000", "173534.990000", "173534.994000", "173534.997000", "173535.001000", "173535.004000", "173535.007000", "173535.011000", "173535.014000", "173535.017000", "173535.021000", "173535.024000", "173535.028000", "173535.031000", "173535.035000", "173535.038000", "173535.041000", "173535.045000", "173555.658000", "173555.661000", "173555.665000", "173555.668000", "173555.671000", "173555.675000", "173555.678000", "173555.681000", "173555.685000", "173555.688000", "173555.692000", "173555.695000", "173555.698000", "173555.702000"],
      "InstanceNumber": [1, 2, 3, 4, 5, 6, 7, 8, 9, 10, 11, 12, 13, 14, 15, 16, 17, 18, 19, 20, 21, 22, 23, 24, 25, 26, 27, 28, 29, 30, 31, 32, 33, 34, 35, 36, 37, 38, 39, 40, 41, 42, 43, 44, 45, 46, 47, 48, 49, 50, 51, 52, 53, 54, 55, 56, 57, 58, 59, 60, 61, 62, 63, 64, 65, 66, 67, 68, 69, 70, 71, 72, 73, 74, 75, 76, 77, 78, 79, 80, 81, 82, 83, 84, 85, 86, 87, 88, 89, 90, 91, 92, 93, 94, 95, 96, 97, 98, 99, 100, 101, 102, 103, 104, 105, 106, 107, 108, 109, 110, 111, 112, 113, 114, 115, 116, 117, 118, 119, 120, 121, 122, 123, 124, 125, 126, 127, 128, 129, 130, 131, 132, 133, 134, 135, 136, 137, 138, 139, 140, 141, 142, 143, 144, 145, 146, 147, 148, 149, 150, 151, 152, 153, 154, 155, 156, 157, 158, 159, 160, 161, 162, 163, 164, 165, 166, 167, 168, 169, 170, 171, 172, 173, 174, 175, 176, 177, 178, 179, 180, 181, 182, 183, 184, 185, 186, 187, 188, 189, 190],
      "LargestImagePixelValue": [44332, 44284, 43195, 42957, 44154, 44154, 44047, 43853, 43514, 43317, 44272, 44221, 44015, 43105, 41172, 41794, 43665, 43678, 43479, 43552, 42837, 42518, 43223, 42407, 42548, 43545, 43886, 43126, 43108, 43721, 43450, 43572, 43054, 42662, 42813, 43036, 42267, 42029, 42303, 42574, 42840, 42426, 43534, 42563, 42731, 42479, 42390, 42607, 42573, 42231, 43103, 42874, 42416, 43193, 42706, 42900, 42530, 41833, 42089, 41911, 42292, 42036, 41888, 42195, 41231, 41890, 42322, 41829, 41557, 41877, 41390, 41816, 42891, 42545, 42579, 42321, 42337, 42663, 42351, 42370, 42652, 42747, 42732, 42425, 41527, 42307, 41476, 41865, 41480, 42287, 41847, 41648, 41960, 41522, 42332, 41330, 42501, 41225, 41613, 42043, 42179, 41874, 41865, 42440, 42543, 42369, 43424, 42929, 42806, 43189, 42371, 41681, 41411, 41897, 42584, 41458, 41459, 43381, 43741, 43370, 42755, 41319, 42756, 41504, 41790, 41489, 41928, 42707, 42475, 42493, 41286, 41766, 41377, 41806, 41395, 41183, 42078, 42626, 43012, 41629, 42369, 41914, 41694, 41867, 42183, 41664, 41285, 41332, 41956, 41676, 41841, 41325, 41431, 41833, 41144, 42263, 41469, 40937, 42026, 42191, 41969, 41924, 41878, 41883, 41799, 41144, 40998, 41221, 40983, 41529, 40910, 41095, 41699, 41398, 40585, 40849, 41035, 41263, 41483, 41985, 41908, 41129, 41246, 42085, 41326, 41699, 41462, 41510, 41335, 41525],
      "WindowCenter": [10626.0, 10581.0, 10554.0, 10538.0, 10528.0, 10516.0, 10515.0, 10510.0, 10525.0, 10514.0, 10507.0, 10503.0, 10506.0, 10520.0, 10518.0, 10512.0, 10520.0, 10505.0, 10500.0, 10491.0, 10494.0, 10489.0, 10492.0, 10487.0, 10507.0, 10522.0, 10517.0, 10503.0, 10512.0, 10518.0, 10509.0, 10517.0, 10511.0, 10496.0, 10494.0, 10495.0, 10497.0, 10497.0, 10516.0, 10518.0, 10521.0, 10513.0, 10521.0, 10508.0, 10505.0, 10505.0, 10516.0, 10518.0, 10508.0, 10508.0, 10514.0, 10505.0, 10496.0, 10510.0, 10499.0, 10503.0, 10503.0, 10515.0, 10519.0, 10495.0, 10481.0, 10496.0, 10527.0, 10545.0, 10527.0, 10520.0, 10499.0, 10483.0, 10475.0, 10521.0, 10534.0, 10515.0, 10505.0, 10481.0, 10468.0, 10470.0, 10487.0, 10494.0, 10493.0, 10489.0, 10484.0, 10483.0, 10492.0, 10493.0, 10490.0, 10505.0, 10487.0, 10461.0, 10444.0, 10462.0, 10501.0, 10511.0, 10509.0, 10490.0, 10479.0, 10454.0, 10456.0, 10462.0, 10514.0, 10529.0, 10512.0, 10484.0, 10491.0, 10507.0, 10505.0, 10496.0, 10505.0, 10498.0, 10479.0, 10481.0, 10476.0, 10471.0, 10473.0, 10503.0, 10512.0, 10491.0, 10481.0, 10496.0, 10510.0, 10496.0, 10467.0, 10452.0, 10464.0, 10443.0, 10447.0, 10456.0, 10487.0, 10500.0, 10492.0, 10485.0, 10480.0, 10489.0, 10466.0, 10454.0, 10448.0, 10464.0, 10511.0, 10520.0, 10494.0, 10471.0, 10476.0, 10461.0, 10459.0, 10475.0, 10494.0, 10499.0, 10487.0, 10486.0, 10473.0, 10448.0, 10450.0, 10479.0, 10510.0, 10510.0, 10495.0, 10508.0, 10493.0, 10481.0, 10489.0, 10503.0, 10499.0, 10492.0, 10482.0, 10491.0, 10493.0, 10486.0, 10487.0, 10490.0, 10469.0, 10479.0, 10477.0, 10474.0, 10481.0, 10480.0, 10478.0, 10486.0, 10493.0, 10504.0, 10509.0, 10513.0, 10511.0, 10486.0, 10484.0, 10507.0, 10510.0, 10510.0, 10499.0, 10495.0, 10480.0, 10467.0],
      "WindowWidth": [22630.0, 22507.0, 22434.0, 22392.0, 22359.0, 22327.0, 22326.0, 22319.0, 22353.0, 22328.0, 22304.0, 22293.0, 22303.0, 22345.0, 22351.0, 22330.0, 22340.0, 22307.0, 22292.0, 22274.0, 22284.0, 22275.0, 22276.0, 22271.0, 22320.0, 22352.0, 22334.0, 22301.0, 22330.0, 22339.0, 22312.0, 22332.0, 22319.0, 22283.0, 22280.0, 22284.0, 22289.0, 22291.0, 22336.0, 22341.0, 22343.0, 22325.0, 22349.0, 22321.0, 22308.0, 22314.0, 22341.0, 22343.0, 22321.0, 22322.0, 22334.0, 22311.0, 22291.0, 22322.0, 22299.0, 22306.0, 22307.0, 22342.0, 22355.0, 22294.0, 22258.0, 22295.0, 22371.0, 22412.0, 22373.0, 22353.0, 22299.0, 22263.0, 22247.0, 22357.0, 22392.0, 22342.0, 22311.0, 22258.0, 22227.0, 22238.0, 22273.0, 22287.0, 22285.0, 22278.0, 22262.0, 22259.0, 22284.0, 22288.0, 22283.0, 22317.0, 22269.0, 22208.0, 22167.0, 22209.0, 22305.0, 22332.0, 22324.0, 22279.0, 22253.0, 22197.0, 22198.0, 22220.0, 22345.0, 22384.0, 22337.0, 22271.0, 22290.0, 22328.0, 22318.0, 22295.0, 22311.0, 22296.0, 22254.0, 22256.0, 22247.0, 22235.0, 22240.0, 22307.0, 22331.0, 22282.0, 22262.0, 22291.0, 22320.0, 22283.0, 22215.0, 22187.0, 22211.0, 22168.0, 22176.0, 22200.0, 22276.0, 22299.0, 22278.0, 22263.0, 22252.0, 22279.0, 22225.0, 22196.0, 22188.0, 22224.0, 22332.0, 22347.0, 22283.0, 22239.0, 22245.0, 22213.0, 22210.0, 22246.0, 22292.0, 22307.0, 22278.0, 22276.0, 22241.0, 22182.0, 22186.0, 22263.0, 22337.0, 22335.0, 22299.0, 22326.0, 22294.0, 22269.0, 22281.0, 22315.0, 22306.0, 22289.0, 22266.0, 22291.0, 22294.0, 22277.0, 22279.0, 22280.0, 22232.0, 22256.0, 22256.0, 22246.0, 22262.0, 22260.0, 22258.0, 22279.0, 22295.0, 22322.0, 22328.0, 22333.0, 22337.0, 22276.0, 22272.0, 22327.0, 22335.0, 22332.0, 22303.0, 22292.0, 22255.0, 22221.0]
    },
    "slices": {}
  }
}