{
  "AcquisitionMatrixPE": 104,
  "AcquisitionNumber": 1,
  "AcquisitionTime": "17:23:16.542500",
  "BandwidthPerPixelPhaseEncode": 17.17,
  "BaseResolution": 104,
  "BodyPartExamined": "BRAIN",
  "CoilString": "HC1-7;NC1_2",
  "ConsistencyInfo": "N4_VE11C_LATEST_20160120",
  "ConversionSoftware": "dcm2niix",
  "ConversionSoftwareVersion": "v1.0.20190902",
  "DerivedVendorReportedEchoSpacing": 0.000560011,
  "DeviceSerialNumber": "167006",
  "DwellTime": 2.1e-06,
  "EchoTime": 0.037,
  "EchoTrainLength": 104,
  "EffectiveEchoSpacing": 0.000560011,
  "FlipAngle": 52,
  "ImageComments": "Unaliased_MB4_PE3_LB",
  "ImageOrientationPatientDICOM": [0.998585, 0.0314019, 0.0429121, -0.0134208, 0.929716, -0.368032],
  "ImageType": [
    "ORIGINAL",
    "PRIMARY",
    "P",
    "MB",
    "ND",
    "MOSAIC"
],
  "ImagingFrequency": 123.259,
  "InPlanePhaseEncodingDirectionDICOM": "COL",
  "InstitutionAddress": "Chemin_Queen-Mary_4565_Montreal_District_CA_H3W_1W5",
  "InstitutionName": "IUGM",
  "InstitutionalDepartmentName": "Department",
  "MRAcquisitionType": "2D",
  "MagneticFieldStrength": 3,
  "Manufacturer": "Siemens",
  "ManufacturersModelName": "Prisma_fit",
  "Modality": "MR",
  "MultibandAccelerationFactor": 4,
  "PartialFourier": 1,
  "PatientPosition": "HFS",
  "PercentPhaseFOV": 100,
  "PhaseEncodingDirection": "j",
  "PhaseEncodingSteps": 104,
  "PhaseResolution": 1,
  "PixelBandwidth": 2290,
  "ProcedureStepDescription": "memory_things",
  "ProtocolName": "func_task-things_run-1",
  "PulseSequenceDetails": "%CustomerSeq%_cmrr_mbep2d_bold",
  "ReceiveCoilActiveElements": "HC1-7;NC1,2",
  "ReceiveCoilName": "HeadNeck_64",
  "ReconMatrixPE": 104,
  "RepetitionTime": 1.49,
  "SAR": 0.0341731,
  "ScanOptions": "FS",
  "ScanningSequence": "EP",
  "SequenceName": "epfid2d1_104",
  "SequenceVariant": "SK_SS",
  "SeriesDescription": "func_task-things_run-1",
  "SeriesNumber": 11,
  "ShimSetting": [633, -7171, -8830, 616, 79, 70, -75, -13],
  "SliceThickness": 2,
  "SliceTiming": [0, 0.785, 0.1, 0.8825, 0.1975, 0.98, 0.295, 1.08, 0.3925, 1.1775, 0.49, 1.275, 0.59, 1.3725, 0.6875, 0, 0.785, 0.1, 0.8825, 0.1975, 0.98, 0.295, 1.08, 0.3925, 1.1775, 0.49, 1.275, 0.59, 1.3725, 0.6875, 0, 0.785, 0.1, 0.8825, 0.1975, 0.98, 0.295, 1.08, 0.3925, 1.1775, 0.49, 1.275, 0.59, 1.3725, 0.6875, 0, 0.785, 0.1, 0.8825, 0.1975, 0.98, 0.295, 1.08, 0.3925, 1.1775, 0.49, 1.275, 0.59, 1.3725, 0.6875],
  "SoftwareVersions": "syngo_MR_E11",
  "SpacingBetweenSlices": 2,
  "StationName": "MRC35049",
  "TaskName": "things",
  "TotalReadoutTime": 0.0576811,
  "TxRefAmp": 241.875,
  "WipMemBlock": "57eed8c8-a66b-4b20-a434-0c421c945741||Sequence: R016 ve11c/master r/e634e98; Dec 19 2017 11:00:25 by eja",
  "dcmmeta_affine": [
    [-1.9971704483032227, -0.026841633021831512, 0.10290606319904327, 106.38578033447266],
    [-0.06280387192964554, 1.8594322204589844, -0.7338716387748718, -55.698875427246094],
    [0.08582426607608795, 0.7360648512840271, 1.8576444387435913, -67.77163696289062],
    [0.0, 0.0, 0.0, 1.0]
],
  "dcmmeta_reorient_transform": [
    [0.0, -1.0, 0.0, 103.0],
    [1.0, 0.0, 0.0, 0.0],
    [0.0, 0.0, 1.0, 0.0],
    [0.0, 0.0, 0.0, 1.0]
],
  "dcmmeta_shape": [104, 104, 60, 190],
  "dcmmeta_slice_dim": 2,
  "dcmmeta_version": 0.6,
  "global": {
    "const": {
      "AcquisitionMatrix": [104, 0, 0, 104],
      "AngioFlag": "N",
      "BitsAllocated": 16,
      "BitsStored": 16,
      "BodyPartExamined": "BRAIN",
      "Columns": 832,
      "EchoNumbers": 1,
      "EchoTime": 37.0,
      "EchoTrainLength": 104,
      "FlipAngle": 52.0,
      "HighBit": 15,
      "ImageOrientationPatient": [0.99858523273139, 0.03140193737105, 0.04291213464916, -0.013420816498, 0.92971609120421, -0.3680324325932],
      "ImagePositionPatient": [-820.82078563819, -835.5165633, 244.73062148932],
      "ImageType": [
        "ORIGINAL",
        "PRIMARY",
        "P",
        "MB",
        "ND",
        "MOSAIC"
],
      "ImagedNucleus": "1H",
      "ImagingFrequency": 123.258918,
      "InPlanePhaseEncodingDirection": "COL",
      "LargestImagePixelValue": 4095,
      "MRAcquisitionType": "2D",
      "MagneticFieldStrength": 3.0,
      "Manufacturer": "SIEMENS",
      "ManufacturerModelName": "Prisma_fit",
      "Modality": "MR",
      "NumberOfAverages": 1.0,
      "NumberOfPhaseEncodingSteps": 104,
      "PercentPhaseFieldOfView": 100.0,
      "PercentSampling": 100.0,
      "PerformedProcedureStepStartTime": "170225.776000",
      "PhotometricInterpretation": "MONOCHROME2",
      "PixelBandwidth": 2290.0,
      "PixelRepresentation": 0,
      "PixelSpacing": [2.0, 2.0],
      "ProtocolName": "func_task-things_run-1",
      "RepetitionTime": 1490.0,
      "RescaleIntercept": -4096.0,
      "RescaleSlope": 2.0,
      "RescaleType": "US",
      "Rows": 832,
      "SAR": 0.03417309557543,
      "SamplesPerPixel": 1,
      "ScanOptions": "FS",
      "ScanningSequence": "EP",
      "SequenceName": "epfid2d1_104",
      "SequenceVariant": [
        "SK",
        "SS"
],
      "SeriesDescription": "func_task-things_run-1",
      "SeriesNumber": 11,
      "SeriesTime": "172427.087000",
      "SliceLocation": -37.036015663817,
      "SliceThickness": 2.0,
      "SmallestImagePixelValue": 0,
      "SoftwareVersions": "syngo MR E11",
      "SpacingBetweenSlices": 1.9999999874994,
      "SpecificCharacterSet": "ISO_IR 100",
      "StudyID": "1",
      "StudyTime": "170225.606000",
      "TransmitCoilName": "Body",
      "VariableFlipAngleFlag": "N",
      "WindowCenterWidthExplanation": "Algo1",
      "dBdt": 0.0},
    "slices": {}
  },
  "time": {
    "samples": {
      "AcquisitionNumber": [1, 2, 3, 4, 5, 6, 7, 8, 9, 10, 11, 12, 13, 14, 15, 16, 17, 18, 19, 20, 21, 22, 23, 24, 25, 26, 27, 28, 29, 30, 31, 32, 33, 34, 35, 36, 37, 38, 39, 40, 41, 42, 43, 44, 45, 46, 47, 48, 49, 50, 51, 52, 53, 54, 55, 56, 57, 58, 59, 60, 61, 62, 63, 64, 65, 66, 67, 68, 69, 70, 71, 72, 73, 74, 75, 76, 77, 78, 79, 80, 81, 82, 83, 84, 85, 86, 87, 88, 89, 90, 91, 92, 93, 94, 95, 96, 97, 98, 99, 100, 101, 102, 103, 104, 105, 106, 107, 108, 109, 110, 111, 112, 113, 114, 115, 116, 117, 118, 119, 120, 121, 122, 123, 124, 125, 126, 127, 128, 129, 130, 131, 132, 133, 134, 135, 136, 137, 138, 139, 140, 141, 142, 143, 144, 145, 146, 147, 148, 149, 150, 151, 152, 153, 154, 155, 156, 157, 158, 159, 160, 161, 162, 163, 164, 165, 166, 167, 168, 169, 170, 171, 172, 173, 174, 175, 176, 177, 178, 179, 180, 181, 182, 183, 184, 185, 186, 187, 188, 189, 190],
      "AcquisitionTime": ["172316.542500", "172318.032500", "172319.522500", "172321.012500", "172322.502500", "172323.992500", "172325.482500", "172326.972500", "172328.462500", "172329.952500", "172331.442500", "172332.932500", "172334.422500", "172335.912500", "172337.402500", "172338.892500", "172340.382500", "172341.872500", "172343.362500", "172344.852500", "172346.342500", "172347.832500", "172349.322500", "172350.812500", "172352.302500", "172353.792500", "172355.282500", "172356.772500", "172358.262500", "172359.752500", "172401.242500", "172402.732500", "172404.222500", "172405.712500", "172407.202500", "172408.692500", "172410.182500", "172411.672500", "172413.162500", "172414.652500", "172416.142500", "172417.632500", "172419.122500", "172420.612500", "172422.102500", "172423.592500", "172425.082500", "172426.572500", "172428.062500", "172429.552500", "172431.042500", "172432.532500", "172434.022500", "172435.512500", "172437.002500", "172438.492500", "172439.982500", "172441.472500", "172442.962500", "172444.452500", "172445.942500", "172447.432500", "172448.922500", "172450.412500", "172451.902500", "172453.392500", "172454.882500", "172456.372500", "172457.862500", "172459.352500", "172500.842500", "172502.332500", "172503.822500", "172505.312500", "172506.802500", "172508.292500", "172509.782500", "172511.272500", "172512.762500", "172514.252500", "172515.742500", "172517.232500", "172518.722500", "172520.212500", "172521.702500", "172523.192500", "172524.682500", "172526.172500", "172527.662500", "172529.152500", "172530.642500", "172532.132500", "172533.622500", "172535.112500", "172536.602500", "172538.092500", "172539.582500", "172541.072500", "172542.562500", "172544.052500", "172545.542500", "172547.032500", "172548.522500", "172550.012500", "172551.502500", "172552.992500", "172554.482500", "172555.972500", "172557.462500", "172558.952500", "172600.442500", "172601.932500", "172603.422500", "172604.912500", "172606.402500", "172607.892500", "172609.382500", "172610.872500", "172612.362500", "172613.852500", "172615.342500", "172616.832500", "172618.322500", "172619.812500", "172621.302500", "172622.792500", "172624.282500", "172625.772500", "172627.262500", "172628.752500", "172630.242500", "172631.732500", "172633.222500", "172634.712500", "172636.202500", "172637.692500", "172639.182500", "172640.672500", "172642.162500", "172643.652500", "172645.142500", "172646.632500", "172648.122500", "172649.612500", "172651.102500", "172652.592500", "172654.082500", "172655.572500", "172657.062500", "172658.552500", "172700.042500", "172701.532500", "172703.022500", "172704.512500", "172706.002500", "172707.492500", "172708.982500", "172710.472500", "172711.962500", "172713.452500", "172714.942500", "172716.432500", "172717.922500", "172719.412500", "172720.902500", "172722.392500", "172723.882500", "172725.372500", "172726.862500", "172728.352500", "172729.842500", "172731.332500", "172732.822500", "172734.312500", "172735.802500", "172737.292500", "172738.782500", "172740.272500", "172741.762500", "172743.252500", "172744.742500", "172746.232500", "172747.722500", "172749.212500", "172750.702500", "172752.192500", "172753.682500", "172755.172500", "172756.662500", "172758.152500"],
      "ContentTime": ["172427.089000", "172427.091000", "172427.094000", "172427.096000", "172427.099000", "172427.101000", "172427.104000", "172427.106000", "172427.109000", "172427.111000", "172427.114000", "172427.116000", "172427.119000", "172427.121000", "172427.124000", "172447.075000", "172447.078000", "172447.080000", "172447.083000", "172447.085000", "172447.088000", "172447.090000", "172447.093000", "172447.095000", "172447.105000", "172447.108000", "172447.110000", "172447.113000", "172447.115000", "172447.118000", "172447.120000", "172447.123000", "172447.125000", "172447.128000", "172447.130000", "172507.086000", "172507.089000", "172507.091000", "172507.094000", "172507.096000", "172507.099000", "172507.101000", "172507.104000", "172507.106000", "172507.108000", "172507.111000", "172507.113000", "172507.116000", "172507.118000", "172507.121000", "172507.123000", "172507.126000", "172507.128000", "172507.131000", "172507.139000", "172527.079000", "172527.082000", "172527.085000", "172527.087000", "172527.090000", "172527.092000", "172527.094000", "172527.097000", "172527.099000", "172527.102000", "172527.104000", "172527.107000", "172527.109000", "172527.112000", "172527.114000", "172527.117000", "172527.119000", "172527.122000", "172527.124000", "172527.127000", "172527.129000", "172547.078000", "172547.081000", "172547.083000", "172547.087000", "172547.090000", "172547.092000", "172547.095000", "172547.097000", "172547.100000", "172547.102000", "172547.105000", "172547.107000", "172547.110000", "172547.112000", "172547.115000", "172547.117000", "172547.120000", "172547.122000", "172547.125000", "172547.127000", "172627.115000", "172627.118000", "172627.120000", "172627.123000", "172627.125000", "172627.128000", "172627.130000", "172627.133000", "172627.135000", "172627.138000", "172627.140000", "172627.143000", "172627.145000", "172627.148000", "172627.150000", "172627.153000", "172627.155000", "172627.158000", "172627.160000", "172627.163000", "172627.165000", "172627.168000", "172627.170000", "172627.173000", "172627.175000", "172627.178000", "172627.180000", "172627.183000", "172627.185000", "172627.188000", "172627.190000", "172707.099000", "172707.102000", "172707.105000", "172707.107000", "172707.110000", "172707.112000", "172707.116000", "172707.118000", "172707.121000", "172707.123000", "172707.126000", "172707.128000", "172707.131000", "172707.134000", "172707.136000", "172707.139000", "172707.141000", "172707.143000", "172707.146000", "172707.148000", "172707.151000", "172707.154000", "172707.156000", "172707.159000", "172707.161000", "172707.164000", "172707.166000", "172747.096000", "172747.098000", "172747.101000", "172747.103000", "172747.106000", "172747.108000", "172747.111000", "172747.113000", "172747.116000", "172747.118000", "172747.121000", "172747.123000", "172747.126000", "172747.128000", "172747.131000", "172747.133000", "172747.136000", "172747.138000", "172747.141000", "172747.143000", "172747.146000", "172747.148000", "172747.151000", "172747.153000", "172747.156000", "172747.158000", "172747.161000", "172759.964000", "172759.966000", "172759.969000", "172759.972000", "172759.974000", "172759.977000", "172759.979000", "172759.982000", "172759.984000"],
      "InstanceCreationTime": ["172427.089000", "172427.091000", "172427.094000", "172427.096000", "172427.099000", "172427.101000", "172427.104000", "172427.106000", "172427.109000", "172427.111000", "172427.114000", "172427.116000", "172427.119000", "172427.121000", "172427.124000", "172447.075000", "172447.078000", "172447.080000", "172447.083000", "172447.085000", "172447.088000", "172447.090000", "172447.093000", "172447.095000", "172447.105000", "172447.108000", "172447.110000", "172447.113000", "172447.115000", "172447.118000", "172447.120000", "172447.123000", "172447.125000", "172447.128000", "172447.130000", "172507.086000", "172507.089000", "172507.091000", "172507.094000", "172507.096000", "172507.099000", "172507.101000", "172507.104000", "172507.106000", "172507.108000", "172507.111000", "172507.113000", "172507.116000", "172507.118000", "172507.121000", "172507.123000", "172507.126000", "172507.128000", "172507.131000", "172507.139000", "172527.079000", "172527.082000", "172527.085000", "172527.087000", "172527.090000", "172527.092000", "172527.094000", "172527.097000", "172527.099000", "172527.102000", "172527.104000", "172527.107000", "172527.109000", "172527.112000", "172527.114000", "172527.117000", "172527.119000", "172527.122000", "172527.124000", "172527.127000", "172527.129000", "172547.078000", "172547.081000", "172547.083000", "172547.087000", "172547.090000", "172547.092000", "172547.095000", "172547.097000", "172547.100000", "172547.102000", "172547.105000", "172547.107000", "172547.110000", "172547.112000", "172547.115000", "172547.117000", "172547.120000", "172547.122000", "172547.125000", "172547.127000", "172627.115000", "172627.118000", "172627.120000", "172627.123000", "172627.125000", "172627.128000", "172627.130000", "172627.133000", "172627.135000", "172627.138000", "172627.140000", "172627.143000", "172627.145000", "172627.148000", "172627.150000", "172627.153000", "172627.155000", "172627.158000", "172627.160000", "172627.163000", "172627.165000", "172627.168000", "172627.170000", "172627.173000", "172627.175000", "172627.178000", "172627.180000", "172627.183000", "172627.185000", "172627.188000", "172627.190000", "172707.099000", "172707.102000", "172707.105000", "172707.107000", "172707.110000", "172707.112000", "172707.116000", "172707.118000", "172707.121000", "172707.123000", "172707.126000", "172707.128000", "172707.131000", "172707.134000", "172707.136000", "172707.139000", "172707.141000", "172707.143000", "172707.146000", "172707.148000", "172707.151000", "172707.154000", "172707.156000", "172707.159000", "172707.161000", "172707.164000", "172707.166000", "172747.096000", "172747.098000", "172747.101000", "172747.103000", "172747.106000", "172747.108000", "172747.111000", "172747.113000", "172747.116000", "172747.118000", "172747.121000", "172747.123000", "172747.126000", "172747.128000", "172747.131000", "172747.133000", "172747.136000", "172747.138000", "172747.141000", "172747.143000", "172747.146000", "172747.148000", "172747.151000", "172747.153000", "172747.156000", "172747.158000", "172747.161000", "172759.964000", "172759.966000", "172759.969000", "172759.972000", "172759.974000", "172759.977000", "172759.979000", "172759.982000", "172759.984000"],
      "InstanceNumber": [1, 2, 3, 4, 5, 6, 7, 8, 9, 10, 11, 12, 13, 14, 15, 16, 17, 18, 19, 20, 21, 22, 23, 24, 25, 26, 27, 28, 29, 30, 31, 32, 33, 34, 35, 36, 37, 38, 39, 40, 41, 42, 43, 44, 45, 46, 47, 48, 49, 50, 51, 52, 53, 54, 55, 56, 57, 58, 59, 60, 61, 62, 63, 64, 65, 66, 67, 68, 69, 70, 71, 72, 73, 74, 75, 76, 77, 78, 79, 80, 81, 82, 83, 84, 85, 86, 87, 88, 89, 90, 91, 92, 93, 94, 95, 96, 97, 98, 99, 100, 101, 102, 103, 104, 105, 106, 107, 108, 109, 110, 111, 112, 113, 114, 115, 116, 117, 118, 119, 120, 121, 122, 123, 124, 125, 126, 127, 128, 129, 130, 131, 132, 133, 134, 135, 136, 137, 138, 139, 140, 141, 142, 143, 144, 145, 146, 147, 148, 149, 150, 151, 152, 153, 154, 155, 156, 157, 158, 159, 160, 161, 162, 163, 164, 165, 166, 167, 168, 169, 170, 171, 172, 173, 174, 175, 176, 177, 178, 179, 180, 181, 182, 183, 184, 185, 186, 187, 188, 189, 190],
      "WindowCenter": [4872.0, 4850.0, 4852.0, 4852.0, 4870.0, 4844.0, 4844.0, 4872.0, 4876.0, 4874.0, 4874.0, 4878.0, 4874.0, 4874.0, 4870.0, 4846.0, 4874.0, 4876.0, 4874.0, 4850.0, 4876.0, 4876.0, 4874.0, 4872.0, 4872.0, 4876.0, 4872.0, 4870.0, 4876.0, 4876.0, 4878.0, 4876.0, 4874.0, 4872.0, 4878.0, 4876.0, 4874.0, 4876.0, 4872.0, 4846.0, 4868.0, 4872.0, 4878.0, 4876.0, 4876.0, 4846.0, 4872.0, 4874.0, 4874.0, 4876.0, 4868.0, 4872.0, 4870.0, 4876.0, 4874.0, 4872.0, 4872.0, 4850.0, 4876.0, 4852.0, 4872.0, 4878.0, 4874.0, 4872.0, 4868.0, 4874.0, 4876.0, 4876.0, 4874.0, 4872.0, 4874.0, 4874.0, 4870.0, 4870.0, 4876.0, 4876.0, 4872.0, 4872.0, 4872.0, 4850.0, 4872.0, 4874.0, 4876.0, 4874.0, 4842.0, 4842.0, 4870.0, 4876.0, 4880.0, 4880.0, 4874.0, 4850.0, 4872.0, 4870.0, 4842.0, 4844.0, 4846.0, 4874.0, 4848.0, 4846.0, 4848.0, 4850.0, 4850.0, 4852.0, 4876.0, 4850.0, 4840.0, 4842.0, 4846.0, 4848.0, 4850.0, 4846.0, 4846.0, 4842.0, 4846.0, 4848.0, 4848.0, 4848.0, 4842.0, 4838.0, 4842.0, 4872.0, 4872.0, 4848.0, 4850.0, 4848.0, 4842.0, 4838.0, 4842.0, 4846.0, 4872.0, 4872.0, 4870.0, 4850.0, 4872.0, 4842.0, 4840.0, 4842.0, 4844.0, 4848.0, 4850.0, 4850.0, 4874.0, 4844.0, 4842.0, 4846.0, 4850.0, 4872.0, 4874.0, 4850.0, 4844.0, 4844.0, 4872.0, 4850.0, 4876.0, 4846.0, 4848.0, 4872.0, 4870.0, 4846.0, 4846.0, 4872.0, 4874.0, 4846.0, 4870.0, 4848.0, 4874.0, 4850.0, 4846.0, 4842.0, 4844.0, 4872.0, 4876.0, 4876.0, 4852.0, 4848.0, 4868.0, 4872.0, 4848.0, 4872.0, 4846.0, 4844.0, 4876.0, 4876.0, 4876.0, 4850.0, 4872.0, 4868.0, 4872.0, 4872.0],
      "WindowWidth": [18656.0, 18614.0, 18628.0, 18622.0, 18658.0, 18634.0, 18636.0, 18660.0, 18654.0, 18658.0, 18652.0, 18652.0, 18656.0, 18654.0, 18664.0, 18630.0, 18660.0, 18660.0, 18654.0, 18622.0, 18656.0, 18652.0, 18658.0, 18654.0, 18654.0, 18660.0, 18666.0, 18662.0, 18664.0, 18660.0, 18652.0, 18656.0, 18658.0, 18654.0, 18656.0, 18660.0, 18654.0, 18662.0, 18662.0, 18628.0, 18662.0, 18652.0, 18654.0, 18656.0, 18662.0, 18628.0, 18654.0, 18656.0, 18654.0, 18662.0, 18658.0, 18664.0, 18658.0, 18660.0, 18656.0, 18660.0, 18660.0, 18624.0, 18658.0, 18624.0, 18660.0, 18664.0, 18662.0, 18656.0, 18662.0, 18660.0, 18658.0, 18658.0, 18658.0, 18658.0, 18656.0, 18664.0, 18658.0, 18660.0, 18662.0, 18658.0, 18662.0, 18662.0, 18660.0, 18630.0, 18658.0, 18664.0, 18662.0, 18664.0, 18634.0, 18636.0, 18666.0, 18656.0, 18654.0, 18652.0, 18658.0, 18622.0, 18656.0, 18660.0, 18634.0, 18636.0, 18634.0, 18656.0, 18630.0, 18628.0, 18626.0, 18624.0, 18624.0, 18622.0, 18656.0, 18636.0, 18636.0, 18630.0, 18630.0, 18622.0, 18628.0, 18626.0, 18630.0, 18632.0, 18632.0, 18628.0, 18632.0, 18632.0, 18626.0, 18628.0, 18632.0, 18658.0, 18656.0, 18626.0, 18622.0, 18632.0, 18630.0, 18630.0, 18634.0, 18628.0, 18660.0, 18656.0, 18658.0, 18626.0, 18660.0, 18630.0, 18636.0, 18628.0, 18628.0, 18630.0, 18628.0, 18626.0, 18662.0, 18634.0, 18632.0, 18634.0, 18632.0, 18660.0, 18660.0, 18634.0, 18632.0, 18632.0, 18662.0, 18626.0, 18660.0, 18630.0, 18634.0, 18662.0, 18660.0, 18632.0, 18630.0, 18662.0, 18658.0, 18628.0, 18662.0, 18630.0, 18656.0, 18630.0, 18630.0, 18632.0, 18636.0, 18658.0, 18656.0, 18654.0, 18624.0, 18630.0, 18662.0, 18662.0, 18630.0, 18660.0, 18632.0, 18632.0, 18662.0, 18658.0, 18658.0, 18628.0, 18658.0, 18660.0, 18660.0, 18662.0]
    },
    "slices": {}
  }
}