{
  "AcquisitionMatrixPE": 104,
  "AcquisitionNumber": 1,
  "AcquisitionTime": "17:23:16.542500",
  "BandwidthPerPixelPhaseEncode": 17.17,
  "BaseResolution": 104,
  "BodyPartExamined": "BRAIN",
  "CoilString": "HC1-7;NC1_2",
  "ConsistencyInfo": "N4_VE11C_LATEST_20160120",
  "ConversionSoftware": "dcm2niix",
  "ConversionSoftwareVersion": "v1.0.20190902",
  "DerivedVendorReportedEchoSpacing": 0.000560011,
  "DeviceSerialNumber": "167006",
  "DwellTime": 2.1e-06,
  "EchoTime": 0.037,
  "EchoTrainLength": 104,
  "EffectiveEchoSpacing": 0.000560011,
  "FlipAngle": 52,
  "ImageComments": "Unaliased_MB4_PE3_LB",
  "ImageOrientationPatientDICOM": [0.998585, 0.0314019, 0.0429121, -0.0134208, 0.929716, -0.368032],
  "ImageType": [
    "ORIGINAL",
    "PRIMARY",
    "M",
    "MB",
    "ND",
    "MOSAIC"
],
  "ImagingFrequency": 123.259,
  "InPlanePhaseEncodingDirectionDICOM": "COL",
  "InstitutionAddress": "Chemin_Queen-Mary_4565_Montreal_District_CA_H3W_1W5",
  "InstitutionName": "IUGM",
  "InstitutionalDepartmentName": "Department",
  "MRAcquisitionType": "2D",
  "MagneticFieldStrength": 3,
  "Manufacturer": "Siemens",
  "ManufacturersModelName": "Prisma_fit",
  "Modality": "MR",
  "MultibandAccelerationFactor": 4,
  "PartialFourier": 1,
  "PatientPosition": "HFS",
  "PercentPhaseFOV": 100,
  "PhaseEncodingDirection": "j",
  "PhaseEncodingSteps": 104,
  "PhaseResolution": 1,
  "PixelBandwidth": 2290,
  "ProcedureStepDescription": "memory_things",
  "ProtocolName": "func_task-things_run-1",
  "PulseSequenceDetails": "%CustomerSeq%_cmrr_mbep2d_bold",
  "ReceiveCoilActiveElements": "HC1-7;NC1,2",
  "ReceiveCoilName": "HeadNeck_64",
  "ReconMatrixPE": 104,
  "RepetitionTime": 1.49,
  "SAR": 0.0341731,
  "ScanOptions": "FS",
  "ScanningSequence": "EP",
  "SequenceName": "epfid2d1_104",
  "SequenceVariant": "SK_SS",
  "SeriesDescription": "func_task-things_run-1",
  "SeriesNumber": 10,
  "ShimSetting": [633, -7171, -8830, 616, 79, 70, -75, -13],
  "SliceThickness": 2,
  "SliceTiming": [0, 0.785, 0.1, 0.8825, 0.1975, 0.98, 0.295, 1.08, 0.3925, 1.1775, 0.49, 1.275, 0.59, 1.3725, 0.6875, 0, 0.785, 0.1, 0.8825, 0.1975, 0.98, 0.295, 1.08, 0.3925, 1.1775, 0.49, 1.275, 0.59, 1.3725, 0.6875, 0, 0.785, 0.1, 0.8825, 0.1975, 0.98, 0.295, 1.08, 0.3925, 1.1775, 0.49, 1.275, 0.59, 1.3725, 0.6875, 0, 0.785, 0.1, 0.8825, 0.1975, 0.98, 0.295, 1.08, 0.3925, 1.1775, 0.49, 1.275, 0.59, 1.3725, 0.6875],
  "SoftwareVersions": "syngo_MR_E11",
  "SpacingBetweenSlices": 2,
  "StationName": "MRC35049",
  "TaskName": "things",
  "TotalReadoutTime": 0.0576811,
  "TxRefAmp": 241.875,
  "WipMemBlock": "57eed8c8-a66b-4b20-a434-0c421c945741||Sequence: R016 ve11c/master r/e634e98; Dec 19 2017 11:00:25 by eja",
  "dcmmeta_affine": [
    [-1.9971704483032227, -0.026841633021831512, 0.10290606319904327, 106.38578033447266],
    [-0.06280387192964554, 1.8594322204589844, -0.7338716387748718, -55.698875427246094],
    [0.08582426607608795, 0.7360648512840271, 1.8576444387435913, -67.77163696289062],
    [0.0, 0.0, 0.0, 1.0]
],
  "dcmmeta_reorient_transform": [
    [0.0, -1.0, 0.0, 103.0],
    [1.0, 0.0, 0.0, 0.0],
    [0.0, 0.0, 1.0, 0.0],
    [0.0, 0.0, 0.0, 1.0]
],
  "dcmmeta_shape": [104, 104, 60, 190],
  "dcmmeta_slice_dim": 2,
  "dcmmeta_version": 0.6,
  "global": {
    "const": {
      "AcquisitionMatrix": [104, 0, 0, 104],
      "AngioFlag": "N",
      "BitsAllocated": 16,
      "BitsStored": 16,
      "BodyPartExamined": "BRAIN",
      "Columns": 832,
      "EchoNumbers": 1,
      "EchoTime": 37.0,
      "EchoTrainLength": 104,
      "FlipAngle": 52.0,
      "HighBit": 15,
      "ImageOrientationPatient": [0.99858523273139, 0.03140193737105, 0.04291213464916, -0.013420816498, 0.92971609120421, -0.3680324325932],
      "ImagePositionPatient": [-820.82078563819, -835.5165633, 244.73062148932],
      "ImageType": [
        "ORIGINAL",
        "PRIMARY",
        "M",
        "MB",
        "ND",
        "MOSAIC"
],
      "ImagedNucleus": "1H",
      "ImagingFrequency": 123.258918,
      "InPlanePhaseEncodingDirection": "COL",
      "MRAcquisitionType": "2D",
      "MagneticFieldStrength": 3.0,
      "Manufacturer": "SIEMENS",
      "ManufacturerModelName": "Prisma_fit",
      "Modality": "MR",
      "NumberOfAverages": 1.0,
      "NumberOfPhaseEncodingSteps": 104,
      "PercentPhaseFieldOfView": 100.0,
      "PercentSampling": 100.0,
      "PerformedProcedureStepStartTime": "170225.776000",
      "PhotometricInterpretation": "MONOCHROME2",
      "PixelBandwidth": 2290.0,
      "PixelRepresentation": 0,
      "PixelSpacing": [2.0, 2.0],
      "ProtocolName": "func_task-things_run-1",
      "RepetitionTime": 1490.0,
      "Rows": 832,
      "SAR": 0.03417309557543,
      "SamplesPerPixel": 1,
      "ScanOptions": "FS",
      "ScanningSequence": "EP",
      "SequenceName": "epfid2d1_104",
      "SequenceVariant": [
        "SK",
        "SS"
],
      "SeriesDescription": "func_task-things_run-1",
      "SeriesNumber": 10,
      "SeriesTime": "172426.994000",
      "SliceLocation": -37.036015663817,
      "SliceThickness": 2.0,
      "SmallestImagePixelValue": 0,
      "SoftwareVersions": "syngo MR E11",
      "SpacingBetweenSlices": 1.9999999874994,
      "SpecificCharacterSet": "ISO_IR 100",
      "StudyID": "1",
      "StudyTime": "170225.606000",
      "TransmitCoilName": "Body",
      "VariableFlipAngleFlag": "N",
      "WindowCenterWidthExplanation": "Algo1",
      "dBdt": 0.0},
    "slices": {}
  },
  "time": {
    "samples": {
      "AcquisitionNumber": [1, 2, 3, 4, 5, 6, 7, 8, 9, 10, 11, 12, 13, 14, 15, 16, 17, 18, 19, 20, 21, 22, 23, 24, 25, 26, 27, 28, 29, 30, 31, 32, 33, 34, 35, 36, 37, 38, 39, 40, 41, 42, 43, 44, 45, 46, 47, 48, 49, 50, 51, 52, 53, 54, 55, 56, 57, 58, 59, 60, 61, 62, 63, 64, 65, 66, 67, 68, 69, 70, 71, 72, 73, 74, 75, 76, 77, 78, 79, 80, 81, 82, 83, 84, 85, 86, 87, 88, 89, 90, 91, 92, 93, 94, 95, 96, 97, 98, 99, 100, 101, 102, 103, 104, 105, 106, 107, 108, 109, 110, 111, 112, 113, 114, 115, 116, 117, 118, 119, 120, 121, 122, 123, 124, 125, 126, 127, 128, 129, 130, 131, 132, 133, 134, 135, 136, 137, 138, 139, 140, 141, 142, 143, 144, 145, 146, 147, 148, 149, 150, 151, 152, 153, 154, 155, 156, 157, 158, 159, 160, 161, 162, 163, 164, 165, 166, 167, 168, 169, 170, 171, 172, 173, 174, 175, 176, 177, 178, 179, 180, 181, 182, 183, 184, 185, 186, 187, 188, 189, 190],
      "AcquisitionTime": ["172316.542500", "172318.032500", "172319.522500", "172321.012500", "172322.502500", "172323.992500", "172325.482500", "172326.972500", "172328.462500", "172329.952500", "172331.442500", "172332.932500", "172334.422500", "172335.912500", "172337.402500", "172338.892500", "172340.382500", "172341.872500", "172343.362500", "172344.852500", "172346.342500", "172347.832500", "172349.322500", "172350.812500", "172352.302500", "172353.792500", "172355.282500", "172356.772500", "172358.262500", "172359.752500", "172401.242500", "172402.732500", "172404.222500", "172405.712500", "172407.202500", "172408.692500", "172410.182500", "172411.672500", "172413.162500", "172414.652500", "172416.142500", "172417.632500", "172419.122500", "172420.612500", "172422.102500", "172423.592500", "172425.082500", "172426.572500", "172428.062500", "172429.552500", "172431.042500", "172432.532500", "172434.022500", "172435.512500", "172437.002500", "172438.492500", "172439.982500", "172441.472500", "172442.962500", "172444.452500", "172445.942500", "172447.432500", "172448.922500", "172450.412500", "172451.902500", "172453.392500", "172454.882500", "172456.372500", "172457.862500", "172459.352500", "172500.842500", "172502.332500", "172503.822500", "172505.312500", "172506.802500", "172508.292500", "172509.782500", "172511.272500", "172512.762500", "172514.252500", "172515.742500", "172517.232500", "172518.722500", "172520.212500", "172521.702500", "172523.192500", "172524.682500", "172526.172500", "172527.662500", "172529.152500", "172530.642500", "172532.132500", "172533.622500", "172535.112500", "172536.602500", "172538.092500", "172539.582500", "172541.072500", "172542.562500", "172544.052500", "172545.542500", "172547.032500", "172548.522500", "172550.012500", "172551.502500", "172552.992500", "172554.482500", "172555.972500", "172557.462500", "172558.952500", "172600.442500", "172601.932500", "172603.422500", "172604.912500", "172606.402500", "172607.892500", "172609.382500", "172610.872500", "172612.362500", "172613.852500", "172615.342500", "172616.832500", "172618.322500", "172619.812500", "172621.302500", "172622.792500", "172624.282500", "172625.772500", "172627.262500", "172628.752500", "172630.242500", "172631.732500", "172633.222500", "172634.712500", "172636.202500", "172637.692500", "172639.182500", "172640.672500", "172642.162500", "172643.652500", "172645.142500", "172646.632500", "172648.122500", "172649.612500", "172651.102500", "172652.592500", "172654.082500", "172655.572500", "172657.062500", "172658.552500", "172700.042500", "172701.532500", "172703.022500", "172704.512500", "172706.002500", "172707.492500", "172708.982500", "172710.472500", "172711.962500", "172713.452500", "172714.942500", "172716.432500", "172717.922500", "172719.412500", "172720.902500", "172722.392500", "172723.882500", "172725.372500", "172726.862500", "172728.352500", "172729.842500", "172731.332500", "172732.822500", "172734.312500", "172735.802500", "172737.292500", "172738.782500", "172740.272500", "172741.762500", "172743.252500", "172744.742500", "172746.232500", "172747.722500", "172749.212500", "172750.702500", "172752.192500", "172753.682500", "172755.172500", "172756.662500", "172758.152500"],
      "ContentTime": ["172426.997000", "172427.001000", "172427.005000", "172427.008000", "172427.011000", "172427.015000", "172427.018000", "172427.021000", "172427.025000", "172427.028000", "172427.031000", "172427.040000", "172427.044000", "172427.047000", "172427.051000", "172446.958000", "172446.962000", "172446.965000", "172446.968000", "172446.972000", "172446.975000", "172446.978000", "172446.982000", "172446.985000", "172446.988000", "172446.992000", "172446.995000", "172446.998000", "172447.002000", "172447.005000", "172447.008000", "172447.012000", "172447.015000", "172447.018000", "172447.022000", "172506.958000", "172506.962000", "172506.965000", "172506.968000", "172506.989000", "172506.992000", "172506.995000", "172507.000000", "172507.003000", "172507.006000", "172507.010000", "172507.013000", "172507.016000", "172507.020000", "172507.023000", "172507.026000", "172507.030000", "172507.033000", "172507.036000", "172507.040000", "172526.958000", "172526.962000", "172526.965000", "172526.968000", "172526.972000", "172526.975000", "172526.978000", "172526.982000", "172526.985000", "172526.988000", "172526.991000", "172526.995000", "172526.998000", "172527.002000", "172527.006000", "172527.009000", "172527.012000", "172527.016000", "172527.019000", "172527.022000", "172527.026000", "172546.958000", "172546.962000", "172546.965000", "172546.968000", "172546.972000", "172546.975000", "172546.978000", "172546.982000", "172546.985000", "172546.988000", "172546.992000", "172546.995000", "172546.998000", "172547.003000", "172547.006000", "172547.009000", "172547.012000", "172547.016000", "172547.019000", "172547.023000", "172626.958000", "172626.962000", "172626.965000", "172626.969000", "172626.972000", "172626.975000", "172626.979000", "172626.982000", "172626.985000", "172626.988000", "172626.992000", "172626.995000", "172626.998000", "172627.003000", "172627.006000", "172627.009000", "172627.013000", "172627.016000", "172627.019000", "172627.023000", "172627.026000", "172627.029000", "172627.032000", "172627.036000", "172627.039000", "172627.042000", "172627.046000", "172627.049000", "172627.053000", "172627.056000", "172627.059000", "172706.958000", "172706.962000", "172706.965000", "172706.968000", "172706.972000", "172706.975000", "172706.978000", "172706.982000", "172706.985000", "172706.988000", "172706.992000", "172706.995000", "172706.998000", "172707.012000", "172707.015000", "172707.019000", "172707.022000", "172707.025000", "172707.029000", "172707.032000", "172707.035000", "172707.039000", "172707.042000", "172707.045000", "172707.049000", "172707.052000", "172707.055000", "172746.958000", "172746.962000", "172746.965000", "172746.969000", "172746.972000", "172746.975000", "172746.979000", "172746.982000", "172746.985000", "172746.989000", "172746.992000", "172746.995000", "172747.000000", "172747.003000", "172747.006000", "172747.010000", "172747.013000", "172747.016000", "172747.020000", "172747.023000", "172747.026000", "172747.030000", "172747.033000", "172747.036000", "172747.040000", "172747.043000", "172747.046000", "172759.894000", "172759.897000", "172759.901000", "172759.904000", "172759.908000", "172759.912000", "172759.915000", "172759.918000", "172759.922000"],
      "InstanceCreationTime": ["172426.997000", "172427.001000", "172427.005000", "172427.008000", "172427.011000", "172427.015000", "172427.018000", "172427.021000", "172427.025000", "172427.028000", "172427.031000", "172427.040000", "172427.044000", "172427.047000", "172427.051000", "172446.958000", "172446.962000", "172446.965000", "172446.968000", "172446.972000", "172446.975000", "172446.978000", "172446.982000", "172446.985000", "172446.988000", "172446.992000", "172446.995000", "172446.998000", "172447.002000", "172447.005000", "172447.008000", "172447.012000", "172447.015000", "172447.018000", "172447.022000", "172506.958000", "172506.962000", "172506.965000", "172506.968000", "172506.989000", "172506.992000", "172506.995000", "172507.000000", "172507.003000", "172507.006000", "172507.010000", "172507.013000", "172507.016000", "172507.020000", "172507.023000", "172507.026000", "172507.030000", "172507.033000", "172507.036000", "172507.040000", "172526.958000", "172526.962000", "172526.965000", "172526.968000", "172526.972000", "172526.975000", "172526.978000", "172526.982000", "172526.985000", "172526.988000", "172526.991000", "172526.995000", "172526.998000", "172527.002000", "172527.006000", "172527.009000", "172527.012000", "172527.016000", "172527.019000", "172527.022000", "172527.026000", "172546.958000", "172546.962000", "172546.965000", "172546.968000", "172546.972000", "172546.975000", "172546.978000", "172546.982000", "172546.985000", "172546.988000", "172546.992000", "172546.995000", "172546.998000", "172547.003000", "172547.006000", "172547.009000", "172547.012000", "172547.016000", "172547.019000", "172547.023000", "172626.958000", "172626.962000", "172626.965000", "172626.969000", "172626.972000", "172626.975000", "172626.979000", "172626.982000", "172626.985000", "172626.988000", "172626.992000", "172626.995000", "172626.998000", "172627.003000", "172627.006000", "172627.009000", "172627.013000", "172627.016000", "172627.019000", "172627.023000", "172627.026000", "172627.029000", "172627.032000", "172627.036000", "172627.039000", "172627.042000", "172627.046000", "172627.049000", "172627.053000", "172627.056000", "172627.059000", "172706.958000", "172706.962000", "172706.965000", "172706.968000", "172706.972000", "172706.975000", "172706.978000", "172706.982000", "172706.985000", "172706.988000", "172706.992000", "172706.995000", "172706.998000", "172707.012000", "172707.015000", "172707.019000", "172707.022000", "172707.025000", "172707.029000", "172707.032000", "172707.035000", "172707.039000", "172707.042000", "172707.045000", "172707.049000", "172707.052000", "172707.055000", "172746.958000", "172746.962000", "172746.965000", "172746.969000", "172746.972000", "172746.975000", "172746.979000", "172746.982000", "172746.985000", "172746.989000", "172746.992000", "172746.995000", "172747.000000", "172747.003000", "172747.006000", "172747.010000", "172747.013000", "172747.016000", "172747.020000", "172747.023000", "172747.026000", "172747.030000", "172747.033000", "172747.036000", "172747.040000", "172747.043000", "172747.046000", "172759.894000", "172759.897000", "172759.901000", "172759.904000", "172759.908000", "172759.912000", "172759.915000", "172759.918000", "172759.922000"],
      "InstanceNumber": [1, 2, 3, 4, 5, 6, 7, 8, 9, 10, 11, 12, 13, 14, 15, 16, 17, 18, 19, 20, 21, 22, 23, 24, 25, 26, 27, 28, 29, 30, 31, 32, 33, 34, 35, 36, 37, 38, 39, 40, 41, 42, 43, 44, 45, 46, 47, 48, 49, 50, 51, 52, 53, 54, 55, 56, 57, 58, 59, 60, 61, 62, 63, 64, 65, 66, 67, 68, 69, 70, 71, 72, 73, 74, 75, 76, 77, 78, 79, 80, 81, 82, 83, 84, 85, 86, 87, 88, 89, 90, 91, 92, 93, 94, 95, 96, 97, 98, 99, 100, 101, 102, 103, 104, 105, 106, 107, 108, 109, 110, 111, 112, 113, 114, 115, 116, 117, 118, 119, 120, 121, 122, 123, 124, 125, 126, 127, 128, 129, 130, 131, 132, 133, 134, 135, 136, 137, 138, 139, 140, 141, 142, 143, 144, 145, 146, 147, 148, 149, 150, 151, 152, 153, 154, 155, 156, 157, 158, 159, 160, 161, 162, 163, 164, 165, 166, 167, 168, 169, 170, 171, 172, 173, 174, 175, 176, 177, 178, 179, 180, 181, 182, 183, 184, 185, 186, 187, 188, 189, 190],
      "LargestImagePixelValue": [43300, 40754, 42732, 41433, 40853, 41186, 41320, 39844, 39121, 39358, 40244, 39731, 39570, 40120, 41010, 40482, 39386, 39728, 39219, 39875, 39490, 39213, 40916, 39604, 40192, 39787, 40691, 40804, 39993, 39812, 39631, 39372, 40371, 39212, 39513, 39246, 39677, 39453, 39592, 40781, 39636, 39850, 39474, 39651, 41148, 40930, 39235, 39246, 39154, 39707, 40653, 39882, 39609, 39600, 39691, 39051, 39569, 39309, 39562, 39377, 40184, 39162, 38956, 39409, 39291, 39562, 39731, 39393, 40128, 39545, 39704, 39472, 40318, 40008, 39424, 45044, 40081, 39138, 39974, 39572, 39088, 39203, 39074, 39337, 39768, 41109, 39957, 39776, 39766, 39990, 40246, 39638, 39478, 39160, 39099, 39937, 39885, 40054, 39477, 40064, 40087, 40545, 39525, 39758, 40185, 40302, 40620, 40155, 39554, 40003, 40584, 40693, 40527, 40826, 41224, 40676, 39896, 40816, 39897, 40089, 40298, 40084, 41205, 40962, 40903, 40482, 40601, 40509, 40574, 40573, 40096, 40340, 40349, 40707, 40505, 40359, 40174, 40870, 40765, 40393, 40758, 41016, 40851, 40794, 41340, 40831, 40906, 40872, 40698, 41554, 40436, 41072, 41333, 44453, 41349, 40346, 40868, 40492, 40241, 40170, 40341, 40746, 40636, 40863, 40753, 40872, 40820, 40988, 40421, 39944, 40174, 40532, 40465, 40678, 40804, 40729, 40775, 41162, 41126, 40937, 40537, 40852, 40992, 40648, 40646, 40497, 40107, 40723, 40585, 40326],
      "WindowCenter": [10649.0, 10597.0, 10596.0, 10569.0, 10555.0, 10551.0, 10556.0, 10554.0, 10538.0, 10535.0, 10533.0, 10528.0, 10546.0, 10545.0, 10543.0, 10536.0, 10535.0, 10531.0, 10524.0, 10525.0, 10525.0, 10539.0, 10550.0, 10528.0, 10544.0, 10530.0, 10532.0, 10529.0, 10541.0, 10545.0, 10531.0, 10515.0, 10517.0, 10513.0, 10522.0, 10515.0, 10516.0, 10522.0, 10547.0, 10551.0, 10539.0, 10539.0, 10524.0, 10513.0, 10527.0, 10527.0, 10525.0, 10520.0, 10504.0, 10499.0, 10509.0, 10509.0, 10517.0, 10519.0, 10509.0, 10497.0, 10500.0, 10517.0, 10527.0, 10529.0, 10531.0, 10516.0, 10524.0, 10522.0, 10512.0, 10517.0, 10528.0, 10524.0, 10528.0, 10520.0, 10536.0, 10548.0, 10545.0, 10540.0, 10544.0, 10590.0, 10537.0, 10522.0, 10544.0, 10539.0, 10522.0, 10521.0, 10514.0, 10506.0, 10499.0, 10543.0, 10566.0, 10533.0, 10504.0, 10498.0, 10505.0, 10510.0, 10508.0, 10474.0, 10449.0, 10454.0, 10486.0, 10486.0, 10487.0, 10477.0, 10469.0, 10464.0, 10436.0, 10431.0, 10453.0, 10504.0, 10525.0, 10516.0, 10495.0, 10469.0, 10463.0, 10462.0, 10477.0, 10521.0, 10549.0, 10519.0, 10488.0, 10487.0, 10476.0, 10497.0, 10534.0, 10521.0, 10503.0, 10493.0, 10501.0, 10496.0, 10507.0, 10531.0, 10542.0, 10515.0, 10482.0, 10477.0, 10476.0, 10486.0, 10503.0, 10508.0, 10501.0, 10511.0, 10513.0, 10506.0, 10503.0, 10503.0, 10511.0, 10520.0, 10541.0, 10552.0, 10550.0, 10534.0, 10528.0, 10537.0, 10520.0, 10544.0, 10568.0, 10580.0, 10531.0, 10510.0, 10499.0, 10519.0, 10534.0, 10528.0, 10518.0, 10519.0, 10517.0, 10514.0, 10499.0, 10511.0, 10522.0, 10518.0, 10511.0, 10510.0, 10527.0, 10552.0, 10528.0, 10512.0, 10504.0, 10495.0, 10502.0, 10538.0, 10544.0, 10527.0, 10512.0, 10505.0, 10504.0, 10508.0, 10497.0, 10490.0, 10482.0, 10495.0, 10512.0, 10516.0],
      "WindowWidth": [22699.0, 22564.0, 22544.0, 22480.0, 22446.0, 22431.0, 22442.0, 22443.0, 22409.0, 22400.0, 22389.0, 22381.0, 22425.0, 22422.0, 22412.0, 22399.0, 22406.0, 22394.0, 22380.0, 22376.0, 22378.0, 22411.0, 22430.0, 22382.0, 22424.0, 22390.0, 22389.0, 22381.0, 22414.0, 22425.0, 22394.0, 22356.0, 22356.0, 22352.0, 22374.0, 22356.0, 22355.0, 22374.0, 22432.0, 22440.0, 22414.0, 22417.0, 22382.0, 22353.0, 22378.0, 22377.0, 22376.0, 22366.0, 22327.0, 22311.0, 22331.0, 22333.0, 22358.0, 22362.0, 22337.0, 22316.0, 22319.0, 22359.0, 22381.0, 22387.0, 22386.0, 22360.0, 22379.0, 22373.0, 22347.0, 22360.0, 22390.0, 22384.0, 22387.0, 22368.0, 22407.0, 22438.0, 22427.0, 22419.0, 22431.0, 22527.0, 22408.0, 22376.0, 22427.0, 22412.0, 22371.0, 22370.0, 22353.0, 22330.0, 22311.0, 22409.0, 22476.0, 22398.0, 22328.0, 22313.0, 22326.0, 22340.0, 22337.0, 22254.0, 22196.0, 22203.0, 22279.0, 22282.0, 22285.0, 22262.0, 22236.0, 22220.0, 22157.0, 22146.0, 22197.0, 22321.0, 22369.0, 22353.0, 22309.0, 22237.0, 22223.0, 22224.0, 22259.0, 22367.0, 22432.0, 22357.0, 22287.0, 22280.0, 22260.0, 22308.0, 22401.0, 22365.0, 22313.0, 22293.0, 22313.0, 22303.0, 22329.0, 22384.0, 22410.0, 22340.0, 22267.0, 22253.0, 22256.0, 22282.0, 22317.0, 22334.0, 22317.0, 22337.0, 22346.0, 22329.0, 22317.0, 22320.0, 22340.0, 22358.0, 22406.0, 22439.0, 22429.0, 22394.0, 22384.0, 22400.0, 22362.0, 22412.0, 22473.0, 22500.0, 22383.0, 22335.0, 22305.0, 22358.0, 22392.0, 22379.0, 22353.0, 22358.0, 22355.0, 22343.0, 22308.0, 22336.0, 22363.0, 22356.0, 22340.0, 22333.0, 22374.0, 22431.0, 22375.0, 22332.0, 22315.0, 22295.0, 22313.0, 22402.0, 22417.0, 22374.0, 22343.0, 22322.0, 22322.0, 22335.0, 22305.0, 22288.0, 22272.0, 22301.0, 22340.0, 22351.0]
    },
    "slices": {}
  }
}