{
  "AcquisitionMatrixPE": 104,
  "AcquisitionNumber": 1,
  "AcquisitionTime": "17:37:16.967500",
  "BandwidthPerPixelPhaseEncode": 17.17,
  "BaseResolution": 104,
  "BodyPartExamined": "BRAIN",
  "CoilString": "HC1-7;NC1_2",
  "ConsistencyInfo": "N4_VE11C_LATEST_20160120",
  "ConversionSoftware": "dcm2niix",
  "ConversionSoftwareVersion": "v1.0.20190902",
  "DerivedVendorReportedEchoSpacing": 0.000560011,
  "DeviceSerialNumber": "167006",
  "DwellTime": 2.1e-06,
  "EchoTime": 0.037,
  "EchoTrainLength": 104,
  "EffectiveEchoSpacing": 0.000560011,
  "FlipAngle": 52,
  "ImageComments": "Unaliased_MB4_PE3_LB",
  "ImageOrientationPatientDICOM": [0.998585, 0.0314019, 0.0429121, -0.0134208, 0.929716, -0.368032],
  "ImageType": [
    "ORIGINAL",
    "PRIMARY",
    "P",
    "MB",
    "ND",
    "MOSAIC"
],
  "ImagingFrequency": 123.259,
  "InPlanePhaseEncodingDirectionDICOM": "COL",
  "InstitutionAddress": "Chemin_Queen-Mary_4565_Montreal_District_CA_H3W_1W5",
  "InstitutionName": "IUGM",
  "InstitutionalDepartmentName": "Department",
  "MRAcquisitionType": "2D",
  "MagneticFieldStrength": 3,
  "Manufacturer": "Siemens",
  "ManufacturersModelName": "Prisma_fit",
  "Modality": "MR",
  "MultibandAccelerationFactor": 4,
  "PartialFourier": 1,
  "PatientPosition": "HFS",
  "PercentPhaseFOV": 100,
  "PhaseEncodingDirection": "j",
  "PhaseEncodingSteps": 104,
  "PhaseResolution": 1,
  "PixelBandwidth": 2290,
  "ProcedureStepDescription": "memory_things",
  "ProtocolName": "func_task-things_run-3",
  "PulseSequenceDetails": "%CustomerSeq%_cmrr_mbep2d_bold",
  "ReceiveCoilActiveElements": "HC1-7;NC1,2",
  "ReceiveCoilName": "HeadNeck_64",
  "ReconMatrixPE": 104,
  "RepetitionTime": 1.49,
  "SAR": 0.0341731,
  "ScanOptions": "FS",
  "ScanningSequence": "EP",
  "SequenceName": "epfid2d1_104",
  "SequenceVariant": "SK_SS",
  "SeriesDescription": "func_task-things_run-3",
  "SeriesNumber": 17,
  "ShimSetting": [633, -7171, -8830, 616, 79, 70, -75, -13],
  "SliceThickness": 2,
  "SliceTiming": [0, 0.785, 0.0975, 0.8825, 0.195, 0.98, 0.295, 1.0775, 0.3925, 1.175, 0.49, 1.275, 0.5875, 1.3725, 0.685, 0, 0.785, 0.0975, 0.8825, 0.195, 0.98, 0.295, 1.0775, 0.3925, 1.175, 0.49, 1.275, 0.5875, 1.3725, 0.685, 0, 0.785, 0.0975, 0.8825, 0.195, 0.98, 0.295, 1.0775, 0.3925, 1.175, 0.49, 1.275, 0.5875, 1.3725, 0.685, 0, 0.785, 0.0975, 0.8825, 0.195, 0.98, 0.295, 1.0775, 0.3925, 1.175, 0.49, 1.275, 0.5875, 1.3725, 0.685],
  "SoftwareVersions": "syngo_MR_E11",
  "SpacingBetweenSlices": 2,
  "StationName": "MRC35049",
  "TaskName": "things",
  "TotalReadoutTime": 0.0576811,
  "TxRefAmp": 241.875,
  "WipMemBlock": "5ae4a2ae-fe78-4a7c-9c3f-25829a0e7ea1||Sequence: R016 ve11c/master r/e634e98; Dec 19 2017 11:00:25 by eja",
  "dcmmeta_affine": [
    [-1.9971704483032227, -0.026841633021831512, 0.10290606319904327, 106.38578033447266],
    [-0.06280387192964554, 1.8594322204589844, -0.7338716387748718, -55.698875427246094],
    [0.08582426607608795, 0.7360648512840271, 1.8576444387435913, -67.77163696289062],
    [0.0, 0.0, 0.0, 1.0]
],
  "dcmmeta_reorient_transform": [
    [0.0, -1.0, 0.0, 103.0],
    [1.0, 0.0, 0.0, 0.0],
    [0.0, 0.0, 1.0, 0.0],
    [0.0, 0.0, 0.0, 1.0]
],
  "dcmmeta_shape": [104, 104, 60, 190],
  "dcmmeta_slice_dim": 2,
  "dcmmeta_version": 0.6,
  "global": {
    "const": {
      "AcquisitionMatrix": [104, 0, 0, 104],
      "AngioFlag": "N",
      "BitsAllocated": 16,
      "BitsStored": 16,
      "BodyPartExamined": "BRAIN",
      "Columns": 832,
      "EchoNumbers": 1,
      "EchoTime": 37.0,
      "EchoTrainLength": 104,
      "FlipAngle": 52.0,
      "HighBit": 15,
      "ImageOrientationPatient": [0.99858523273139, 0.03140193737105, 0.04291213464916, -0.013420816498, 0.92971609120421, -0.3680324325932],
      "ImagePositionPatient": [-820.82078563819, -835.5165633, 244.73062148932],
      "ImageType": [
        "ORIGINAL",
        "PRIMARY",
        "P",
        "MB",
        "ND",
        "MOSAIC"
],
      "ImagedNucleus": "1H",
      "ImagingFrequency": 123.258925,
      "InPlanePhaseEncodingDirection": "COL",
      "LargestImagePixelValue": 4095,
      "MRAcquisitionType": "2D",
      "MagneticFieldStrength": 3.0,
      "Manufacturer": "SIEMENS",
      "ManufacturerModelName": "Prisma_fit",
      "Modality": "MR",
      "NumberOfAverages": 1.0,
      "NumberOfPhaseEncodingSteps": 104,
      "PercentPhaseFieldOfView": 100.0,
      "PercentSampling": 100.0,
      "PerformedProcedureStepStartTime": "170225.776000",
      "PhotometricInterpretation": "MONOCHROME2",
      "PixelBandwidth": 2290.0,
      "PixelRepresentation": 0,
      "PixelSpacing": [2.0, 2.0],
      "ProtocolName": "func_task-things_run-3",
      "RepetitionTime": 1490.0,
      "RescaleIntercept": -4096.0,
      "RescaleSlope": 2.0,
      "RescaleType": "US",
      "Rows": 832,
      "SAR": 0.03417309557543,
      "SamplesPerPixel": 1,
      "ScanOptions": "FS",
      "ScanningSequence": "EP",
      "SequenceName": "epfid2d1_104",
      "SequenceVariant": [
        "SK",
        "SS"
],
      "SeriesDescription": "func_task-things_run-3",
      "SeriesNumber": 17,
      "SeriesTime": "173847.530000",
      "SliceLocation": -37.036015663817,
      "SliceThickness": 2.0,
      "SmallestImagePixelValue": 0,
      "SoftwareVersions": "syngo MR E11",
      "SpacingBetweenSlices": 1.9999999874994,
      "SpecificCharacterSet": "ISO_IR 100",
      "StudyID": "1",
      "StudyTime": "170225.606000",
      "TransmitCoilName": "Body",
      "VariableFlipAngleFlag": "N",
      "WindowCenterWidthExplanation": "Algo1",
      "dBdt": 0.0},
    "slices": {}
  },
  "time": {
    "samples": {
      "AcquisitionNumber": [1, 2, 3, 4, 5, 6, 7, 8, 9, 10, 11, 12, 13, 14, 15, 16, 17, 18, 19, 20, 21, 22, 23, 24, 25, 26, 27, 28, 29, 30, 31, 32, 33, 34, 35, 36, 37, 38, 39, 40, 41, 42, 43, 44, 45, 46, 47, 48, 49, 50, 51, 52, 53, 54, 55, 56, 57, 58, 59, 60, 61, 62, 63, 64, 65, 66, 67, 68, 69, 70, 71, 72, 73, 74, 75, 76, 77, 78, 79, 80, 81, 82, 83, 84, 85, 86, 87, 88, 89, 90, 91, 92, 93, 94, 95, 96, 97, 98, 99, 100, 101, 102, 103, 104, 105, 106, 107, 108, 109, 110, 111, 112, 113, 114, 115, 116, 117, 118, 119, 120, 121, 122, 123, 124, 125, 126, 127, 128, 129, 130, 131, 132, 133, 134, 135, 136, 137, 138, 139, 140, 141, 142, 143, 144, 145, 146, 147, 148, 149, 150, 151, 152, 153, 154, 155, 156, 157, 158, 159, 160, 161, 162, 163, 164, 165, 166, 167, 168, 169, 170, 171, 172, 173, 174, 175, 176, 177, 178, 179, 180, 181, 182, 183, 184, 185, 186, 187, 188, 189, 190],
      "AcquisitionTime": ["173716.967500", "173718.457500", "173719.947500", "173721.437500", "173722.927500", "173724.417500", "173725.907500", "173727.397500", "173728.887500", "173730.377500", "173731.867500", "173733.357500", "173734.847500", "173736.337500", "173737.827500", "173739.317500", "173740.807500", "173742.297500", "173743.787500", "173745.277500", "173746.767500", "173748.257500", "173749.747500", "173751.237500", "173752.727500", "173754.217500", "173755.707500", "173757.197500", "173758.687500", "173800.177500", "173801.667500", "173803.157500", "173804.647500", "173806.137500", "173807.627500", "173809.117500", "173810.607500", "173812.097500", "173813.587500", "173815.077500", "173816.567500", "173818.057500", "173819.547500", "173821.037500", "173822.527500", "173824.017500", "173825.507500", "173826.997500", "173828.487500", "173829.977500", "173831.467500", "173832.957500", "173834.447500", "173835.937500", "173837.427500", "173838.917500", "173840.407500", "173841.897500", "173843.387500", "173844.877500", "173846.367500", "173847.857500", "173849.347500", "173850.837500", "173852.327500", "173853.817500", "173855.307500", "173856.797500", "173858.287500", "173859.777500", "173901.267500", "173902.757500", "173904.247500", "173905.737500", "173907.227500", "173908.717500", "173910.207500", "173911.697500", "173913.187500", "173914.677500", "173916.167500", "173917.657500", "173919.147500", "173920.637500", "173922.127500", "173923.617500", "173925.107500", "173926.597500", "173928.087500", "173929.577500", "173931.067500", "173932.557500", "173934.047500", "173935.537500", "173937.027500", "173938.517500", "173940.007500", "173941.497500", "173942.987500", "173944.477500", "173945.967500", "173947.457500", "173948.947500", "173950.437500", "173951.927500", "173953.417500", "173954.907500", "173956.397500", "173957.887500", "173959.377500", "174000.867500", "174002.357500", "174003.847500", "174005.337500", "174006.827500", "174008.317500", "174009.807500", "174011.297500", "174012.787500", "174014.277500", "174015.767500", "174017.257500", "174018.747500", "174020.237500", "174021.727500", "174023.217500", "174024.707500", "174026.197500", "174027.687500", "174029.177500", "174030.667500", "174032.157500", "174033.647500", "174035.137500", "174036.627500", "174038.117500", "174039.607500", "174041.097500", "174042.587500", "174044.077500", "174045.567500", "174047.057500", "174048.547500", "174050.037500", "174051.527500", "174053.017500", "174054.507500", "174055.997500", "174057.487500", "174058.977500", "174100.467500", "174101.957500", "174103.447500", "174104.937500", "174106.427500", "174107.917500", "174109.407500", "174110.897500", "174112.387500", "174113.877500", "174115.367500", "174116.857500", "174118.347500", "174119.837500", "174121.327500", "174122.817500", "174124.307500", "174125.797500", "174127.287500", "174128.777500", "174130.267500", "174131.757500", "174133.247500", "174134.737500", "174136.227500", "174137.717500", "174139.207500", "174140.697500", "174142.187500", "174143.677500", "174145.167500", "174146.657500", "174148.147500", "174149.637500", "174151.127500", "174152.617500", "174154.107500", "174155.597500", "174157.087500", "174158.577500"],
      "ContentTime": ["173847.532000", "173847.535000", "173847.537000", "173847.540000", "173847.542000", "173847.545000", "173847.547000", "173847.550000", "173847.552000", "173847.555000", "173847.557000", "173847.560000", "173847.562000", "173847.565000", "173847.567000", "173847.570000", "173847.572000", "173847.575000", "173847.577000", "173847.580000", "173847.582000", "173847.585000", "173847.587000", "173847.590000", "173847.596000", "173847.598000", "173847.601000", "173847.603000", "173847.606000", "173847.608000", "173847.611000", "173847.613000", "173847.616000", "173907.444000", "173907.446000", "173907.449000", "173907.451000", "173907.454000", "173907.456000", "173907.459000", "173907.461000", "173907.464000", "173907.466000", "173907.469000", "173907.471000", "173907.474000", "173907.476000", "173907.479000", "173907.481000", "173907.484000", "173907.486000", "173907.489000", "173907.491000", "173927.459000", "173927.462000", "173927.465000", "173927.467000", "173927.470000", "173927.472000", "173927.474000", "173927.477000", "173927.480000", "173927.482000", "173927.485000", "173927.487000", "173927.490000", "173927.492000", "173927.495000", "173927.498000", "173927.501000", "173927.504000", "173927.506000", "173927.509000", "173947.447000", "173947.450000", "173947.452000", "173947.455000", "173947.457000", "173947.460000", "173947.462000", "173947.465000", "173947.467000", "173947.470000", "173947.472000", "173947.475000", "173947.477000", "173947.480000", "173947.482000", "173947.485000", "173947.487000", "173947.490000", "173947.492000", "173947.495000", "173947.497000", "174027.524000", "174027.527000", "174027.529000", "174027.532000", "174027.534000", "174027.537000", "174027.539000", "174027.542000", "174027.544000", "174027.547000", "174027.550000", "174027.552000", "174027.555000", "174027.557000", "174027.560000", "174027.562000", "174027.565000", "174027.568000", "174027.570000", "174027.573000", "174027.575000", "174027.578000", "174027.580000", "174027.583000", "174027.585000", "174027.588000", "174027.590000", "174027.593000", "174027.595000", "174027.598000", "174027.600000", "174027.603000", "174027.605000", "174107.464000", "174107.467000", "174107.469000", "174107.472000", "174107.474000", "174107.477000", "174107.487000", "174107.489000", "174107.492000", "174107.494000", "174107.497000", "174107.500000", "174107.502000", "174107.505000", "174107.507000", "174107.510000", "174107.512000", "174107.515000", "174107.518000", "174107.520000", "174107.523000", "174107.551000", "174107.561000", "174107.563000", "174107.566000", "174107.568000", "174147.483000", "174147.485000", "174147.488000", "174147.490000", "174147.493000", "174147.495000", "174147.498000", "174147.500000", "174147.503000", "174147.505000", "174147.508000", "174147.510000", "174147.513000", "174147.515000", "174147.518000", "174147.520000", "174147.523000", "174147.525000", "174147.528000", "174147.530000", "174147.533000", "174147.535000", "174147.538000", "174147.540000", "174147.543000", "174147.545000", "174147.548000", "174201.258000", "174201.261000", "174201.263000", "174201.266000", "174201.268000", "174201.271000", "174201.273000", "174201.276000", "174201.278000", "174201.281000"],
      "InstanceCreationTime": ["173847.532000", "173847.535000", "173847.537000", "173847.540000", "173847.542000", "173847.545000", "173847.547000", "173847.550000", "173847.552000", "173847.555000", "173847.557000", "173847.560000", "173847.562000", "173847.565000", "173847.567000", "173847.570000", "173847.572000", "173847.575000", "173847.577000", "173847.580000", "173847.582000", "173847.585000", "173847.587000", "173847.590000", "173847.596000", "173847.598000", "173847.601000", "173847.603000", "173847.606000", "173847.608000", "173847.611000", "173847.613000", "173847.616000", "173907.444000", "173907.446000", "173907.449000", "173907.451000", "173907.454000", "173907.456000", "173907.459000", "173907.461000", "173907.464000", "173907.466000", "173907.469000", "173907.471000", "173907.474000", "173907.476000", "173907.479000", "173907.481000", "173907.484000", "173907.486000", "173907.489000", "173907.491000", "173927.459000", "173927.462000", "173927.465000", "173927.467000", "173927.470000", "173927.472000", "173927.474000", "173927.477000", "173927.480000", "173927.482000", "173927.485000", "173927.487000", "173927.490000", "173927.492000", "173927.495000", "173927.498000", "173927.501000", "173927.504000", "173927.506000", "173927.509000", "173947.447000", "173947.450000", "173947.452000", "173947.455000", "173947.457000", "173947.460000", "173947.462000", "173947.465000", "173947.467000", "173947.470000", "173947.472000", "173947.475000", "173947.477000", "173947.480000", "173947.482000", "173947.485000", "173947.487000", "173947.490000", "173947.492000", "173947.495000", "173947.497000", "174027.524000", "174027.527000", "174027.529000", "174027.532000", "174027.534000", "174027.537000", "174027.539000", "174027.542000", "174027.544000", "174027.547000", "174027.550000", "174027.552000", "174027.555000", "174027.557000", "174027.560000", "174027.562000", "174027.565000", "174027.568000", "174027.570000", "174027.573000", "174027.575000", "174027.578000", "174027.580000", "174027.583000", "174027.585000", "174027.588000", "174027.590000", "174027.593000", "174027.595000", "174027.598000", "174027.600000", "174027.603000", "174027.605000", "174107.464000", "174107.467000", "174107.469000", "174107.472000", "174107.474000", "174107.477000", "174107.487000", "174107.489000", "174107.492000", "174107.494000", "174107.497000", "174107.500000", "174107.502000", "174107.505000", "174107.507000", "174107.510000", "174107.512000", "174107.515000", "174107.518000", "174107.520000", "174107.523000", "174107.551000", "174107.561000", "174107.563000", "174107.566000", "174107.568000", "174147.483000", "174147.485000", "174147.488000", "174147.490000", "174147.493000", "174147.495000", "174147.498000", "174147.500000", "174147.503000", "174147.505000", "174147.508000", "174147.510000", "174147.513000", "174147.515000", "174147.518000", "174147.520000", "174147.523000", "174147.525000", "174147.528000", "174147.530000", "174147.533000", "174147.535000", "174147.538000", "174147.540000", "174147.543000", "174147.545000", "174147.548000", "174201.258000", "174201.261000", "174201.263000", "174201.266000", "174201.268000", "174201.271000", "174201.273000", "174201.276000", "174201.278000", "174201.281000"],
      "InstanceNumber": [1, 2, 3, 4, 5, 6, 7, 8, 9, 10, 11, 12, 13, 14, 15, 16, 17, 18, 19, 20, 21, 22, 23, 24, 25, 26, 27, 28, 29, 30, 31, 32, 33, 34, 35, 36, 37, 38, 39, 40, 41, 42, 43, 44, 45, 46, 47, 48, 49, 50, 51, 52, 53, 54, 55, 56, 57, 58, 59, 60, 61, 62, 63, 64, 65, 66, 67, 68, 69, 70, 71, 72, 73, 74, 75, 76, 77, 78, 79, 80, 81, 82, 83, 84, 85, 86, 87, 88, 89, 90, 91, 92, 93, 94, 95, 96, 97, 98, 99, 100, 101, 102, 103, 104, 105, 106, 107, 108, 109, 110, 111, 112, 113, 114, 115, 116, 117, 118, 119, 120, 121, 122, 123, 124, 125, 126, 127, 128, 129, 130, 131, 132, 133, 134, 135, 136, 137, 138, 139, 140, 141, 142, 143, 144, 145, 146, 147, 148, 149, 150, 151, 152, 153, 154, 155, 156, 157, 158, 159, 160, 161, 162, 163, 164, 165, 166, 167, 168, 169, 170, 171, 172, 173, 174, 175, 176, 177, 178, 179, 180, 181, 182, 183, 184, 185, 186, 187, 188, 189, 190],
      "WindowCenter": [4878.0, 4876.0, 4874.0, 4850.0, 4876.0, 4880.0, 4856.0, 4878.0, 4876.0, 4878.0, 4882.0, 4878.0, 4848.0, 4844.0, 4874.0, 4880.0, 4858.0, 4860.0, 4858.0, 4878.0, 4878.0, 4872.0, 4874.0, 4876.0, 4876.0, 4876.0, 4876.0, 4880.0, 4858.0, 4880.0, 4878.0, 4876.0, 4874.0, 4874.0, 4876.0, 4878.0, 4852.0, 4876.0, 4878.0, 4880.0, 4876.0, 4852.0, 4850.0, 4878.0, 4876.0, 4880.0, 4872.0, 4876.0, 4876.0, 4878.0, 4874.0, 4872.0, 4874.0, 4878.0, 4878.0, 4874.0, 4876.0, 4876.0, 4874.0, 4848.0, 4844.0, 4872.0, 4878.0, 4882.0, 4876.0, 4874.0, 4876.0, 4876.0, 4878.0, 4872.0, 4850.0, 4874.0, 4876.0, 4878.0, 4850.0, 4878.0, 4880.0, 4882.0, 4882.0, 4880.0, 4848.0, 4874.0, 4876.0, 4852.0, 4872.0, 4878.0, 4878.0, 4856.0, 4878.0, 4872.0, 4852.0, 4876.0, 4880.0, 4880.0, 4874.0, 4852.0, 4882.0, 4850.0, 4838.0, 4840.0, 4844.0, 4854.0, 4858.0, 4852.0, 4844.0, 4844.0, 4848.0, 4848.0, 4854.0, 4854.0, 4854.0, 4848.0, 4852.0, 4846.0, 4844.0, 4852.0, 4852.0, 4852.0, 4876.0, 4876.0, 4872.0, 4850.0, 4876.0, 4854.0, 4874.0, 4844.0, 4848.0, 4874.0, 4876.0, 4876.0, 4852.0, 4850.0, 4852.0, 4852.0, 4848.0, 4846.0, 4854.0, 4876.0, 4878.0, 4876.0, 4876.0, 4874.0, 4878.0, 4850.0, 4852.0, 4852.0, 4874.0, 4848.0, 4874.0, 4874.0, 4876.0, 4874.0, 4870.0, 4874.0, 4874.0, 4850.0, 4850.0, 4872.0, 4850.0, 4874.0, 4876.0, 4850.0, 4874.0, 4852.0, 4850.0, 4874.0, 4874.0, 4850.0, 4852.0, 4876.0, 4874.0, 4876.0, 4874.0, 4850.0, 4876.0, 4872.0, 4850.0, 4852.0, 4876.0, 4870.0, 4874.0, 4878.0, 4852.0, 4874.0, 4874.0, 4852.0, 4842.0, 4842.0, 4840.0, 4848.0],
      "WindowWidth": [18654.0, 18654.0, 18656.0, 18630.0, 18656.0, 18654.0, 18622.0, 18650.0, 18658.0, 18660.0, 18654.0, 18656.0, 18632.0, 18634.0, 18656.0, 18658.0, 18624.0, 18626.0, 18622.0, 18652.0, 18654.0, 18660.0, 18666.0, 18666.0, 18658.0, 18662.0, 18660.0, 18658.0, 18622.0, 18652.0, 18656.0, 18658.0, 18662.0, 18656.0, 18660.0, 18662.0, 18630.0, 18658.0, 18650.0, 18660.0, 18658.0, 18630.0, 18628.0, 18658.0, 18656.0, 18660.0, 18658.0, 18660.0, 18662.0, 18660.0, 18660.0, 18658.0, 18654.0, 18664.0, 18654.0, 18660.0, 18662.0, 18658.0, 18656.0, 18626.0, 18628.0, 18662.0, 18662.0, 18654.0, 18654.0, 18662.0, 18664.0, 18662.0, 18658.0, 18656.0, 18626.0, 18666.0, 18662.0, 18660.0, 18632.0, 18660.0, 18660.0, 18660.0, 18660.0, 18660.0, 18630.0, 18660.0, 18660.0, 18626.0, 18660.0, 18664.0, 18662.0, 18628.0, 18658.0, 18656.0, 18632.0, 18650.0, 18656.0, 18656.0, 18662.0, 18632.0, 18664.0, 18628.0, 18630.0, 18628.0, 18628.0, 18628.0, 18622.0, 18630.0, 18628.0, 18634.0, 18634.0, 18624.0, 18628.0, 18630.0, 18630.0, 18626.0, 18628.0, 18634.0, 18632.0, 18634.0, 18630.0, 18626.0, 18656.0, 18662.0, 18658.0, 18628.0, 18658.0, 18634.0, 18658.0, 18630.0, 18630.0, 18658.0, 18658.0, 18660.0, 18630.0, 18628.0, 18626.0, 18630.0, 18630.0, 18628.0, 18628.0, 18656.0, 18662.0, 18660.0, 18656.0, 18660.0, 18660.0, 18626.0, 18632.0, 18632.0, 18662.0, 18630.0, 18660.0, 18656.0, 18658.0, 18662.0, 18660.0, 18660.0, 18664.0, 18628.0, 18630.0, 18662.0, 18628.0, 18660.0, 18662.0, 18626.0, 18658.0, 18632.0, 18628.0, 18652.0, 18658.0, 18634.0, 18628.0, 18660.0, 18662.0, 18660.0, 18658.0, 18624.0, 18658.0, 18658.0, 18632.0, 18628.0, 18654.0, 18658.0, 18658.0, 18656.0, 18628.0, 18658.0, 18656.0, 18630.0, 18628.0, 18632.0, 18632.0, 18624.0]
    },
    "slices": {}
  }
}