{
  "AcquisitionMatrixPE": 104,
  "AcquisitionNumber": 1,
  "AcquisitionTime": "17:49:22.110000",
  "BandwidthPerPixelPhaseEncode": 17.17,
  "BaseResolution": 104,
  "BodyPartExamined": "BRAIN",
  "CoilString": "HC1-7;NC1_2",
  "ConsistencyInfo": "N4_VE11C_LATEST_20160120",
  "ConversionSoftware": "dcm2niix",
  "ConversionSoftwareVersion": "v1.0.20190902",
  "DerivedVendorReportedEchoSpacing": 0.000560011,
  "DeviceSerialNumber": "167006",
  "DwellTime": 2.1e-06,
  "EchoTime": 0.037,
  "EchoTrainLength": 104,
  "EffectiveEchoSpacing": 0.000560011,
  "FlipAngle": 52,
  "ImageComments": "Unaliased_MB4_PE3_LB",
  "ImageOrientationPatientDICOM": [0.998585, 0.0314019, 0.0429121, -0.0134208, 0.929716, -0.368032],
  "ImageType": [
    "ORIGINAL",
    "PRIMARY",
    "P",
    "MB",
    "ND",
    "MOSAIC"
],
  "ImagingFrequency": 123.259,
  "InPlanePhaseEncodingDirectionDICOM": "COL",
  "InstitutionAddress": "Chemin_Queen-Mary_4565_Montreal_District_CA_H3W_1W5",
  "InstitutionName": "IUGM",
  "InstitutionalDepartmentName": "Department",
  "MRAcquisitionType": "2D",
  "MagneticFieldStrength": 3,
  "Manufacturer": "Siemens",
  "ManufacturersModelName": "Prisma_fit",
  "Modality": "MR",
  "MultibandAccelerationFactor": 4,
  "PartialFourier": 1,
  "PatientPosition": "HFS",
  "PercentPhaseFOV": 100,
  "PhaseEncodingDirection": "j",
  "PhaseEncodingSteps": 104,
  "PhaseResolution": 1,
  "PixelBandwidth": 2290,
  "ProcedureStepDescription": "memory_things",
  "ProtocolName": "func_task-things_run-5",
  "PulseSequenceDetails": "%CustomerSeq%_cmrr_mbep2d_bold",
  "ReceiveCoilActiveElements": "HC1-7;NC1,2",
  "ReceiveCoilName": "HeadNeck_64",
  "ReconMatrixPE": 104,
  "RepetitionTime": 1.49,
  "SAR": 0.0341731,
  "ScanOptions": "FS",
  "ScanningSequence": "EP",
  "SequenceName": "epfid2d1_104",
  "SequenceVariant": "SK_SS",
  "SeriesDescription": "func_task-things_run-5",
  "SeriesNumber": 23,
  "ShimSetting": [633, -7171, -8830, 616, 79, 70, -75, -13],
  "SliceThickness": 2,
  "SliceTiming": [0, 0.785, 0.0975, 0.8825, 0.195, 0.98, 0.295, 1.0775, 0.3925, 1.175, 0.49, 1.275, 0.5875, 1.3725, 0.685, 0, 0.785, 0.0975, 0.8825, 0.195, 0.98, 0.295, 1.0775, 0.3925, 1.175, 0.49, 1.275, 0.5875, 1.3725, 0.685, 0, 0.785, 0.0975, 0.8825, 0.195, 0.98, 0.295, 1.0775, 0.3925, 1.175, 0.49, 1.275, 0.5875, 1.3725, 0.685, 0, 0.785, 0.0975, 0.8825, 0.195, 0.98, 0.295, 1.0775, 0.3925, 1.175, 0.49, 1.275, 0.5875, 1.3725, 0.685],
  "SoftwareVersions": "syngo_MR_E11",
  "SpacingBetweenSlices": 2,
  "StationName": "MRC35049",
  "TaskName": "things",
  "TotalReadoutTime": 0.0576811,
  "TxRefAmp": 241.875,
  "WipMemBlock": "e34b94cb-7eee-4de9-8a2f-dcf7df03add5||Sequence: R016 ve11c/master r/e634e98; Dec 19 2017 11:00:25 by eja",
  "dcmmeta_affine": [
    [-1.9971704483032227, -0.026841633021831512, 0.10290606319904327, 106.38578033447266],
    [-0.06280387192964554, 1.8594322204589844, -0.7338716387748718, -55.698875427246094],
    [0.08582426607608795, 0.7360648512840271, 1.8576444387435913, -67.77163696289062],
    [0.0, 0.0, 0.0, 1.0]
],
  "dcmmeta_reorient_transform": [
    [0.0, -1.0, 0.0, 103.0],
    [1.0, 0.0, 0.0, 0.0],
    [0.0, 0.0, 1.0, 0.0],
    [0.0, 0.0, 0.0, 1.0]
],
  "dcmmeta_shape": [104, 104, 60, 190],
  "dcmmeta_slice_dim": 2,
  "dcmmeta_version": 0.6,
  "global": {
    "const": {
      "AcquisitionMatrix": [104, 0, 0, 104],
      "AngioFlag": "N",
      "BitsAllocated": 16,
      "BitsStored": 16,
      "BodyPartExamined": "BRAIN",
      "Columns": 832,
      "EchoNumbers": 1,
      "EchoTime": 37.0,
      "EchoTrainLength": 104,
      "FlipAngle": 52.0,
      "HighBit": 15,
      "ImageOrientationPatient": [0.99858523273139, 0.03140193737105, 0.04291213464916, -0.013420816498, 0.92971609120421, -0.3680324325932],
      "ImagePositionPatient": [-820.82078563819, -835.5165633, 244.73062148932],
      "ImageType": [
        "ORIGINAL",
        "PRIMARY",
        "P",
        "MB",
        "ND",
        "MOSAIC"
],
      "ImagedNucleus": "1H",
      "ImagingFrequency": 123.25893,
      "InPlanePhaseEncodingDirection": "COL",
      "LargestImagePixelValue": 4095,
      "MRAcquisitionType": "2D",
      "MagneticFieldStrength": 3.0,
      "Manufacturer": "SIEMENS",
      "ManufacturerModelName": "Prisma_fit",
      "Modality": "MR",
      "NumberOfAverages": 1.0,
      "NumberOfPhaseEncodingSteps": 104,
      "PercentPhaseFieldOfView": 100.0,
      "PercentSampling": 100.0,
      "PerformedProcedureStepStartTime": "170225.776000",
      "PhotometricInterpretation": "MONOCHROME2",
      "PixelBandwidth": 2290.0,
      "PixelRepresentation": 0,
      "PixelSpacing": [2.0, 2.0],
      "ProtocolName": "func_task-things_run-5",
      "RepetitionTime": 1490.0,
      "RescaleIntercept": -4096.0,
      "RescaleSlope": 2.0,
      "RescaleType": "US",
      "Rows": 832,
      "SAR": 0.03417309557543,
      "SamplesPerPixel": 1,
      "ScanOptions": "FS",
      "ScanningSequence": "EP",
      "SequenceName": "epfid2d1_104",
      "SequenceVariant": [
        "SK",
        "SS"
],
      "SeriesDescription": "func_task-things_run-5",
      "SeriesNumber": 23,
      "SeriesTime": "175055.178000",
      "SliceLocation": -37.036015663817,
      "SliceThickness": 2.0,
      "SmallestImagePixelValue": 0,
      "SoftwareVersions": "syngo MR E11",
      "SpacingBetweenSlices": 1.9999999874994,
      "SpecificCharacterSet": "ISO_IR 100",
      "StudyID": "1",
      "StudyTime": "170225.606000",
      "TransmitCoilName": "Body",
      "VariableFlipAngleFlag": "N",
      "WindowCenterWidthExplanation": "Algo1",
      "dBdt": 0.0},
    "slices": {}
  },
  "time": {
    "samples": {
      "AcquisitionNumber": [1, 2, 3, 4, 5, 6, 7, 8, 9, 10, 11, 12, 13, 14, 15, 16, 17, 18, 19, 20, 21, 22, 23, 24, 25, 26, 27, 28, 29, 30, 31, 32, 33, 34, 35, 36, 37, 38, 39, 40, 41, 42, 43, 44, 45, 46, 47, 48, 49, 50, 51, 52, 53, 54, 55, 56, 57, 58, 59, 60, 61, 62, 63, 64, 65, 66, 67, 68, 69, 70, 71, 72, 73, 74, 75, 76, 77, 78, 79, 80, 81, 82, 83, 84, 85, 86, 87, 88, 89, 90, 91, 92, 93, 94, 95, 96, 97, 98, 99, 100, 101, 102, 103, 104, 105, 106, 107, 108, 109, 110, 111, 112, 113, 114, 115, 116, 117, 118, 119, 120, 121, 122, 123, 124, 125, 126, 127, 128, 129, 130, 131, 132, 133, 134, 135, 136, 137, 138, 139, 140, 141, 142, 143, 144, 145, 146, 147, 148, 149, 150, 151, 152, 153, 154, 155, 156, 157, 158, 159, 160, 161, 162, 163, 164, 165, 166, 167, 168, 169, 170, 171, 172, 173, 174, 175, 176, 177, 178, 179, 180, 181, 182, 183, 184, 185, 186, 187, 188, 189, 190],
      "AcquisitionTime": ["174922.110000", "174923.600000", "174925.090000", "174926.580000", "174928.070000", "174929.560000", "174931.050000", "174932.540000", "174934.030000", "174935.520000", "174937.010000", "174938.500000", "174939.990000", "174941.480000", "174942.970000", "174944.460000", "174945.950000", "174947.440000", "174948.930000", "174950.420000", "174951.910000", "174953.400000", "174954.890000", "174956.380000", "174957.870000", "174959.360000", "175000.850000", "175002.340000", "175003.830000", "175005.320000", "175006.810000", "175008.300000", "175009.790000", "175011.280000", "175012.770000", "175014.260000", "175015.750000", "175017.240000", "175018.730000", "175020.220000", "175021.710000", "175023.200000", "175024.690000", "175026.180000", "175027.670000", "175029.160000", "175030.650000", "175032.140000", "175033.630000", "175035.120000", "175036.610000", "175038.100000", "175039.590000", "175041.080000", "175042.570000", "175044.060000", "175045.550000", "175047.040000", "175048.530000", "175050.020000", "175051.510000", "175053.000000", "175054.490000", "175055.980000", "175057.470000", "175058.960000", "175100.450000", "175101.940000", "175103.430000", "175104.920000", "175106.410000", "175107.900000", "175109.390000", "175110.880000", "175112.370000", "175113.860000", "175115.350000", "175116.840000", "175118.330000", "175119.820000", "175121.310000", "175122.800000", "175124.290000", "175125.780000", "175127.270000", "175128.760000", "175130.250000", "175131.740000", "175133.230000", "175134.720000", "175136.210000", "175137.700000", "175139.190000", "175140.680000", "175142.170000", "175143.660000", "175145.150000", "175146.640000", "175148.130000", "175149.620000", "175151.110000", "175152.600000", "175154.090000", "175155.580000", "175157.070000", "175158.560000", "175200.050000", "175201.540000", "175203.030000", "175204.520000", "175206.010000", "175207.500000", "175208.990000", "175210.480000", "175211.970000", "175213.460000", "175214.950000", "175216.440000", "175217.930000", "175219.420000", "175220.910000", "175222.400000", "175223.890000", "175225.380000", "175226.870000", "175228.360000", "175229.850000", "175231.340000", "175232.830000", "175234.320000", "175235.810000", "175237.300000", "175238.790000", "175240.280000", "175241.770000", "175243.260000", "175244.750000", "175246.240000", "175247.730000", "175249.220000", "175250.710000", "175252.200000", "175253.690000", "175255.180000", "175256.670000", "175258.160000", "175259.650000", "175301.140000", "175302.630000", "175304.120000", "175305.610000", "175307.100000", "175308.590000", "175310.080000", "175311.570000", "175313.060000", "175314.550000", "175316.040000", "175317.530000", "175319.020000", "175320.510000", "175322.000000", "175323.490000", "175324.980000", "175326.470000", "175327.960000", "175329.450000", "175330.940000", "175332.430000", "175333.920000", "175335.410000", "175336.900000", "175338.390000", "175339.880000", "175341.370000", "175342.860000", "175344.350000", "175345.840000", "175347.330000", "175348.820000", "175350.310000", "175351.800000", "175353.290000", "175354.780000", "175356.270000", "175357.760000", "175359.250000", "175400.740000", "175402.230000", "175403.720000"],
      "ContentTime": ["175055.180000", "175055.183000", "175055.186000", "175055.188000", "175055.191000", "175055.193000", "175055.196000", "175055.198000", "175055.201000", "175055.203000", "175055.206000", "175055.215000", "175055.218000", "175055.220000", "175055.223000", "175055.225000", "175055.228000", "175055.230000", "175055.232000", "175055.235000", "175055.238000", "175055.240000", "175055.243000", "175055.245000", "175055.248000", "175055.250000", "175055.253000", "175055.255000", "175055.258000", "175055.261000", "175055.263000", "175055.265000", "175055.268000", "175055.271000", "175055.273000", "175055.276000", "175055.278000", "175055.281000", "175055.283000", "175115.445000", "175115.448000", "175115.450000", "175115.453000", "175115.455000", "175115.458000", "175115.460000", "175115.463000", "175115.465000", "175115.468000", "175115.470000", "175115.473000", "175115.475000", "175115.478000", "175115.480000", "175115.483000", "175115.485000", "175115.488000", "175115.490000", "175115.511000", "175135.073000", "175135.076000", "175135.079000", "175135.081000", "175135.084000", "175135.086000", "175135.089000", "175135.091000", "175135.094000", "175135.096000", "175135.099000", "175135.101000", "175135.104000", "175135.107000", "175135.109000", "175135.112000", "175135.114000", "175135.117000", "175135.119000", "175135.122000", "175155.068000", "175155.071000", "175155.073000", "175155.076000", "175155.078000", "175155.081000", "175155.083000", "175155.086000", "175155.088000", "175155.091000", "175155.093000", "175155.096000", "175155.098000", "175155.101000", "175155.103000", "175155.106000", "175155.108000", "175155.111000", "175155.113000", "175155.116000", "175155.119000", "175215.032000", "175215.034000", "175215.037000", "175215.039000", "175215.042000", "175215.045000", "175215.047000", "175215.050000", "175215.052000", "175215.055000", "175215.057000", "175215.060000", "175215.062000", "175215.065000", "175215.067000", "175255.097000", "175255.100000", "175255.102000", "175255.105000", "175255.107000", "175255.110000", "175255.113000", "175255.115000", "175255.118000", "175255.120000", "175255.123000", "175255.125000", "175255.128000", "175255.130000", "175255.133000", "175255.136000", "175255.139000", "175255.141000", "175255.144000", "175255.146000", "175255.149000", "175255.161000", "175255.163000", "175255.166000", "175255.169000", "175255.171000", "175255.174000", "175335.115000", "175335.118000", "175335.120000", "175335.123000", "175335.125000", "175335.128000", "175335.130000", "175335.133000", "175335.136000", "175335.138000", "175335.146000", "175335.149000", "175335.151000", "175335.153000", "175335.156000", "175335.223000", "175335.225000", "175335.228000", "175335.230000", "175335.233000", "175335.235000", "175335.238000", "175335.240000", "175335.243000", "175335.245000", "175335.248000", "175406.414000", "175406.416000", "175406.419000", "175406.422000", "175406.424000", "175406.427000", "175406.429000", "175406.432000", "175406.434000", "175406.437000", "175406.439000", "175406.442000", "175406.444000", "175406.447000", "175406.450000", "175406.452000", "175406.454000", "175406.457000", "175406.460000", "175406.462000", "175406.465000", "175406.467000"],
      "InstanceCreationTime": ["175055.180000", "175055.183000", "175055.186000", "175055.188000", "175055.191000", "175055.193000", "175055.196000", "175055.198000", "175055.201000", "175055.203000", "175055.206000", "175055.215000", "175055.218000", "175055.220000", "175055.223000", "175055.225000", "175055.228000", "175055.230000", "175055.232000", "175055.235000", "175055.238000", "175055.240000", "175055.243000", "175055.245000", "175055.248000", "175055.250000", "175055.253000", "175055.255000", "175055.258000", "175055.261000", "175055.263000", "175055.265000", "175055.268000", "175055.271000", "175055.273000", "175055.276000", "175055.278000", "175055.281000", "175055.283000", "175115.445000", "175115.448000", "175115.450000", "175115.453000", "175115.455000", "175115.458000", "175115.460000", "175115.463000", "175115.465000", "175115.468000", "175115.470000", "175115.473000", "175115.475000", "175115.478000", "175115.480000", "175115.483000", "175115.485000", "175115.488000", "175115.490000", "175115.511000", "175135.073000", "175135.076000", "175135.079000", "175135.081000", "175135.084000", "175135.086000", "175135.089000", "175135.091000", "175135.094000", "175135.096000", "175135.099000", "175135.101000", "175135.104000", "175135.107000", "175135.109000", "175135.112000", "175135.114000", "175135.117000", "175135.119000", "175135.122000", "175155.068000", "175155.071000", "175155.073000", "175155.076000", "175155.078000", "175155.081000", "175155.083000", "175155.086000", "175155.088000", "175155.091000", "175155.093000", "175155.096000", "175155.098000", "175155.101000", "175155.103000", "175155.106000", "175155.108000", "175155.111000", "175155.113000", "175155.116000", "175155.119000", "175215.032000", "175215.034000", "175215.037000", "175215.039000", "175215.042000", "175215.045000", "175215.047000", "175215.050000", "175215.052000", "175215.055000", "175215.057000", "175215.060000", "175215.062000", "175215.065000", "175215.067000", "175255.097000", "175255.100000", "175255.102000", "175255.105000", "175255.107000", "175255.110000", "175255.113000", "175255.115000", "175255.118000", "175255.120000", "175255.123000", "175255.125000", "175255.128000", "175255.130000", "175255.133000", "175255.136000", "175255.139000", "175255.141000", "175255.144000", "175255.146000", "175255.149000", "175255.161000", "175255.163000", "175255.166000", "175255.169000", "175255.171000", "175255.174000", "175335.115000", "175335.118000", "175335.120000", "175335.123000", "175335.125000", "175335.128000", "175335.130000", "175335.133000", "175335.136000", "175335.138000", "175335.146000", "175335.149000", "175335.151000", "175335.153000", "175335.156000", "175335.223000", "175335.225000", "175335.228000", "175335.230000", "175335.233000", "175335.235000", "175335.238000", "175335.240000", "175335.243000", "175335.245000", "175335.248000", "175406.414000", "175406.416000", "175406.419000", "175406.422000", "175406.424000", "175406.427000", "175406.429000", "175406.432000", "175406.434000", "175406.437000", "175406.439000", "175406.442000", "175406.444000", "175406.447000", "175406.450000", "175406.452000", "175406.454000", "175406.457000", "175406.460000", "175406.462000", "175406.465000", "175406.467000"],
      "InstanceNumber": [1, 2, 3, 4, 5, 6, 7, 8, 9, 10, 11, 12, 13, 14, 15, 16, 17, 18, 19, 20, 21, 22, 23, 24, 25, 26, 27, 28, 29, 30, 31, 32, 33, 34, 35, 36, 37, 38, 39, 40, 41, 42, 43, 44, 45, 46, 47, 48, 49, 50, 51, 52, 53, 54, 55, 56, 57, 58, 59, 60, 61, 62, 63, 64, 65, 66, 67, 68, 69, 70, 71, 72, 73, 74, 75, 76, 77, 78, 79, 80, 81, 82, 83, 84, 85, 86, 87, 88, 89, 90, 91, 92, 93, 94, 95, 96, 97, 98, 99, 100, 101, 102, 103, 104, 105, 106, 107, 108, 109, 110, 111, 112, 113, 114, 115, 116, 117, 118, 119, 120, 121, 122, 123, 124, 125, 126, 127, 128, 129, 130, 131, 132, 133, 134, 135, 136, 137, 138, 139, 140, 141, 142, 143, 144, 145, 146, 147, 148, 149, 150, 151, 152, 153, 154, 155, 156, 157, 158, 159, 160, 161, 162, 163, 164, 165, 166, 167, 168, 169, 170, 171, 172, 173, 174, 175, 176, 177, 178, 179, 180, 181, 182, 183, 184, 185, 186, 187, 188, 189, 190],
      "WindowCenter": [4876.0, 4874.0, 4850.0, 4842.0, 4846.0, 4872.0, 4852.0, 4850.0, 4856.0, 4880.0, 4874.0, 4842.0, 4816.0, 4810.0, 4840.0, 4858.0, 4852.0, 4828.0, 4854.0, 4856.0, 4878.0, 4876.0, 4868.0, 4866.0, 4840.0, 4842.0, 4872.0, 4882.0, 4860.0, 4858.0, 4860.0, 4882.0, 4880.0, 4872.0, 4872.0, 4874.0, 4874.0, 4880.0, 4880.0, 4880.0, 4878.0, 4882.0, 4882.0, 4880.0, 4878.0, 4878.0, 4876.0, 4874.0, 4882.0, 4882.0, 4882.0, 4882.0, 4884.0, 4884.0, 4882.0, 4882.0, 4884.0, 4880.0, 4882.0, 4882.0, 4882.0, 4884.0, 4882.0, 4878.0, 4878.0, 4880.0, 4886.0, 4884.0, 4878.0, 4882.0, 4880.0, 4880.0, 4878.0, 4884.0, 4882.0, 4880.0, 4880.0, 4880.0, 4878.0, 4884.0, 4878.0, 4876.0, 4882.0, 4878.0, 4882.0, 4878.0, 4852.0, 4880.0, 4880.0, 4878.0, 4876.0, 4882.0, 4878.0, 4880.0, 4878.0, 4882.0, 4878.0, 4876.0, 4880.0, 4880.0, 4878.0, 4880.0, 4878.0, 4882.0, 4880.0, 4878.0, 4878.0, 4878.0, 4882.0, 4876.0, 4880.0, 4880.0, 4878.0, 4876.0, 4878.0, 4880.0, 4876.0, 4876.0, 4848.0, 4878.0, 4882.0, 4878.0, 4880.0, 4882.0, 4876.0, 4878.0, 4876.0, 4870.0, 4874.0, 4880.0, 4874.0, 4876.0, 4880.0, 4872.0, 4874.0, 4874.0, 4878.0, 4872.0, 4876.0, 4878.0, 4874.0, 4880.0, 4874.0, 4872.0, 4876.0, 4878.0, 4878.0, 4876.0, 4882.0, 4884.0, 4872.0, 4872.0, 4876.0, 4876.0, 4874.0, 4876.0, 4878.0, 4878.0, 4852.0, 4878.0, 4874.0, 4874.0, 4872.0, 4878.0, 4874.0, 4876.0, 4880.0, 4872.0, 4876.0, 4874.0, 4872.0, 4874.0, 4874.0, 4878.0, 4852.0, 4876.0, 4874.0, 4874.0, 4872.0, 4848.0, 4868.0, 4872.0, 4870.0, 4874.0, 4876.0, 4876.0, 4874.0, 4848.0, 4870.0, 4874.0],
      "WindowWidth": [18656.0, 18658.0, 18636.0, 18632.0, 18630.0, 18656.0, 18624.0, 18628.0, 18624.0, 18656.0, 18654.0, 18634.0, 18602.0, 18598.0, 18634.0, 18630.0, 18626.0, 18590.0, 18624.0, 18618.0, 18654.0, 18660.0, 18660.0, 18668.0, 18636.0, 18638.0, 18662.0, 18654.0, 18618.0, 18620.0, 18628.0, 18658.0, 18660.0, 18662.0, 18666.0, 18664.0, 18662.0, 18664.0, 18656.0, 18652.0, 18646.0, 18650.0, 18656.0, 18656.0, 18654.0, 18654.0, 18664.0, 18662.0, 18658.0, 18660.0, 18646.0, 18648.0, 18646.0, 18648.0, 18654.0, 18656.0, 18656.0, 18652.0, 18664.0, 18660.0, 18652.0, 18654.0, 18660.0, 18654.0, 18654.0, 18654.0, 18658.0, 18658.0, 18658.0, 18660.0, 18652.0, 18658.0, 18654.0, 18656.0, 18650.0, 18660.0, 18664.0, 18662.0, 18658.0, 18660.0, 18660.0, 18656.0, 18660.0, 18656.0, 18662.0, 18664.0, 18622.0, 18654.0, 18658.0, 18662.0, 18656.0, 18662.0, 18656.0, 18656.0, 18656.0, 18662.0, 18658.0, 18656.0, 18654.0, 18662.0, 18656.0, 18656.0, 18656.0, 18660.0, 18660.0, 18660.0, 18654.0, 18658.0, 18660.0, 18652.0, 18656.0, 18660.0, 18660.0, 18652.0, 18658.0, 18662.0, 18660.0, 18660.0, 18628.0, 18658.0, 18658.0, 18662.0, 18660.0, 18654.0, 18656.0, 18660.0, 18662.0, 18656.0, 18660.0, 18660.0, 18656.0, 18654.0, 18662.0, 18658.0, 18662.0, 18658.0, 18658.0, 18660.0, 18658.0, 18654.0, 18658.0, 18660.0, 18654.0, 18656.0, 18656.0, 18662.0, 18658.0, 18664.0, 18662.0, 18664.0, 18658.0, 18660.0, 18656.0, 18658.0, 18660.0, 18660.0, 18658.0, 18662.0, 18628.0, 18660.0, 18658.0, 18660.0, 18660.0, 18658.0, 18662.0, 18660.0, 18658.0, 18656.0, 18660.0, 18658.0, 18660.0, 18658.0, 18662.0, 18658.0, 18630.0, 18662.0, 18656.0, 18660.0, 18658.0, 18628.0, 18658.0, 18658.0, 18660.0, 18658.0, 18660.0, 18660.0, 18660.0, 18628.0, 18658.0, 18660.0]
    },
    "slices": {}
  }
}