{
  "AcquisitionMatrixPE": 104,
  "AcquisitionNumber": 1,
  "AcquisitionTime": "17:31:12.327500",
  "BandwidthPerPixelPhaseEncode": 17.17,
  "BaseResolution": 104,
  "BodyPartExamined": "BRAIN",
  "CoilString": "HC1-7;NC1_2",
  "ConsistencyInfo": "N4_VE11C_LATEST_20160120",
  "ConversionSoftware": "dcm2niix",
  "ConversionSoftwareVersion": "v1.0.20190902",
  "DerivedVendorReportedEchoSpacing": 0.000560011,
  "DeviceSerialNumber": "167006",
  "DwellTime": 2.1e-06,
  "EchoTime": 0.037,
  "EchoTrainLength": 104,
  "EffectiveEchoSpacing": 0.000560011,
  "FlipAngle": 52,
  "ImageComments": "Unaliased_MB4_PE3_LB",
  "ImageOrientationPatientDICOM": [0.998585, 0.0314019, 0.0429121, -0.0134208, 0.929716, -0.368032],
  "ImageType": [
    "ORIGINAL",
    "PRIMARY",
    "P",
    "MB",
    "ND",
    "MOSAIC"
],
  "ImagingFrequency": 123.259,
  "InPlanePhaseEncodingDirectionDICOM": "COL",
  "InstitutionAddress": "Chemin_Queen-Mary_4565_Montreal_District_CA_H3W_1W5",
  "InstitutionName": "IUGM",
  "InstitutionalDepartmentName": "Department",
  "MRAcquisitionType": "2D",
  "MagneticFieldStrength": 3,
  "Manufacturer": "Siemens",
  "ManufacturersModelName": "Prisma_fit",
  "Modality": "MR",
  "MultibandAccelerationFactor": 4,
  "PartialFourier": 1,
  "PatientPosition": "HFS",
  "PercentPhaseFOV": 100,
  "PhaseEncodingDirection": "j",
  "PhaseEncodingSteps": 104,
  "PhaseResolution": 1,
  "PixelBandwidth": 2290,
  "ProcedureStepDescription": "memory_things",
  "ProtocolName": "func_task-things_run-2",
  "PulseSequenceDetails": "%CustomerSeq%_cmrr_mbep2d_bold",
  "ReceiveCoilActiveElements": "HC1-7;NC1,2",
  "ReceiveCoilName": "HeadNeck_64",
  "ReconMatrixPE": 104,
  "RepetitionTime": 1.49,
  "SAR": 0.0341731,
  "ScanOptions": "FS",
  "ScanningSequence": "EP",
  "SequenceName": "epfid2d1_104",
  "SequenceVariant": "SK_SS",
  "SeriesDescription": "func_task-things_run-2",
  "SeriesNumber": 14,
  "ShimSetting": [633, -7171, -8830, 616, 79, 70, -75, -13],
  "SliceThickness": 2,
  "SliceTiming": [0, 0.7825, 0.0975, 0.8825, 0.195, 0.98, 0.295, 1.0775, 0.3925, 1.175, 0.49, 1.2725, 0.5875, 1.3725, 0.685, 0, 0.7825, 0.0975, 0.8825, 0.195, 0.98, 0.295, 1.0775, 0.3925, 1.175, 0.49, 1.2725, 0.5875, 1.3725, 0.685, 0, 0.7825, 0.0975, 0.8825, 0.195, 0.98, 0.295, 1.0775, 0.3925, 1.175, 0.49, 1.2725, 0.5875, 1.3725, 0.685, 0, 0.7825, 0.0975, 0.8825, 0.195, 0.98, 0.295, 1.0775, 0.3925, 1.175, 0.49, 1.2725, 0.5875, 1.3725, 0.685],
  "SoftwareVersions": "syngo_MR_E11",
  "SpacingBetweenSlices": 2,
  "StationName": "MRC35049",
  "TaskName": "things",
  "TotalReadoutTime": 0.0576811,
  "TxRefAmp": 241.875,
  "WipMemBlock": "fb4bc074-0a03-4cab-8b00-497be3c5a660||Sequence: R016 ve11c/master r/e634e98; Dec 19 2017 11:00:25 by eja",
  "dcmmeta_affine": [
    [-1.9971704483032227, -0.026841633021831512, 0.10290606319904327, 106.38578033447266],
    [-0.06280387192964554, 1.8594322204589844, -0.7338716387748718, -55.698875427246094],
    [0.08582426607608795, 0.7360648512840271, 1.8576444387435913, -67.77163696289062],
    [0.0, 0.0, 0.0, 1.0]
],
  "dcmmeta_reorient_transform": [
    [0.0, -1.0, 0.0, 103.0],
    [1.0, 0.0, 0.0, 0.0],
    [0.0, 0.0, 1.0, 0.0],
    [0.0, 0.0, 0.0, 1.0]
],
  "dcmmeta_shape": [104, 104, 60, 190],
  "dcmmeta_slice_dim": 2,
  "dcmmeta_version": 0.6,
  "global": {
    "const": {
      "AcquisitionMatrix": [104, 0, 0, 104],
      "AngioFlag": "N",
      "BitsAllocated": 16,
      "BitsStored": 16,
      "BodyPartExamined": "BRAIN",
      "Columns": 832,
      "EchoNumbers": 1,
      "EchoTime": 37.0,
      "EchoTrainLength": 104,
      "FlipAngle": 52.0,
      "HighBit": 15,
      "ImageOrientationPatient": [0.99858523273139, 0.03140193737105, 0.04291213464916, -0.013420816498, 0.92971609120421, -0.3680324325932],
      "ImagePositionPatient": [-820.82078563819, -835.5165633, 244.73062148932],
      "ImageType": [
        "ORIGINAL",
        "PRIMARY",
        "P",
        "MB",
        "ND",
        "MOSAIC"
],
      "ImagedNucleus": "1H",
      "ImagingFrequency": 123.258922,
      "InPlanePhaseEncodingDirection": "COL",
      "LargestImagePixelValue": 4095,
      "MRAcquisitionType": "2D",
      "MagneticFieldStrength": 3.0,
      "Manufacturer": "SIEMENS",
      "ManufacturerModelName": "Prisma_fit",
      "Modality": "MR",
      "NumberOfAverages": 1.0,
      "NumberOfPhaseEncodingSteps": 104,
      "PercentPhaseFieldOfView": 100.0,
      "PercentSampling": 100.0,
      "PerformedProcedureStepStartTime": "170225.776000",
      "PhotometricInterpretation": "MONOCHROME2",
      "PixelBandwidth": 2290.0,
      "PixelRepresentation": 0,
      "PixelSpacing": [2.0, 2.0],
      "ProtocolName": "func_task-things_run-2",
      "RepetitionTime": 1490.0,
      "RescaleIntercept": -4096.0,
      "RescaleSlope": 2.0,
      "RescaleType": "US",
      "Rows": 832,
      "SAR": 0.03417309557543,
      "SamplesPerPixel": 1,
      "ScanOptions": "FS",
      "ScanningSequence": "EP",
      "SequenceName": "epfid2d1_104",
      "SequenceVariant": [
        "SK",
        "SS"
],
      "SeriesDescription": "func_task-things_run-2",
      "SeriesNumber": 14,
      "SeriesTime": "173215.041000",
      "SliceLocation": -37.036015663817,
      "SliceThickness": 2.0,
      "SmallestImagePixelValue": 0,
      "SoftwareVersions": "syngo MR E11",
      "SpacingBetweenSlices": 1.9999999874994,
      "SpecificCharacterSet": "ISO_IR 100",
      "StudyID": "1",
      "StudyTime": "170225.606000",
      "TransmitCoilName": "Body",
      "VariableFlipAngleFlag": "N",
      "WindowCenterWidthExplanation": "Algo1",
      "dBdt": 0.0},
    "slices": {}
  },
  "time": {
    "samples": {
      "AcquisitionNumber": [1, 2, 3, 4, 5, 6, 7, 8, 9, 10, 11, 12, 13, 14, 15, 16, 17, 18, 19, 20, 21, 22, 23, 24, 25, 26, 27, 28, 29, 30, 31, 32, 33, 34, 35, 36, 37, 38, 39, 40, 41, 42, 43, 44, 45, 46, 47, 48, 49, 50, 51, 52, 53, 54, 55, 56, 57, 58, 59, 60, 61, 62, 63, 64, 65, 66, 67, 68, 69, 70, 71, 72, 73, 74, 75, 76, 77, 78, 79, 80, 81, 82, 83, 84, 85, 86, 87, 88, 89, 90, 91, 92, 93, 94, 95, 96, 97, 98, 99, 100, 101, 102, 103, 104, 105, 106, 107, 108, 109, 110, 111, 112, 113, 114, 115, 116, 117, 118, 119, 120, 121, 122, 123, 124, 125, 126, 127, 128, 129, 130, 131, 132, 133, 134, 135, 136, 137, 138, 139, 140, 141, 142, 143, 144, 145, 146, 147, 148, 149, 150, 151, 152, 153, 154, 155, 156, 157, 158, 159, 160, 161, 162, 163, 164, 165, 166, 167, 168, 169, 170, 171, 172, 173, 174, 175, 176, 177, 178, 179, 180, 181, 182, 183, 184, 185, 186, 187, 188, 189, 190],
      "AcquisitionTime": ["173112.327500", "173113.817500", "173115.307500", "173116.797500", "173118.287500", "173119.777500", "173121.267500", "173122.757500", "173124.247500", "173125.737500", "173127.227500", "173128.717500", "173130.207500", "173131.697500", "173133.187500", "173134.677500", "173136.167500", "173137.657500", "173139.147500", "173140.637500", "173142.127500", "173143.617500", "173145.107500", "173146.597500", "173148.087500", "173149.577500", "173151.067500", "173152.557500", "173154.047500", "173155.537500", "173157.027500", "173158.517500", "173200.007500", "173201.497500", "173202.987500", "173204.477500", "173205.967500", "173207.457500", "173208.947500", "173210.437500", "173211.927500", "173213.417500", "173214.907500", "173216.397500", "173217.887500", "173219.377500", "173220.867500", "173222.357500", "173223.847500", "173225.337500", "173226.827500", "173228.317500", "173229.807500", "173231.297500", "173232.787500", "173234.277500", "173235.767500", "173237.257500", "173238.747500", "173240.237500", "173241.727500", "173243.217500", "173244.707500", "173246.197500", "173247.687500", "173249.177500", "173250.667500", "173252.157500", "173253.647500", "173255.137500", "173256.627500", "173258.117500", "173259.607500", "173301.097500", "173302.587500", "173304.077500", "173305.567500", "173307.057500", "173308.547500", "173310.037500", "173311.527500", "173313.017500", "173314.507500", "173315.997500", "173317.487500", "173318.977500", "173320.467500", "173321.957500", "173323.447500", "173324.937500", "173326.427500", "173327.917500", "173329.407500", "173330.897500", "173332.387500", "173333.877500", "173335.367500", "173336.857500", "173338.347500", "173339.837500", "173341.327500", "173342.817500", "173344.307500", "173345.797500", "173347.287500", "173348.777500", "173350.267500", "173351.757500", "173353.247500", "173354.737500", "173356.227500", "173357.717500", "173359.207500", "173400.697500", "173402.187500", "173403.677500", "173405.167500", "173406.657500", "173408.147500", "173409.637500", "173411.127500", "173412.617500", "173414.107500", "173415.597500", "173417.087500", "173418.577500", "173420.067500", "173421.557500", "173423.047500", "173424.537500", "173426.027500", "173427.517500", "173429.007500", "173430.497500", "173431.987500", "173433.477500", "173434.967500", "173436.457500", "173437.947500", "173439.437500", "173440.927500", "173442.417500", "173443.907500", "173445.397500", "173446.887500", "173448.377500", "173449.867500", "173451.357500", "173452.847500", "173454.337500", "173455.827500", "173457.317500", "173458.807500", "173500.297500", "173501.787500", "173503.277500", "173504.767500", "173506.257500", "173507.747500", "173509.237500", "173510.727500", "173512.217500", "173513.707500", "173515.197500", "173516.687500", "173518.177500", "173519.667500", "173521.157500", "173522.647500", "173524.137500", "173525.627500", "173527.117500", "173528.607500", "173530.097500", "173531.587500", "173533.077500", "173534.567500", "173536.057500", "173537.547500", "173539.037500", "173540.527500", "173542.017500", "173543.507500", "173544.997500", "173546.487500", "173547.977500", "173549.467500", "173550.957500", "173552.447500", "173553.937500"],
      "ContentTime": ["173215.043000", "173215.046000", "173215.048000", "173215.051000", "173215.053000", "173215.056000", "173215.058000", "173215.064000", "173215.066000", "173235.087000", "173235.089000", "173235.092000", "173235.094000", "173235.097000", "173235.099000", "173235.102000", "173235.104000", "173235.107000", "173235.109000", "173235.112000", "173235.114000", "173235.117000", "173235.119000", "173235.122000", "173235.124000", "173235.127000", "173235.129000", "173235.132000", "173235.142000", "173235.145000", "173255.080000", "173255.082000", "173255.085000", "173255.087000", "173255.090000", "173255.092000", "173255.095000", "173255.097000", "173255.100000", "173255.102000", "173255.105000", "173255.107000", "173255.110000", "173255.112000", "173255.115000", "173255.117000", "173255.120000", "173255.122000", "173255.125000", "173255.127000", "173315.068000", "173315.071000", "173315.073000", "173315.076000", "173315.078000", "173315.081000", "173315.083000", "173315.086000", "173315.088000", "173315.091000", "173315.093000", "173315.096000", "173315.098000", "173315.101000", "173315.103000", "173315.106000", "173315.108000", "173315.111000", "173315.113000", "173315.116000", "173335.067000", "173335.070000", "173335.073000", "173335.075000", "173335.078000", "173335.080000", "173335.087000", "173335.090000", "173335.092000", "173335.095000", "173335.097000", "173335.100000", "173335.102000", "173335.105000", "173335.107000", "173335.110000", "173335.112000", "173335.115000", "173335.117000", "173335.120000", "173335.122000", "173415.092000", "173415.095000", "173415.098000", "173415.100000", "173415.103000", "173415.105000", "173415.108000", "173415.110000", "173415.113000", "173415.115000", "173415.118000", "173415.120000", "173415.128000", "173415.130000", "173415.133000", "173415.135000", "173415.138000", "173415.140000", "173415.143000", "173415.145000", "173415.148000", "173415.151000", "173415.153000", "173415.156000", "173415.158000", "173415.161000", "173415.163000", "173415.166000", "173415.168000", "173415.171000", "173415.173000", "173455.083000", "173455.085000", "173455.088000", "173455.090000", "173455.093000", "173455.095000", "173455.098000", "173455.100000", "173455.103000", "173455.105000", "173455.108000", "173455.111000", "173455.113000", "173455.116000", "173455.118000", "173455.120000", "173455.123000", "173455.125000", "173455.128000", "173455.130000", "173455.133000", "173455.135000", "173455.138000", "173455.140000", "173455.143000", "173455.145000", "173455.148000", "173535.616000", "173535.618000", "173535.621000", "173535.623000", "173535.626000", "173535.629000", "173535.631000", "173535.634000", "173535.636000", "173535.639000", "173535.641000", "173535.644000", "173535.646000", "173535.649000", "173535.651000", "173535.654000", "173535.657000", "173535.660000", "173535.662000", "173535.665000", "173535.667000", "173535.670000", "173535.672000", "173535.675000", "173535.678000", "173535.680000", "173535.683000", "173555.745000", "173555.748000", "173555.750000", "173555.753000", "173555.755000", "173555.758000", "173555.761000", "173555.764000", "173555.766000", "173555.769000", "173555.771000", "173555.774000", "173555.777000", "173555.779000"],
      "InstanceCreationTime": ["173215.043000", "173215.046000", "173215.048000", "173215.051000", "173215.053000", "173215.056000", "173215.058000", "173215.064000", "173215.066000", "173235.087000", "173235.089000", "173235.092000", "173235.094000", "173235.097000", "173235.099000", "173235.102000", "173235.104000", "173235.107000", "173235.109000", "173235.112000", "173235.114000", "173235.117000", "173235.119000", "173235.122000", "173235.124000", "173235.127000", "173235.129000", "173235.132000", "173235.142000", "173235.145000", "173255.080000", "173255.082000", "173255.085000", "173255.087000", "173255.090000", "173255.092000", "173255.095000", "173255.097000", "173255.100000", "173255.102000", "173255.105000", "173255.107000", "173255.110000", "173255.112000", "173255.115000", "173255.117000", "173255.120000", "173255.122000", "173255.125000", "173255.127000", "173315.068000", "173315.071000", "173315.073000", "173315.076000", "173315.078000", "173315.081000", "173315.083000", "173315.086000", "173315.088000", "173315.091000", "173315.093000", "173315.096000", "173315.098000", "173315.101000", "173315.103000", "173315.106000", "173315.108000", "173315.111000", "173315.113000", "173315.116000", "173335.067000", "173335.070000", "173335.073000", "173335.075000", "173335.078000", "173335.080000", "173335.087000", "173335.090000", "173335.092000", "173335.095000", "173335.097000", "173335.100000", "173335.102000", "173335.105000", "173335.107000", "173335.110000", "173335.112000", "173335.115000", "173335.117000", "173335.120000", "173335.122000", "173415.092000", "173415.095000", "173415.098000", "173415.100000", "173415.103000", "173415.105000", "173415.108000", "173415.110000", "173415.113000", "173415.115000", "173415.118000", "173415.120000", "173415.128000", "173415.130000", "173415.133000", "173415.135000", "173415.138000", "173415.140000", "173415.143000", "173415.145000", "173415.148000", "173415.151000", "173415.153000", "173415.156000", "173415.158000", "173415.161000", "173415.163000", "173415.166000", "173415.168000", "173415.171000", "173415.173000", "173455.083000", "173455.085000", "173455.088000", "173455.090000", "173455.093000", "173455.095000", "173455.098000", "173455.100000", "173455.103000", "173455.105000", "173455.108000", "173455.111000", "173455.113000", "173455.116000", "173455.118000", "173455.120000", "173455.123000", "173455.125000", "173455.128000", "173455.130000", "173455.133000", "173455.135000", "173455.138000", "173455.140000", "173455.143000", "173455.145000", "173455.148000", "173535.616000", "173535.618000", "173535.621000", "173535.623000", "173535.626000", "173535.629000", "173535.631000", "173535.634000", "173535.636000", "173535.639000", "173535.641000", "173535.644000", "173535.646000", "173535.649000", "173535.651000", "173535.654000", "173535.657000", "173535.660000", "173535.662000", "173535.665000", "173535.667000", "173535.670000", "173535.672000", "173535.675000", "173535.678000", "173535.680000", "173535.683000", "173555.745000", "173555.748000", "173555.750000", "173555.753000", "173555.755000", "173555.758000", "173555.761000", "173555.764000", "173555.766000", "173555.769000", "173555.771000", "173555.774000", "173555.777000", "173555.779000"],
      "InstanceNumber": [1, 2, 3, 4, 5, 6, 7, 8, 9, 10, 11, 12, 13, 14, 15, 16, 17, 18, 19, 20, 21, 22, 23, 24, 25, 26, 27, 28, 29, 30, 31, 32, 33, 34, 35, 36, 37, 38, 39, 40, 41, 42, 43, 44, 45, 46, 47, 48, 49, 50, 51, 52, 53, 54, 55, 56, 57, 58, 59, 60, 61, 62, 63, 64, 65, 66, 67, 68, 69, 70, 71, 72, 73, 74, 75, 76, 77, 78, 79, 80, 81, 82, 83, 84, 85, 86, 87, 88, 89, 90, 91, 92, 93, 94, 95, 96, 97, 98, 99, 100, 101, 102, 103, 104, 105, 106, 107, 108, 109, 110, 111, 112, 113, 114, 115, 116, 117, 118, 119, 120, 121, 122, 123, 124, 125, 126, 127, 128, 129, 130, 131, 132, 133, 134, 135, 136, 137, 138, 139, 140, 141, 142, 143, 144, 145, 146, 147, 148, 149, 150, 151, 152, 153, 154, 155, 156, 157, 158, 159, 160, 161, 162, 163, 164, 165, 166, 167, 168, 169, 170, 171, 172, 173, 174, 175, 176, 177, 178, 179, 180, 181, 182, 183, 184, 185, 186, 187, 188, 189, 190],
      "WindowCenter": [4878.0, 4878.0, 4878.0, 4880.0, 4882.0, 4882.0, 4878.0, 4880.0, 4880.0, 4882.0, 4880.0, 4878.0, 4878.0, 4880.0, 4880.0, 4882.0, 4878.0, 4880.0, 4874.0, 4878.0, 4880.0, 4878.0, 4874.0, 4880.0, 4882.0, 4882.0, 4880.0, 4880.0, 4882.0, 4880.0, 4882.0, 4882.0, 4880.0, 4878.0, 4880.0, 4878.0, 4878.0, 4880.0, 4882.0, 4880.0, 4878.0, 4880.0, 4880.0, 4882.0, 4880.0, 4880.0, 4880.0, 4880.0, 4878.0, 4884.0, 4876.0, 4878.0, 4880.0, 4878.0, 4882.0, 4876.0, 4874.0, 4880.0, 4880.0, 4878.0, 4880.0, 4880.0, 4880.0, 4874.0, 4876.0, 4876.0, 4880.0, 4874.0, 4876.0, 4878.0, 4880.0, 4884.0, 4880.0, 4878.0, 4876.0, 4880.0, 4880.0, 4880.0, 4878.0, 4880.0, 4878.0, 4880.0, 4882.0, 4878.0, 4876.0, 4878.0, 4882.0, 4880.0, 4876.0, 4880.0, 4880.0, 4880.0, 4874.0, 4878.0, 4880.0, 4878.0, 4854.0, 4880.0, 4880.0, 4876.0, 4880.0, 4876.0, 4878.0, 4878.0, 4876.0, 4876.0, 4880.0, 4878.0, 4876.0, 4876.0, 4876.0, 4874.0, 4844.0, 4870.0, 4880.0, 4878.0, 4856.0, 4858.0, 4878.0, 4876.0, 4850.0, 4874.0, 4874.0, 4880.0, 4874.0, 4878.0, 4880.0, 4856.0, 4880.0, 4872.0, 4876.0, 4880.0, 4878.0, 4876.0, 4852.0, 4878.0, 4876.0, 4878.0, 4874.0, 4878.0, 4880.0, 4878.0, 4880.0, 4878.0, 4876.0, 4874.0, 4876.0, 4878.0, 4876.0, 4874.0, 4850.0, 4880.0, 4876.0, 4872.0, 4876.0, 4876.0, 4880.0, 4870.0, 4874.0, 4876.0, 4878.0, 4874.0, 4876.0, 4878.0, 4874.0, 4876.0, 4876.0, 4878.0, 4874.0, 4876.0, 4876.0, 4874.0, 4876.0, 4878.0, 4876.0, 4878.0, 4878.0, 4874.0, 4874.0, 4874.0, 4880.0, 4878.0, 4876.0, 4874.0, 4880.0, 4876.0, 4876.0, 4880.0, 4876.0, 4876.0],
      "WindowWidth": [18650.0, 18658.0, 18658.0, 18654.0, 18650.0, 18648.0, 18658.0, 18658.0, 18654.0, 18654.0, 18652.0, 18656.0, 18666.0, 18660.0, 18648.0, 18652.0, 18648.0, 18656.0, 18658.0, 18658.0, 18656.0, 18656.0, 18662.0, 18658.0, 18656.0, 18658.0, 18656.0, 18656.0, 18654.0, 18656.0, 18652.0, 18656.0, 18658.0, 18654.0, 18656.0, 18656.0, 18656.0, 18656.0, 18652.0, 18654.0, 18654.0, 18654.0, 18654.0, 18662.0, 18662.0, 18656.0, 18652.0, 18660.0, 18656.0, 18654.0, 18654.0, 18658.0, 18654.0, 18656.0, 18662.0, 18664.0, 18656.0, 18664.0, 18658.0, 18660.0, 18656.0, 18658.0, 18660.0, 18658.0, 18660.0, 18652.0, 18656.0, 18658.0, 18664.0, 18658.0, 18650.0, 18658.0, 18656.0, 18652.0, 18656.0, 18656.0, 18662.0, 18658.0, 18658.0, 18656.0, 18656.0, 18654.0, 18652.0, 18664.0, 18660.0, 18656.0, 18656.0, 18656.0, 18652.0, 18662.0, 18656.0, 18660.0, 18662.0, 18658.0, 18662.0, 18658.0, 18632.0, 18658.0, 18658.0, 18654.0, 18660.0, 18662.0, 18658.0, 18660.0, 18658.0, 18660.0, 18660.0, 18656.0, 18658.0, 18658.0, 18656.0, 18662.0, 18634.0, 18662.0, 18658.0, 18654.0, 18616.0, 18622.0, 18652.0, 18662.0, 18638.0, 18670.0, 18660.0, 18668.0, 18660.0, 18660.0, 18656.0, 18624.0, 18656.0, 18658.0, 18664.0, 18660.0, 18654.0, 18654.0, 18628.0, 18660.0, 18654.0, 18656.0, 18662.0, 18658.0, 18662.0, 18656.0, 18658.0, 18658.0, 18662.0, 18656.0, 18658.0, 18656.0, 18654.0, 18660.0, 18628.0, 18656.0, 18654.0, 18652.0, 18658.0, 18656.0, 18662.0, 18658.0, 18664.0, 18654.0, 18658.0, 18658.0, 18656.0, 18656.0, 18656.0, 18660.0, 18662.0, 18664.0, 18658.0, 18656.0, 18660.0, 18656.0, 18656.0, 18656.0, 18656.0, 18656.0, 18658.0, 18658.0, 18658.0, 18656.0, 18658.0, 18660.0, 18658.0, 18658.0, 18660.0, 18660.0, 18660.0, 18658.0, 18656.0, 18658.0]
    },
    "slices": {}
  }
}