{
  "AcquisitionMatrixPE": 104,
  "AcquisitionNumber": 1,
  "AcquisitionTime": "10:57:47.867500",
  "BandwidthPerPixelPhaseEncode": 17.17,
  "BaseResolution": 104,
  "BodyPartExamined": "BRAIN",
  "CoilString": "HC1-7;NC1_2",
  "ConsistencyInfo": "N4_VE11C_LATEST_20160120",
  "ConversionSoftware": "dcm2niix",
  "ConversionSoftwareVersion": "v1.0.20190902",
  "DerivedVendorReportedEchoSpacing": 0.000560011,
  "DeviceSerialNumber": "167006",
  "DwellTime": 2.1e-06,
  "EchoTime": 0.037,
  "EchoTrainLength": 104,
  "EffectiveEchoSpacing": 0.000560011,
  "FlipAngle": 52,
  "ImageComments": "Unaliased_MB4_PE3_LB",
  "ImageOrientationPatientDICOM": [0.999669, 0.00619132, 0.024973, 0.00732807, 0.8619, -0.507025],
  "ImageType": [
    "ORIGINAL",
    "PRIMARY",
    "M",
    "MB",
    "ND",
    "MOSAIC"
],
  "ImagingFrequency": 123.259,
  "InPlanePhaseEncodingDirectionDICOM": "COL",
  "InstitutionAddress": "Chemin_Queen-Mary_4565_Montreal_District_CA_H3W_1W5",
  "InstitutionName": "IUGM",
  "InstitutionalDepartmentName": "Department",
  "MRAcquisitionType": "2D",
  "MagneticFieldStrength": 3,
  "Manufacturer": "Siemens",
  "ManufacturersModelName": "Prisma_fit",
  "Modality": "MR",
  "MultibandAccelerationFactor": 4,
  "PartialFourier": 1,
  "PatientPosition": "HFS",
  "PercentPhaseFOV": 100,
  "PhaseEncodingDirection": "j",
  "PhaseEncodingSteps": 104,
  "PhaseResolution": 1,
  "PixelBandwidth": 2290,
  "ProcedureStepDescription": "memory_things",
  "ProtocolName": "func_task-things_run-4",
  "PulseSequenceDetails": "%CustomerSeq%_cmrr_mbep2d_bold",
  "ReceiveCoilActiveElements": "HC1-7;NC1,2",
  "ReceiveCoilName": "HeadNeck_64",
  "ReconMatrixPE": 104,
  "RepetitionTime": 1.49,
  "SAR": 0.0661102,
  "ScanOptions": "FS",
  "ScanningSequence": "EP",
  "SequenceName": "epfid2d1_104",
  "SequenceVariant": "SK_SS",
  "SeriesDescription": "func_task-things_run-4",
  "SeriesNumber": 19,
  "ShimSetting": [617, -7183, -8828, 339, -16, -100, -48, -27],
  "SliceThickness": 2,
  "SliceTiming": [0, 0.7825, 0.0975, 0.88, 0.195, 0.98, 0.2925, 1.0775, 0.39, 1.175, 0.49, 1.2725, 0.5875, 1.37, 0.685, 0, 0.7825, 0.0975, 0.88, 0.195, 0.98, 0.2925, 1.0775, 0.39, 1.175, 0.49, 1.2725, 0.5875, 1.37, 0.685, 0, 0.7825, 0.0975, 0.88, 0.195, 0.98, 0.2925, 1.0775, 0.39, 1.175, 0.49, 1.2725, 0.5875, 1.37, 0.685, 0, 0.7825, 0.0975, 0.88, 0.195, 0.98, 0.2925, 1.0775, 0.39, 1.175, 0.49, 1.2725, 0.5875, 1.37, 0.685],
  "SoftwareVersions": "syngo_MR_E11",
  "SpacingBetweenSlices": 2,
  "StationName": "MRC35049",
  "TaskName": "things",
  "TotalReadoutTime": 0.0576811,
  "TxRefAmp": 318.547,
  "WipMemBlock": "04b83f9d-3ba3-432c-9aaa-8dae26404a92||Sequence: R016 ve11c/master r/e634e98; Dec 19 2017 11:00:25 by eja",
  "dcmmeta_affine": [
    [-1.999337911605835, 0.014656138606369495, 0.04932680353522301, 105.61510467529297],
    [-0.012382639572024345, 1.7238004207611084, -1.014080286026001, -50.965118408203125],
    [0.04994603246450424, 1.014050006866455, 1.7231390476226807, -76.34721374511719],
    [0.0, 0.0, 0.0, 1.0]
],
  "dcmmeta_reorient_transform": [
    [0.0, -1.0, 0.0, 103.0],
    [1.0, 0.0, 0.0, 0.0],
    [0.0, 0.0, 1.0, 0.0],
    [0.0, 0.0, 0.0, 1.0]
],
  "dcmmeta_shape": [104, 104, 60, 190],
  "dcmmeta_slice_dim": 2,
  "dcmmeta_version": 0.6,
  "global": {
    "const": {
      "AcquisitionMatrix": [104, 0, 0, 104],
      "AngioFlag": "N",
      "BitsAllocated": 16,
      "BitsStored": 16,
      "BodyPartExamined": "BRAIN",
      "Columns": 832,
      "EchoNumbers": 1,
      "EchoTime": 37.0,
      "EchoTrainLength": 104,
      "FlipAngle": 52.0,
      "HighBit": 15,
      "ImageOrientationPatient": [0.99966895321072, 0.00619131972703, 0.02497301637007, 0.00732806915198, 0.86190021127593, -0.5070249749322],
      "ImagePositionPatient": [-840.21852053438, -758.55695955008, 379.03375364785],
      "ImageType": [
        "ORIGINAL",
        "PRIMARY",
        "M",
        "MB",
        "ND",
        "MOSAIC"
],
      "ImagedNucleus": "1H",
      "ImagingFrequency": 123.25892,
      "InPlanePhaseEncodingDirection": "COL",
      "MRAcquisitionType": "2D",
      "MagneticFieldStrength": 3.0,
      "Manufacturer": "SIEMENS",
      "ManufacturerModelName": "Prisma_fit",
      "Modality": "MR",
      "NumberOfAverages": 1.0,
      "NumberOfPhaseEncodingSteps": 104,
      "PercentPhaseFieldOfView": 100.0,
      "PercentSampling": 100.0,
      "PerformedProcedureStepStartTime": "101252.185000",
      "PhotometricInterpretation": "MONOCHROME2",
      "PixelBandwidth": 2290.0,
      "PixelRepresentation": 0,
      "PixelSpacing": [2.0, 2.0],
      "ProtocolName": "func_task-things_run-4",
      "RepetitionTime": 1490.0,
      "Rows": 832,
      "SAR": 0.0661101696123,
      "SamplesPerPixel": 1,
      "ScanOptions": "FS",
      "ScanningSequence": "EP",
      "SequenceName": "epfid2d1_104",
      "SequenceVariant": [
        "SK",
        "SS"
],
      "SeriesDescription": "func_task-things_run-4",
      "SeriesNumber": 19,
      "SeriesTime": "105910.939000",
      "SliceLocation": -37.33224635277,
      "SliceThickness": 2.0,
      "SmallestImagePixelValue": 0,
      "SoftwareVersions": "syngo MR E11",
      "SpacingBetweenSlices": 2.000000061533,
      "SpecificCharacterSet": "ISO_IR 100",
      "StudyID": "1",
      "StudyTime": "101252.115000",
      "TransmitCoilName": "Body",
      "VariableFlipAngleFlag": "N",
      "WindowCenterWidthExplanation": "Algo1",
      "dBdt": 0.0},
    "slices": {}
  },
  "time": {
    "samples": {
      "AcquisitionNumber": [1, 2, 3, 4, 5, 6, 7, 8, 9, 10, 11, 12, 13, 14, 15, 16, 17, 18, 19, 20, 21, 22, 23, 24, 25, 26, 27, 28, 29, 30, 31, 32, 33, 34, 35, 36, 37, 38, 39, 40, 41, 42, 43, 44, 45, 46, 47, 48, 49, 50, 51, 52, 53, 54, 55, 56, 57, 58, 59, 60, 61, 62, 63, 64, 65, 66, 67, 68, 69, 70, 71, 72, 73, 74, 75, 76, 77, 78, 79, 80, 81, 82, 83, 84, 85, 86, 87, 88, 89, 90, 91, 92, 93, 94, 95, 96, 97, 98, 99, 100, 101, 102, 103, 104, 105, 106, 107, 108, 109, 110, 111, 112, 113, 114, 115, 116, 117, 118, 119, 120, 121, 122, 123, 124, 125, 126, 127, 128, 129, 130, 131, 132, 133, 134, 135, 136, 137, 138, 139, 140, 141, 142, 143, 144, 145, 146, 147, 148, 149, 150, 151, 152, 153, 154, 155, 156, 157, 158, 159, 160, 161, 162, 163, 164, 165, 166, 167, 168, 169, 170, 171, 172, 173, 174, 175, 176, 177, 178, 179, 180, 181, 182, 183, 184, 185, 186, 187, 188, 189, 190],
      "AcquisitionTime": ["105747.867500", "105749.357500", "105750.847500", "105752.337500", "105753.827500", "105755.317500", "105756.807500", "105758.297500", "105759.787500", "105801.277500", "105802.767500", "105804.257500", "105805.747500", "105807.237500", "105808.727500", "105810.217500", "105811.707500", "105813.197500", "105814.687500", "105816.177500", "105817.667500", "105819.157500", "105820.647500", "105822.137500", "105823.627500", "105825.117500", "105826.607500", "105828.097500", "105829.587500", "105831.077500", "105832.567500", "105834.057500", "105835.547500", "105837.037500", "105838.527500", "105840.017500", "105841.507500", "105842.997500", "105844.487500", "105845.977500", "105847.467500", "105848.957500", "105850.447500", "105851.937500", "105853.427500", "105854.917500", "105856.407500", "105857.897500", "105859.387500", "105900.877500", "105902.367500", "105903.857500", "105905.347500", "105906.837500", "105908.327500", "105909.817500", "105911.307500", "105912.797500", "105914.287500", "105915.777500", "105917.267500", "105918.757500", "105920.247500", "105921.737500", "105923.227500", "105924.717500", "105926.207500", "105927.697500", "105929.187500", "105930.677500", "105932.167500", "105933.657500", "105935.147500", "105936.637500", "105938.127500", "105939.617500", "105941.107500", "105942.597500", "105944.087500", "105945.577500", "105947.067500", "105948.557500", "105950.047500", "105951.537500", "105953.027500", "105954.517500", "105956.007500", "105957.497500", "105958.987500", "110000.477500", "110001.967500", "110003.457500", "110004.947500", "110006.437500", "110007.927500", "110009.417500", "110010.907500", "110012.397500", "110013.887500", "110015.377500", "110016.867500", "110018.357500", "110019.847500", "110021.337500", "110022.827500", "110024.317500", "110025.807500", "110027.297500", "110028.787500", "110030.277500", "110031.767500", "110033.257500", "110034.747500", "110036.237500", "110037.727500", "110039.217500", "110040.707500", "110042.197500", "110043.687500", "110045.177500", "110046.667500", "110048.157500", "110049.647500", "110051.137500", "110052.627500", "110054.117500", "110055.607500", "110057.097500", "110058.587500", "110100.077500", "110101.567500", "110103.057500", "110104.547500", "110106.037500", "110107.527500", "110109.017500", "110110.507500", "110111.997500", "110113.487500", "110114.977500", "110116.467500", "110117.957500", "110119.447500", "110120.937500", "110122.427500", "110123.917500", "110125.407500", "110126.897500", "110128.387500", "110129.877500", "110131.367500", "110132.857500", "110134.347500", "110135.837500", "110137.327500", "110138.817500", "110140.307500", "110141.797500", "110143.287500", "110144.777500", "110146.267500", "110147.757500", "110149.247500", "110150.737500", "110152.227500", "110153.717500", "110155.207500", "110156.697500", "110158.187500", "110159.677500", "110201.167500", "110202.657500", "110204.147500", "110205.637500", "110207.127500", "110208.617500", "110210.107500", "110211.597500", "110213.087500", "110214.577500", "110216.067500", "110217.557500", "110219.047500", "110220.537500", "110222.027500", "110223.517500", "110225.007500", "110226.497500", "110227.987500", "110229.477500"],
      "ContentTime": ["105910.943000", "105910.946000", "105910.950000", "105910.953000", "105910.956000", "105910.960000", "105910.966000", "105910.969000", "105910.972000", "105910.976000", "105910.979000", "105910.982000", "105910.986000", "105910.989000", "105910.992000", "105910.996000", "105911.000000", "105911.003000", "105911.006000", "105911.010000", "105911.013000", "105911.016000", "105911.020000", "105911.023000", "105911.026000", "105911.030000", "105911.034000", "105911.037000", "105911.040000", "105930.905000", "105930.909000", "105930.926000", "105930.929000", "105930.933000", "105930.936000", "105930.939000", "105930.943000", "105930.946000", "105930.949000", "105930.953000", "105930.956000", "105930.959000", "105930.963000", "105930.966000", "105930.969000", "105930.973000", "105930.976000", "105930.980000", "105930.983000", "105950.905000", "105950.909000", "105950.912000", "105950.915000", "105950.919000", "105950.922000", "105950.925000", "105950.929000", "105950.932000", "105950.935000", "105950.939000", "105950.942000", "105950.945000", "105950.949000", "105950.952000", "105950.955000", "105950.959000", "105950.962000", "105950.965000", "105950.969000", "110010.905000", "110010.909000", "110010.912000", "110010.916000", "110010.919000", "110010.922000", "110010.930000", "110010.933000", "110010.936000", "110010.940000", "110010.943000", "110010.947000", "110010.950000", "110010.953000", "110010.956000", "110010.960000", "110010.963000", "110010.967000", "110010.970000", "110010.974000", "110050.906000", "110050.910000", "110050.913000", "110050.917000", "110050.920000", "110050.923000", "110050.927000", "110050.930000", "110050.934000", "110050.937000", "110050.940000", "110050.943000", "110050.947000", "110050.950000", "110050.953000", "110050.957000", "110050.960000", "110050.964000", "110050.967000", "110050.970000", "110050.974000", "110050.977000", "110050.980000", "110050.984000", "110050.987000", "110050.990000", "110050.994000", "110050.997000", "110051.001000", "110051.005000", "110051.008000", "110051.011000", "110051.015000", "110130.905000", "110130.909000", "110130.912000", "110130.916000", "110130.919000", "110130.922000", "110130.926000", "110130.929000", "110130.933000", "110130.936000", "110130.939000", "110130.943000", "110130.946000", "110130.949000", "110130.953000", "110130.969000", "110130.972000", "110130.975000", "110130.979000", "110130.982000", "110130.985000", "110130.989000", "110130.992000", "110130.995000", "110131.000000", "110131.003000", "110131.007000", "110210.905000", "110210.909000", "110210.912000", "110210.916000", "110210.919000", "110210.922000", "110210.926000", "110210.929000", "110210.932000", "110210.936000", "110210.939000", "110210.943000", "110210.946000", "110210.949000", "110210.953000", "110210.956000", "110210.959000", "110210.963000", "110210.966000", "110210.970000", "110210.973000", "110210.976000", "110210.980000", "110210.983000", "110210.986000", "110210.990000", "110210.993000", "110231.664000", "110231.668000", "110231.671000", "110231.675000", "110231.679000", "110231.682000", "110231.686000", "110231.689000", "110231.693000", "110231.697000", "110231.700000", "110231.704000", "110231.708000", "110231.712000"],
      "InstanceCreationTime": ["105910.943000", "105910.946000", "105910.950000", "105910.953000", "105910.956000", "105910.960000", "105910.966000", "105910.969000", "105910.972000", "105910.976000", "105910.979000", "105910.982000", "105910.986000", "105910.989000", "105910.992000", "105910.996000", "105911.000000", "105911.003000", "105911.006000", "105911.010000", "105911.013000", "105911.016000", "105911.020000", "105911.023000", "105911.026000", "105911.030000", "105911.034000", "105911.037000", "105911.040000", "105930.905000", "105930.909000", "105930.926000", "105930.929000", "105930.933000", "105930.936000", "105930.939000", "105930.943000", "105930.946000", "105930.949000", "105930.953000", "105930.956000", "105930.959000", "105930.963000", "105930.966000", "105930.969000", "105930.973000", "105930.976000", "105930.980000", "105930.983000", "105950.905000", "105950.909000", "105950.912000", "105950.915000", "105950.919000", "105950.922000", "105950.925000", "105950.929000", "105950.932000", "105950.935000", "105950.939000", "105950.942000", "105950.945000", "105950.949000", "105950.952000", "105950.955000", "105950.959000", "105950.962000", "105950.965000", "105950.969000", "110010.905000", "110010.909000", "110010.912000", "110010.916000", "110010.919000", "110010.922000", "110010.930000", "110010.933000", "110010.936000", "110010.940000", "110010.943000", "110010.947000", "110010.950000", "110010.953000", "110010.956000", "110010.960000", "110010.963000", "110010.967000", "110010.970000", "110010.974000", "110050.906000", "110050.910000", "110050.913000", "110050.917000", "110050.920000", "110050.923000", "110050.927000", "110050.930000", "110050.934000", "110050.937000", "110050.940000", "110050.943000", "110050.947000", "110050.950000", "110050.953000", "110050.957000", "110050.960000", "110050.964000", "110050.967000", "110050.970000", "110050.974000", "110050.977000", "110050.980000", "110050.984000", "110050.987000", "110050.990000", "110050.994000", "110050.997000", "110051.001000", "110051.005000", "110051.008000", "110051.011000", "110051.015000", "110130.905000", "110130.909000", "110130.912000", "110130.916000", "110130.919000", "110130.922000", "110130.926000", "110130.929000", "110130.933000", "110130.936000", "110130.939000", "110130.943000", "110130.946000", "110130.949000", "110130.953000", "110130.969000", "110130.972000", "110130.975000", "110130.979000", "110130.982000", "110130.985000", "110130.989000", "110130.992000", "110130.995000", "110131.000000", "110131.003000", "110131.007000", "110210.905000", "110210.909000", "110210.912000", "110210.916000", "110210.919000", "110210.922000", "110210.926000", "110210.929000", "110210.932000", "110210.936000", "110210.939000", "110210.943000", "110210.946000", "110210.949000", "110210.953000", "110210.956000", "110210.959000", "110210.963000", "110210.966000", "110210.970000", "110210.973000", "110210.976000", "110210.980000", "110210.983000", "110210.986000", "110210.990000", "110210.993000", "110231.664000", "110231.668000", "110231.671000", "110231.675000", "110231.679000", "110231.682000", "110231.686000", "110231.689000", "110231.693000", "110231.697000", "110231.700000", "110231.704000", "110231.708000", "110231.712000"],
      "InstanceNumber": [1, 2, 3, 4, 5, 6, 7, 8, 9, 10, 11, 12, 13, 14, 15, 16, 17, 18, 19, 20, 21, 22, 23, 24, 25, 26, 27, 28, 29, 30, 31, 32, 33, 34, 35, 36, 37, 38, 39, 40, 41, 42, 43, 44, 45, 46, 47, 48, 49, 50, 51, 52, 53, 54, 55, 56, 57, 58, 59, 60, 61, 62, 63, 64, 65, 66, 67, 68, 69, 70, 71, 72, 73, 74, 75, 76, 77, 78, 79, 80, 81, 82, 83, 84, 85, 86, 87, 88, 89, 90, 91, 92, 93, 94, 95, 96, 97, 98, 99, 100, 101, 102, 103, 104, 105, 106, 107, 108, 109, 110, 111, 112, 113, 114, 115, 116, 117, 118, 119, 120, 121, 122, 123, 124, 125, 126, 127, 128, 129, 130, 131, 132, 133, 134, 135, 136, 137, 138, 139, 140, 141, 142, 143, 144, 145, 146, 147, 148, 149, 150, 151, 152, 153, 154, 155, 156, 157, 158, 159, 160, 161, 162, 163, 164, 165, 166, 167, 168, 169, 170, 171, 172, 173, 174, 175, 176, 177, 178, 179, 180, 181, 182, 183, 184, 185, 186, 187, 188, 189, 190],
      "LargestImagePixelValue": [49362, 48213, 48494, 48786, 48253, 48655, 49082, 48289, 48875, 48806, 48562, 47870, 47452, 48282, 48367, 48199, 49014, 48182, 48663, 48229, 47014, 48046, 48359, 47889, 48124, 48348, 48502, 48656, 48325, 48338, 47969, 48666, 46682, 45608, 48852, 48767, 49388, 48797, 49239, 48379, 48902, 48197, 48722, 47805, 48777, 48941, 48741, 48659, 48868, 48591, 48537, 48668, 48135, 47781, 47473, 47981, 48385, 48227, 48478, 48237, 48366, 48405, 48056, 48606, 48636, 48271, 47602, 47231, 48097, 48443, 48415, 48247, 47462, 48203, 47697, 48141, 48010, 48446, 48407, 48195, 48771, 48544, 48597, 48204, 48357, 48378, 48296, 48324, 48184, 47801, 47938, 49252, 48037, 47894, 47765, 48488, 49025, 48162, 48415, 47926, 48318, 47006, 48599, 48012, 48048, 48208, 48377, 49045, 48457, 48399, 47990, 47206, 48343, 48098, 48500, 49015, 48623, 49505, 48860, 48916, 49371, 49436, 48679, 48492, 48707, 48603, 47513, 47182, 48425, 48862, 49394, 49207, 48941, 48799, 48345, 47764, 48861, 48049, 47355, 49096, 47915, 48439, 48582, 47841, 48334, 48313, 48228, 47763, 47758, 48867, 47235, 48489, 48667, 47597, 49136, 48331, 48426, 47967, 46832, 48568, 47178, 48493, 47244, 48748, 48686, 47357, 49388, 47888, 49178, 48048, 47093, 47252, 47255, 48567, 48320, 49239, 46785, 49524, 47938, 48631, 47562, 48567, 47817, 48652, 48234, 49224, 49400, 48836, 49106, 48404],
      "WindowCenter": [11375.0, 11352.0, 11315.0, 11291.0, 11308.0, 11324.0, 11323.0, 11300.0, 11302.0, 11294.0, 11278.0, 11289.0, 11275.0, 11287.0, 11306.0, 11306.0, 11320.0, 11325.0, 11326.0, 11307.0, 11298.0, 11305.0, 11288.0, 11300.0, 11262.0, 11278.0, 11281.0, 11267.0, 11243.0, 11255.0, 11252.0, 11284.0, 11297.0, 11274.0, 11271.0, 11261.0, 11264.0, 11271.0, 11286.0, 11243.0, 11255.0, 11232.0, 11209.0, 11244.0, 11260.0, 11271.0, 11260.0, 11262.0, 11298.0, 11262.0, 11271.0, 11265.0, 11258.0, 11271.0, 11256.0, 11241.0, 11258.0, 11284.0, 11276.0, 11305.0, 11271.0, 11280.0, 11276.0, 11245.0, 11251.0, 11265.0, 11290.0, 11272.0, 11250.0, 11252.0, 11268.0, 11297.0, 11289.0, 11280.0, 11276.0, 11258.0, 11264.0, 11267.0, 11258.0, 11277.0, 11266.0, 11272.0, 11262.0, 11266.0, 11268.0, 11257.0, 11266.0, 11231.0, 11254.0, 11237.0, 11261.0, 11262.0, 11266.0, 11260.0, 11246.0, 11273.0, 11273.0, 11280.0, 11270.0, 11270.0, 11252.0, 11251.0, 11263.0, 11261.0, 11277.0, 11261.0, 11257.0, 11262.0, 11232.0, 11241.0, 11246.0, 11235.0, 11221.0, 11239.0, 11271.0, 11272.0, 11265.0, 11255.0, 11244.0, 11250.0, 11252.0, 11244.0, 11239.0, 11235.0, 11244.0, 11261.0, 11260.0, 11252.0, 11250.0, 11265.0, 11285.0, 11289.0, 11278.0, 11244.0, 11243.0, 11267.0, 11283.0, 11281.0, 11269.0, 11261.0, 11271.0, 11278.0, 11268.0, 11255.0, 11261.0, 11281.0, 11290.0, 11268.0, 11241.0, 11246.0, 11267.0, 11286.0, 11265.0, 11258.0, 11259.0, 11253.0, 11262.0, 11260.0, 11245.0, 11248.0, 11259.0, 11276.0, 11257.0, 11238.0, 11242.0, 11266.0, 11286.0, 11257.0, 11251.0, 11251.0, 11252.0, 11258.0, 11251.0, 11257.0, 11287.0, 11285.0, 11257.0, 11249.0, 11236.0, 11272.0, 11266.0, 11276.0, 11249.0, 11257.0, 11256.0, 11255.0, 11238.0, 11238.0, 11221.0, 11233.0],
      "WindowWidth": [24551.0, 24465.0, 24353.0, 24281.0, 24313.0, 24344.0, 24342.0, 24288.0, 24287.0, 24271.0, 24234.0, 24264.0, 24231.0, 24256.0, 24303.0, 24302.0, 24333.0, 24347.0, 24354.0, 24309.0, 24292.0, 24300.0, 24263.0, 24293.0, 24198.0, 24235.0, 24240.0, 24210.0, 24155.0, 24184.0, 24171.0, 24250.0, 24291.0, 24245.0, 24222.0, 24198.0, 24198.0, 24213.0, 24248.0, 24149.0, 24176.0, 24129.0, 24070.0, 24157.0, 24189.0, 24214.0, 24187.0, 24192.0, 24277.0, 24199.0, 24216.0, 24206.0, 24188.0, 24219.0, 24189.0, 24151.0, 24191.0, 24252.0, 24233.0, 24304.0, 24226.0, 24243.0, 24238.0, 24159.0, 24176.0, 24206.0, 24267.0, 24224.0, 24173.0, 24183.0, 24220.0, 24287.0, 24268.0, 24243.0, 24235.0, 24191.0, 24206.0, 24214.0, 24188.0, 24237.0, 24208.0, 24220.0, 24196.0, 24208.0, 24215.0, 24187.0, 24210.0, 24126.0, 24182.0, 24141.0, 24198.0, 24197.0, 24207.0, 24196.0, 24166.0, 24224.0, 24222.0, 24243.0, 24217.0, 24216.0, 24174.0, 24177.0, 24200.0, 24199.0, 24236.0, 24199.0, 24191.0, 24193.0, 24121.0, 24142.0, 24158.0, 24138.0, 24101.0, 24142.0, 24217.0, 24218.0, 24202.0, 24172.0, 24150.0, 24161.0, 24165.0, 24147.0, 24135.0, 24124.0, 24147.0, 24190.0, 24200.0, 24183.0, 24171.0, 24205.0, 24248.0, 24255.0, 24233.0, 24152.0, 24152.0, 24208.0, 24245.0, 24244.0, 24219.0, 24190.0, 24218.0, 24233.0, 24211.0, 24183.0, 24195.0, 24242.0, 24265.0, 24213.0, 24153.0, 24156.0, 24210.0, 24256.0, 24198.0, 24189.0, 24184.0, 24175.0, 24194.0, 24189.0, 24160.0, 24158.0, 24190.0, 24223.0, 24185.0, 24137.0, 24143.0, 24203.0, 24244.0, 24182.0, 24164.0, 24169.0, 24176.0, 24188.0, 24174.0, 24181.0, 24257.0, 24245.0, 24192.0, 24160.0, 24137.0, 24217.0, 24204.0, 24226.0, 24165.0, 24178.0, 24178.0, 24170.0, 24127.0, 24131.0, 24092.0, 24123.0]
    },
    "slices": {}
  }
}