{
  "AcquisitionMatrixPE": 104,
  "AcquisitionNumber": 1,
  "AcquisitionTime": "11:10:32.705000",
  "BandwidthPerPixelPhaseEncode": 17.17,
  "BaseResolution": 104,
  "BodyPartExamined": "BRAIN",
  "CoilString": "HC1-7;NC1_2",
  "ConsistencyInfo": "N4_VE11C_LATEST_20160120",
  "ConversionSoftware": "dcm2niix",
  "ConversionSoftwareVersion": "v1.0.20190902",
  "DerivedVendorReportedEchoSpacing": 0.000560011,
  "DeviceSerialNumber": "167006",
  "DwellTime": 2.1e-06,
  "EchoTime": 0.037,
  "EchoTrainLength": 104,
  "EffectiveEchoSpacing": 0.000560011,
  "FlipAngle": 52,
  "ImageComments": "Unaliased_MB4_PE3_LB",
  "ImageOrientationPatientDICOM": [0.999669, 0.00619132, 0.024973, 0.00732807, 0.8619, -0.507025],
  "ImageType": [
    "ORIGINAL",
    "PRIMARY",
    "M",
    "MB",
    "ND",
    "MOSAIC"
],
  "ImagingFrequency": 123.259,
  "InPlanePhaseEncodingDirectionDICOM": "COL",
  "InstitutionAddress": "Chemin_Queen-Mary_4565_Montreal_District_CA_H3W_1W5",
  "InstitutionName": "IUGM",
  "InstitutionalDepartmentName": "Department",
  "MRAcquisitionType": "2D",
  "MagneticFieldStrength": 3,
  "Manufacturer": "Siemens",
  "ManufacturersModelName": "Prisma_fit",
  "Modality": "MR",
  "MultibandAccelerationFactor": 4,
  "PartialFourier": 1,
  "PatientPosition": "HFS",
  "PercentPhaseFOV": 100,
  "PhaseEncodingDirection": "j",
  "PhaseEncodingSteps": 104,
  "PhaseResolution": 1,
  "PixelBandwidth": 2290,
  "ProcedureStepDescription": "memory_things",
  "ProtocolName": "func_task-things_run-6",
  "PulseSequenceDetails": "%CustomerSeq%_cmrr_mbep2d_bold",
  "ReceiveCoilActiveElements": "HC1-7;NC1,2",
  "ReceiveCoilName": "HeadNeck_64",
  "ReconMatrixPE": 104,
  "RepetitionTime": 1.49,
  "SAR": 0.0661102,
  "ScanOptions": "FS",
  "ScanningSequence": "EP",
  "SequenceName": "epfid2d1_104",
  "SequenceVariant": "SK_SS",
  "SeriesDescription": "func_task-things_run-6",
  "SeriesNumber": 25,
  "ShimSetting": [617, -7183, -8828, 339, -16, -100, -48, -27],
  "SliceThickness": 2,
  "SliceTiming": [0, 0.7825, 0.0975, 0.8825, 0.195, 0.98, 0.2925, 1.0775, 0.3925, 1.175, 0.49, 1.2725, 0.5875, 1.3725, 0.685, 0, 0.7825, 0.0975, 0.8825, 0.195, 0.98, 0.2925, 1.0775, 0.3925, 1.175, 0.49, 1.2725, 0.5875, 1.3725, 0.685, 0, 0.7825, 0.0975, 0.8825, 0.195, 0.98, 0.2925, 1.0775, 0.3925, 1.175, 0.49, 1.2725, 0.5875, 1.3725, 0.685, 0, 0.7825, 0.0975, 0.8825, 0.195, 0.98, 0.2925, 1.0775, 0.3925, 1.175, 0.49, 1.2725, 0.5875, 1.3725, 0.685],
  "SoftwareVersions": "syngo_MR_E11",
  "SpacingBetweenSlices": 2,
  "StationName": "MRC35049",
  "TaskName": "things",
  "TotalReadoutTime": 0.0576811,
  "TxRefAmp": 318.547,
  "WipMemBlock": "822c0453-1b45-40dc-8683-c4189bd4409f||Sequence: R016 ve11c/master r/e634e98; Dec 19 2017 11:00:25 by eja",
  "dcmmeta_affine": [
    [-1.999337911605835, 0.014656138606369495, 0.04932680353522301, 105.61510467529297],
    [-0.012382639572024345, 1.7238004207611084, -1.014080286026001, -50.965118408203125],
    [0.04994603246450424, 1.014050006866455, 1.7231390476226807, -76.34721374511719],
    [0.0, 0.0, 0.0, 1.0]
],
  "dcmmeta_reorient_transform": [
    [0.0, -1.0, 0.0, 103.0],
    [1.0, 0.0, 0.0, 0.0],
    [0.0, 0.0, 1.0, 0.0],
    [0.0, 0.0, 0.0, 1.0]
],
  "dcmmeta_shape": [104, 104, 60, 190],
  "dcmmeta_slice_dim": 2,
  "dcmmeta_version": 0.6,
  "global": {
    "const": {
      "AcquisitionMatrix": [104, 0, 0, 104],
      "AngioFlag": "N",
      "BitsAllocated": 16,
      "BitsStored": 16,
      "BodyPartExamined": "BRAIN",
      "Columns": 832,
      "EchoNumbers": 1,
      "EchoTime": 37.0,
      "EchoTrainLength": 104,
      "FlipAngle": 52.0,
      "HighBit": 15,
      "ImageOrientationPatient": [0.99966895321072, 0.00619131972703, 0.02497301637007, 0.00732806915198, 0.86190021127593, -0.5070249749322],
      "ImagePositionPatient": [-840.21852053438, -758.55695955008, 379.03375364785],
      "ImageType": [
        "ORIGINAL",
        "PRIMARY",
        "M",
        "MB",
        "ND",
        "MOSAIC"
],
      "ImagedNucleus": "1H",
      "ImagingFrequency": 123.258921,
      "InPlanePhaseEncodingDirection": "COL",
      "MRAcquisitionType": "2D",
      "MagneticFieldStrength": 3.0,
      "Manufacturer": "SIEMENS",
      "ManufacturerModelName": "Prisma_fit",
      "Modality": "MR",
      "NumberOfAverages": 1.0,
      "NumberOfPhaseEncodingSteps": 104,
      "PercentPhaseFieldOfView": 100.0,
      "PercentSampling": 100.0,
      "PerformedProcedureStepStartTime": "101252.185000",
      "PhotometricInterpretation": "MONOCHROME2",
      "PixelBandwidth": 2290.0,
      "PixelRepresentation": 0,
      "PixelSpacing": [2.0, 2.0],
      "ProtocolName": "func_task-things_run-6",
      "RepetitionTime": 1490.0,
      "Rows": 832,
      "SAR": 0.0661101696123,
      "SamplesPerPixel": 1,
      "ScanOptions": "FS",
      "ScanningSequence": "EP",
      "SequenceName": "epfid2d1_104",
      "SequenceVariant": [
        "SK",
        "SS"
],
      "SeriesDescription": "func_task-things_run-6",
      "SeriesNumber": 25,
      "SeriesTime": "111158.234000",
      "SliceLocation": -37.33224635277,
      "SliceThickness": 2.0,
      "SmallestImagePixelValue": 0,
      "SoftwareVersions": "syngo MR E11",
      "SpacingBetweenSlices": 2.000000061533,
      "SpecificCharacterSet": "ISO_IR 100",
      "StudyID": "1",
      "StudyTime": "101252.115000",
      "TransmitCoilName": "Body",
      "VariableFlipAngleFlag": "N",
      "WindowCenterWidthExplanation": "Algo1",
      "dBdt": 0.0},
    "slices": {}
  },
  "time": {
    "samples": {
      "AcquisitionNumber": [1, 2, 3, 4, 5, 6, 7, 8, 9, 10, 11, 12, 13, 14, 15, 16, 17, 18, 19, 20, 21, 22, 23, 24, 25, 26, 27, 28, 29, 30, 31, 32, 33, 34, 35, 36, 37, 38, 39, 40, 41, 42, 43, 44, 45, 46, 47, 48, 49, 50, 51, 52, 53, 54, 55, 56, 57, 58, 59, 60, 61, 62, 63, 64, 65, 66, 67, 68, 69, 70, 71, 72, 73, 74, 75, 76, 77, 78, 79, 80, 81, 82, 83, 84, 85, 86, 87, 88, 89, 90, 91, 92, 93, 94, 95, 96, 97, 98, 99, 100, 101, 102, 103, 104, 105, 106, 107, 108, 109, 110, 111, 112, 113, 114, 115, 116, 117, 118, 119, 120, 121, 122, 123, 124, 125, 126, 127, 128, 129, 130, 131, 132, 133, 134, 135, 136, 137, 138, 139, 140, 141, 142, 143, 144, 145, 146, 147, 148, 149, 150, 151, 152, 153, 154, 155, 156, 157, 158, 159, 160, 161, 162, 163, 164, 165, 166, 167, 168, 169, 170, 171, 172, 173, 174, 175, 176, 177, 178, 179, 180, 181, 182, 183, 184, 185, 186, 187, 188, 189, 190],
      "AcquisitionTime": ["111032.705000", "111034.195000", "111035.685000", "111037.175000", "111038.665000", "111040.155000", "111041.645000", "111043.135000", "111044.625000", "111046.115000", "111047.605000", "111049.095000", "111050.585000", "111052.075000", "111053.565000", "111055.055000", "111056.545000", "111058.035000", "111059.525000", "111101.015000", "111102.505000", "111103.995000", "111105.485000", "111106.975000", "111108.465000", "111109.955000", "111111.445000", "111112.935000", "111114.425000", "111115.915000", "111117.405000", "111118.895000", "111120.385000", "111121.875000", "111123.365000", "111124.855000", "111126.345000", "111127.835000", "111129.325000", "111130.815000", "111132.305000", "111133.795000", "111135.285000", "111136.775000", "111138.265000", "111139.755000", "111141.245000", "111142.735000", "111144.225000", "111145.715000", "111147.205000", "111148.695000", "111150.185000", "111151.675000", "111153.165000", "111154.655000", "111156.145000", "111157.635000", "111159.125000", "111200.615000", "111202.105000", "111203.595000", "111205.085000", "111206.575000", "111208.065000", "111209.555000", "111211.045000", "111212.535000", "111214.025000", "111215.515000", "111217.005000", "111218.495000", "111219.985000", "111221.475000", "111222.965000", "111224.455000", "111225.945000", "111227.435000", "111228.925000", "111230.415000", "111231.905000", "111233.395000", "111234.885000", "111236.375000", "111237.865000", "111239.355000", "111240.845000", "111242.335000", "111243.825000", "111245.315000", "111246.805000", "111248.295000", "111249.785000", "111251.275000", "111252.765000", "111254.255000", "111255.745000", "111257.235000", "111258.725000", "111300.215000", "111301.705000", "111303.195000", "111304.685000", "111306.175000", "111307.665000", "111309.155000", "111310.645000", "111312.135000", "111313.625000", "111315.115000", "111316.605000", "111318.095000", "111319.585000", "111321.075000", "111322.565000", "111324.055000", "111325.545000", "111327.035000", "111328.525000", "111330.015000", "111331.505000", "111332.995000", "111334.485000", "111335.975000", "111337.465000", "111338.955000", "111340.445000", "111341.935000", "111343.425000", "111344.915000", "111346.405000", "111347.895000", "111349.385000", "111350.875000", "111352.365000", "111353.855000", "111355.345000", "111356.835000", "111358.325000", "111359.815000", "111401.305000", "111402.795000", "111404.285000", "111405.775000", "111407.265000", "111408.755000", "111410.245000", "111411.735000", "111413.225000", "111414.715000", "111416.205000", "111417.695000", "111419.185000", "111420.675000", "111422.165000", "111423.655000", "111425.145000", "111426.635000", "111428.125000", "111429.615000", "111431.105000", "111432.595000", "111434.085000", "111435.575000", "111437.065000", "111438.555000", "111440.045000", "111441.535000", "111443.025000", "111444.515000", "111446.005000", "111447.495000", "111448.985000", "111450.475000", "111451.965000", "111453.455000", "111454.945000", "111456.435000", "111457.925000", "111459.415000", "111500.905000", "111502.395000", "111503.885000", "111505.375000", "111506.865000", "111508.355000", "111509.845000", "111511.335000", "111512.825000", "111514.315000"],
      "ContentTime": ["111158.238000", "111158.241000", "111158.245000", "111158.248000", "111158.258000", "111158.262000", "111158.278000", "111158.281000", "111158.284000", "111158.288000", "111158.291000", "111158.294000", "111158.297000", "111158.301000", "111158.304000", "111158.307000", "111158.311000", "111158.314000", "111158.317000", "111158.321000", "111158.324000", "111158.328000", "111158.331000", "111158.334000", "111158.338000", "111158.341000", "111158.344000", "111158.348000", "111158.351000", "111158.354000", "111158.362000", "111158.365000", "111218.196000", "111218.200000", "111218.204000", "111218.207000", "111218.210000", "111218.214000", "111218.217000", "111218.221000", "111218.224000", "111218.227000", "111218.231000", "111218.234000", "111218.237000", "111218.241000", "111218.244000", "111218.247000", "111218.251000", "111218.254000", "111218.258000", "111218.261000", "111238.196000", "111238.200000", "111238.203000", "111238.206000", "111238.210000", "111238.213000", "111238.216000", "111238.220000", "111238.223000", "111238.227000", "111238.230000", "111238.234000", "111238.237000", "111238.240000", "111238.244000", "111238.247000", "111238.251000", "111238.254000", "111238.258000", "111238.261000", "111258.196000", "111258.200000", "111258.203000", "111258.207000", "111258.210000", "111258.213000", "111258.217000", "111258.220000", "111258.223000", "111258.227000", "111258.230000", "111258.234000", "111258.237000", "111258.240000", "111258.244000", "111258.247000", "111258.250000", "111258.254000", "111258.257000", "111258.260000", "111258.264000", "111338.196000", "111338.200000", "111338.203000", "111338.206000", "111338.210000", "111338.213000", "111338.216000", "111338.220000", "111338.223000", "111338.226000", "111338.230000", "111338.233000", "111338.236000", "111338.240000", "111338.243000", "111338.246000", "111338.250000", "111338.253000", "111338.256000", "111338.273000", "111338.276000", "111338.279000", "111338.283000", "111338.286000", "111338.289000", "111338.293000", "111338.296000", "111338.299000", "111338.303000", "111338.306000", "111338.309000", "111418.196000", "111418.200000", "111418.203000", "111418.207000", "111418.210000", "111418.214000", "111418.217000", "111418.220000", "111418.224000", "111418.227000", "111418.230000", "111418.234000", "111418.237000", "111418.240000", "111418.244000", "111418.247000", "111418.250000", "111418.254000", "111418.257000", "111418.260000", "111418.264000", "111418.267000", "111418.270000", "111418.274000", "111418.277000", "111418.280000", "111418.284000", "111458.196000", "111458.200000", "111458.203000", "111458.207000", "111458.210000", "111458.214000", "111458.217000", "111458.220000", "111458.224000", "111458.227000", "111458.230000", "111458.233000", "111458.237000", "111458.240000", "111458.243000", "111458.247000", "111458.250000", "111458.254000", "111458.257000", "111458.260000", "111458.264000", "111458.267000", "111458.270000", "111458.274000", "111458.277000", "111458.280000", "111458.284000", "111516.060000", "111516.064000", "111516.067000", "111516.070000", "111516.074000", "111516.077000", "111516.080000", "111516.084000", "111516.087000", "111516.090000", "111516.094000", "111516.097000"],
      "InstanceCreationTime": ["111158.238000", "111158.241000", "111158.245000", "111158.248000", "111158.258000", "111158.262000", "111158.278000", "111158.281000", "111158.284000", "111158.288000", "111158.291000", "111158.294000", "111158.297000", "111158.301000", "111158.304000", "111158.307000", "111158.311000", "111158.314000", "111158.317000", "111158.321000", "111158.324000", "111158.328000", "111158.331000", "111158.334000", "111158.338000", "111158.341000", "111158.344000", "111158.348000", "111158.351000", "111158.354000", "111158.362000", "111158.365000", "111218.196000", "111218.200000", "111218.204000", "111218.207000", "111218.210000", "111218.214000", "111218.217000", "111218.221000", "111218.224000", "111218.227000", "111218.231000", "111218.234000", "111218.237000", "111218.241000", "111218.244000", "111218.247000", "111218.251000", "111218.254000", "111218.258000", "111218.261000", "111238.196000", "111238.200000", "111238.203000", "111238.206000", "111238.210000", "111238.213000", "111238.216000", "111238.220000", "111238.223000", "111238.227000", "111238.230000", "111238.234000", "111238.237000", "111238.240000", "111238.244000", "111238.247000", "111238.251000", "111238.254000", "111238.258000", "111238.261000", "111258.196000", "111258.200000", "111258.203000", "111258.207000", "111258.210000", "111258.213000", "111258.217000", "111258.220000", "111258.223000", "111258.227000", "111258.230000", "111258.234000", "111258.237000", "111258.240000", "111258.244000", "111258.247000", "111258.250000", "111258.254000", "111258.257000", "111258.260000", "111258.264000", "111338.196000", "111338.200000", "111338.203000", "111338.206000", "111338.210000", "111338.213000", "111338.216000", "111338.220000", "111338.223000", "111338.226000", "111338.230000", "111338.233000", "111338.236000", "111338.240000", "111338.243000", "111338.246000", "111338.250000", "111338.253000", "111338.256000", "111338.273000", "111338.276000", "111338.279000", "111338.283000", "111338.286000", "111338.289000", "111338.293000", "111338.296000", "111338.299000", "111338.303000", "111338.306000", "111338.309000", "111418.196000", "111418.200000", "111418.203000", "111418.207000", "111418.210000", "111418.214000", "111418.217000", "111418.220000", "111418.224000", "111418.227000", "111418.230000", "111418.234000", "111418.237000", "111418.240000", "111418.244000", "111418.247000", "111418.250000", "111418.254000", "111418.257000", "111418.260000", "111418.264000", "111418.267000", "111418.270000", "111418.274000", "111418.277000", "111418.280000", "111418.284000", "111458.196000", "111458.200000", "111458.203000", "111458.207000", "111458.210000", "111458.214000", "111458.217000", "111458.220000", "111458.224000", "111458.227000", "111458.230000", "111458.233000", "111458.237000", "111458.240000", "111458.243000", "111458.247000", "111458.250000", "111458.254000", "111458.257000", "111458.260000", "111458.264000", "111458.267000", "111458.270000", "111458.274000", "111458.277000", "111458.280000", "111458.284000", "111516.060000", "111516.064000", "111516.067000", "111516.070000", "111516.074000", "111516.077000", "111516.080000", "111516.084000", "111516.087000", "111516.090000", "111516.094000", "111516.097000"],
      "InstanceNumber": [1, 2, 3, 4, 5, 6, 7, 8, 9, 10, 11, 12, 13, 14, 15, 16, 17, 18, 19, 20, 21, 22, 23, 24, 25, 26, 27, 28, 29, 30, 31, 32, 33, 34, 35, 36, 37, 38, 39, 40, 41, 42, 43, 44, 45, 46, 47, 48, 49, 50, 51, 52, 53, 54, 55, 56, 57, 58, 59, 60, 61, 62, 63, 64, 65, 66, 67, 68, 69, 70, 71, 72, 73, 74, 75, 76, 77, 78, 79, 80, 81, 82, 83, 84, 85, 86, 87, 88, 89, 90, 91, 92, 93, 94, 95, 96, 97, 98, 99, 100, 101, 102, 103, 104, 105, 106, 107, 108, 109, 110, 111, 112, 113, 114, 115, 116, 117, 118, 119, 120, 121, 122, 123, 124, 125, 126, 127, 128, 129, 130, 131, 132, 133, 134, 135, 136, 137, 138, 139, 140, 141, 142, 143, 144, 145, 146, 147, 148, 149, 150, 151, 152, 153, 154, 155, 156, 157, 158, 159, 160, 161, 162, 163, 164, 165, 166, 167, 168, 169, 170, 171, 172, 173, 174, 175, 176, 177, 178, 179, 180, 181, 182, 183, 184, 185, 186, 187, 188, 189, 190],
      "LargestImagePixelValue": [49745, 48391, 48749, 49012, 49686, 49171, 48512, 49000, 48727, 48568, 47964, 48806, 48337, 49100, 49564, 47743, 46253, 48551, 47215, 47157, 48373, 47357, 48562, 47614, 47574, 47550, 46531, 48017, 46938, 47009, 47024, 48566, 47275, 47334, 48836, 47648, 44828, 45571, 46763, 46115, 49389, 48493, 47820, 48353, 47332, 48073, 47771, 46243, 47242, 46906, 46565, 46592, 48075, 48943, 46927, 48473, 47665, 47114, 47380, 45877, 48719, 47163, 46445, 46609, 48987, 48684, 47995, 46743, 48138, 47929, 47326, 47079, 49032, 48905, 45677, 45109, 47947, 46504, 48237, 46133, 45145, 46825, 46375, 47687, 46352, 49083, 48329, 45337, 45248, 44801, 45691, 45139, 44872, 48034, 48531, 47300, 46584, 45411, 47165, 45833, 48074, 47992, 45530, 47508, 46914, 45420, 48802, 47129, 45426, 47308, 46484, 45304, 47002, 45326, 47713, 47239, 45398, 47326, 45601, 45526, 47145, 45738, 44885, 44836, 45295, 46583, 46169, 49130, 46868, 45021, 49056, 46190, 44782, 45083, 44941, 45050, 47761, 45928, 47901, 48061, 46069, 45406, 45430, 45147, 48322, 47429, 45102, 45172, 45486, 45535, 45099, 47109, 45649, 45524, 47123, 45751, 45855, 45033, 45445, 45457, 46422, 45705, 45478, 46050, 45593, 45418, 44943, 44822, 46428, 47163, 45505, 44982, 45598, 45439, 45747, 45478, 45132, 45378, 45429, 45383, 45489, 45781, 45118, 45115, 45915, 45617, 44846, 44555, 44968, 45350],
      "WindowCenter": [11365.0, 11284.0, 11243.0, 11225.0, 11257.0, 11266.0, 11255.0, 11255.0, 11240.0, 11255.0, 11261.0, 11288.0, 11266.0, 11237.0, 11215.0, 11212.0, 11243.0, 11243.0, 11242.0, 11251.0, 11267.0, 11279.0, 11275.0, 11253.0, 11199.0, 11238.0, 11231.0, 11244.0, 11243.0, 11226.0, 11234.0, 11248.0, 11242.0, 11212.0, 11210.0, 11199.0, 11209.0, 11224.0, 11231.0, 11243.0, 11261.0, 11252.0, 11226.0, 11201.0, 11178.0, 11200.0, 11211.0, 11207.0, 11199.0, 11191.0, 11193.0, 11191.0, 11208.0, 11220.0, 11209.0, 11230.0, 11233.0, 11229.0, 11219.0, 11218.0, 11221.0, 11210.0, 11222.0, 11192.0, 11208.0, 11212.0, 11220.0, 11239.0, 11246.0, 11232.0, 11219.0, 11218.0, 11233.0, 11248.0, 11222.0, 11191.0, 11197.0, 11200.0, 11231.0, 11239.0, 11229.0, 11174.0, 11194.0, 11191.0, 11205.0, 11241.0, 11218.0, 11193.0, 11184.0, 11174.0, 11175.0, 11192.0, 11180.0, 11209.0, 11222.0, 11212.0, 11205.0, 11190.0, 11184.0, 11182.0, 11199.0, 11201.0, 11176.0, 11198.0, 11186.0, 11167.0, 11219.0, 11223.0, 11222.0, 11235.0, 11226.0, 11205.0, 11191.0, 11198.0, 11214.0, 11205.0, 11186.0, 11186.0, 11178.0, 11207.0, 11228.0, 11219.0, 11217.0, 11198.0, 11183.0, 11194.0, 11188.0, 11235.0, 11235.0, 11200.0, 11209.0, 11206.0, 11221.0, 11217.0, 11176.0, 11179.0, 11211.0, 11197.0, 11203.0, 11179.0, 11190.0, 11166.0, 11152.0, 11142.0, 11184.0, 11197.0, 11192.0, 11174.0, 11139.0, 11146.0, 11173.0, 11226.0, 11214.0, 11159.0, 11172.0, 11161.0, 11196.0, 11215.0, 11205.0, 11186.0, 11166.0, 11158.0, 11204.0, 11208.0, 11213.0, 11197.0, 11172.0, 11173.0, 11202.0, 11207.0, 11205.0, 11197.0, 11176.0, 11185.0, 11174.0, 11174.0, 11172.0, 11167.0, 11173.0, 11172.0, 11175.0, 11169.0, 11176.0, 11179.0, 11152.0, 11155.0, 11180.0, 11164.0, 11135.0, 11094.0],
      "WindowWidth": [24519.0, 24293.0, 24170.0, 24112.0, 24180.0, 24200.0, 24173.0, 24173.0, 24133.0, 24170.0, 24190.0, 24249.0, 24198.0, 24130.0, 24074.0, 24077.0, 24159.0, 24151.0, 24153.0, 24173.0, 24204.0, 24238.0, 24221.0, 24173.0, 24040.0, 24135.0, 24126.0, 24151.0, 24151.0, 24117.0, 24132.0, 24157.0, 24150.0, 24076.0, 24066.0, 24046.0, 24086.0, 24121.0, 24129.0, 24158.0, 24185.0, 24165.0, 24106.0, 24044.0, 23992.0, 24045.0, 24070.0, 24071.0, 24048.0, 24029.0, 24038.0, 24030.0, 24065.0, 24089.0, 24067.0, 24114.0, 24124.0, 24115.0, 24093.0, 24098.0, 24092.0, 24075.0, 24108.0, 24034.0, 24061.0, 24073.0, 24095.0, 24145.0, 24154.0, 24120.0, 24095.0, 24094.0, 24114.0, 24152.0, 24109.0, 24040.0, 24042.0, 24054.0, 24118.0, 24144.0, 24128.0, 23988.0, 24034.0, 24024.0, 24063.0, 24138.0, 24085.0, 24039.0, 24024.0, 24004.0, 23997.0, 24041.0, 24015.0, 24068.0, 24091.0, 24075.0, 24063.0, 24036.0, 24013.0, 24012.0, 24042.0, 24046.0, 23998.0, 24045.0, 24019.0, 23982.0, 24084.0, 24104.0, 24106.0, 24131.0, 24113.0, 24066.0, 24027.0, 24054.0, 24085.0, 24063.0, 24025.0, 24016.0, 24005.0, 24071.0, 24116.0, 24102.0, 24099.0, 24056.0, 24016.0, 24039.0, 24030.0, 24124.0, 24137.0, 24058.0, 24063.0, 24071.0, 24116.0, 24107.0, 24011.0, 24012.0, 24070.0, 24040.0, 24051.0, 23996.0, 24028.0, 23971.0, 23942.0, 23921.0, 24006.0, 24041.0, 24042.0, 24000.0, 23915.0, 23930.0, 23990.0, 24110.0, 24089.0, 23957.0, 23981.0, 23958.0, 24040.0, 24092.0, 24068.0, 24024.0, 23972.0, 23953.0, 24067.0, 24073.0, 24090.0, 24053.0, 23994.0, 23995.0, 24059.0, 24065.0, 24070.0, 24054.0, 24001.0, 24023.0, 23995.0, 23995.0, 23991.0, 23979.0, 23994.0, 23988.0, 23997.0, 23981.0, 23999.0, 24011.0, 23943.0, 23946.0, 24020.0, 23989.0, 23921.0, 23820.0]
    },
    "slices": {}
  }
}