{
  "AcquisitionMatrixPE": 104,
  "AcquisitionNumber": 1,
  "AcquisitionTime": "11:10:32.705000",
  "BandwidthPerPixelPhaseEncode": 17.17,
  "BaseResolution": 104,
  "BodyPartExamined": "BRAIN",
  "CoilString": "HC1-7;NC1_2",
  "ConsistencyInfo": "N4_VE11C_LATEST_20160120",
  "ConversionSoftware": "dcm2niix",
  "ConversionSoftwareVersion": "v1.0.20190902",
  "DerivedVendorReportedEchoSpacing": 0.000560011,
  "DeviceSerialNumber": "167006",
  "DwellTime": 2.1e-06,
  "EchoTime": 0.037,
  "EchoTrainLength": 104,
  "EffectiveEchoSpacing": 0.000560011,
  "FlipAngle": 52,
  "ImageComments": "Unaliased_MB4_PE3_LB",
  "ImageOrientationPatientDICOM": [0.999669, 0.00619132, 0.024973, 0.00732807, 0.8619, -0.507025],
  "ImageType": [
    "ORIGINAL",
    "PRIMARY",
    "P",
    "MB",
    "ND",
    "MOSAIC"
],
  "ImagingFrequency": 123.259,
  "InPlanePhaseEncodingDirectionDICOM": "COL",
  "InstitutionAddress": "Chemin_Queen-Mary_4565_Montreal_District_CA_H3W_1W5",
  "InstitutionName": "IUGM",
  "InstitutionalDepartmentName": "Department",
  "MRAcquisitionType": "2D",
  "MagneticFieldStrength": 3,
  "Manufacturer": "Siemens",
  "ManufacturersModelName": "Prisma_fit",
  "Modality": "MR",
  "MultibandAccelerationFactor": 4,
  "PartialFourier": 1,
  "PatientPosition": "HFS",
  "PercentPhaseFOV": 100,
  "PhaseEncodingDirection": "j",
  "PhaseEncodingSteps": 104,
  "PhaseResolution": 1,
  "PixelBandwidth": 2290,
  "ProcedureStepDescription": "memory_things",
  "ProtocolName": "func_task-things_run-6",
  "PulseSequenceDetails": "%CustomerSeq%_cmrr_mbep2d_bold",
  "ReceiveCoilActiveElements": "HC1-7;NC1,2",
  "ReceiveCoilName": "HeadNeck_64",
  "ReconMatrixPE": 104,
  "RepetitionTime": 1.49,
  "SAR": 0.0661102,
  "ScanOptions": "FS",
  "ScanningSequence": "EP",
  "SequenceName": "epfid2d1_104",
  "SequenceVariant": "SK_SS",
  "SeriesDescription": "func_task-things_run-6",
  "SeriesNumber": 26,
  "ShimSetting": [617, -7183, -8828, 339, -16, -100, -48, -27],
  "SliceThickness": 2,
  "SliceTiming": [0, 0.7825, 0.0975, 0.8825, 0.195, 0.98, 0.2925, 1.0775, 0.3925, 1.175, 0.49, 1.2725, 0.5875, 1.3725, 0.685, 0, 0.7825, 0.0975, 0.8825, 0.195, 0.98, 0.2925, 1.0775, 0.3925, 1.175, 0.49, 1.2725, 0.5875, 1.3725, 0.685, 0, 0.7825, 0.0975, 0.8825, 0.195, 0.98, 0.2925, 1.0775, 0.3925, 1.175, 0.49, 1.2725, 0.5875, 1.3725, 0.685, 0, 0.7825, 0.0975, 0.8825, 0.195, 0.98, 0.2925, 1.0775, 0.3925, 1.175, 0.49, 1.2725, 0.5875, 1.3725, 0.685],
  "SoftwareVersions": "syngo_MR_E11",
  "SpacingBetweenSlices": 2,
  "StationName": "MRC35049",
  "TaskName": "things",
  "TotalReadoutTime": 0.0576811,
  "TxRefAmp": 318.547,
  "WipMemBlock": "822c0453-1b45-40dc-8683-c4189bd4409f||Sequence: R016 ve11c/master r/e634e98; Dec 19 2017 11:00:25 by eja",
  "dcmmeta_affine": [
    [-1.999337911605835, 0.014656138606369495, 0.04932680353522301, 105.61510467529297],
    [-0.012382639572024345, 1.7238004207611084, -1.014080286026001, -50.965118408203125],
    [0.04994603246450424, 1.014050006866455, 1.7231390476226807, -76.34721374511719],
    [0.0, 0.0, 0.0, 1.0]
],
  "dcmmeta_reorient_transform": [
    [0.0, -1.0, 0.0, 103.0],
    [1.0, 0.0, 0.0, 0.0],
    [0.0, 0.0, 1.0, 0.0],
    [0.0, 0.0, 0.0, 1.0]
],
  "dcmmeta_shape": [104, 104, 60, 190],
  "dcmmeta_slice_dim": 2,
  "dcmmeta_version": 0.6,
  "global": {
    "const": {
      "AcquisitionMatrix": [104, 0, 0, 104],
      "AngioFlag": "N",
      "BitsAllocated": 16,
      "BitsStored": 16,
      "BodyPartExamined": "BRAIN",
      "Columns": 832,
      "EchoNumbers": 1,
      "EchoTime": 37.0,
      "EchoTrainLength": 104,
      "FlipAngle": 52.0,
      "HighBit": 15,
      "ImageOrientationPatient": [0.99966895321072, 0.00619131972703, 0.02497301637007, 0.00732806915198, 0.86190021127593, -0.5070249749322],
      "ImagePositionPatient": [-840.21852053438, -758.55695955008, 379.03375364785],
      "ImageType": [
        "ORIGINAL",
        "PRIMARY",
        "P",
        "MB",
        "ND",
        "MOSAIC"
],
      "ImagedNucleus": "1H",
      "ImagingFrequency": 123.258921,
      "InPlanePhaseEncodingDirection": "COL",
      "LargestImagePixelValue": 4095,
      "MRAcquisitionType": "2D",
      "MagneticFieldStrength": 3.0,
      "Manufacturer": "SIEMENS",
      "ManufacturerModelName": "Prisma_fit",
      "Modality": "MR",
      "NumberOfAverages": 1.0,
      "NumberOfPhaseEncodingSteps": 104,
      "PercentPhaseFieldOfView": 100.0,
      "PercentSampling": 100.0,
      "PerformedProcedureStepStartTime": "101252.185000",
      "PhotometricInterpretation": "MONOCHROME2",
      "PixelBandwidth": 2290.0,
      "PixelRepresentation": 0,
      "PixelSpacing": [2.0, 2.0],
      "ProtocolName": "func_task-things_run-6",
      "RepetitionTime": 1490.0,
      "RescaleIntercept": -4096.0,
      "RescaleSlope": 2.0,
      "RescaleType": "US",
      "Rows": 832,
      "SAR": 0.0661101696123,
      "SamplesPerPixel": 1,
      "ScanOptions": "FS",
      "ScanningSequence": "EP",
      "SequenceName": "epfid2d1_104",
      "SequenceVariant": [
        "SK",
        "SS"
],
      "SeriesDescription": "func_task-things_run-6",
      "SeriesNumber": 26,
      "SeriesTime": "111158.416000",
      "SliceLocation": -37.33224635277,
      "SliceThickness": 2.0,
      "SmallestImagePixelValue": 0,
      "SoftwareVersions": "syngo MR E11",
      "SpacingBetweenSlices": 2.000000061533,
      "SpecificCharacterSet": "ISO_IR 100",
      "StudyID": "1",
      "StudyTime": "101252.115000",
      "TransmitCoilName": "Body",
      "VariableFlipAngleFlag": "N",
      "WindowCenterWidthExplanation": "Algo1",
      "dBdt": 0.0},
    "slices": {}
  },
  "time": {
    "samples": {
      "AcquisitionNumber": [1, 2, 3, 4, 5, 6, 7, 8, 9, 10, 11, 12, 13, 14, 15, 16, 17, 18, 19, 20, 21, 22, 23, 24, 25, 26, 27, 28, 29, 30, 31, 32, 33, 34, 35, 36, 37, 38, 39, 40, 41, 42, 43, 44, 45, 46, 47, 48, 49, 50, 51, 52, 53, 54, 55, 56, 57, 58, 59, 60, 61, 62, 63, 64, 65, 66, 67, 68, 69, 70, 71, 72, 73, 74, 75, 76, 77, 78, 79, 80, 81, 82, 83, 84, 85, 86, 87, 88, 89, 90, 91, 92, 93, 94, 95, 96, 97, 98, 99, 100, 101, 102, 103, 104, 105, 106, 107, 108, 109, 110, 111, 112, 113, 114, 115, 116, 117, 118, 119, 120, 121, 122, 123, 124, 125, 126, 127, 128, 129, 130, 131, 132, 133, 134, 135, 136, 137, 138, 139, 140, 141, 142, 143, 144, 145, 146, 147, 148, 149, 150, 151, 152, 153, 154, 155, 156, 157, 158, 159, 160, 161, 162, 163, 164, 165, 166, 167, 168, 169, 170, 171, 172, 173, 174, 175, 176, 177, 178, 179, 180, 181, 182, 183, 184, 185, 186, 187, 188, 189, 190],
      "AcquisitionTime": ["111032.705000", "111034.195000", "111035.685000", "111037.175000", "111038.665000", "111040.155000", "111041.645000", "111043.135000", "111044.625000", "111046.115000", "111047.605000", "111049.095000", "111050.585000", "111052.075000", "111053.565000", "111055.055000", "111056.545000", "111058.035000", "111059.525000", "111101.015000", "111102.505000", "111103.995000", "111105.485000", "111106.975000", "111108.465000", "111109.955000", "111111.445000", "111112.935000", "111114.425000", "111115.915000", "111117.405000", "111118.895000", "111120.385000", "111121.875000", "111123.365000", "111124.855000", "111126.345000", "111127.835000", "111129.325000", "111130.815000", "111132.305000", "111133.795000", "111135.285000", "111136.775000", "111138.265000", "111139.755000", "111141.245000", "111142.735000", "111144.225000", "111145.715000", "111147.205000", "111148.695000", "111150.185000", "111151.675000", "111153.165000", "111154.655000", "111156.145000", "111157.635000", "111159.125000", "111200.615000", "111202.105000", "111203.595000", "111205.085000", "111206.575000", "111208.065000", "111209.555000", "111211.045000", "111212.535000", "111214.025000", "111215.515000", "111217.005000", "111218.495000", "111219.985000", "111221.475000", "111222.965000", "111224.455000", "111225.945000", "111227.435000", "111228.925000", "111230.415000", "111231.905000", "111233.395000", "111234.885000", "111236.375000", "111237.865000", "111239.355000", "111240.845000", "111242.335000", "111243.825000", "111245.315000", "111246.805000", "111248.295000", "111249.785000", "111251.275000", "111252.765000", "111254.255000", "111255.745000", "111257.235000", "111258.725000", "111300.215000", "111301.705000", "111303.195000", "111304.685000", "111306.175000", "111307.665000", "111309.155000", "111310.645000", "111312.135000", "111313.625000", "111315.115000", "111316.605000", "111318.095000", "111319.585000", "111321.075000", "111322.565000", "111324.055000", "111325.545000", "111327.035000", "111328.525000", "111330.015000", "111331.505000", "111332.995000", "111334.485000", "111335.975000", "111337.465000", "111338.955000", "111340.445000", "111341.935000", "111343.425000", "111344.915000", "111346.405000", "111347.895000", "111349.385000", "111350.875000", "111352.365000", "111353.855000", "111355.345000", "111356.835000", "111358.325000", "111359.815000", "111401.305000", "111402.795000", "111404.285000", "111405.775000", "111407.265000", "111408.755000", "111410.245000", "111411.735000", "111413.225000", "111414.715000", "111416.205000", "111417.695000", "111419.185000", "111420.675000", "111422.165000", "111423.655000", "111425.145000", "111426.635000", "111428.125000", "111429.615000", "111431.105000", "111432.595000", "111434.085000", "111435.575000", "111437.065000", "111438.555000", "111440.045000", "111441.535000", "111443.025000", "111444.515000", "111446.005000", "111447.495000", "111448.985000", "111450.475000", "111451.965000", "111453.455000", "111454.945000", "111456.435000", "111457.925000", "111459.415000", "111500.905000", "111502.395000", "111503.885000", "111505.375000", "111506.865000", "111508.355000", "111509.845000", "111511.335000", "111512.825000", "111514.315000"],
      "ContentTime": ["111158.419000", "111158.421000", "111158.424000", "111158.426000", "111158.429000", "111158.431000", "111158.434000", "111158.436000", "111158.439000", "111158.441000", "111158.444000", "111158.446000", "111158.449000", "111158.451000", "111158.454000", "111158.456000", "111158.459000", "111158.461000", "111158.464000", "111158.466000", "111158.469000", "111158.471000", "111158.474000", "111158.476000", "111158.479000", "111158.481000", "111158.484000", "111158.486000", "111158.489000", "111158.496000", "111158.499000", "111158.501000", "111218.313000", "111218.315000", "111218.318000", "111218.321000", "111218.323000", "111218.326000", "111218.329000", "111218.331000", "111218.334000", "111218.336000", "111218.339000", "111218.342000", "111218.344000", "111218.347000", "111218.349000", "111218.352000", "111218.354000", "111218.357000", "111218.359000", "111218.362000", "111238.312000", "111238.315000", "111238.317000", "111238.320000", "111238.322000", "111238.325000", "111238.328000", "111238.330000", "111238.333000", "111238.336000", "111238.338000", "111238.341000", "111238.343000", "111238.346000", "111238.348000", "111238.351000", "111238.353000", "111238.356000", "111238.358000", "111238.361000", "111258.305000", "111258.308000", "111258.310000", "111258.313000", "111258.315000", "111258.318000", "111258.320000", "111258.323000", "111258.325000", "111258.328000", "111258.331000", "111258.333000", "111258.336000", "111258.338000", "111258.341000", "111258.343000", "111258.346000", "111258.348000", "111258.351000", "111258.353000", "111338.376000", "111338.379000", "111338.381000", "111338.384000", "111338.386000", "111338.389000", "111338.391000", "111338.394000", "111338.396000", "111338.399000", "111338.401000", "111338.404000", "111338.406000", "111338.409000", "111338.411000", "111338.414000", "111338.416000", "111338.419000", "111338.421000", "111338.424000", "111338.443000", "111338.445000", "111338.448000", "111338.450000", "111338.453000", "111338.455000", "111338.458000", "111338.460000", "111338.463000", "111338.466000", "111338.468000", "111338.471000", "111418.338000", "111418.340000", "111418.343000", "111418.346000", "111418.348000", "111418.350000", "111418.353000", "111418.356000", "111418.358000", "111418.361000", "111418.363000", "111418.366000", "111418.368000", "111418.371000", "111418.373000", "111418.376000", "111418.378000", "111418.381000", "111418.383000", "111418.386000", "111418.388000", "111418.391000", "111418.393000", "111418.396000", "111418.398000", "111418.401000", "111418.403000", "111458.351000", "111458.354000", "111458.356000", "111458.359000", "111458.361000", "111458.364000", "111458.366000", "111458.369000", "111458.371000", "111458.374000", "111458.376000", "111458.379000", "111458.381000", "111458.384000", "111458.386000", "111458.389000", "111458.391000", "111458.394000", "111458.396000", "111458.399000", "111458.401000", "111458.404000", "111458.406000", "111458.409000", "111458.411000", "111458.414000", "111458.417000", "111516.158000", "111516.161000", "111516.164000", "111516.166000", "111516.169000", "111516.171000", "111516.174000", "111516.177000", "111516.179000", "111516.182000", "111516.184000", "111516.187000"],
      "InstanceCreationTime": ["111158.419000", "111158.421000", "111158.424000", "111158.426000", "111158.429000", "111158.431000", "111158.434000", "111158.436000", "111158.439000", "111158.441000", "111158.444000", "111158.446000", "111158.449000", "111158.451000", "111158.454000", "111158.456000", "111158.459000", "111158.461000", "111158.464000", "111158.466000", "111158.469000", "111158.471000", "111158.474000", "111158.476000", "111158.479000", "111158.481000", "111158.484000", "111158.486000", "111158.489000", "111158.496000", "111158.499000", "111158.501000", "111218.313000", "111218.315000", "111218.318000", "111218.321000", "111218.323000", "111218.326000", "111218.329000", "111218.331000", "111218.334000", "111218.336000", "111218.339000", "111218.342000", "111218.344000", "111218.347000", "111218.349000", "111218.352000", "111218.354000", "111218.357000", "111218.359000", "111218.362000", "111238.312000", "111238.315000", "111238.317000", "111238.320000", "111238.322000", "111238.325000", "111238.328000", "111238.330000", "111238.333000", "111238.336000", "111238.338000", "111238.341000", "111238.343000", "111238.346000", "111238.348000", "111238.351000", "111238.353000", "111238.356000", "111238.358000", "111238.361000", "111258.305000", "111258.308000", "111258.310000", "111258.313000", "111258.315000", "111258.318000", "111258.320000", "111258.323000", "111258.325000", "111258.328000", "111258.331000", "111258.333000", "111258.336000", "111258.338000", "111258.341000", "111258.343000", "111258.346000", "111258.348000", "111258.351000", "111258.353000", "111338.376000", "111338.379000", "111338.381000", "111338.384000", "111338.386000", "111338.389000", "111338.391000", "111338.394000", "111338.396000", "111338.399000", "111338.401000", "111338.404000", "111338.406000", "111338.409000", "111338.411000", "111338.414000", "111338.416000", "111338.419000", "111338.421000", "111338.424000", "111338.443000", "111338.445000", "111338.448000", "111338.450000", "111338.453000", "111338.455000", "111338.458000", "111338.460000", "111338.463000", "111338.466000", "111338.468000", "111338.471000", "111418.338000", "111418.340000", "111418.343000", "111418.346000", "111418.348000", "111418.350000", "111418.353000", "111418.356000", "111418.358000", "111418.361000", "111418.363000", "111418.366000", "111418.368000", "111418.371000", "111418.373000", "111418.376000", "111418.378000", "111418.381000", "111418.383000", "111418.386000", "111418.388000", "111418.391000", "111418.393000", "111418.396000", "111418.398000", "111418.401000", "111418.403000", "111458.351000", "111458.354000", "111458.356000", "111458.359000", "111458.361000", "111458.364000", "111458.366000", "111458.369000", "111458.371000", "111458.374000", "111458.376000", "111458.379000", "111458.381000", "111458.384000", "111458.386000", "111458.389000", "111458.391000", "111458.394000", "111458.396000", "111458.399000", "111458.401000", "111458.404000", "111458.406000", "111458.409000", "111458.411000", "111458.414000", "111458.417000", "111516.158000", "111516.161000", "111516.164000", "111516.166000", "111516.169000", "111516.171000", "111516.174000", "111516.177000", "111516.179000", "111516.182000", "111516.184000", "111516.187000"],
      "InstanceNumber": [1, 2, 3, 4, 5, 6, 7, 8, 9, 10, 11, 12, 13, 14, 15, 16, 17, 18, 19, 20, 21, 22, 23, 24, 25, 26, 27, 28, 29, 30, 31, 32, 33, 34, 35, 36, 37, 38, 39, 40, 41, 42, 43, 44, 45, 46, 47, 48, 49, 50, 51, 52, 53, 54, 55, 56, 57, 58, 59, 60, 61, 62, 63, 64, 65, 66, 67, 68, 69, 70, 71, 72, 73, 74, 75, 76, 77, 78, 79, 80, 81, 82, 83, 84, 85, 86, 87, 88, 89, 90, 91, 92, 93, 94, 95, 96, 97, 98, 99, 100, 101, 102, 103, 104, 105, 106, 107, 108, 109, 110, 111, 112, 113, 114, 115, 116, 117, 118, 119, 120, 121, 122, 123, 124, 125, 126, 127, 128, 129, 130, 131, 132, 133, 134, 135, 136, 137, 138, 139, 140, 141, 142, 143, 144, 145, 146, 147, 148, 149, 150, 151, 152, 153, 154, 155, 156, 157, 158, 159, 160, 161, 162, 163, 164, 165, 166, 167, 168, 169, 170, 171, 172, 173, 174, 175, 176, 177, 178, 179, 180, 181, 182, 183, 184, 185, 186, 187, 188, 189, 190],
      "WindowCenter": [4722.0, 4722.0, 4722.0, 4726.0, 4702.0, 4710.0, 4704.0, 4700.0, 4724.0, 4722.0, 4720.0, 4722.0, 4724.0, 4710.0, 4720.0, 4716.0, 4722.0, 4700.0, 4724.0, 4742.0, 4720.0, 4722.0, 4708.0, 4708.0, 4704.0, 4710.0, 4704.0, 4700.0, 4694.0, 4744.0, 4746.0, 4722.0, 4700.0, 4700.0, 4726.0, 4728.0, 4704.0, 4744.0, 4748.0, 4778.0, 4720.0, 4700.0, 4704.0, 4708.0, 4710.0, 4706.0, 4712.0, 4706.0, 4702.0, 4696.0, 4722.0, 4742.0, 4742.0, 4700.0, 4702.0, 4710.0, 4714.0, 4708.0, 4708.0, 4722.0, 4704.0, 4702.0, 4720.0, 4742.0, 4718.0, 4708.0, 4700.0, 4724.0, 4704.0, 4704.0, 4720.0, 4720.0, 4698.0, 4720.0, 4716.0, 4724.0, 4698.0, 4720.0, 4698.0, 4722.0, 4744.0, 4722.0, 4720.0, 4722.0, 4702.0, 4712.0, 4730.0, 4722.0, 4708.0, 4748.0, 4744.0, 4772.0, 4744.0, 4722.0, 4714.0, 4716.0, 4714.0, 4706.0, 4706.0, 4720.0, 4722.0, 4706.0, 4720.0, 4724.0, 4704.0, 4724.0, 4706.0, 4706.0, 4702.0, 4704.0, 4704.0, 4722.0, 4700.0, 4700.0, 4704.0, 4708.0, 4698.0, 4702.0, 4702.0, 4718.0, 4702.0, 4698.0, 4720.0, 4720.0, 4724.0, 4704.0, 4700.0, 4714.0, 4712.0, 4702.0, 4720.0, 4720.0, 4720.0, 4746.0, 4746.0, 4774.0, 4716.0, 4698.0, 4704.0, 4722.0, 4718.0, 4710.0, 4708.0, 4722.0, 4706.0, 4714.0, 4706.0, 4724.0, 4720.0, 4718.0, 4720.0, 4722.0, 4702.0, 4704.0, 4710.0, 4710.0, 4710.0, 4700.0, 4704.0, 4722.0, 4728.0, 4700.0, 4720.0, 4704.0, 4704.0, 4698.0, 4700.0, 4720.0, 4704.0, 4706.0, 4702.0, 4718.0, 4700.0, 4720.0, 4724.0, 4702.0, 4700.0, 4704.0, 4700.0, 4706.0, 4724.0, 4714.0, 4706.0, 4720.0, 4716.0, 4736.0, 4722.0, 4706.0, 4730.0, 4760.0],
      "WindowWidth": [18544.0, 18548.0, 18544.0, 18552.0, 18512.0, 18520.0, 18518.0, 18514.0, 18544.0, 18544.0, 18544.0, 18544.0, 18550.0, 18520.0, 18510.0, 18518.0, 18546.0, 18512.0, 18546.0, 18578.0, 18542.0, 18544.0, 18518.0, 18512.0, 18512.0, 18514.0, 18516.0, 18516.0, 18508.0, 18580.0, 18580.0, 18542.0, 18510.0, 18512.0, 18508.0, 18502.0, 18516.0, 18574.0, 18584.0, 18616.0, 18546.0, 18510.0, 18516.0, 18514.0, 18516.0, 18514.0, 18516.0, 18516.0, 18516.0, 18510.0, 18548.0, 18576.0, 18574.0, 18512.0, 18514.0, 18516.0, 18516.0, 18514.0, 18512.0, 18546.0, 18518.0, 18512.0, 18546.0, 18576.0, 18544.0, 18518.0, 18510.0, 18546.0, 18520.0, 18518.0, 18542.0, 18542.0, 18512.0, 18512.0, 18520.0, 18544.0, 18508.0, 18546.0, 18510.0, 18544.0, 18576.0, 18542.0, 18540.0, 18544.0, 18514.0, 18516.0, 18508.0, 18516.0, 18512.0, 18580.0, 18580.0, 18612.0, 18578.0, 18542.0, 18520.0, 18518.0, 18512.0, 18514.0, 18516.0, 18542.0, 18544.0, 18518.0, 18540.0, 18544.0, 18520.0, 18550.0, 18516.0, 18512.0, 18516.0, 18512.0, 18520.0, 18542.0, 18512.0, 18512.0, 18514.0, 18520.0, 18514.0, 18514.0, 18518.0, 18544.0, 18516.0, 18510.0, 18544.0, 18542.0, 18546.0, 18516.0, 18512.0, 18518.0, 18514.0, 18512.0, 18506.0, 18520.0, 18542.0, 18582.0, 18580.0, 18614.0, 18542.0, 18512.0, 18518.0, 18512.0, 18518.0, 18518.0, 18520.0, 18548.0, 18520.0, 18512.0, 18516.0, 18550.0, 18548.0, 18536.0, 18542.0, 18540.0, 18512.0, 18520.0, 18512.0, 18516.0, 18514.0, 18516.0, 18516.0, 18544.0, 18548.0, 18514.0, 18544.0, 18512.0, 18514.0, 18510.0, 18510.0, 18542.0, 18518.0, 18512.0, 18514.0, 18544.0, 18514.0, 18546.0, 18548.0, 18512.0, 18512.0, 18516.0, 18514.0, 18516.0, 18546.0, 18520.0, 18514.0, 18542.0, 18516.0, 18502.0, 18512.0, 18508.0, 18558.0, 18598.0]
    },
    "slices": {}
  }
}