{
  "AcquisitionMatrixPE": 104,
  "AcquisitionNumber": 1,
  "AcquisitionTime": "10:38:40.962500",
  "BandwidthPerPixelPhaseEncode": 17.17,
  "BaseResolution": 104,
  "BodyPartExamined": "BRAIN",
  "CoilString": "HC1-7;NC1_2",
  "ConsistencyInfo": "N4_VE11C_LATEST_20160120",
  "ConversionSoftware": "dcm2niix",
  "ConversionSoftwareVersion": "v1.0.20190902",
  "DerivedVendorReportedEchoSpacing": 0.000560011,
  "DeviceSerialNumber": "167006",
  "DwellTime": 2.1e-06,
  "EchoTime": 0.037,
  "EchoTrainLength": 104,
  "EffectiveEchoSpacing": 0.000560011,
  "FlipAngle": 52,
  "ImageComments": "Unaliased_MB4_PE3_LB",
  "ImageOrientationPatientDICOM": [0.999669, 0.00619132, 0.024973, 0.00732807, 0.8619, -0.507025],
  "ImageType": [
    "ORIGINAL",
    "PRIMARY",
    "P",
    "MB",
    "ND",
    "MOSAIC"
],
  "ImagingFrequency": 123.259,
  "InPlanePhaseEncodingDirectionDICOM": "COL",
  "InstitutionAddress": "Chemin_Queen-Mary_4565_Montreal_District_CA_H3W_1W5",
  "InstitutionName": "IUGM",
  "InstitutionalDepartmentName": "Department",
  "MRAcquisitionType": "2D",
  "MagneticFieldStrength": 3,
  "Manufacturer": "Siemens",
  "ManufacturersModelName": "Prisma_fit",
  "Modality": "MR",
  "MultibandAccelerationFactor": 4,
  "PartialFourier": 1,
  "PatientPosition": "HFS",
  "PercentPhaseFOV": 100,
  "PhaseEncodingDirection": "j",
  "PhaseEncodingSteps": 104,
  "PhaseResolution": 1,
  "PixelBandwidth": 2290,
  "ProcedureStepDescription": "memory_things",
  "ProtocolName": "func_task-things_run-1",
  "PulseSequenceDetails": "%CustomerSeq%_cmrr_mbep2d_bold",
  "ReceiveCoilActiveElements": "HC1-7;NC1,2",
  "ReceiveCoilName": "HeadNeck_64",
  "ReconMatrixPE": 104,
  "RepetitionTime": 1.49,
  "SAR": 0.0661102,
  "ScanOptions": "FS",
  "ScanningSequence": "EP",
  "SequenceName": "epfid2d1_104",
  "SequenceVariant": "SK_SS",
  "SeriesDescription": "func_task-things_run-1",
  "SeriesNumber": 11,
  "ShimSetting": [617, -7183, -8828, 339, -16, -100, -48, -27],
  "SliceThickness": 2,
  "SliceTiming": [0, 0.7825, 0.0975, 0.88, 0.195, 0.98, 0.2925, 1.0775, 0.39, 1.175, 0.49, 1.2725, 0.5875, 1.37, 0.685, 0, 0.7825, 0.0975, 0.88, 0.195, 0.98, 0.2925, 1.0775, 0.39, 1.175, 0.49, 1.2725, 0.5875, 1.37, 0.685, 0, 0.7825, 0.0975, 0.88, 0.195, 0.98, 0.2925, 1.0775, 0.39, 1.175, 0.49, 1.2725, 0.5875, 1.37, 0.685, 0, 0.7825, 0.0975, 0.88, 0.195, 0.98, 0.2925, 1.0775, 0.39, 1.175, 0.49, 1.2725, 0.5875, 1.37, 0.685],
  "SoftwareVersions": "syngo_MR_E11",
  "SpacingBetweenSlices": 2,
  "StationName": "MRC35049",
  "TaskName": "things",
  "TotalReadoutTime": 0.0576811,
  "TxRefAmp": 318.547,
  "WipMemBlock": "f8667b4a-6e31-4666-b79a-309fba446b58||Sequence: R016 ve11c/master r/e634e98; Dec 19 2017 11:00:25 by eja",
  "dcmmeta_affine": [
    [-1.999337911605835, 0.014656138606369495, 0.04932680353522301, 105.61510467529297],
    [-0.012382639572024345, 1.7238004207611084, -1.014080286026001, -50.965118408203125],
    [0.04994603246450424, 1.014050006866455, 1.7231390476226807, -76.34721374511719],
    [0.0, 0.0, 0.0, 1.0]
],
  "dcmmeta_reorient_transform": [
    [0.0, -1.0, 0.0, 103.0],
    [1.0, 0.0, 0.0, 0.0],
    [0.0, 0.0, 1.0, 0.0],
    [0.0, 0.0, 0.0, 1.0]
],
  "dcmmeta_shape": [104, 104, 60, 190],
  "dcmmeta_slice_dim": 2,
  "dcmmeta_version": 0.6,
  "global": {
    "const": {
      "AcquisitionMatrix": [104, 0, 0, 104],
      "AngioFlag": "N",
      "BitsAllocated": 16,
      "BitsStored": 16,
      "BodyPartExamined": "BRAIN",
      "Columns": 832,
      "EchoNumbers": 1,
      "EchoTime": 37.0,
      "EchoTrainLength": 104,
      "FlipAngle": 52.0,
      "HighBit": 15,
      "ImageOrientationPatient": [0.99966895321072, 0.00619131972703, 0.02497301637007, 0.00732806915198, 0.86190021127593, -0.5070249749322],
      "ImagePositionPatient": [-840.21852053438, -758.55695955008, 379.03375364785],
      "ImageType": [
        "ORIGINAL",
        "PRIMARY",
        "P",
        "MB",
        "ND",
        "MOSAIC"
],
      "ImagedNucleus": "1H",
      "ImagingFrequency": 123.258907,
      "InPlanePhaseEncodingDirection": "COL",
      "LargestImagePixelValue": 4095,
      "MRAcquisitionType": "2D",
      "MagneticFieldStrength": 3.0,
      "Manufacturer": "SIEMENS",
      "ManufacturerModelName": "Prisma_fit",
      "Modality": "MR",
      "NumberOfAverages": 1.0,
      "NumberOfPhaseEncodingSteps": 104,
      "PercentPhaseFieldOfView": 100.0,
      "PercentSampling": 100.0,
      "PerformedProcedureStepStartTime": "101252.185000",
      "PhotometricInterpretation": "MONOCHROME2",
      "PixelBandwidth": 2290.0,
      "PixelRepresentation": 0,
      "PixelSpacing": [2.0, 2.0],
      "ProtocolName": "func_task-things_run-1",
      "RepetitionTime": 1490.0,
      "RescaleIntercept": -4096.0,
      "RescaleSlope": 2.0,
      "RescaleType": "US",
      "Rows": 832,
      "SAR": 0.0661101696123,
      "SamplesPerPixel": 1,
      "ScanOptions": "FS",
      "ScanningSequence": "EP",
      "SequenceName": "epfid2d1_104",
      "SequenceVariant": [
        "SK",
        "SS"
],
      "SeriesDescription": "func_task-things_run-1",
      "SeriesNumber": 11,
      "SeriesTime": "104011.145000",
      "SliceLocation": -37.33224635277,
      "SliceThickness": 2.0,
      "SmallestImagePixelValue": 0,
      "SoftwareVersions": "syngo MR E11",
      "SpacingBetweenSlices": 2.000000061533,
      "SpecificCharacterSet": "ISO_IR 100",
      "StudyID": "1",
      "StudyTime": "101252.115000",
      "TransmitCoilName": "Body",
      "VariableFlipAngleFlag": "N",
      "WindowCenterWidthExplanation": "Algo1",
      "dBdt": 0.0},
    "slices": {}
  },
  "time": {
    "samples": {
      "AcquisitionNumber": [1, 2, 3, 4, 5, 6, 7, 8, 9, 10, 11, 12, 13, 14, 15, 16, 17, 18, 19, 20, 21, 22, 23, 24, 25, 26, 27, 28, 29, 30, 31, 32, 33, 34, 35, 36, 37, 38, 39, 40, 41, 42, 43, 44, 45, 46, 47, 48, 49, 50, 51, 52, 53, 54, 55, 56, 57, 58, 59, 60, 61, 62, 63, 64, 65, 66, 67, 68, 69, 70, 71, 72, 73, 74, 75, 76, 77, 78, 79, 80, 81, 82, 83, 84, 85, 86, 87, 88, 89, 90, 91, 92, 93, 94, 95, 96, 97, 98, 99, 100, 101, 102, 103, 104, 105, 106, 107, 108, 109, 110, 111, 112, 113, 114, 115, 116, 117, 118, 119, 120, 121, 122, 123, 124, 125, 126, 127, 128, 129, 130, 131, 132, 133, 134, 135, 136, 137, 138, 139, 140, 141, 142, 143, 144, 145, 146, 147, 148, 149, 150, 151, 152, 153, 154, 155, 156, 157, 158, 159, 160, 161, 162, 163, 164, 165, 166, 167, 168, 169, 170, 171, 172, 173, 174, 175, 176, 177, 178, 179, 180, 181, 182, 183, 184, 185, 186, 187, 188, 189, 190],
      "AcquisitionTime": ["103840.962500", "103842.452500", "103843.942500", "103845.432500", "103846.922500", "103848.412500", "103849.902500", "103851.392500", "103852.882500", "103854.372500", "103855.862500", "103857.352500", "103858.842500", "103900.332500", "103901.822500", "103903.312500", "103904.802500", "103906.292500", "103907.782500", "103909.272500", "103910.762500", "103912.252500", "103913.742500", "103915.232500", "103916.722500", "103918.212500", "103919.702500", "103921.192500", "103922.682500", "103924.172500", "103925.662500", "103927.152500", "103928.642500", "103930.132500", "103931.622500", "103933.112500", "103934.602500", "103936.092500", "103937.582500", "103939.072500", "103940.562500", "103942.052500", "103943.542500", "103945.032500", "103946.522500", "103948.012500", "103949.502500", "103950.992500", "103952.482500", "103953.972500", "103955.462500", "103956.952500", "103958.442500", "103959.932500", "104001.422500", "104002.912500", "104004.402500", "104005.892500", "104007.382500", "104008.872500", "104010.362500", "104011.852500", "104013.342500", "104014.832500", "104016.322500", "104017.812500", "104019.302500", "104020.792500", "104022.282500", "104023.772500", "104025.262500", "104026.752500", "104028.242500", "104029.732500", "104031.222500", "104032.712500", "104034.202500", "104035.692500", "104037.182500", "104038.672500", "104040.162500", "104041.652500", "104043.142500", "104044.632500", "104046.122500", "104047.612500", "104049.102500", "104050.592500", "104052.082500", "104053.572500", "104055.062500", "104056.552500", "104058.042500", "104059.532500", "104101.022500", "104102.512500", "104104.002500", "104105.492500", "104106.982500", "104108.472500", "104109.962500", "104111.452500", "104112.942500", "104114.432500", "104115.922500", "104117.412500", "104118.902500", "104120.392500", "104121.882500", "104123.372500", "104124.862500", "104126.352500", "104127.842500", "104129.332500", "104130.822500", "104132.312500", "104133.802500", "104135.292500", "104136.782500", "104138.272500", "104139.762500", "104141.252500", "104142.742500", "104144.232500", "104145.722500", "104147.212500", "104148.702500", "104150.192500", "104151.682500", "104153.172500", "104154.662500", "104156.152500", "104157.642500", "104159.132500", "104200.622500", "104202.112500", "104203.602500", "104205.092500", "104206.582500", "104208.072500", "104209.562500", "104211.052500", "104212.542500", "104214.032500", "104215.522500", "104217.012500", "104218.502500", "104219.992500", "104221.482500", "104222.972500", "104224.462500", "104225.952500", "104227.442500", "104228.932500", "104230.422500", "104231.912500", "104233.402500", "104234.892500", "104236.382500", "104237.872500", "104239.362500", "104240.852500", "104242.342500", "104243.832500", "104245.322500", "104246.812500", "104248.302500", "104249.792500", "104251.282500", "104252.772500", "104254.262500", "104255.752500", "104257.242500", "104258.732500", "104300.222500", "104301.712500", "104303.202500", "104304.692500", "104306.182500", "104307.672500", "104309.162500", "104310.652500", "104312.142500", "104313.632500", "104315.122500", "104316.612500", "104318.102500", "104319.592500", "104321.082500", "104322.572500"],
      "ContentTime": ["104011.147000", "104011.150000", "104011.153000", "104011.155000", "104011.158000", "104011.160000", "104011.163000", "104011.165000", "104011.168000", "104011.170000", "104011.173000", "104011.175000", "104011.178000", "104011.180000", "104011.183000", "104011.185000", "104011.188000", "104011.190000", "104011.193000", "104011.195000", "104011.198000", "104011.200000", "104011.203000", "104011.205000", "104011.208000", "104011.210000", "104011.213000", "104011.215000", "104011.218000", "104011.220000", "104011.223000", "104011.225000", "104011.228000", "104011.230000", "104011.233000", "104011.235000", "104011.238000", "104011.240000", "104031.018000", "104031.021000", "104031.023000", "104031.026000", "104031.028000", "104031.031000", "104031.033000", "104031.036000", "104031.038000", "104031.041000", "104031.043000", "104031.046000", "104031.048000", "104031.051000", "104031.053000", "104031.056000", "104031.059000", "104031.061000", "104031.064000", "104031.066000", "104051.017000", "104051.020000", "104051.022000", "104051.025000", "104051.027000", "104051.030000", "104051.032000", "104051.035000", "104051.037000", "104051.040000", "104051.042000", "104051.045000", "104051.047000", "104051.050000", "104051.052000", "104051.055000", "104051.057000", "104051.060000", "104051.062000", "104051.065000", "104111.022000", "104111.025000", "104111.027000", "104111.030000", "104111.033000", "104111.035000", "104111.038000", "104111.040000", "104111.043000", "104111.045000", "104111.048000", "104111.050000", "104111.053000", "104111.055000", "104111.058000", "104111.060000", "104111.063000", "104111.065000", "104111.068000", "104111.070000", "104151.056000", "104151.059000", "104151.062000", "104151.064000", "104151.067000", "104151.069000", "104151.072000", "104151.074000", "104151.077000", "104151.079000", "104151.082000", "104151.084000", "104151.087000", "104151.089000", "104151.092000", "104151.094000", "104151.097000", "104151.099000", "104151.102000", "104151.104000", "104151.107000", "104151.109000", "104151.112000", "104151.114000", "104151.117000", "104151.119000", "104151.122000", "104151.124000", "104151.127000", "104231.065000", "104231.068000", "104231.070000", "104231.073000", "104231.075000", "104231.078000", "104231.080000", "104231.083000", "104231.085000", "104231.088000", "104231.090000", "104231.093000", "104231.095000", "104231.098000", "104231.100000", "104231.103000", "104231.105000", "104231.108000", "104231.110000", "104231.113000", "104231.115000", "104231.118000", "104231.120000", "104231.123000", "104231.125000", "104231.128000", "104231.130000", "104311.057000", "104311.061000", "104311.064000", "104311.067000", "104311.070000", "104311.072000", "104311.075000", "104311.078000", "104311.080000", "104311.083000", "104311.086000", "104311.088000", "104311.091000", "104311.093000", "104311.096000", "104311.098000", "104311.101000", "104311.103000", "104311.106000", "104311.108000", "104311.111000", "104311.113000", "104311.116000", "104311.118000", "104311.121000", "104311.123000", "104324.602000", "104324.605000", "104324.608000", "104324.610000", "104324.613000", "104324.615000", "104324.618000", "104324.620000", "104324.623000", "104324.626000"],
      "InstanceCreationTime": ["104011.147000", "104011.150000", "104011.153000", "104011.155000", "104011.158000", "104011.160000", "104011.163000", "104011.165000", "104011.168000", "104011.170000", "104011.173000", "104011.175000", "104011.178000", "104011.180000", "104011.183000", "104011.185000", "104011.188000", "104011.190000", "104011.193000", "104011.195000", "104011.198000", "104011.200000", "104011.203000", "104011.205000", "104011.208000", "104011.210000", "104011.213000", "104011.215000", "104011.218000", "104011.220000", "104011.223000", "104011.225000", "104011.228000", "104011.230000", "104011.233000", "104011.235000", "104011.238000", "104011.240000", "104031.018000", "104031.021000", "104031.023000", "104031.026000", "104031.028000", "104031.031000", "104031.033000", "104031.036000", "104031.038000", "104031.041000", "104031.043000", "104031.046000", "104031.048000", "104031.051000", "104031.053000", "104031.056000", "104031.059000", "104031.061000", "104031.064000", "104031.066000", "104051.017000", "104051.020000", "104051.022000", "104051.025000", "104051.027000", "104051.030000", "104051.032000", "104051.035000", "104051.037000", "104051.040000", "104051.042000", "104051.045000", "104051.047000", "104051.050000", "104051.052000", "104051.055000", "104051.057000", "104051.060000", "104051.062000", "104051.065000", "104111.022000", "104111.025000", "104111.027000", "104111.030000", "104111.033000", "104111.035000", "104111.038000", "104111.040000", "104111.043000", "104111.045000", "104111.048000", "104111.050000", "104111.053000", "104111.055000", "104111.058000", "104111.060000", "104111.063000", "104111.065000", "104111.068000", "104111.070000", "104151.056000", "104151.059000", "104151.062000", "104151.064000", "104151.067000", "104151.069000", "104151.072000", "104151.074000", "104151.077000", "104151.079000", "104151.082000", "104151.084000", "104151.087000", "104151.089000", "104151.092000", "104151.094000", "104151.097000", "104151.099000", "104151.102000", "104151.104000", "104151.107000", "104151.109000", "104151.112000", "104151.114000", "104151.117000", "104151.119000", "104151.122000", "104151.124000", "104151.127000", "104231.065000", "104231.068000", "104231.070000", "104231.073000", "104231.075000", "104231.078000", "104231.080000", "104231.083000", "104231.085000", "104231.088000", "104231.090000", "104231.093000", "104231.095000", "104231.098000", "104231.100000", "104231.103000", "104231.105000", "104231.108000", "104231.110000", "104231.113000", "104231.115000", "104231.118000", "104231.120000", "104231.123000", "104231.125000", "104231.128000", "104231.130000", "104311.057000", "104311.061000", "104311.064000", "104311.067000", "104311.070000", "104311.072000", "104311.075000", "104311.078000", "104311.080000", "104311.083000", "104311.086000", "104311.088000", "104311.091000", "104311.093000", "104311.096000", "104311.098000", "104311.101000", "104311.103000", "104311.106000", "104311.108000", "104311.111000", "104311.113000", "104311.116000", "104311.118000", "104311.121000", "104311.123000", "104324.602000", "104324.605000", "104324.608000", "104324.610000", "104324.613000", "104324.615000", "104324.618000", "104324.620000", "104324.623000", "104324.626000"],
      "InstanceNumber": [1, 2, 3, 4, 5, 6, 7, 8, 9, 10, 11, 12, 13, 14, 15, 16, 17, 18, 19, 20, 21, 22, 23, 24, 25, 26, 27, 28, 29, 30, 31, 32, 33, 34, 35, 36, 37, 38, 39, 40, 41, 42, 43, 44, 45, 46, 47, 48, 49, 50, 51, 52, 53, 54, 55, 56, 57, 58, 59, 60, 61, 62, 63, 64, 65, 66, 67, 68, 69, 70, 71, 72, 73, 74, 75, 76, 77, 78, 79, 80, 81, 82, 83, 84, 85, 86, 87, 88, 89, 90, 91, 92, 93, 94, 95, 96, 97, 98, 99, 100, 101, 102, 103, 104, 105, 106, 107, 108, 109, 110, 111, 112, 113, 114, 115, 116, 117, 118, 119, 120, 121, 122, 123, 124, 125, 126, 127, 128, 129, 130, 131, 132, 133, 134, 135, 136, 137, 138, 139, 140, 141, 142, 143, 144, 145, 146, 147, 148, 149, 150, 151, 152, 153, 154, 155, 156, 157, 158, 159, 160, 161, 162, 163, 164, 165, 166, 167, 168, 169, 170, 171, 172, 173, 174, 175, 176, 177, 178, 179, 180, 181, 182, 183, 184, 185, 186, 187, 188, 189, 190],
      "WindowCenter": [4772.0, 4758.0, 4736.0, 4736.0, 4764.0, 4776.0, 4800.0, 4804.0, 4774.0, 4776.0, 4772.0, 4768.0, 4766.0, 4770.0, 4768.0, 4770.0, 4808.0, 4812.0, 4778.0, 4760.0, 4732.0, 4728.0, 4760.0, 4774.0, 4776.0, 4804.0, 4806.0, 4802.0, 4772.0, 4772.0, 4766.0, 4770.0, 4776.0, 4774.0, 4768.0, 4778.0, 4772.0, 4800.0, 4774.0, 4774.0, 4772.0, 4768.0, 4766.0, 4764.0, 4774.0, 4778.0, 4810.0, 4802.0, 4800.0, 4800.0, 4766.0, 4766.0, 4762.0, 4768.0, 4770.0, 4800.0, 4776.0, 4804.0, 4774.0, 4802.0, 4772.0, 4776.0, 4772.0, 4766.0, 4772.0, 4764.0, 4776.0, 4774.0, 4778.0, 4776.0, 4804.0, 4804.0, 4800.0, 4778.0, 4768.0, 4772.0, 4768.0, 4770.0, 4770.0, 4802.0, 4776.0, 4804.0, 4804.0, 4772.0, 4772.0, 4764.0, 4772.0, 4766.0, 4800.0, 4776.0, 4798.0, 4804.0, 4772.0, 4776.0, 4770.0, 4798.0, 4772.0, 4776.0, 4776.0, 4776.0, 4772.0, 4800.0, 4774.0, 4776.0, 4774.0, 4776.0, 4800.0, 4772.0, 4772.0, 4772.0, 4772.0, 4770.0, 4772.0, 4776.0, 4774.0, 4800.0, 4774.0, 4772.0, 4768.0, 4774.0, 4774.0, 4778.0, 4776.0, 4806.0, 4776.0, 4774.0, 4770.0, 4740.0, 4770.0, 4768.0, 4806.0, 4798.0, 4806.0, 4776.0, 4774.0, 4800.0, 4774.0, 4774.0, 4768.0, 4776.0, 4778.0, 4776.0, 4812.0, 4838.0, 4806.0, 4768.0, 4724.0, 4732.0, 4766.0, 4770.0, 4778.0, 4810.0, 4806.0, 4806.0, 4780.0, 4772.0, 4770.0, 4768.0, 4766.0, 4772.0, 4776.0, 4804.0, 4802.0, 4806.0, 4804.0, 4798.0, 4776.0, 4766.0, 4740.0, 4764.0, 4768.0, 4774.0, 4798.0, 4812.0, 4804.0, 4812.0, 4804.0, 4776.0, 4772.0, 4762.0, 4770.0, 4770.0, 4774.0, 4772.0, 4774.0, 4808.0, 4812.0, 4804.0, 4804.0, 4774.0],
      "WindowWidth": [18526.0, 18540.0, 18512.0, 18510.0, 18530.0, 18530.0, 18548.0, 18544.0, 18526.0, 18522.0, 18536.0, 18524.0, 18538.0, 18532.0, 18528.0, 18540.0, 18538.0, 18536.0, 18518.0, 18538.0, 18506.0, 18508.0, 18538.0, 18524.0, 18524.0, 18556.0, 18544.0, 18544.0, 18530.0, 18528.0, 18536.0, 18534.0, 18528.0, 18528.0, 18532.0, 18528.0, 18522.0, 18542.0, 18526.0, 18524.0, 18532.0, 18536.0, 18532.0, 18536.0, 18534.0, 18524.0, 18534.0, 18546.0, 18548.0, 18560.0, 18532.0, 18540.0, 18536.0, 18536.0, 18530.0, 18542.0, 18528.0, 18548.0, 18524.0, 18550.0, 18526.0, 18526.0, 18524.0, 18536.0, 18528.0, 18534.0, 18526.0, 18532.0, 18520.0, 18536.0, 18552.0, 18554.0, 18558.0, 18518.0, 18534.0, 18524.0, 18532.0, 18534.0, 18534.0, 18552.0, 18526.0, 18538.0, 18542.0, 18526.0, 18536.0, 18534.0, 18530.0, 18528.0, 18544.0, 18526.0, 18550.0, 18548.0, 18534.0, 18530.0, 18530.0, 18550.0, 18530.0, 18520.0, 18528.0, 18524.0, 18530.0, 18556.0, 18532.0, 18514.0, 18524.0, 18520.0, 18542.0, 18530.0, 18516.0, 18526.0, 18532.0, 18536.0, 18524.0, 18524.0, 18526.0, 18542.0, 18524.0, 18526.0, 18526.0, 18520.0, 18528.0, 18516.0, 18528.0, 18536.0, 18514.0, 18528.0, 18536.0, 18500.0, 18532.0, 18524.0, 18544.0, 18552.0, 18546.0, 18518.0, 18538.0, 18554.0, 18536.0, 18528.0, 18534.0, 18520.0, 18524.0, 18526.0, 18534.0, 18550.0, 18538.0, 18538.0, 18514.0, 18510.0, 18536.0, 18534.0, 18522.0, 18534.0, 18534.0, 18542.0, 18524.0, 18532.0, 18532.0, 18538.0, 18532.0, 18526.0, 18534.0, 18538.0, 18548.0, 18524.0, 18544.0, 18560.0, 18522.0, 18538.0, 18500.0, 18536.0, 18530.0, 18524.0, 18544.0, 18542.0, 18540.0, 18534.0, 18548.0, 18526.0, 18528.0, 18530.0, 18536.0, 18532.0, 18520.0, 18524.0, 18522.0, 18546.0, 18532.0, 18540.0, 18528.0, 18528.0]
    },
    "slices": {}
  }
}