{
  "AcquisitionMatrixPE": 104,
  "AcquisitionNumber": 1,
  "AcquisitionTime": "11:04:1.537500",
  "BandwidthPerPixelPhaseEncode": 17.17,
  "BaseResolution": 104,
  "BodyPartExamined": "BRAIN",
  "CoilString": "HC1-7;NC1_2",
  "ConsistencyInfo": "N4_VE11C_LATEST_20160120",
  "ConversionSoftware": "dcm2niix",
  "ConversionSoftwareVersion": "v1.0.20190902",
  "DerivedVendorReportedEchoSpacing": 0.000560011,
  "DeviceSerialNumber": "167006",
  "DwellTime": 2.1e-06,
  "EchoTime": 0.037,
  "EchoTrainLength": 104,
  "EffectiveEchoSpacing": 0.000560011,
  "FlipAngle": 52,
  "ImageComments": "Unaliased_MB4_PE3_LB",
  "ImageOrientationPatientDICOM": [0.999669, 0.00619132, 0.024973, 0.00732807, 0.8619, -0.507025],
  "ImageType": [
    "ORIGINAL",
    "PRIMARY",
    "P",
    "MB",
    "ND",
    "MOSAIC"
],
  "ImagingFrequency": 123.259,
  "InPlanePhaseEncodingDirectionDICOM": "COL",
  "InstitutionAddress": "Chemin_Queen-Mary_4565_Montreal_District_CA_H3W_1W5",
  "InstitutionName": "IUGM",
  "InstitutionalDepartmentName": "Department",
  "MRAcquisitionType": "2D",
  "MagneticFieldStrength": 3,
  "Manufacturer": "Siemens",
  "ManufacturersModelName": "Prisma_fit",
  "Modality": "MR",
  "MultibandAccelerationFactor": 4,
  "PartialFourier": 1,
  "PatientPosition": "HFS",
  "PercentPhaseFOV": 100,
  "PhaseEncodingDirection": "j",
  "PhaseEncodingSteps": 104,
  "PhaseResolution": 1,
  "PixelBandwidth": 2290,
  "ProcedureStepDescription": "memory_things",
  "ProtocolName": "func_task-things_run-5",
  "PulseSequenceDetails": "%CustomerSeq%_cmrr_mbep2d_bold",
  "ReceiveCoilActiveElements": "HC1-7;NC1,2",
  "ReceiveCoilName": "HeadNeck_64",
  "ReconMatrixPE": 104,
  "RepetitionTime": 1.49,
  "SAR": 0.0661102,
  "ScanOptions": "FS",
  "ScanningSequence": "EP",
  "SequenceName": "epfid2d1_104",
  "SequenceVariant": "SK_SS",
  "SeriesDescription": "func_task-things_run-5",
  "SeriesNumber": 23,
  "ShimSetting": [617, -7183, -8828, 339, -16, -100, -48, -27],
  "SliceThickness": 2,
  "SliceTiming": [0, 0.785, 0.0975, 0.8825, 0.1975, 0.98, 0.295, 1.0775, 0.3925, 1.175, 0.49, 1.275, 0.5875, 1.3725, 0.6875, 0, 0.785, 0.0975, 0.8825, 0.1975, 0.98, 0.295, 1.0775, 0.3925, 1.175, 0.49, 1.275, 0.5875, 1.3725, 0.6875, 0, 0.785, 0.0975, 0.8825, 0.1975, 0.98, 0.295, 1.0775, 0.3925, 1.175, 0.49, 1.275, 0.5875, 1.3725, 0.6875, 0, 0.785, 0.0975, 0.8825, 0.1975, 0.98, 0.295, 1.0775, 0.3925, 1.175, 0.49, 1.275, 0.5875, 1.3725, 0.6875],
  "SoftwareVersions": "syngo_MR_E11",
  "SpacingBetweenSlices": 2,
  "StationName": "MRC35049",
  "TaskName": "things",
  "TotalReadoutTime": 0.0576811,
  "TxRefAmp": 318.547,
  "WipMemBlock": "3dc13430-75ec-4a9b-aa3e-f5a418c432eb||Sequence: R016 ve11c/master r/e634e98; Dec 19 2017 11:00:25 by eja",
  "dcmmeta_affine": [
    [-1.999337911605835, 0.014656138606369495, 0.04932680353522301, 105.61510467529297],
    [-0.012382639572024345, 1.7238004207611084, -1.014080286026001, -50.965118408203125],
    [0.04994603246450424, 1.014050006866455, 1.7231390476226807, -76.34721374511719],
    [0.0, 0.0, 0.0, 1.0]
],
  "dcmmeta_reorient_transform": [
    [0.0, -1.0, 0.0, 103.0],
    [1.0, 0.0, 0.0, 0.0],
    [0.0, 0.0, 1.0, 0.0],
    [0.0, 0.0, 0.0, 1.0]
],
  "dcmmeta_shape": [104, 104, 60, 190],
  "dcmmeta_slice_dim": 2,
  "dcmmeta_version": 0.6,
  "global": {
    "const": {
      "AcquisitionMatrix": [104, 0, 0, 104],
      "AngioFlag": "N",
      "BitsAllocated": 16,
      "BitsStored": 16,
      "BodyPartExamined": "BRAIN",
      "Columns": 832,
      "EchoNumbers": 1,
      "EchoTime": 37.0,
      "EchoTrainLength": 104,
      "FlipAngle": 52.0,
      "HighBit": 15,
      "ImageOrientationPatient": [0.99966895321072, 0.00619131972703, 0.02497301637007, 0.00732806915198, 0.86190021127593, -0.5070249749322],
      "ImagePositionPatient": [-840.21852053438, -758.55695955008, 379.03375364785],
      "ImageType": [
        "ORIGINAL",
        "PRIMARY",
        "P",
        "MB",
        "ND",
        "MOSAIC"
],
      "ImagedNucleus": "1H",
      "ImagingFrequency": 123.258921,
      "InPlanePhaseEncodingDirection": "COL",
      "LargestImagePixelValue": 4095,
      "MRAcquisitionType": "2D",
      "MagneticFieldStrength": 3.0,
      "Manufacturer": "SIEMENS",
      "ManufacturerModelName": "Prisma_fit",
      "Modality": "MR",
      "NumberOfAverages": 1.0,
      "NumberOfPhaseEncodingSteps": 104,
      "PercentPhaseFieldOfView": 100.0,
      "PercentSampling": 100.0,
      "PerformedProcedureStepStartTime": "101252.185000",
      "PhotometricInterpretation": "MONOCHROME2",
      "PixelBandwidth": 2290.0,
      "PixelRepresentation": 0,
      "PixelSpacing": [2.0, 2.0],
      "ProtocolName": "func_task-things_run-5",
      "RepetitionTime": 1490.0,
      "RescaleIntercept": -4096.0,
      "RescaleSlope": 2.0,
      "RescaleType": "US",
      "Rows": 832,
      "SAR": 0.0661101696123,
      "SamplesPerPixel": 1,
      "ScanOptions": "FS",
      "ScanningSequence": "EP",
      "SequenceName": "epfid2d1_104",
      "SequenceVariant": [
        "SK",
        "SS"
],
      "SeriesDescription": "func_task-things_run-5",
      "SeriesNumber": 23,
      "SeriesTime": "110507.330000",
      "SliceLocation": -37.33224635277,
      "SliceThickness": 2.0,
      "SmallestImagePixelValue": 0,
      "SoftwareVersions": "syngo MR E11",
      "SpacingBetweenSlices": 2.000000061533,
      "SpecificCharacterSet": "ISO_IR 100",
      "StudyID": "1",
      "StudyTime": "101252.115000",
      "TransmitCoilName": "Body",
      "VariableFlipAngleFlag": "N",
      "WindowCenterWidthExplanation": "Algo1",
      "dBdt": 0.0},
    "slices": {}
  },
  "time": {
    "samples": {
      "AcquisitionNumber": [1, 2, 3, 4, 5, 6, 7, 8, 9, 10, 11, 12, 13, 14, 15, 16, 17, 18, 19, 20, 21, 22, 23, 24, 25, 26, 27, 28, 29, 30, 31, 32, 33, 34, 35, 36, 37, 38, 39, 40, 41, 42, 43, 44, 45, 46, 47, 48, 49, 50, 51, 52, 53, 54, 55, 56, 57, 58, 59, 60, 61, 62, 63, 64, 65, 66, 67, 68, 69, 70, 71, 72, 73, 74, 75, 76, 77, 78, 79, 80, 81, 82, 83, 84, 85, 86, 87, 88, 89, 90, 91, 92, 93, 94, 95, 96, 97, 98, 99, 100, 101, 102, 103, 104, 105, 106, 107, 108, 109, 110, 111, 112, 113, 114, 115, 116, 117, 118, 119, 120, 121, 122, 123, 124, 125, 126, 127, 128, 129, 130, 131, 132, 133, 134, 135, 136, 137, 138, 139, 140, 141, 142, 143, 144, 145, 146, 147, 148, 149, 150, 151, 152, 153, 154, 155, 156, 157, 158, 159, 160, 161, 162, 163, 164, 165, 166, 167, 168, 169, 170, 171, 172, 173, 174, 175, 176, 177, 178, 179, 180, 181, 182, 183, 184, 185, 186, 187, 188, 189, 190],
      "AcquisitionTime": ["110401.537500", "110403.027500", "110404.517500", "110406.007500", "110407.497500", "110408.987500", "110410.477500", "110411.967500", "110413.457500", "110414.947500", "110416.437500", "110417.927500", "110419.417500", "110420.907500", "110422.397500", "110423.887500", "110425.377500", "110426.867500", "110428.357500", "110429.847500", "110431.337500", "110432.827500", "110434.317500", "110435.807500", "110437.297500", "110438.787500", "110440.277500", "110441.767500", "110443.257500", "110444.747500", "110446.237500", "110447.727500", "110449.217500", "110450.707500", "110452.197500", "110453.687500", "110455.177500", "110456.667500", "110458.157500", "110459.647500", "110501.137500", "110502.627500", "110504.117500", "110505.607500", "110507.097500", "110508.587500", "110510.077500", "110511.567500", "110513.057500", "110514.547500", "110516.037500", "110517.527500", "110519.017500", "110520.507500", "110521.997500", "110523.487500", "110524.977500", "110526.467500", "110527.957500", "110529.447500", "110530.937500", "110532.427500", "110533.917500", "110535.407500", "110536.897500", "110538.387500", "110539.877500", "110541.367500", "110542.857500", "110544.347500", "110545.837500", "110547.327500", "110548.817500", "110550.307500", "110551.797500", "110553.287500", "110554.777500", "110556.267500", "110557.757500", "110559.247500", "110600.737500", "110602.227500", "110603.717500", "110605.207500", "110606.697500", "110608.187500", "110609.677500", "110611.167500", "110612.657500", "110614.147500", "110615.637500", "110617.127500", "110618.617500", "110620.107500", "110621.597500", "110623.087500", "110624.577500", "110626.067500", "110627.557500", "110629.047500", "110630.537500", "110632.027500", "110633.517500", "110635.007500", "110636.497500", "110637.987500", "110639.477500", "110640.967500", "110642.457500", "110643.947500", "110645.437500", "110646.927500", "110648.417500", "110649.907500", "110651.397500", "110652.887500", "110654.377500", "110655.867500", "110657.357500", "110658.847500", "110700.337500", "110701.827500", "110703.317500", "110704.807500", "110706.297500", "110707.787500", "110709.277500", "110710.767500", "110712.257500", "110713.747500", "110715.237500", "110716.727500", "110718.217500", "110719.707500", "110721.197500", "110722.687500", "110724.177500", "110725.667500", "110727.157500", "110728.647500", "110730.137500", "110731.627500", "110733.117500", "110734.607500", "110736.097500", "110737.587500", "110739.077500", "110740.567500", "110742.057500", "110743.547500", "110745.037500", "110746.527500", "110748.017500", "110749.507500", "110750.997500", "110752.487500", "110753.977500", "110755.467500", "110756.957500", "110758.447500", "110759.937500", "110801.427500", "110802.917500", "110804.407500", "110805.897500", "110807.387500", "110808.877500", "110810.367500", "110811.857500", "110813.347500", "110814.837500", "110816.327500", "110817.817500", "110819.307500", "110820.797500", "110822.287500", "110823.777500", "110825.267500", "110826.757500", "110828.247500", "110829.737500", "110831.227500", "110832.717500", "110834.207500", "110835.697500", "110837.187500", "110838.677500", "110840.167500", "110841.657500", "110843.147500"],
      "ContentTime": ["110507.332000", "110507.335000", "110507.338000", "110507.340000", "110507.342000", "110507.345000", "110507.347000", "110507.350000", "110507.352000", "110507.355000", "110507.357000", "110507.360000", "110527.312000", "110527.315000", "110527.318000", "110527.320000", "110527.323000", "110527.325000", "110527.328000", "110527.330000", "110527.333000", "110527.335000", "110527.346000", "110527.348000", "110527.351000", "110527.353000", "110527.374000", "110527.376000", "110527.379000", "110527.381000", "110527.384000", "110527.386000", "110547.318000", "110547.321000", "110547.324000", "110547.326000", "110547.329000", "110547.331000", "110547.334000", "110547.336000", "110547.339000", "110547.341000", "110547.344000", "110547.346000", "110547.349000", "110547.351000", "110547.354000", "110547.356000", "110547.359000", "110547.361000", "110547.364000", "110547.366000", "110607.334000", "110607.337000", "110607.339000", "110607.342000", "110607.344000", "110607.347000", "110607.349000", "110607.352000", "110607.354000", "110607.357000", "110607.359000", "110607.362000", "110607.364000", "110607.367000", "110607.369000", "110607.372000", "110607.374000", "110607.377000", "110607.379000", "110607.382000", "110627.298000", "110627.301000", "110627.303000", "110627.306000", "110627.308000", "110627.311000", "110627.313000", "110627.316000", "110627.318000", "110627.321000", "110627.323000", "110627.326000", "110627.328000", "110627.331000", "110627.333000", "110627.336000", "110627.338000", "110627.341000", "110627.343000", "110627.346000", "110627.348000", "110707.352000", "110707.355000", "110707.357000", "110707.360000", "110707.362000", "110707.365000", "110707.367000", "110707.370000", "110707.372000", "110707.375000", "110707.377000", "110707.380000", "110707.382000", "110707.385000", "110707.388000", "110707.390000", "110707.393000", "110707.395000", "110707.398000", "110707.400000", "110707.403000", "110707.405000", "110707.408000", "110707.410000", "110707.413000", "110707.415000", "110707.418000", "110707.420000", "110707.423000", "110707.425000", "110707.428000", "110747.348000", "110747.351000", "110747.353000", "110747.356000", "110747.358000", "110747.361000", "110747.363000", "110747.366000", "110747.368000", "110747.371000", "110747.373000", "110747.376000", "110747.379000", "110747.381000", "110747.384000", "110747.386000", "110747.389000", "110747.391000", "110747.394000", "110747.396000", "110747.399000", "110747.401000", "110747.404000", "110747.406000", "110747.409000", "110747.411000", "110827.328000", "110827.331000", "110827.333000", "110827.336000", "110827.338000", "110827.341000", "110827.343000", "110827.346000", "110827.348000", "110827.351000", "110827.353000", "110827.356000", "110827.358000", "110827.361000", "110827.363000", "110827.366000", "110827.368000", "110827.371000", "110827.374000", "110827.376000", "110827.379000", "110827.381000", "110827.384000", "110827.386000", "110827.389000", "110827.391000", "110827.394000", "110845.439000", "110845.442000", "110845.445000", "110845.447000", "110845.450000", "110845.452000", "110845.455000", "110845.458000", "110845.461000", "110845.464000", "110845.466000", "110845.469000", "110845.472000"],
      "InstanceCreationTime": ["110507.332000", "110507.335000", "110507.338000", "110507.340000", "110507.342000", "110507.345000", "110507.347000", "110507.350000", "110507.352000", "110507.355000", "110507.357000", "110507.360000", "110527.312000", "110527.315000", "110527.318000", "110527.320000", "110527.323000", "110527.325000", "110527.328000", "110527.330000", "110527.333000", "110527.335000", "110527.346000", "110527.348000", "110527.351000", "110527.353000", "110527.374000", "110527.376000", "110527.379000", "110527.381000", "110527.384000", "110527.386000", "110547.318000", "110547.321000", "110547.324000", "110547.326000", "110547.329000", "110547.331000", "110547.334000", "110547.336000", "110547.339000", "110547.341000", "110547.344000", "110547.346000", "110547.349000", "110547.351000", "110547.354000", "110547.356000", "110547.359000", "110547.361000", "110547.364000", "110547.366000", "110607.334000", "110607.337000", "110607.339000", "110607.342000", "110607.344000", "110607.347000", "110607.349000", "110607.352000", "110607.354000", "110607.357000", "110607.359000", "110607.362000", "110607.364000", "110607.367000", "110607.369000", "110607.372000", "110607.374000", "110607.377000", "110607.379000", "110607.382000", "110627.298000", "110627.301000", "110627.303000", "110627.306000", "110627.308000", "110627.311000", "110627.313000", "110627.316000", "110627.318000", "110627.321000", "110627.323000", "110627.326000", "110627.328000", "110627.331000", "110627.333000", "110627.336000", "110627.338000", "110627.341000", "110627.343000", "110627.346000", "110627.348000", "110707.352000", "110707.355000", "110707.357000", "110707.360000", "110707.362000", "110707.365000", "110707.367000", "110707.370000", "110707.372000", "110707.375000", "110707.377000", "110707.380000", "110707.382000", "110707.385000", "110707.388000", "110707.390000", "110707.393000", "110707.395000", "110707.398000", "110707.400000", "110707.403000", "110707.405000", "110707.408000", "110707.410000", "110707.413000", "110707.415000", "110707.418000", "110707.420000", "110707.423000", "110707.425000", "110707.428000", "110747.348000", "110747.351000", "110747.353000", "110747.356000", "110747.358000", "110747.361000", "110747.363000", "110747.366000", "110747.368000", "110747.371000", "110747.373000", "110747.376000", "110747.379000", "110747.381000", "110747.384000", "110747.386000", "110747.389000", "110747.391000", "110747.394000", "110747.396000", "110747.399000", "110747.401000", "110747.404000", "110747.406000", "110747.409000", "110747.411000", "110827.328000", "110827.331000", "110827.333000", "110827.336000", "110827.338000", "110827.341000", "110827.343000", "110827.346000", "110827.348000", "110827.351000", "110827.353000", "110827.356000", "110827.358000", "110827.361000", "110827.363000", "110827.366000", "110827.368000", "110827.371000", "110827.374000", "110827.376000", "110827.379000", "110827.381000", "110827.384000", "110827.386000", "110827.389000", "110827.391000", "110827.394000", "110845.439000", "110845.442000", "110845.445000", "110845.447000", "110845.450000", "110845.452000", "110845.455000", "110845.458000", "110845.461000", "110845.464000", "110845.466000", "110845.469000", "110845.472000"],
      "InstanceNumber": [1, 2, 3, 4, 5, 6, 7, 8, 9, 10, 11, 12, 13, 14, 15, 16, 17, 18, 19, 20, 21, 22, 23, 24, 25, 26, 27, 28, 29, 30, 31, 32, 33, 34, 35, 36, 37, 38, 39, 40, 41, 42, 43, 44, 45, 46, 47, 48, 49, 50, 51, 52, 53, 54, 55, 56, 57, 58, 59, 60, 61, 62, 63, 64, 65, 66, 67, 68, 69, 70, 71, 72, 73, 74, 75, 76, 77, 78, 79, 80, 81, 82, 83, 84, 85, 86, 87, 88, 89, 90, 91, 92, 93, 94, 95, 96, 97, 98, 99, 100, 101, 102, 103, 104, 105, 106, 107, 108, 109, 110, 111, 112, 113, 114, 115, 116, 117, 118, 119, 120, 121, 122, 123, 124, 125, 126, 127, 128, 129, 130, 131, 132, 133, 134, 135, 136, 137, 138, 139, 140, 141, 142, 143, 144, 145, 146, 147, 148, 149, 150, 151, 152, 153, 154, 155, 156, 157, 158, 159, 160, 161, 162, 163, 164, 165, 166, 167, 168, 169, 170, 171, 172, 173, 174, 175, 176, 177, 178, 179, 180, 181, 182, 183, 184, 185, 186, 187, 188, 189, 190],
      "WindowCenter": [4722.0, 4748.0, 4744.0, 4748.0, 4724.0, 4718.0, 4722.0, 4722.0, 4722.0, 4746.0, 4722.0, 4748.0, 4700.0, 4722.0, 4746.0, 4720.0, 4724.0, 4774.0, 4724.0, 4744.0, 4724.0, 4746.0, 4724.0, 4722.0, 4724.0, 4748.0, 4724.0, 4748.0, 4748.0, 4748.0, 4746.0, 4748.0, 4726.0, 4726.0, 4702.0, 4726.0, 4746.0, 4722.0, 4744.0, 4746.0, 4744.0, 4746.0, 4742.0, 4748.0, 4772.0, 4722.0, 4722.0, 4728.0, 4724.0, 4706.0, 4722.0, 4724.0, 4748.0, 4776.0, 4744.0, 4748.0, 4724.0, 4746.0, 4724.0, 4724.0, 4724.0, 4722.0, 4748.0, 4722.0, 4748.0, 4724.0, 4748.0, 4726.0, 4706.0, 4722.0, 4728.0, 4722.0, 4720.0, 4746.0, 4774.0, 4750.0, 4750.0, 4724.0, 4726.0, 4726.0, 4722.0, 4706.0, 4724.0, 4744.0, 4724.0, 4746.0, 4772.0, 4774.0, 4746.0, 4722.0, 4726.0, 4706.0, 4726.0, 4728.0, 4726.0, 4746.0, 4750.0, 4776.0, 4748.0, 4748.0, 4728.0, 4724.0, 4728.0, 4708.0, 4724.0, 4722.0, 4722.0, 4748.0, 4750.0, 4750.0, 4724.0, 4748.0, 4722.0, 4726.0, 4726.0, 4726.0, 4746.0, 4722.0, 4746.0, 4750.0, 4774.0, 4746.0, 4724.0, 4724.0, 4702.0, 4726.0, 4726.0, 4724.0, 4748.0, 4746.0, 4748.0, 4724.0, 4748.0, 4724.0, 4724.0, 4728.0, 4728.0, 4710.0, 4750.0, 4838.0, 4910.0, 4838.0, 4772.0, 4728.0, 4730.0, 4716.0, 4710.0, 4708.0, 4730.0, 4748.0, 4772.0, 4772.0, 4748.0, 4752.0, 4706.0, 4726.0, 4728.0, 4724.0, 4748.0, 4748.0, 4722.0, 4724.0, 4746.0, 4722.0, 4748.0, 4728.0, 4726.0, 4726.0, 4722.0, 4724.0, 4748.0, 4726.0, 4746.0, 4750.0, 4722.0, 4746.0, 4724.0, 4726.0, 4724.0, 4724.0, 4726.0, 4722.0, 4724.0, 4748.0, 4720.0, 4746.0, 4726.0, 4724.0, 4724.0, 4724.0],
      "WindowWidth": [18544.0, 18578.0, 18572.0, 18578.0, 18546.0, 18540.0, 18542.0, 18544.0, 18544.0, 18574.0, 18544.0, 18580.0, 18510.0, 18542.0, 18580.0, 18542.0, 18548.0, 18612.0, 18548.0, 18572.0, 18544.0, 18578.0, 18544.0, 18540.0, 18542.0, 18576.0, 18548.0, 18580.0, 18576.0, 18578.0, 18578.0, 18578.0, 18546.0, 18550.0, 18514.0, 18546.0, 18576.0, 18540.0, 18576.0, 18572.0, 18574.0, 18576.0, 18572.0, 18578.0, 18608.0, 18542.0, 18540.0, 18544.0, 18544.0, 18516.0, 18544.0, 18546.0, 18578.0, 18612.0, 18576.0, 18578.0, 18546.0, 18576.0, 18546.0, 18546.0, 18548.0, 18546.0, 18574.0, 18546.0, 18576.0, 18544.0, 18578.0, 18546.0, 18516.0, 18548.0, 18546.0, 18546.0, 18546.0, 18578.0, 18610.0, 18580.0, 18578.0, 18546.0, 18548.0, 18546.0, 18546.0, 18516.0, 18544.0, 18572.0, 18546.0, 18576.0, 18608.0, 18614.0, 18578.0, 18546.0, 18546.0, 18512.0, 18548.0, 18546.0, 18550.0, 18580.0, 18580.0, 18610.0, 18578.0, 18578.0, 18548.0, 18546.0, 18548.0, 18518.0, 18546.0, 18540.0, 18544.0, 18578.0, 18580.0, 18584.0, 18548.0, 18578.0, 18542.0, 18550.0, 18546.0, 18544.0, 18580.0, 18542.0, 18578.0, 18582.0, 18608.0, 18578.0, 18550.0, 18548.0, 18514.0, 18552.0, 18544.0, 18546.0, 18578.0, 18580.0, 18576.0, 18550.0, 18580.0, 18546.0, 18546.0, 18544.0, 18510.0, 18512.0, 18580.0, 18694.0, 18780.0, 18690.0, 18608.0, 18544.0, 18546.0, 18520.0, 18514.0, 18512.0, 18548.0, 18578.0, 18608.0, 18608.0, 18580.0, 18580.0, 18514.0, 18542.0, 18546.0, 18544.0, 18578.0, 18580.0, 18546.0, 18546.0, 18576.0, 18544.0, 18582.0, 18546.0, 18546.0, 18542.0, 18546.0, 18544.0, 18576.0, 18548.0, 18576.0, 18584.0, 18546.0, 18576.0, 18546.0, 18550.0, 18538.0, 18548.0, 18542.0, 18544.0, 18546.0, 18578.0, 18542.0, 18576.0, 18544.0, 18546.0, 18546.0, 18546.0]
    },
    "slices": {}
  }
}