{
  "AcquisitionMatrixPE": 104,
  "AcquisitionNumber": 1,
  "AcquisitionTime": "10:50:57.180000",
  "BandwidthPerPixelPhaseEncode": 17.17,
  "BaseResolution": 104,
  "BodyPartExamined": "BRAIN",
  "CoilString": "HC1-7;NC1_2",
  "ConsistencyInfo": "N4_VE11C_LATEST_20160120",
  "ConversionSoftware": "dcm2niix",
  "ConversionSoftwareVersion": "v1.0.20190902",
  "DerivedVendorReportedEchoSpacing": 0.000560011,
  "DeviceSerialNumber": "167006",
  "DwellTime": 2.1e-06,
  "EchoTime": 0.037,
  "EchoTrainLength": 104,
  "EffectiveEchoSpacing": 0.000560011,
  "FlipAngle": 52,
  "ImageComments": "Unaliased_MB4_PE3_LB",
  "ImageOrientationPatientDICOM": [0.999669, 0.00619132, 0.024973, 0.00732807, 0.8619, -0.507025],
  "ImageType": [
    "ORIGINAL",
    "PRIMARY",
    "M",
    "MB",
    "ND",
    "MOSAIC"
],
  "ImagingFrequency": 123.259,
  "InPlanePhaseEncodingDirectionDICOM": "COL",
  "InstitutionAddress": "Chemin_Queen-Mary_4565_Montreal_District_CA_H3W_1W5",
  "InstitutionName": "IUGM",
  "InstitutionalDepartmentName": "Department",
  "MRAcquisitionType": "2D",
  "MagneticFieldStrength": 3,
  "Manufacturer": "Siemens",
  "ManufacturersModelName": "Prisma_fit",
  "Modality": "MR",
  "MultibandAccelerationFactor": 4,
  "PartialFourier": 1,
  "PatientPosition": "HFS",
  "PercentPhaseFOV": 100,
  "PhaseEncodingDirection": "j",
  "PhaseEncodingSteps": 104,
  "PhaseResolution": 1,
  "PixelBandwidth": 2290,
  "ProcedureStepDescription": "memory_things",
  "ProtocolName": "func_task-things_run-3",
  "PulseSequenceDetails": "%CustomerSeq%_cmrr_mbep2d_bold",
  "ReceiveCoilActiveElements": "HC1-7;NC1,2",
  "ReceiveCoilName": "HeadNeck_64",
  "ReconMatrixPE": 104,
  "RepetitionTime": 1.49,
  "SAR": 0.0661102,
  "ScanOptions": "FS",
  "ScanningSequence": "EP",
  "SequenceName": "epfid2d1_104",
  "SequenceVariant": "SK_SS",
  "SeriesDescription": "func_task-things_run-3",
  "SeriesNumber": 16,
  "ShimSetting": [617, -7183, -8828, 339, -16, -100, -48, -27],
  "SliceThickness": 2,
  "SliceTiming": [0, 0.785, 0.1, 0.8825, 0.1975, 0.98, 0.295, 1.08, 0.3925, 1.1775, 0.49, 1.275, 0.59, 1.3725, 0.6875, 0, 0.785, 0.1, 0.8825, 0.1975, 0.98, 0.295, 1.08, 0.3925, 1.1775, 0.49, 1.275, 0.59, 1.3725, 0.6875, 0, 0.785, 0.1, 0.8825, 0.1975, 0.98, 0.295, 1.08, 0.3925, 1.1775, 0.49, 1.275, 0.59, 1.3725, 0.6875, 0, 0.785, 0.1, 0.8825, 0.1975, 0.98, 0.295, 1.08, 0.3925, 1.1775, 0.49, 1.275, 0.59, 1.3725, 0.6875],
  "SoftwareVersions": "syngo_MR_E11",
  "SpacingBetweenSlices": 2,
  "StationName": "MRC35049",
  "TaskName": "things",
  "TotalReadoutTime": 0.0576811,
  "TxRefAmp": 318.547,
  "WipMemBlock": "7cbf38d2-1646-40c4-9bad-482e171091ae||Sequence: R016 ve11c/master r/e634e98; Dec 19 2017 11:00:25 by eja",
  "dcmmeta_affine": [
    [-1.999337911605835, 0.014656138606369495, 0.04932680353522301, 105.61510467529297],
    [-0.012382639572024345, 1.7238004207611084, -1.014080286026001, -50.965118408203125],
    [0.04994603246450424, 1.014050006866455, 1.7231390476226807, -76.34721374511719],
    [0.0, 0.0, 0.0, 1.0]
],
  "dcmmeta_reorient_transform": [
    [0.0, -1.0, 0.0, 103.0],
    [1.0, 0.0, 0.0, 0.0],
    [0.0, 0.0, 1.0, 0.0],
    [0.0, 0.0, 0.0, 1.0]
],
  "dcmmeta_shape": [104, 104, 60, 190],
  "dcmmeta_slice_dim": 2,
  "dcmmeta_version": 0.6,
  "global": {
    "const": {
      "AcquisitionMatrix": [104, 0, 0, 104],
      "AngioFlag": "N",
      "BitsAllocated": 16,
      "BitsStored": 16,
      "BodyPartExamined": "BRAIN",
      "Columns": 832,
      "EchoNumbers": 1,
      "EchoTime": 37.0,
      "EchoTrainLength": 104,
      "FlipAngle": 52.0,
      "HighBit": 15,
      "ImageOrientationPatient": [0.99966895321072, 0.00619131972703, 0.02497301637007, 0.00732806915198, 0.86190021127593, -0.5070249749322],
      "ImagePositionPatient": [-840.21852053438, -758.55695955008, 379.03375364785],
      "ImageType": [
        "ORIGINAL",
        "PRIMARY",
        "M",
        "MB",
        "ND",
        "MOSAIC"
],
      "ImagedNucleus": "1H",
      "ImagingFrequency": 123.258916,
      "InPlanePhaseEncodingDirection": "COL",
      "MRAcquisitionType": "2D",
      "MagneticFieldStrength": 3.0,
      "Manufacturer": "SIEMENS",
      "ManufacturerModelName": "Prisma_fit",
      "Modality": "MR",
      "NumberOfAverages": 1.0,
      "NumberOfPhaseEncodingSteps": 104,
      "PercentPhaseFieldOfView": 100.0,
      "PercentSampling": 100.0,
      "PerformedProcedureStepStartTime": "101252.185000",
      "PhotometricInterpretation": "MONOCHROME2",
      "PixelBandwidth": 2290.0,
      "PixelRepresentation": 0,
      "PixelSpacing": [2.0, 2.0],
      "ProtocolName": "func_task-things_run-3",
      "RepetitionTime": 1490.0,
      "Rows": 832,
      "SAR": 0.0661101696123,
      "SamplesPerPixel": 1,
      "ScanOptions": "FS",
      "ScanningSequence": "EP",
      "SequenceName": "epfid2d1_104",
      "SequenceVariant": [
        "SK",
        "SS"
],
      "SeriesDescription": "func_task-things_run-3",
      "SeriesNumber": 16,
      "SeriesTime": "105218.228000",
      "SliceLocation": -37.33224635277,
      "SliceThickness": 2.0,
      "SmallestImagePixelValue": 0,
      "SoftwareVersions": "syngo MR E11",
      "SpacingBetweenSlices": 2.000000061533,
      "SpecificCharacterSet": "ISO_IR 100",
      "StudyID": "1",
      "StudyTime": "101252.115000",
      "TransmitCoilName": "Body",
      "VariableFlipAngleFlag": "N",
      "WindowCenterWidthExplanation": "Algo1",
      "dBdt": 0.0},
    "slices": {}
  },
  "time": {
    "samples": {
      "AcquisitionNumber": [1, 2, 3, 4, 5, 6, 7, 8, 9, 10, 11, 12, 13, 14, 15, 16, 17, 18, 19, 20, 21, 22, 23, 24, 25, 26, 27, 28, 29, 30, 31, 32, 33, 34, 35, 36, 37, 38, 39, 40, 41, 42, 43, 44, 45, 46, 47, 48, 49, 50, 51, 52, 53, 54, 55, 56, 57, 58, 59, 60, 61, 62, 63, 64, 65, 66, 67, 68, 69, 70, 71, 72, 73, 74, 75, 76, 77, 78, 79, 80, 81, 82, 83, 84, 85, 86, 87, 88, 89, 90, 91, 92, 93, 94, 95, 96, 97, 98, 99, 100, 101, 102, 103, 104, 105, 106, 107, 108, 109, 110, 111, 112, 113, 114, 115, 116, 117, 118, 119, 120, 121, 122, 123, 124, 125, 126, 127, 128, 129, 130, 131, 132, 133, 134, 135, 136, 137, 138, 139, 140, 141, 142, 143, 144, 145, 146, 147, 148, 149, 150, 151, 152, 153, 154, 155, 156, 157, 158, 159, 160, 161, 162, 163, 164, 165, 166, 167, 168, 169, 170, 171, 172, 173, 174, 175, 176, 177, 178, 179, 180, 181, 182, 183, 184, 185, 186, 187, 188, 189, 190],
      "AcquisitionTime": ["105057.180000", "105058.670000", "105100.160000", "105101.650000", "105103.140000", "105104.630000", "105106.120000", "105107.610000", "105109.100000", "105110.590000", "105112.080000", "105113.570000", "105115.060000", "105116.550000", "105118.040000", "105119.530000", "105121.020000", "105122.510000", "105124.000000", "105125.490000", "105126.980000", "105128.470000", "105129.960000", "105131.450000", "105132.940000", "105134.430000", "105135.920000", "105137.410000", "105138.900000", "105140.390000", "105141.880000", "105143.370000", "105144.860000", "105146.350000", "105147.840000", "105149.330000", "105150.820000", "105152.310000", "105153.800000", "105155.290000", "105156.780000", "105158.270000", "105159.760000", "105201.250000", "105202.740000", "105204.230000", "105205.720000", "105207.210000", "105208.700000", "105210.190000", "105211.680000", "105213.170000", "105214.660000", "105216.150000", "105217.640000", "105219.130000", "105220.620000", "105222.110000", "105223.600000", "105225.090000", "105226.580000", "105228.070000", "105229.560000", "105231.050000", "105232.540000", "105234.030000", "105235.520000", "105237.010000", "105238.500000", "105239.990000", "105241.480000", "105242.970000", "105244.460000", "105245.950000", "105247.440000", "105248.930000", "105250.420000", "105251.910000", "105253.400000", "105254.890000", "105256.380000", "105257.870000", "105259.360000", "105300.850000", "105302.340000", "105303.830000", "105305.320000", "105306.810000", "105308.300000", "105309.790000", "105311.280000", "105312.770000", "105314.260000", "105315.750000", "105317.240000", "105318.730000", "105320.220000", "105321.710000", "105323.200000", "105324.690000", "105326.180000", "105327.670000", "105329.160000", "105330.650000", "105332.140000", "105333.630000", "105335.120000", "105336.610000", "105338.100000", "105339.590000", "105341.080000", "105342.570000", "105344.060000", "105345.550000", "105347.040000", "105348.530000", "105350.020000", "105351.510000", "105353.000000", "105354.490000", "105355.980000", "105357.470000", "105358.960000", "105400.450000", "105401.940000", "105403.430000", "105404.920000", "105406.410000", "105407.900000", "105409.390000", "105410.880000", "105412.370000", "105413.860000", "105415.350000", "105416.840000", "105418.330000", "105419.820000", "105421.310000", "105422.800000", "105424.290000", "105425.780000", "105427.270000", "105428.760000", "105430.250000", "105431.740000", "105433.230000", "105434.720000", "105436.210000", "105437.700000", "105439.190000", "105440.680000", "105442.170000", "105443.660000", "105445.150000", "105446.640000", "105448.130000", "105449.620000", "105451.110000", "105452.600000", "105454.090000", "105455.580000", "105457.070000", "105458.560000", "105500.050000", "105501.540000", "105503.030000", "105504.520000", "105506.010000", "105507.500000", "105508.990000", "105510.480000", "105511.970000", "105513.460000", "105514.950000", "105516.440000", "105517.930000", "105519.420000", "105520.910000", "105522.400000", "105523.890000", "105525.380000", "105526.870000", "105528.360000", "105529.850000", "105531.340000", "105532.830000", "105534.320000", "105535.810000", "105537.300000", "105538.790000"],
      "ContentTime": ["105218.232000", "105218.235000", "105218.239000", "105218.242000", "105218.245000", "105218.248000", "105218.252000", "105218.255000", "105218.259000", "105218.262000", "105218.265000", "105218.268000", "105218.272000", "105218.275000", "105218.278000", "105218.282000", "105218.285000", "105218.289000", "105218.292000", "105218.296000", "105218.299000", "105218.302000", "105218.306000", "105218.309000", "105218.312000", "105218.315000", "105218.319000", "105238.196000", "105238.200000", "105238.203000", "105238.206000", "105238.210000", "105238.213000", "105238.216000", "105238.220000", "105238.223000", "105238.226000", "105238.229000", "105238.233000", "105238.236000", "105238.239000", "105238.243000", "105238.246000", "105238.249000", "105238.252000", "105238.256000", "105238.260000", "105258.196000", "105258.200000", "105258.204000", "105258.207000", "105258.210000", "105258.214000", "105258.217000", "105258.220000", "105258.224000", "105258.227000", "105258.230000", "105258.242000", "105258.246000", "105258.249000", "105258.252000", "105258.255000", "105258.259000", "105258.262000", "105258.265000", "105258.269000", "105318.196000", "105318.200000", "105318.203000", "105318.207000", "105318.210000", "105318.213000", "105318.217000", "105318.220000", "105318.223000", "105318.226000", "105318.230000", "105318.233000", "105318.237000", "105318.240000", "105318.243000", "105318.247000", "105318.250000", "105318.253000", "105318.257000", "105318.266000", "105338.196000", "105338.200000", "105338.203000", "105338.206000", "105338.210000", "105338.213000", "105338.216000", "105338.220000", "105338.223000", "105338.226000", "105338.230000", "105338.233000", "105338.236000", "105338.240000", "105338.243000", "105338.246000", "105338.250000", "105338.253000", "105338.257000", "105338.260000", "105418.196000", "105418.200000", "105418.203000", "105418.207000", "105418.211000", "105418.214000", "105418.217000", "105418.230000", "105418.233000", "105418.237000", "105418.240000", "105418.243000", "105418.247000", "105418.250000", "105418.253000", "105418.257000", "105418.260000", "105418.263000", "105418.267000", "105418.270000", "105418.273000", "105418.277000", "105418.280000", "105418.283000", "105418.287000", "105418.290000", "105418.293000", "105458.195000", "105458.199000", "105458.202000", "105458.206000", "105458.209000", "105458.213000", "105458.216000", "105458.219000", "105458.223000", "105458.226000", "105458.230000", "105458.233000", "105458.236000", "105458.240000", "105458.243000", "105458.246000", "105458.266000", "105458.269000", "105458.272000", "105458.276000", "105458.279000", "105458.282000", "105458.286000", "105458.289000", "105458.292000", "105458.296000", "105458.299000", "105518.196000", "105518.200000", "105518.203000", "105518.207000", "105518.210000", "105518.214000", "105518.217000", "105518.220000", "105518.224000", "105518.227000", "105518.230000", "105518.234000", "105518.237000", "105540.710000", "105540.714000", "105540.717000", "105540.721000", "105540.724000", "105540.728000", "105540.731000", "105540.735000", "105540.738000", "105540.741000", "105540.745000", "105540.748000", "105540.751000", "105540.755000", "105540.758000", "105540.762000"],
      "InstanceCreationTime": ["105218.232000", "105218.235000", "105218.239000", "105218.242000", "105218.245000", "105218.248000", "105218.252000", "105218.255000", "105218.259000", "105218.262000", "105218.265000", "105218.268000", "105218.272000", "105218.275000", "105218.278000", "105218.282000", "105218.285000", "105218.289000", "105218.292000", "105218.296000", "105218.299000", "105218.302000", "105218.306000", "105218.309000", "105218.312000", "105218.315000", "105218.319000", "105238.196000", "105238.200000", "105238.203000", "105238.206000", "105238.210000", "105238.213000", "105238.216000", "105238.220000", "105238.223000", "105238.226000", "105238.229000", "105238.233000", "105238.236000", "105238.239000", "105238.243000", "105238.246000", "105238.249000", "105238.252000", "105238.256000", "105238.260000", "105258.196000", "105258.200000", "105258.204000", "105258.207000", "105258.210000", "105258.214000", "105258.217000", "105258.220000", "105258.224000", "105258.227000", "105258.230000", "105258.242000", "105258.246000", "105258.249000", "105258.252000", "105258.255000", "105258.259000", "105258.262000", "105258.265000", "105258.269000", "105318.196000", "105318.200000", "105318.203000", "105318.207000", "105318.210000", "105318.213000", "105318.217000", "105318.220000", "105318.223000", "105318.226000", "105318.230000", "105318.233000", "105318.237000", "105318.240000", "105318.243000", "105318.247000", "105318.250000", "105318.253000", "105318.257000", "105318.266000", "105338.196000", "105338.200000", "105338.203000", "105338.206000", "105338.210000", "105338.213000", "105338.216000", "105338.220000", "105338.223000", "105338.226000", "105338.230000", "105338.233000", "105338.236000", "105338.240000", "105338.243000", "105338.246000", "105338.250000", "105338.253000", "105338.257000", "105338.260000", "105418.196000", "105418.200000", "105418.203000", "105418.207000", "105418.211000", "105418.214000", "105418.217000", "105418.230000", "105418.233000", "105418.237000", "105418.240000", "105418.243000", "105418.247000", "105418.250000", "105418.253000", "105418.257000", "105418.260000", "105418.263000", "105418.267000", "105418.270000", "105418.273000", "105418.277000", "105418.280000", "105418.283000", "105418.287000", "105418.290000", "105418.293000", "105458.195000", "105458.199000", "105458.202000", "105458.206000", "105458.209000", "105458.213000", "105458.216000", "105458.219000", "105458.223000", "105458.226000", "105458.230000", "105458.233000", "105458.236000", "105458.240000", "105458.243000", "105458.246000", "105458.266000", "105458.269000", "105458.272000", "105458.276000", "105458.279000", "105458.282000", "105458.286000", "105458.289000", "105458.292000", "105458.296000", "105458.299000", "105518.196000", "105518.200000", "105518.203000", "105518.207000", "105518.210000", "105518.214000", "105518.217000", "105518.220000", "105518.224000", "105518.227000", "105518.230000", "105518.234000", "105518.237000", "105540.710000", "105540.714000", "105540.717000", "105540.721000", "105540.724000", "105540.728000", "105540.731000", "105540.735000", "105540.738000", "105540.741000", "105540.745000", "105540.748000", "105540.751000", "105540.755000", "105540.758000", "105540.762000"],
      "InstanceNumber": [1, 2, 3, 4, 5, 6, 7, 8, 9, 10, 11, 12, 13, 14, 15, 16, 17, 18, 19, 20, 21, 22, 23, 24, 25, 26, 27, 28, 29, 30, 31, 32, 33, 34, 35, 36, 37, 38, 39, 40, 41, 42, 43, 44, 45, 46, 47, 48, 49, 50, 51, 52, 53, 54, 55, 56, 57, 58, 59, 60, 61, 62, 63, 64, 65, 66, 67, 68, 69, 70, 71, 72, 73, 74, 75, 76, 77, 78, 79, 80, 81, 82, 83, 84, 85, 86, 87, 88, 89, 90, 91, 92, 93, 94, 95, 96, 97, 98, 99, 100, 101, 102, 103, 104, 105, 106, 107, 108, 109, 110, 111, 112, 113, 114, 115, 116, 117, 118, 119, 120, 121, 122, 123, 124, 125, 126, 127, 128, 129, 130, 131, 132, 133, 134, 135, 136, 137, 138, 139, 140, 141, 142, 143, 144, 145, 146, 147, 148, 149, 150, 151, 152, 153, 154, 155, 156, 157, 158, 159, 160, 161, 162, 163, 164, 165, 166, 167, 168, 169, 170, 171, 172, 173, 174, 175, 176, 177, 178, 179, 180, 181, 182, 183, 184, 185, 186, 187, 188, 189, 190],
      "LargestImagePixelValue": [49106, 47964, 45786, 47303, 48172, 46199, 46005, 47490, 46729, 47106, 45861, 47056, 45971, 48014, 47730, 47938, 48854, 45365, 47315, 47287, 45060, 46880, 45793, 47075, 47010, 48448, 47447, 47612, 48720, 46096, 48186, 46863, 46442, 45896, 47512, 47272, 47493, 48244, 46270, 47774, 45753, 47771, 45123, 48535, 46915, 47544, 47285, 47497, 47270, 48010, 47834, 47160, 48492, 46552, 47531, 46681, 47645, 47201, 49407, 47682, 47097, 47720, 49083, 47713, 48656, 47167, 47876, 48311, 46899, 48540, 47481, 46301, 47799, 47693, 48503, 48122, 48320, 48183, 47725, 48470, 47177, 47474, 47583, 47801, 48579, 47509, 48359, 48210, 48837, 48536, 48297, 48323, 47564, 48091, 47184, 46883, 48784, 47746, 48603, 48738, 49311, 48802, 47972, 48320, 48200, 48603, 49038, 48006, 47269, 49324, 47019, 48467, 47119, 47586, 48034, 47993, 49040, 47771, 48730, 47976, 48017, 48713, 47885, 48186, 48551, 48186, 47911, 48996, 48570, 47920, 49257, 48364, 46251, 48667, 47912, 46740, 49030, 48017, 48398, 48982, 48484, 48640, 47842, 48515, 47805, 48644, 47993, 47646, 47507, 46920, 47838, 47100, 47873, 47827, 48026, 48450, 47066, 47553, 47826, 47074, 47660, 46972, 47438, 48404, 47903, 47051, 48225, 47246, 47780, 48103, 47614, 47656, 48707, 46314, 47940, 47167, 47310, 46756, 48246, 48017, 48669, 47831, 47837, 48375, 47348, 48039, 47208, 47417, 48311, 48086],
      "WindowCenter": [11362.0, 11299.0, 11270.0, 11266.0, 11283.0, 11304.0, 11290.0, 11266.0, 11269.0, 11311.0, 11304.0, 11324.0, 11277.0, 11269.0, 11254.0, 11286.0, 11323.0, 11309.0, 11296.0, 11282.0, 11266.0, 11271.0, 11277.0, 11293.0, 11302.0, 11311.0, 11295.0, 11292.0, 11299.0, 11277.0, 11275.0, 11267.0, 11277.0, 11269.0, 11278.0, 11279.0, 11262.0, 11268.0, 11272.0, 11278.0, 11268.0, 11273.0, 11253.0, 11281.0, 11273.0, 11271.0, 11271.0, 11271.0, 11250.0, 11266.0, 11262.0, 11266.0, 11265.0, 11257.0, 11271.0, 11269.0, 11270.0, 11274.0, 11284.0, 11262.0, 11258.0, 11272.0, 11286.0, 11296.0, 11301.0, 11278.0, 11268.0, 11267.0, 11249.0, 11282.0, 11316.0, 11331.0, 11304.0, 11266.0, 11299.0, 11271.0, 11252.0, 11249.0, 11269.0, 11279.0, 11271.0, 11259.0, 11265.0, 11265.0, 11274.0, 11268.0, 11271.0, 11267.0, 11270.0, 11273.0, 11277.0, 11270.0, 11281.0, 11289.0, 11297.0, 11290.0, 11276.0, 11281.0, 11282.0, 11276.0, 11286.0, 11283.0, 11259.0, 11245.0, 11251.0, 11282.0, 11300.0, 11296.0, 11278.0, 11281.0, 11271.0, 11279.0, 11280.0, 11293.0, 11275.0, 11273.0, 11273.0, 11275.0, 11268.0, 11269.0, 11270.0, 11273.0, 11275.0, 11279.0, 11267.0, 11278.0, 11270.0, 11271.0, 11264.0, 11286.0, 11290.0, 11293.0, 11286.0, 11294.0, 11281.0, 11272.0, 11281.0, 11283.0, 11281.0, 11284.0, 11284.0, 11270.0, 11270.0, 11283.0, 11291.0, 11298.0, 11302.0, 11305.0, 11285.0, 11276.0, 11248.0, 11254.0, 11298.0, 11311.0, 11313.0, 11309.0, 11295.0, 11294.0, 11313.0, 11323.0, 11290.0, 11264.0, 11262.0, 11285.0, 11307.0, 11320.0, 11311.0, 11280.0, 11255.0, 11253.0, 11276.0, 11294.0, 11304.0, 11282.0, 11272.0, 11259.0, 11283.0, 11307.0, 11305.0, 11292.0, 11285.0, 11261.0, 11244.0, 11232.0, 11256.0, 11290.0, 11299.0, 11281.0, 11269.0, 11267.0],
      "WindowWidth": [24530.0, 24346.0, 24264.0, 24234.0, 24264.0, 24317.0, 24286.0, 24220.0, 24230.0, 24327.0, 24313.0, 24357.0, 24250.0, 24221.0, 24190.0, 24262.0, 24346.0, 24328.0, 24292.0, 24258.0, 24231.0, 24234.0, 24253.0, 24285.0, 24307.0, 24324.0, 24287.0, 24280.0, 24290.0, 24251.0, 24239.0, 24225.0, 24248.0, 24233.0, 24247.0, 24249.0, 24205.0, 24217.0, 24236.0, 24245.0, 24232.0, 24237.0, 24196.0, 24252.0, 24235.0, 24230.0, 24228.0, 24228.0, 24176.0, 24214.0, 24210.0, 24216.0, 24210.0, 24200.0, 24227.0, 24227.0, 24225.0, 24235.0, 24251.0, 24207.0, 24200.0, 24231.0, 24259.0, 24286.0, 24295.0, 24246.0, 24221.0, 24219.0, 24181.0, 24248.0, 24334.0, 24376.0, 24309.0, 24218.0, 24287.0, 24226.0, 24182.0, 24173.0, 24219.0, 24241.0, 24229.0, 24198.0, 24211.0, 24215.0, 24228.0, 24221.0, 24224.0, 24213.0, 24215.0, 24223.0, 24235.0, 24221.0, 24250.0, 24268.0, 24291.0, 24275.0, 24233.0, 24250.0, 24249.0, 24236.0, 24254.0, 24250.0, 24200.0, 24165.0, 24177.0, 24247.0, 24292.0, 24282.0, 24249.0, 24246.0, 24231.0, 24246.0, 24253.0, 24279.0, 24236.0, 24234.0, 24227.0, 24235.0, 24216.0, 24216.0, 24221.0, 24223.0, 24234.0, 24239.0, 24209.0, 24239.0, 24219.0, 24218.0, 24202.0, 24256.0, 24264.0, 24273.0, 24264.0, 24278.0, 24246.0, 24229.0, 24240.0, 24249.0, 24243.0, 24248.0, 24247.0, 24216.0, 24220.0, 24245.0, 24271.0, 24284.0, 24297.0, 24309.0, 24264.0, 24244.0, 24175.0, 24190.0, 24289.0, 24318.0, 24326.0, 24313.0, 24288.0, 24280.0, 24324.0, 24354.0, 24274.0, 24214.0, 24209.0, 24257.0, 24309.0, 24344.0, 24318.0, 24250.0, 24191.0, 24184.0, 24239.0, 24280.0, 24302.0, 24261.0, 24226.0, 24200.0, 24256.0, 24316.0, 24301.0, 24273.0, 24254.0, 24203.0, 24165.0, 24133.0, 24190.0, 24269.0, 24293.0, 24252.0, 24219.0, 24218.0]
    },
    "slices": {}
  }
}