{
  "AcquisitionMatrixPE": 104,
  "AcquisitionNumber": 1,
  "AcquisitionTime": "13:28:14.377500",
  "BandwidthPerPixelPhaseEncode": 17.17,
  "BaseResolution": 104,
  "BodyPartExamined": "BRAIN",
  "CoilString": "HC1-7;NC1_2",
  "ConsistencyInfo": "N4_VE11C_LATEST_20160120",
  "ConversionSoftware": "dcm2niix",
  "ConversionSoftwareVersion": "v1.0.20190902",
  "DerivedVendorReportedEchoSpacing": 0.000560011,
  "DeviceSerialNumber": "167006",
  "DwellTime": 2.1e-06,
  "EchoTime": 0.037,
  "EchoTrainLength": 104,
  "EffectiveEchoSpacing": 0.000560011,
  "FlipAngle": 52,
  "HeudiconvVersion": "0.10.0",
  "ImageComments": "Unaliased_MB4_PE3_LB",
  "ImageOrientationPatientDICOM": [0.998924, 0.010759, 0.0451148, 0.00104608, 0.967248, -0.253832],
  "ImageType": [
    "ORIGINAL",
    "PRIMARY",
    "P",
    "MB",
    "ND",
    "MOSAIC"
],
  "ImagingFrequency": 123.259,
  "InPlanePhaseEncodingDirectionDICOM": "COL",
  "InstitutionAddress": "Chemin_Queen-Mary_4565_Montreal_District_CA_H3W_1W5",
  "InstitutionName": "IUGM",
  "InstitutionalDepartmentName": "Department",
  "MRAcquisitionType": "2D",
  "MagneticFieldStrength": 3,
  "Manufacturer": "Siemens",
  "ManufacturersModelName": "Prisma_fit",
  "Modality": "MR",
  "MultibandAccelerationFactor": 4,
  "PartialFourier": 1,
  "PatientPosition": "HFS",
  "PercentPhaseFOV": 100,
  "PhaseEncodingDirection": "j",
  "PhaseEncodingSteps": 104,
  "PhaseResolution": 1,
  "PixelBandwidth": 2290,
  "ProcedureStepDescription": "memory_things",
  "ProtocolName": "func_task-things_run-3",
  "PulseSequenceDetails": "%CustomerSeq%_cmrr_mbep2d_bold",
  "ReceiveCoilActiveElements": "HC1-7;NC1,2",
  "ReceiveCoilName": "HeadNeck_64",
  "ReconMatrixPE": 104,
  "RepetitionTime": 1.49,
  "SAR": 0.0485836,
  "ScanOptions": "FS",
  "ScanningSequence": "EP",
  "SequenceName": "epfid2d1_104",
  "SequenceVariant": "SK_SS",
  "SeriesDescription": "func_task-things_run-3",
  "SeriesNumber": 17,
  "ShimSetting": [641, -7211, -8785, 725, 48, 8, 61, -12],
  "SliceThickness": 2,
  "SliceTiming": [0, 0.7825, 0.0975, 0.8825, 0.195, 0.98, 0.2925, 1.0775, 0.3925, 1.175, 0.49, 1.2725, 0.5875, 1.3725, 0.685, 0, 0.7825, 0.0975, 0.8825, 0.195, 0.98, 0.2925, 1.0775, 0.3925, 1.175, 0.49, 1.2725, 0.5875, 1.3725, 0.685, 0, 0.7825, 0.0975, 0.8825, 0.195, 0.98, 0.2925, 1.0775, 0.3925, 1.175, 0.49, 1.2725, 0.5875, 1.3725, 0.685, 0, 0.7825, 0.0975, 0.8825, 0.195, 0.98, 0.2925, 1.0775, 0.3925, 1.175, 0.49, 1.2725, 0.5875, 1.3725, 0.685],
  "SoftwareVersions": "syngo_MR_E11",
  "SpacingBetweenSlices": 2,
  "StationName": "MRC35049",
  "TaskName": "things",
  "TotalReadoutTime": 0.0576811,
  "TxRefAmp": 229.866,
  "WipMemBlock": "23f06041-5eb0-4348-9cde-9c9628c0e44d||Sequence: R016 ve11c/master r/e634e98; Dec 19 2017 11:00:25 by eja",
  "dcmmeta_affine": [
    [-1.9978477954864502, 0.002092157956212759, 0.09273631870746613, 106.33043670654297],
    [-0.021518031135201454, 1.934495449066162, -0.5072125792503357, -73.47113037109375],
    [0.0902295708656311, 0.5076644420623779, 1.9323911666870117, -64.60112762451172],
    [0.0, 0.0, 0.0, 1.0]
],
  "dcmmeta_reorient_transform": [
    [0.0, -1.0, 0.0, 103.0],
    [1.0, 0.0, 0.0, 0.0],
    [0.0, 0.0, 1.0, 0.0],
    [0.0, 0.0, 0.0, 1.0]
],
  "dcmmeta_shape": [104, 104, 60, 190],
  "dcmmeta_slice_dim": 2,
  "dcmmeta_version": 0.6,
  "global": {
    "const": {
      "AcquisitionMatrix": [104, 0, 0, 104],
      "AngioFlag": "N",
      "BitsAllocated": 16,
      "BitsStored": 16,
      "BodyPartExamined": "BRAIN",
      "Columns": 832,
      "EchoNumbers": 1,
      "EchoTime": 37.0,
      "EchoTrainLength": 104,
      "FlipAngle": 52.0,
      "HighBit": 15,
      "ImageOrientationPatient": [0.99892387083037, 0.01075901598587, 0.04511478538447, 0.00104607901402, 0.96724769489287, -0.2538322328687],
      "ImagePositionPatient": [-834.52405193951, -837.77078205951, 139.63461338942],
      "ImageType": [
        "ORIGINAL",
        "PRIMARY",
        "P",
        "MB",
        "ND",
        "MOSAIC"
],
      "ImagedNucleus": "1H",
      "ImagingFrequency": 123.258903,
      "InPlanePhaseEncodingDirection": "COL",
      "LargestImagePixelValue": 4095,
      "MRAcquisitionType": "2D",
      "MagneticFieldStrength": 3.0,
      "Manufacturer": "SIEMENS",
      "ManufacturerModelName": "Prisma_fit",
      "Modality": "MR",
      "NumberOfAverages": 1.0,
      "NumberOfPhaseEncodingSteps": 104,
      "PercentPhaseFieldOfView": 100.0,
      "PercentSampling": 100.0,
      "PerformedProcedureStepStartTime": "130408.111000",
      "PhotometricInterpretation": "MONOCHROME2",
      "PixelBandwidth": 2290.0,
      "PixelRepresentation": 0,
      "PixelSpacing": [2.0, 2.0],
      "ProtocolName": "func_task-things_run-3",
      "RepetitionTime": 1490.0,
      "RescaleIntercept": -4096.0,
      "RescaleSlope": 2.0,
      "RescaleType": "US",
      "Rows": 832,
      "SAR": 0.04858359358933,
      "SamplesPerPixel": 1,
      "ScanOptions": "FS",
      "ScanningSequence": "EP",
      "SequenceName": "epfid2d1_104",
      "SequenceVariant": [
        "SK",
        "SS"
],
      "SeriesDescription": "func_task-things_run-3",
      "SeriesNumber": 17,
      "SeriesTime": "132928.452000",
      "SliceLocation": -38.854237888947,
      "SliceThickness": 2.0,
      "SmallestImagePixelValue": 0,
      "SoftwareVersions": "syngo MR E11",
      "SpacingBetweenSlices": 2.000000040532,
      "SpecificCharacterSet": "ISO_IR 100",
      "StudyID": "1",
      "StudyTime": "130407.931000",
      "TransmitCoilName": "Body",
      "VariableFlipAngleFlag": "N",
      "WindowCenterWidthExplanation": "Algo1",
      "dBdt": 0.0},
    "slices": {}
  },
  "time": {
    "samples": {
      "AcquisitionNumber": [1, 2, 3, 4, 5, 6, 7, 8, 9, 10, 11, 12, 13, 14, 15, 16, 17, 18, 19, 20, 21, 22, 23, 24, 25, 26, 27, 28, 29, 30, 31, 32, 33, 34, 35, 36, 37, 38, 39, 40, 41, 42, 43, 44, 45, 46, 47, 48, 49, 50, 51, 52, 53, 54, 55, 56, 57, 58, 59, 60, 61, 62, 63, 64, 65, 66, 67, 68, 69, 70, 71, 72, 73, 74, 75, 76, 77, 78, 79, 80, 81, 82, 83, 84, 85, 86, 87, 88, 89, 90, 91, 92, 93, 94, 95, 96, 97, 98, 99, 100, 101, 102, 103, 104, 105, 106, 107, 108, 109, 110, 111, 112, 113, 114, 115, 116, 117, 118, 119, 120, 121, 122, 123, 124, 125, 126, 127, 128, 129, 130, 131, 132, 133, 134, 135, 136, 137, 138, 139, 140, 141, 142, 143, 144, 145, 146, 147, 148, 149, 150, 151, 152, 153, 154, 155, 156, 157, 158, 159, 160, 161, 162, 163, 164, 165, 166, 167, 168, 169, 170, 171, 172, 173, 174, 175, 176, 177, 178, 179, 180, 181, 182, 183, 184, 185, 186, 187, 188, 189, 190],
      "AcquisitionTime": ["132814.377500", "132815.867500", "132817.357500", "132818.847500", "132820.337500", "132821.827500", "132823.317500", "132824.807500", "132826.297500", "132827.787500", "132829.277500", "132830.767500", "132832.257500", "132833.747500", "132835.237500", "132836.727500", "132838.217500", "132839.707500", "132841.197500", "132842.687500", "132844.177500", "132845.667500", "132847.157500", "132848.647500", "132850.137500", "132851.627500", "132853.117500", "132854.607500", "132856.097500", "132857.587500", "132859.077500", "132900.567500", "132902.057500", "132903.547500", "132905.037500", "132906.527500", "132908.017500", "132909.507500", "132910.997500", "132912.487500", "132913.977500", "132915.467500", "132916.957500", "132918.447500", "132919.937500", "132921.427500", "132922.917500", "132924.407500", "132925.897500", "132927.387500", "132928.877500", "132930.367500", "132931.857500", "132933.347500", "132934.837500", "132936.327500", "132937.817500", "132939.307500", "132940.797500", "132942.287500", "132943.777500", "132945.267500", "132946.757500", "132948.247500", "132949.737500", "132951.227500", "132952.717500", "132954.207500", "132955.697500", "132957.187500", "132958.677500", "133000.167500", "133001.657500", "133003.147500", "133004.637500", "133006.127500", "133007.617500", "133009.107500", "133010.597500", "133012.087500", "133013.577500", "133015.067500", "133016.557500", "133018.047500", "133019.537500", "133021.027500", "133022.517500", "133024.007500", "133025.497500", "133026.987500", "133028.477500", "133029.967500", "133031.457500", "133032.947500", "133034.437500", "133035.927500", "133037.417500", "133038.907500", "133040.397500", "133041.887500", "133043.377500", "133044.867500", "133046.357500", "133047.847500", "133049.337500", "133050.827500", "133052.317500", "133053.807500", "133055.297500", "133056.787500", "133058.277500", "133059.767500", "133101.257500", "133102.747500", "133104.237500", "133105.727500", "133107.217500", "133108.707500", "133110.197500", "133111.687500", "133113.177500", "133114.667500", "133116.157500", "133117.647500", "133119.137500", "133120.627500", "133122.117500", "133123.607500", "133125.097500", "133126.587500", "133128.077500", "133129.567500", "133131.057500", "133132.547500", "133134.037500", "133135.527500", "133137.017500", "133138.507500", "133139.997500", "133141.487500", "133142.977500", "133144.467500", "133145.957500", "133147.447500", "133148.937500", "133150.427500", "133151.917500", "133153.407500", "133154.897500", "133156.387500", "133157.877500", "133159.367500", "133200.857500", "133202.347500", "133203.837500", "133205.327500", "133206.817500", "133208.307500", "133209.797500", "133211.287500", "133212.777500", "133214.267500", "133215.757500", "133217.247500", "133218.737500", "133220.227500", "133221.717500", "133223.207500", "133224.697500", "133226.187500", "133227.677500", "133229.167500", "133230.657500", "133232.147500", "133233.637500", "133235.127500", "133236.617500", "133238.107500", "133239.597500", "133241.087500", "133242.577500", "133244.067500", "133245.557500", "133247.047500", "133248.537500", "133250.027500", "133251.517500", "133253.007500", "133254.497500", "133255.987500"],
      "ContentTime": ["132928.454000", "132928.457000", "132928.460000", "132928.462000", "132928.465000", "132928.467000", "132928.470000", "132928.472000", "132928.475000", "132928.477000", "132928.480000", "132928.482000", "132928.485000", "132928.488000", "132928.496000", "132928.498000", "132928.501000", "132928.503000", "132928.505000", "132928.508000", "132948.397000", "132948.400000", "132948.403000", "132948.405000", "132948.408000", "132948.410000", "132948.413000", "132948.416000", "132948.418000", "132948.421000", "132948.423000", "132948.427000", "132948.429000", "132948.432000", "132948.435000", "132948.438000", "132948.440000", "132948.443000", "132948.446000", "132948.449000", "133008.425000", "133008.428000", "133008.430000", "133008.433000", "133008.435000", "133008.438000", "133008.440000", "133008.443000", "133008.445000", "133008.448000", "133008.450000", "133008.453000", "133008.455000", "133008.458000", "133008.460000", "133008.463000", "133008.465000", "133008.468000", "133008.470000", "133008.473000", "133008.475000", "133028.726000", "133028.729000", "133028.732000", "133028.734000", "133028.736000", "133028.739000", "133028.742000", "133028.744000", "133028.746000", "133028.749000", "133028.752000", "133028.754000", "133028.756000", "133028.759000", "133028.762000", "133028.764000", "133028.767000", "133028.769000", "133028.772000", "133028.774000", "133048.395000", "133048.398000", "133048.401000", "133048.403000", "133048.406000", "133048.408000", "133048.411000", "133048.413000", "133048.416000", "133048.432000", "133048.434000", "133048.437000", "133048.439000", "133048.442000", "133048.445000", "133048.447000", "133048.449000", "133048.452000", "133048.455000", "133048.457000", "133108.376000", "133108.379000", "133108.382000", "133108.384000", "133108.387000", "133108.389000", "133108.392000", "133108.394000", "133108.397000", "133108.399000", "133108.402000", "133108.404000", "133108.407000", "133108.409000", "133108.412000", "133148.424000", "133148.427000", "133148.430000", "133148.432000", "133148.435000", "133148.437000", "133148.440000", "133148.442000", "133148.451000", "133148.453000", "133148.456000", "133148.458000", "133148.461000", "133148.463000", "133148.466000", "133148.468000", "133148.471000", "133148.473000", "133148.476000", "133148.478000", "133148.481000", "133148.483000", "133148.486000", "133148.488000", "133148.491000", "133148.493000", "133148.496000", "133228.443000", "133228.446000", "133228.449000", "133228.451000", "133228.461000", "133228.463000", "133228.466000", "133228.469000", "133228.471000", "133228.474000", "133228.476000", "133228.479000", "133228.481000", "133228.484000", "133228.492000", "133228.495000", "133228.497000", "133228.500000", "133228.503000", "133228.505000", "133228.507000", "133228.510000", "133228.513000", "133228.515000", "133228.518000", "133228.520000", "133228.523000", "133258.082000", "133258.084000", "133258.087000", "133258.098000", "133258.101000", "133258.103000", "133258.106000", "133258.109000", "133258.111000", "133258.114000", "133258.116000", "133258.119000", "133258.122000", "133258.124000", "133258.127000", "133258.129000", "133258.132000", "133258.135000", "133258.138000", "133258.141000"],
      "InstanceCreationTime": ["132928.454000", "132928.457000", "132928.460000", "132928.462000", "132928.465000", "132928.467000", "132928.470000", "132928.472000", "132928.475000", "132928.477000", "132928.480000", "132928.482000", "132928.485000", "132928.488000", "132928.496000", "132928.498000", "132928.501000", "132928.503000", "132928.505000", "132928.508000", "132948.397000", "132948.400000", "132948.403000", "132948.405000", "132948.408000", "132948.410000", "132948.413000", "132948.416000", "132948.418000", "132948.421000", "132948.423000", "132948.427000", "132948.429000", "132948.432000", "132948.435000", "132948.438000", "132948.440000", "132948.443000", "132948.446000", "132948.449000", "133008.425000", "133008.428000", "133008.430000", "133008.433000", "133008.435000", "133008.438000", "133008.440000", "133008.443000", "133008.445000", "133008.448000", "133008.450000", "133008.453000", "133008.455000", "133008.458000", "133008.460000", "133008.463000", "133008.465000", "133008.468000", "133008.470000", "133008.473000", "133008.475000", "133028.726000", "133028.729000", "133028.732000", "133028.734000", "133028.736000", "133028.739000", "133028.742000", "133028.744000", "133028.746000", "133028.749000", "133028.752000", "133028.754000", "133028.756000", "133028.759000", "133028.762000", "133028.764000", "133028.767000", "133028.769000", "133028.772000", "133028.774000", "133048.395000", "133048.398000", "133048.401000", "133048.403000", "133048.406000", "133048.408000", "133048.411000", "133048.413000", "133048.416000", "133048.432000", "133048.434000", "133048.437000", "133048.439000", "133048.442000", "133048.445000", "133048.447000", "133048.449000", "133048.452000", "133048.455000", "133048.457000", "133108.376000", "133108.379000", "133108.382000", "133108.384000", "133108.387000", "133108.389000", "133108.392000", "133108.394000", "133108.397000", "133108.399000", "133108.402000", "133108.404000", "133108.407000", "133108.409000", "133108.412000", "133148.424000", "133148.427000", "133148.430000", "133148.432000", "133148.435000", "133148.437000", "133148.440000", "133148.442000", "133148.451000", "133148.453000", "133148.456000", "133148.458000", "133148.461000", "133148.463000", "133148.466000", "133148.468000", "133148.471000", "133148.473000", "133148.476000", "133148.478000", "133148.481000", "133148.483000", "133148.486000", "133148.488000", "133148.491000", "133148.493000", "133148.496000", "133228.443000", "133228.446000", "133228.449000", "133228.451000", "133228.461000", "133228.463000", "133228.466000", "133228.469000", "133228.471000", "133228.474000", "133228.476000", "133228.479000", "133228.481000", "133228.484000", "133228.492000", "133228.495000", "133228.497000", "133228.500000", "133228.503000", "133228.505000", "133228.507000", "133228.510000", "133228.513000", "133228.515000", "133228.518000", "133228.520000", "133228.523000", "133258.082000", "133258.084000", "133258.087000", "133258.098000", "133258.101000", "133258.103000", "133258.106000", "133258.109000", "133258.111000", "133258.114000", "133258.116000", "133258.119000", "133258.122000", "133258.124000", "133258.127000", "133258.129000", "133258.132000", "133258.135000", "133258.138000", "133258.141000"],
      "InstanceNumber": [1, 2, 3, 4, 5, 6, 7, 8, 9, 10, 11, 12, 13, 14, 15, 16, 17, 18, 19, 20, 21, 22, 23, 24, 25, 26, 27, 28, 29, 30, 31, 32, 33, 34, 35, 36, 37, 38, 39, 40, 41, 42, 43, 44, 45, 46, 47, 48, 49, 50, 51, 52, 53, 54, 55, 56, 57, 58, 59, 60, 61, 62, 63, 64, 65, 66, 67, 68, 69, 70, 71, 72, 73, 74, 75, 76, 77, 78, 79, 80, 81, 82, 83, 84, 85, 86, 87, 88, 89, 90, 91, 92, 93, 94, 95, 96, 97, 98, 99, 100, 101, 102, 103, 104, 105, 106, 107, 108, 109, 110, 111, 112, 113, 114, 115, 116, 117, 118, 119, 120, 121, 122, 123, 124, 125, 126, 127, 128, 129, 130, 131, 132, 133, 134, 135, 136, 137, 138, 139, 140, 141, 142, 143, 144, 145, 146, 147, 148, 149, 150, 151, 152, 153, 154, 155, 156, 157, 158, 159, 160, 161, 162, 163, 164, 165, 166, 167, 168, 169, 170, 171, 172, 173, 174, 175, 176, 177, 178, 179, 180, 181, 182, 183, 184, 185, 186, 187, 188, 189, 190],
      "WindowCenter": [4748.0, 4772.0, 4748.0, 4748.0, 4772.0, 4750.0, 4744.0, 4750.0, 4746.0, 4774.0, 4746.0, 4748.0, 4750.0, 4746.0, 4748.0, 4748.0, 4748.0, 4748.0, 4746.0, 4748.0, 4750.0, 4748.0, 4750.0, 4750.0, 4750.0, 4770.0, 4750.0, 4748.0, 4750.0, 4746.0, 4748.0, 4750.0, 4748.0, 4748.0, 4750.0, 4748.0, 4748.0, 4770.0, 4746.0, 4750.0, 4748.0, 4772.0, 4750.0, 4746.0, 4748.0, 4750.0, 4748.0, 4770.0, 4750.0, 4770.0, 4772.0, 4772.0, 4772.0, 4748.0, 4748.0, 4748.0, 4750.0, 4770.0, 4746.0, 4746.0, 4746.0, 4750.0, 4748.0, 4748.0, 4750.0, 4772.0, 4748.0, 4746.0, 4774.0, 4742.0, 4748.0, 4746.0, 4748.0, 4746.0, 4748.0, 4752.0, 4748.0, 4748.0, 4750.0, 4746.0, 4748.0, 4746.0, 4776.0, 4746.0, 4748.0, 4752.0, 4750.0, 4750.0, 4748.0, 4748.0, 4746.0, 4748.0, 4746.0, 4770.0, 4750.0, 4746.0, 4752.0, 4746.0, 4750.0, 4770.0, 4774.0, 4746.0, 4748.0, 4746.0, 4748.0, 4746.0, 4750.0, 4746.0, 4750.0, 4750.0, 4772.0, 4746.0, 4746.0, 4750.0, 4746.0, 4748.0, 4746.0, 4746.0, 4750.0, 4748.0, 4748.0, 4750.0, 4750.0, 4750.0, 4748.0, 4746.0, 4748.0, 4748.0, 4750.0, 4748.0, 4746.0, 4748.0, 4748.0, 4750.0, 4752.0, 4772.0, 4748.0, 4750.0, 4750.0, 4746.0, 4770.0, 4748.0, 4744.0, 4746.0, 4752.0, 4748.0, 4752.0, 4750.0, 4748.0, 4774.0, 4744.0, 4748.0, 4768.0, 4752.0, 4772.0, 4750.0, 4748.0, 4752.0, 4750.0, 4748.0, 4748.0, 4746.0, 4746.0, 4748.0, 4748.0, 4748.0, 4774.0, 4748.0, 4752.0, 4748.0, 4746.0, 4772.0, 4748.0, 4746.0, 4748.0, 4750.0, 4748.0, 4746.0, 4746.0, 4750.0, 4748.0, 4750.0, 4748.0, 4748.0, 4750.0, 4744.0, 4748.0, 4748.0, 4746.0, 4750.0],
      "WindowWidth": [18542.0, 18580.0, 18544.0, 18540.0, 18576.0, 18546.0, 18540.0, 18546.0, 18536.0, 18576.0, 18538.0, 18544.0, 18544.0, 18544.0, 18542.0, 18540.0, 18540.0, 18544.0, 18538.0, 18540.0, 18542.0, 18544.0, 18544.0, 18546.0, 18546.0, 18572.0, 18550.0, 18540.0, 18548.0, 18538.0, 18546.0, 18544.0, 18542.0, 18546.0, 18546.0, 18542.0, 18540.0, 18570.0, 18540.0, 18540.0, 18544.0, 18574.0, 18542.0, 18540.0, 18540.0, 18546.0, 18542.0, 18574.0, 18542.0, 18576.0, 18574.0, 18578.0, 18578.0, 18544.0, 18542.0, 18540.0, 18544.0, 18576.0, 18542.0, 18540.0, 18544.0, 18546.0, 18540.0, 18542.0, 18542.0, 18574.0, 18542.0, 18542.0, 18574.0, 18538.0, 18542.0, 18540.0, 18538.0, 18536.0, 18546.0, 18544.0, 18544.0, 18538.0, 18544.0, 18538.0, 18544.0, 18540.0, 18576.0, 18540.0, 18542.0, 18542.0, 18548.0, 18544.0, 18546.0, 18542.0, 18538.0, 18544.0, 18540.0, 18574.0, 18546.0, 18536.0, 18546.0, 18540.0, 18542.0, 18578.0, 18576.0, 18540.0, 18542.0, 18540.0, 18542.0, 18540.0, 18542.0, 18540.0, 18540.0, 18542.0, 18576.0, 18538.0, 18542.0, 18546.0, 18540.0, 18542.0, 18542.0, 18542.0, 18540.0, 18542.0, 18538.0, 18542.0, 18542.0, 18540.0, 18544.0, 18540.0, 18540.0, 18542.0, 18544.0, 18540.0, 18538.0, 18546.0, 18544.0, 18546.0, 18542.0, 18572.0, 18542.0, 18534.0, 18544.0, 18542.0, 18574.0, 18544.0, 18542.0, 18540.0, 18538.0, 18536.0, 18540.0, 18538.0, 18538.0, 18576.0, 18544.0, 18542.0, 18574.0, 18544.0, 18572.0, 18540.0, 18542.0, 18544.0, 18550.0, 18542.0, 18546.0, 18544.0, 18540.0, 18540.0, 18542.0, 18536.0, 18576.0, 18536.0, 18544.0, 18536.0, 18540.0, 18572.0, 18544.0, 18542.0, 18542.0, 18544.0, 18542.0, 18536.0, 18548.0, 18540.0, 18544.0, 18542.0, 18542.0, 18542.0, 18540.0, 18540.0, 18542.0, 18544.0, 18540.0, 18542.0]
    },
    "slices": {}
  }
}