{
  "AcquisitionMatrixPE": 104,
  "AcquisitionNumber": 1,
  "AcquisitionTime": "13:46:31.440000",
  "BandwidthPerPixelPhaseEncode": 17.17,
  "BaseResolution": 104,
  "BodyPartExamined": "BRAIN",
  "CoilString": "HC1-7;NC1_2",
  "ConsistencyInfo": "N4_VE11C_LATEST_20160120",
  "ConversionSoftware": "dcm2niix",
  "ConversionSoftwareVersion": "v1.0.20190902",
  "DerivedVendorReportedEchoSpacing": 0.000560011,
  "DeviceSerialNumber": "167006",
  "DwellTime": 2.1e-06,
  "EchoTime": 0.037,
  "EchoTrainLength": 104,
  "EffectiveEchoSpacing": 0.000560011,
  "FlipAngle": 52,
  "HeudiconvVersion": "0.10.0",
  "ImageComments": "Unaliased_MB4_PE3_LB",
  "ImageOrientationPatientDICOM": [0.998924, 0.010759, 0.0451148, 0.00104608, 0.967248, -0.253832],
  "ImageType": [
    "ORIGINAL",
    "PRIMARY",
    "M",
    "MB",
    "ND",
    "MOSAIC"
],
  "ImagingFrequency": 123.259,
  "InPlanePhaseEncodingDirectionDICOM": "COL",
  "InstitutionAddress": "Chemin_Queen-Mary_4565_Montreal_District_CA_H3W_1W5",
  "InstitutionName": "IUGM",
  "InstitutionalDepartmentName": "Department",
  "MRAcquisitionType": "2D",
  "MagneticFieldStrength": 3,
  "Manufacturer": "Siemens",
  "ManufacturersModelName": "Prisma_fit",
  "Modality": "MR",
  "MultibandAccelerationFactor": 4,
  "PartialFourier": 1,
  "PatientPosition": "HFS",
  "PercentPhaseFOV": 100,
  "PhaseEncodingDirection": "j",
  "PhaseEncodingSteps": 104,
  "PhaseResolution": 1,
  "PixelBandwidth": 2290,
  "ProcedureStepDescription": "memory_things",
  "ProtocolName": "func_task-things_run-6",
  "PulseSequenceDetails": "%CustomerSeq%_cmrr_mbep2d_bold",
  "ReceiveCoilActiveElements": "HC1-7;NC1,2",
  "ReceiveCoilName": "HeadNeck_64",
  "ReconMatrixPE": 104,
  "RepetitionTime": 1.49,
  "SAR": 0.0485836,
  "ScanOptions": "FS",
  "ScanningSequence": "EP",
  "SequenceName": "epfid2d1_104",
  "SequenceVariant": "SK_SS",
  "SeriesDescription": "func_task-things_run-6",
  "SeriesNumber": 25,
  "ShimSetting": [641, -7211, -8785, 725, 48, 8, 61, -12],
  "SliceThickness": 2,
  "SliceTiming": [0, 0.785, 0.0975, 0.8825, 0.195, 0.98, 0.295, 1.0775, 0.3925, 1.175, 0.49, 1.275, 0.5875, 1.3725, 0.685, 0, 0.785, 0.0975, 0.8825, 0.195, 0.98, 0.295, 1.0775, 0.3925, 1.175, 0.49, 1.275, 0.5875, 1.3725, 0.685, 0, 0.785, 0.0975, 0.8825, 0.195, 0.98, 0.295, 1.0775, 0.3925, 1.175, 0.49, 1.275, 0.5875, 1.3725, 0.685, 0, 0.785, 0.0975, 0.8825, 0.195, 0.98, 0.295, 1.0775, 0.3925, 1.175, 0.49, 1.275, 0.5875, 1.3725, 0.685],
  "SoftwareVersions": "syngo_MR_E11",
  "SpacingBetweenSlices": 2,
  "StationName": "MRC35049",
  "TaskName": "things",
  "TotalReadoutTime": 0.0576811,
  "TxRefAmp": 229.866,
  "WipMemBlock": "eceeacc6-e0a2-4e06-9678-7253bbae9c2d||Sequence: R016 ve11c/master r/e634e98; Dec 19 2017 11:00:25 by eja",
  "dcmmeta_affine": [
    [-1.9978477954864502, 0.002092157956212759, 0.09273631870746613, 106.33043670654297],
    [-0.021518031135201454, 1.934495449066162, -0.5072125792503357, -73.47113037109375],
    [0.0902295708656311, 0.5076644420623779, 1.9323911666870117, -64.60112762451172],
    [0.0, 0.0, 0.0, 1.0]
],
  "dcmmeta_reorient_transform": [
    [0.0, -1.0, 0.0, 103.0],
    [1.0, 0.0, 0.0, 0.0],
    [0.0, 0.0, 1.0, 0.0],
    [0.0, 0.0, 0.0, 1.0]
],
  "dcmmeta_shape": [104, 104, 60, 190],
  "dcmmeta_slice_dim": 2,
  "dcmmeta_version": 0.6,
  "global": {
    "const": {
      "AcquisitionMatrix": [104, 0, 0, 104],
      "AngioFlag": "N",
      "BitsAllocated": 16,
      "BitsStored": 16,
      "BodyPartExamined": "BRAIN",
      "Columns": 832,
      "EchoNumbers": 1,
      "EchoTime": 37.0,
      "EchoTrainLength": 104,
      "FlipAngle": 52.0,
      "HighBit": 15,
      "ImageOrientationPatient": [0.99892387083037, 0.01075901598587, 0.04511478538447, 0.00104607901402, 0.96724769489287, -0.2538322328687],
      "ImagePositionPatient": [-834.52405193951, -837.77078205951, 139.63461338942],
      "ImageType": [
        "ORIGINAL",
        "PRIMARY",
        "M",
        "MB",
        "ND",
        "MOSAIC"
],
      "ImagedNucleus": "1H",
      "ImagingFrequency": 123.25891,
      "InPlanePhaseEncodingDirection": "COL",
      "MRAcquisitionType": "2D",
      "MagneticFieldStrength": 3.0,
      "Manufacturer": "SIEMENS",
      "ManufacturerModelName": "Prisma_fit",
      "Modality": "MR",
      "NumberOfAverages": 1.0,
      "NumberOfPhaseEncodingSteps": 104,
      "PercentPhaseFieldOfView": 100.0,
      "PercentSampling": 100.0,
      "PerformedProcedureStepStartTime": "130408.111000",
      "PhotometricInterpretation": "MONOCHROME2",
      "PixelBandwidth": 2290.0,
      "PixelRepresentation": 0,
      "PixelSpacing": [2.0, 2.0],
      "ProtocolName": "func_task-things_run-6",
      "RepetitionTime": 1490.0,
      "Rows": 832,
      "SAR": 0.04858359358933,
      "SamplesPerPixel": 1,
      "ScanOptions": "FS",
      "ScanningSequence": "EP",
      "SequenceName": "epfid2d1_104",
      "SequenceVariant": [
        "SK",
        "SS"
],
      "SeriesDescription": "func_task-things_run-6",
      "SeriesNumber": 25,
      "SeriesTime": "134748.328000",
      "SliceLocation": -38.854237888947,
      "SliceThickness": 2.0,
      "SmallestImagePixelValue": 0,
      "SoftwareVersions": "syngo MR E11",
      "SpacingBetweenSlices": 2.000000040532,
      "SpecificCharacterSet": "ISO_IR 100",
      "StudyID": "1",
      "StudyTime": "130407.931000",
      "TransmitCoilName": "Body",
      "VariableFlipAngleFlag": "N",
      "WindowCenterWidthExplanation": "Algo1",
      "dBdt": 0.0},
    "slices": {}
  },
  "time": {
    "samples": {
      "AcquisitionNumber": [1, 2, 3, 4, 5, 6, 7, 8, 9, 10, 11, 12, 13, 14, 15, 16, 17, 18, 19, 20, 21, 22, 23, 24, 25, 26, 27, 28, 29, 30, 31, 32, 33, 34, 35, 36, 37, 38, 39, 40, 41, 42, 43, 44, 45, 46, 47, 48, 49, 50, 51, 52, 53, 54, 55, 56, 57, 58, 59, 60, 61, 62, 63, 64, 65, 66, 67, 68, 69, 70, 71, 72, 73, 74, 75, 76, 77, 78, 79, 80, 81, 82, 83, 84, 85, 86, 87, 88, 89, 90, 91, 92, 93, 94, 95, 96, 97, 98, 99, 100, 101, 102, 103, 104, 105, 106, 107, 108, 109, 110, 111, 112, 113, 114, 115, 116, 117, 118, 119, 120, 121, 122, 123, 124, 125, 126, 127, 128, 129, 130, 131, 132, 133, 134, 135, 136, 137, 138, 139, 140, 141, 142, 143, 144, 145, 146, 147, 148, 149, 150, 151, 152, 153, 154, 155, 156, 157, 158, 159, 160, 161, 162, 163, 164, 165, 166, 167, 168, 169, 170, 171, 172, 173, 174, 175, 176, 177, 178, 179, 180, 181, 182, 183, 184, 185, 186, 187, 188, 189, 190],
      "AcquisitionTime": ["134631.440000", "134632.930000", "134634.420000", "134635.910000", "134637.400000", "134638.890000", "134640.380000", "134641.870000", "134643.360000", "134644.850000", "134646.340000", "134647.830000", "134649.320000", "134650.810000", "134652.300000", "134653.790000", "134655.280000", "134656.770000", "134658.260000", "134659.750000", "134701.240000", "134702.730000", "134704.220000", "134705.710000", "134707.200000", "134708.690000", "134710.180000", "134711.670000", "134713.160000", "134714.650000", "134716.140000", "134717.630000", "134719.120000", "134720.610000", "134722.100000", "134723.590000", "134725.080000", "134726.570000", "134728.060000", "134729.550000", "134731.040000", "134732.530000", "134734.020000", "134735.510000", "134737.000000", "134738.490000", "134739.980000", "134741.470000", "134742.960000", "134744.450000", "134745.940000", "134747.430000", "134748.920000", "134750.410000", "134751.900000", "134753.390000", "134754.880000", "134756.370000", "134757.860000", "134759.350000", "134800.840000", "134802.330000", "134803.820000", "134805.310000", "134806.800000", "134808.290000", "134809.780000", "134811.270000", "134812.760000", "134814.250000", "134815.740000", "134817.230000", "134818.720000", "134820.210000", "134821.700000", "134823.190000", "134824.680000", "134826.170000", "134827.660000", "134829.150000", "134830.640000", "134832.130000", "134833.620000", "134835.110000", "134836.600000", "134838.090000", "134839.580000", "134841.070000", "134842.560000", "134844.050000", "134845.540000", "134847.030000", "134848.520000", "134850.010000", "134851.500000", "134852.990000", "134854.480000", "134855.970000", "134857.460000", "134858.950000", "134900.440000", "134901.930000", "134903.420000", "134904.910000", "134906.400000", "134907.890000", "134909.380000", "134910.870000", "134912.360000", "134913.850000", "134915.340000", "134916.830000", "134918.320000", "134919.810000", "134921.300000", "134922.790000", "134924.280000", "134925.770000", "134927.260000", "134928.750000", "134930.240000", "134931.730000", "134933.220000", "134934.710000", "134936.200000", "134937.690000", "134939.180000", "134940.670000", "134942.160000", "134943.650000", "134945.140000", "134946.630000", "134948.120000", "134949.610000", "134951.100000", "134952.590000", "134954.080000", "134955.570000", "134957.060000", "134958.550000", "135000.040000", "135001.530000", "135003.020000", "135004.510000", "135006.000000", "135007.490000", "135008.980000", "135010.470000", "135011.960000", "135013.450000", "135014.940000", "135016.430000", "135017.920000", "135019.410000", "135020.900000", "135022.390000", "135023.880000", "135025.370000", "135026.860000", "135028.350000", "135029.840000", "135031.330000", "135032.820000", "135034.310000", "135035.800000", "135037.290000", "135038.780000", "135040.270000", "135041.760000", "135043.250000", "135044.740000", "135046.230000", "135047.720000", "135049.210000", "135050.700000", "135052.190000", "135053.680000", "135055.170000", "135056.660000", "135058.150000", "135059.640000", "135101.130000", "135102.620000", "135104.110000", "135105.600000", "135107.090000", "135108.580000", "135110.070000", "135111.560000", "135113.050000"],
      "ContentTime": ["134748.332000", "134748.336000", "134748.339000", "134748.342000", "134748.346000", "134748.349000", "134748.352000", "134748.356000", "134748.359000", "134748.362000", "134748.366000", "134748.369000", "134748.372000", "134748.375000", "134748.379000", "134748.382000", "134748.386000", "134748.389000", "134748.392000", "134748.396000", "134748.399000", "134748.402000", "134748.405000", "134808.290000", "134808.295000", "134808.299000", "134808.303000", "134808.306000", "134808.309000", "134808.312000", "134808.316000", "134808.319000", "134808.322000", "134808.326000", "134808.329000", "134808.332000", "134808.336000", "134808.339000", "134808.342000", "134808.346000", "134808.349000", "134808.352000", "134808.356000", "134808.359000", "134828.290000", "134828.294000", "134828.297000", "134828.300000", "134828.304000", "134828.307000", "134828.310000", "134828.314000", "134828.332000", "134828.335000", "134828.338000", "134828.341000", "134828.345000", "134828.348000", "134828.351000", "134828.355000", "134828.358000", "134828.361000", "134828.365000", "134828.368000", "134848.289000", "134848.293000", "134848.296000", "134848.299000", "134848.303000", "134848.306000", "134848.309000", "134848.313000", "134848.316000", "134848.319000", "134848.323000", "134848.326000", "134848.329000", "134848.333000", "134848.336000", "134848.339000", "134848.342000", "134848.346000", "134848.349000", "134848.352000", "134908.290000", "134908.294000", "134908.297000", "134908.300000", "134908.304000", "134908.307000", "134908.310000", "134908.314000", "134908.317000", "134908.320000", "134908.324000", "134908.327000", "134908.330000", "134908.334000", "134908.337000", "134908.340000", "134908.343000", "134908.347000", "134908.350000", "134908.353000", "134948.291000", "134948.295000", "134948.298000", "134948.302000", "134948.305000", "134948.308000", "134948.322000", "134948.325000", "134948.329000", "134948.332000", "134948.335000", "134948.339000", "134948.342000", "134948.345000", "134948.349000", "134948.352000", "134948.355000", "134948.359000", "134948.362000", "134948.365000", "134948.368000", "134948.372000", "134948.375000", "134948.378000", "134948.382000", "134948.385000", "134948.388000", "135028.290000", "135028.294000", "135028.297000", "135028.301000", "135028.304000", "135028.307000", "135028.311000", "135028.314000", "135028.317000", "135028.320000", "135028.324000", "135028.327000", "135028.331000", "135028.334000", "135028.337000", "135028.341000", "135028.344000", "135028.347000", "135028.350000", "135028.354000", "135028.371000", "135028.375000", "135028.378000", "135028.381000", "135028.385000", "135028.388000", "135028.391000", "135108.289000", "135108.293000", "135108.296000", "135108.300000", "135108.303000", "135108.307000", "135108.310000", "135108.314000", "135108.317000", "135108.320000", "135108.324000", "135108.327000", "135108.330000", "135108.334000", "135108.337000", "135108.340000", "135108.343000", "135108.347000", "135108.350000", "135108.353000", "135108.357000", "135108.360000", "135108.363000", "135108.367000", "135108.370000", "135108.373000", "135108.377000", "135114.905000", "135114.909000", "135114.912000", "135114.927000", "135114.930000"],
      "InstanceCreationTime": ["134748.332000", "134748.336000", "134748.339000", "134748.342000", "134748.346000", "134748.349000", "134748.352000", "134748.356000", "134748.359000", "134748.362000", "134748.366000", "134748.369000", "134748.372000", "134748.375000", "134748.379000", "134748.382000", "134748.386000", "134748.389000", "134748.392000", "134748.396000", "134748.399000", "134748.402000", "134748.405000", "134808.290000", "134808.295000", "134808.299000", "134808.303000", "134808.306000", "134808.309000", "134808.312000", "134808.316000", "134808.319000", "134808.322000", "134808.326000", "134808.329000", "134808.332000", "134808.336000", "134808.339000", "134808.342000", "134808.346000", "134808.349000", "134808.352000", "134808.356000", "134808.359000", "134828.290000", "134828.294000", "134828.297000", "134828.300000", "134828.304000", "134828.307000", "134828.310000", "134828.314000", "134828.332000", "134828.335000", "134828.338000", "134828.341000", "134828.345000", "134828.348000", "134828.351000", "134828.355000", "134828.358000", "134828.361000", "134828.365000", "134828.368000", "134848.289000", "134848.293000", "134848.296000", "134848.299000", "134848.303000", "134848.306000", "134848.309000", "134848.313000", "134848.316000", "134848.319000", "134848.323000", "134848.326000", "134848.329000", "134848.333000", "134848.336000", "134848.339000", "134848.342000", "134848.346000", "134848.349000", "134848.352000", "134908.290000", "134908.294000", "134908.297000", "134908.300000", "134908.304000", "134908.307000", "134908.310000", "134908.314000", "134908.317000", "134908.320000", "134908.324000", "134908.327000", "134908.330000", "134908.334000", "134908.337000", "134908.340000", "134908.343000", "134908.347000", "134908.350000", "134908.353000", "134948.291000", "134948.295000", "134948.298000", "134948.302000", "134948.305000", "134948.308000", "134948.322000", "134948.325000", "134948.329000", "134948.332000", "134948.335000", "134948.339000", "134948.342000", "134948.345000", "134948.349000", "134948.352000", "134948.355000", "134948.359000", "134948.362000", "134948.365000", "134948.368000", "134948.372000", "134948.375000", "134948.378000", "134948.382000", "134948.385000", "134948.388000", "135028.290000", "135028.294000", "135028.297000", "135028.301000", "135028.304000", "135028.307000", "135028.311000", "135028.314000", "135028.317000", "135028.320000", "135028.324000", "135028.327000", "135028.331000", "135028.334000", "135028.337000", "135028.341000", "135028.344000", "135028.347000", "135028.350000", "135028.354000", "135028.371000", "135028.375000", "135028.378000", "135028.381000", "135028.385000", "135028.388000", "135028.391000", "135108.289000", "135108.293000", "135108.296000", "135108.300000", "135108.303000", "135108.307000", "135108.310000", "135108.314000", "135108.317000", "135108.320000", "135108.324000", "135108.327000", "135108.330000", "135108.334000", "135108.337000", "135108.340000", "135108.343000", "135108.347000", "135108.350000", "135108.353000", "135108.357000", "135108.360000", "135108.363000", "135108.367000", "135108.370000", "135108.373000", "135108.377000", "135114.905000", "135114.909000", "135114.912000", "135114.927000", "135114.930000"],
      "InstanceNumber": [1, 2, 3, 4, 5, 6, 7, 8, 9, 10, 11, 12, 13, 14, 15, 16, 17, 18, 19, 20, 21, 22, 23, 24, 25, 26, 27, 28, 29, 30, 31, 32, 33, 34, 35, 36, 37, 38, 39, 40, 41, 42, 43, 44, 45, 46, 47, 48, 49, 50, 51, 52, 53, 54, 55, 56, 57, 58, 59, 60, 61, 62, 63, 64, 65, 66, 67, 68, 69, 70, 71, 72, 73, 74, 75, 76, 77, 78, 79, 80, 81, 82, 83, 84, 85, 86, 87, 88, 89, 90, 91, 92, 93, 94, 95, 96, 97, 98, 99, 100, 101, 102, 103, 104, 105, 106, 107, 108, 109, 110, 111, 112, 113, 114, 115, 116, 117, 118, 119, 120, 121, 122, 123, 124, 125, 126, 127, 128, 129, 130, 131, 132, 133, 134, 135, 136, 137, 138, 139, 140, 141, 142, 143, 144, 145, 146, 147, 148, 149, 150, 151, 152, 153, 154, 155, 156, 157, 158, 159, 160, 161, 162, 163, 164, 165, 166, 167, 168, 169, 170, 171, 172, 173, 174, 175, 176, 177, 178, 179, 180, 181, 182, 183, 184, 185, 186, 187, 188, 189, 190],
      "LargestImagePixelValue": [42648, 41170, 40739, 40288, 40486, 39869, 39595, 39824, 39830, 39758, 39786, 40141, 39911, 39713, 40211, 40138, 40091, 39845, 39806, 39693, 39446, 39774, 39893, 39997, 39558, 39858, 39936, 39672, 39692, 40056, 39755, 39553, 39218, 39961, 39547, 39313, 39795, 39227, 39944, 39723, 39885, 39789, 39520, 39245, 39737, 39598, 39681, 39682, 39711, 39850, 39548, 39550, 39898, 40103, 39828, 39562, 39138, 40177, 39475, 39891, 39549, 39469, 39506, 40261, 39868, 39644, 39797, 39983, 40054, 39392, 39976, 39725, 39613, 39910, 39720, 39735, 40217, 40146, 39552, 39452, 39955, 39705, 39361, 39877, 39546, 39803, 40467, 40161, 40009, 39715, 39681, 39838, 40095, 39674, 40048, 40192, 40049, 39570, 39732, 39695, 40019, 39783, 39720, 39898, 39751, 39733, 39775, 40012, 40125, 39974, 39476, 40125, 40046, 40175, 40207, 39737, 39605, 39904, 40044, 39696, 39949, 40366, 40028, 40076, 39659, 39788, 39554, 40147, 39766, 39716, 39718, 39590, 40260, 39705, 39936, 39791, 40142, 39962, 39872, 39664, 39800, 39773, 39985, 39864, 40167, 40087, 40413, 39985, 39886, 39844, 39786, 40279, 39902, 39860, 40249, 40072, 39979, 39854, 39730, 40256, 39815, 39929, 40362, 39931, 40255, 39902, 40092, 39649, 40387, 40246, 40001, 40180, 39687, 40108, 39854, 39906, 40170, 39910, 39956, 40031, 40484, 40407, 40079, 40078, 39934, 39961, 40244, 40267, 39944, 40132],
      "WindowCenter": [10193.0, 10146.0, 10125.0, 10127.0, 10141.0, 10143.0, 10143.0, 10129.0, 10127.0, 10125.0, 10133.0, 10149.0, 10150.0, 10144.0, 10149.0, 10151.0, 10158.0, 10152.0, 10139.0, 10135.0, 10137.0, 10150.0, 10160.0, 10170.0, 10156.0, 10146.0, 10135.0, 10118.0, 10124.0, 10140.0, 10150.0, 10163.0, 10149.0, 10134.0, 10118.0, 10109.0, 10116.0, 10126.0, 10147.0, 10153.0, 10159.0, 10130.0, 10104.0, 10093.0, 10098.0, 10106.0, 10118.0, 10123.0, 10125.0, 10133.0, 10128.0, 10142.0, 10145.0, 10151.0, 10143.0, 10127.0, 10118.0, 10128.0, 10127.0, 10142.0, 10144.0, 10136.0, 10128.0, 10131.0, 10130.0, 10126.0, 10125.0, 10133.0, 10148.0, 10137.0, 10125.0, 10109.0, 10100.0, 10105.0, 10114.0, 10133.0, 10149.0, 10143.0, 10136.0, 10126.0, 10131.0, 10134.0, 10126.0, 10124.0, 10110.0, 10116.0, 10129.0, 10139.0, 10149.0, 10145.0, 10137.0, 10122.0, 10117.0, 10123.0, 10153.0, 10165.0, 10159.0, 10143.0, 10134.0, 10142.0, 10151.0, 10154.0, 10155.0, 10161.0, 10147.0, 10143.0, 10130.0, 10133.0, 10143.0, 10143.0, 10135.0, 10132.0, 10126.0, 10131.0, 10141.0, 10152.0, 10140.0, 10119.0, 10115.0, 10108.0, 10113.0, 10131.0, 10150.0, 10152.0, 10135.0, 10110.0, 10106.0, 10124.0, 10133.0, 10127.0, 10112.0, 10109.0, 10114.0, 10125.0, 10140.0, 10141.0, 10150.0, 10160.0, 10161.0, 10147.0, 10144.0, 10137.0, 10135.0, 10142.0, 10141.0, 10136.0, 10132.0, 10118.0, 10123.0, 10125.0, 10135.0, 10141.0, 10134.0, 10134.0, 10140.0, 10142.0, 10136.0, 10143.0, 10153.0, 10149.0, 10122.0, 10102.0, 10105.0, 10113.0, 10140.0, 10166.0, 10154.0, 10129.0, 10108.0, 10096.0, 10089.0, 10109.0, 10123.0, 10141.0, 10141.0, 10141.0, 10141.0, 10142.0, 10142.0, 10143.0, 10133.0, 10124.0, 10117.0, 10125.0, 10133.0, 10125.0, 10108.0, 10105.0, 10106.0, 10114.0],
      "WindowWidth": [21717.0, 21588.0, 21531.0, 21533.0, 21558.0, 21561.0, 21558.0, 21528.0, 21520.0, 21518.0, 21536.0, 21571.0, 21575.0, 21563.0, 21570.0, 21576.0, 21592.0, 21578.0, 21550.0, 21540.0, 21547.0, 21574.0, 21598.0, 21623.0, 21590.0, 21562.0, 21537.0, 21500.0, 21513.0, 21552.0, 21576.0, 21608.0, 21575.0, 21535.0, 21499.0, 21478.0, 21494.0, 21523.0, 21566.0, 21582.0, 21591.0, 21526.0, 21467.0, 21442.0, 21450.0, 21470.0, 21500.0, 21509.0, 21516.0, 21531.0, 21523.0, 21555.0, 21564.0, 21575.0, 21555.0, 21522.0, 21500.0, 21518.0, 21523.0, 21557.0, 21559.0, 21541.0, 21523.0, 21524.0, 21525.0, 21519.0, 21516.0, 21531.0, 21567.0, 21543.0, 21511.0, 21477.0, 21456.0, 21468.0, 21491.0, 21536.0, 21570.0, 21559.0, 21542.0, 21519.0, 21528.0, 21536.0, 21518.0, 21510.0, 21483.0, 21494.0, 21522.0, 21547.0, 21571.0, 21563.0, 21545.0, 21511.0, 21496.0, 21510.0, 21577.0, 21607.0, 21592.0, 21557.0, 21537.0, 21556.0, 21577.0, 21585.0, 21588.0, 21600.0, 21568.0, 21554.0, 21527.0, 21535.0, 21556.0, 21557.0, 21540.0, 21528.0, 21519.0, 21529.0, 21551.0, 21575.0, 21551.0, 21500.0, 21488.0, 21473.0, 21483.0, 21525.0, 21572.0, 21577.0, 21536.0, 21479.0, 21470.0, 21512.0, 21535.0, 21520.0, 21487.0, 21479.0, 21487.0, 21516.0, 21547.0, 21551.0, 21572.0, 21598.0, 21599.0, 21567.0, 21560.0, 21545.0, 21540.0, 21552.0, 21549.0, 21537.0, 21528.0, 21498.0, 21508.0, 21515.0, 21537.0, 21549.0, 21536.0, 21534.0, 21549.0, 21553.0, 21541.0, 21556.0, 21579.0, 21565.0, 21509.0, 21464.0, 21465.0, 21486.0, 21550.0, 21607.0, 21581.0, 21522.0, 21470.0, 21442.0, 21430.0, 21472.0, 21510.0, 21554.0, 21552.0, 21552.0, 21552.0, 21554.0, 21552.0, 21554.0, 21529.0, 21509.0, 21495.0, 21515.0, 21531.0, 21513.0, 21473.0, 21465.0, 21469.0, 21488.0]
    },
    "slices": {}
  }
}