{
  "AcquisitionMatrixPE": 104,
  "AcquisitionNumber": 1,
  "AcquisitionTime": "13:34:12.902500",
  "BandwidthPerPixelPhaseEncode": 17.17,
  "BaseResolution": 104,
  "BodyPartExamined": "BRAIN",
  "CoilString": "HC1-7;NC1_2",
  "ConsistencyInfo": "N4_VE11C_LATEST_20160120",
  "ConversionSoftware": "dcm2niix",
  "ConversionSoftwareVersion": "v1.0.20190902",
  "DerivedVendorReportedEchoSpacing": 0.000560011,
  "DeviceSerialNumber": "167006",
  "DwellTime": 2.1e-06,
  "EchoTime": 0.037,
  "EchoTrainLength": 104,
  "EffectiveEchoSpacing": 0.000560011,
  "FlipAngle": 52,
  "HeudiconvVersion": "0.10.0",
  "ImageComments": "Unaliased_MB4_PE3_LB",
  "ImageOrientationPatientDICOM": [0.998924, 0.010759, 0.0451148, 0.00104608, 0.967248, -0.253832],
  "ImageType": [
    "ORIGINAL",
    "PRIMARY",
    "P",
    "MB",
    "ND",
    "MOSAIC"
],
  "ImagingFrequency": 123.259,
  "InPlanePhaseEncodingDirectionDICOM": "COL",
  "InstitutionAddress": "Chemin_Queen-Mary_4565_Montreal_District_CA_H3W_1W5",
  "InstitutionName": "IUGM",
  "InstitutionalDepartmentName": "Department",
  "MRAcquisitionType": "2D",
  "MagneticFieldStrength": 3,
  "Manufacturer": "Siemens",
  "ManufacturersModelName": "Prisma_fit",
  "Modality": "MR",
  "MultibandAccelerationFactor": 4,
  "PartialFourier": 1,
  "PatientPosition": "HFS",
  "PercentPhaseFOV": 100,
  "PhaseEncodingDirection": "j",
  "PhaseEncodingSteps": 104,
  "PhaseResolution": 1,
  "PixelBandwidth": 2290,
  "ProcedureStepDescription": "memory_things",
  "ProtocolName": "func_task-things_run-4",
  "PulseSequenceDetails": "%CustomerSeq%_cmrr_mbep2d_bold",
  "ReceiveCoilActiveElements": "HC1-7;NC1,2",
  "ReceiveCoilName": "HeadNeck_64",
  "ReconMatrixPE": 104,
  "RepetitionTime": 1.49,
  "SAR": 0.0485836,
  "ScanOptions": "FS",
  "ScanningSequence": "EP",
  "SequenceName": "epfid2d1_104",
  "SequenceVariant": "SK_SS",
  "SeriesDescription": "func_task-things_run-4",
  "SeriesNumber": 20,
  "ShimSetting": [641, -7211, -8785, 725, 48, 8, 61, -12],
  "SliceThickness": 2,
  "SliceTiming": [0, 0.785, 0.1, 0.8825, 0.1975, 0.98, 0.295, 1.08, 0.3925, 1.1775, 0.49, 1.275, 0.59, 1.3725, 0.6875, 0, 0.785, 0.1, 0.8825, 0.1975, 0.98, 0.295, 1.08, 0.3925, 1.1775, 0.49, 1.275, 0.59, 1.3725, 0.6875, 0, 0.785, 0.1, 0.8825, 0.1975, 0.98, 0.295, 1.08, 0.3925, 1.1775, 0.49, 1.275, 0.59, 1.3725, 0.6875, 0, 0.785, 0.1, 0.8825, 0.1975, 0.98, 0.295, 1.08, 0.3925, 1.1775, 0.49, 1.275, 0.59, 1.3725, 0.6875],
  "SoftwareVersions": "syngo_MR_E11",
  "SpacingBetweenSlices": 2,
  "StationName": "MRC35049",
  "TaskName": "things",
  "TotalReadoutTime": 0.0576811,
  "TxRefAmp": 229.866,
  "WipMemBlock": "cb251358-a177-4308-a929-843f7de65e52||Sequence: R016 ve11c/master r/e634e98; Dec 19 2017 11:00:25 by eja",
  "dcmmeta_affine": [
    [-1.9978477954864502, 0.002092157956212759, 0.09273631870746613, 106.33043670654297],
    [-0.021518031135201454, 1.934495449066162, -0.5072125792503357, -73.47113037109375],
    [0.0902295708656311, 0.5076644420623779, 1.9323911666870117, -64.60112762451172],
    [0.0, 0.0, 0.0, 1.0]
],
  "dcmmeta_reorient_transform": [
    [0.0, -1.0, 0.0, 103.0],
    [1.0, 0.0, 0.0, 0.0],
    [0.0, 0.0, 1.0, 0.0],
    [0.0, 0.0, 0.0, 1.0]
],
  "dcmmeta_shape": [104, 104, 60, 190],
  "dcmmeta_slice_dim": 2,
  "dcmmeta_version": 0.6,
  "global": {
    "const": {
      "AcquisitionMatrix": [104, 0, 0, 104],
      "AngioFlag": "N",
      "BitsAllocated": 16,
      "BitsStored": 16,
      "BodyPartExamined": "BRAIN",
      "Columns": 832,
      "EchoNumbers": 1,
      "EchoTime": 37.0,
      "EchoTrainLength": 104,
      "FlipAngle": 52.0,
      "HighBit": 15,
      "ImageOrientationPatient": [0.99892387083037, 0.01075901598587, 0.04511478538447, 0.00104607901402, 0.96724769489287, -0.2538322328687],
      "ImagePositionPatient": [-834.52405193951, -837.77078205951, 139.63461338942],
      "ImageType": [
        "ORIGINAL",
        "PRIMARY",
        "P",
        "MB",
        "ND",
        "MOSAIC"
],
      "ImagedNucleus": "1H",
      "ImagingFrequency": 123.258906,
      "InPlanePhaseEncodingDirection": "COL",
      "LargestImagePixelValue": 4095,
      "MRAcquisitionType": "2D",
      "MagneticFieldStrength": 3.0,
      "Manufacturer": "SIEMENS",
      "ManufacturerModelName": "Prisma_fit",
      "Modality": "MR",
      "NumberOfAverages": 1.0,
      "NumberOfPhaseEncodingSteps": 104,
      "PercentPhaseFieldOfView": 100.0,
      "PercentSampling": 100.0,
      "PerformedProcedureStepStartTime": "130408.111000",
      "PhotometricInterpretation": "MONOCHROME2",
      "PixelBandwidth": 2290.0,
      "PixelRepresentation": 0,
      "PixelSpacing": [2.0, 2.0],
      "ProtocolName": "func_task-things_run-4",
      "RepetitionTime": 1490.0,
      "RescaleIntercept": -4096.0,
      "RescaleSlope": 2.0,
      "RescaleType": "US",
      "Rows": 832,
      "SAR": 0.04858359358933,
      "SamplesPerPixel": 1,
      "ScanOptions": "FS",
      "ScanningSequence": "EP",
      "SequenceName": "epfid2d1_104",
      "SequenceVariant": [
        "SK",
        "SS"
],
      "SeriesDescription": "func_task-things_run-4",
      "SeriesNumber": 20,
      "SeriesTime": "133544.130000",
      "SliceLocation": -38.854237888947,
      "SliceThickness": 2.0,
      "SmallestImagePixelValue": 0,
      "SoftwareVersions": "syngo MR E11",
      "SpacingBetweenSlices": 2.000000040532,
      "SpecificCharacterSet": "ISO_IR 100",
      "StudyID": "1",
      "StudyTime": "130407.931000",
      "TransmitCoilName": "Body",
      "VariableFlipAngleFlag": "N",
      "WindowCenterWidthExplanation": "Algo1",
      "dBdt": 0.0},
    "slices": {}
  },
  "time": {
    "samples": {
      "AcquisitionNumber": [1, 2, 3, 4, 5, 6, 7, 8, 9, 10, 11, 12, 13, 14, 15, 16, 17, 18, 19, 20, 21, 22, 23, 24, 25, 26, 27, 28, 29, 30, 31, 32, 33, 34, 35, 36, 37, 38, 39, 40, 41, 42, 43, 44, 45, 46, 47, 48, 49, 50, 51, 52, 53, 54, 55, 56, 57, 58, 59, 60, 61, 62, 63, 64, 65, 66, 67, 68, 69, 70, 71, 72, 73, 74, 75, 76, 77, 78, 79, 80, 81, 82, 83, 84, 85, 86, 87, 88, 89, 90, 91, 92, 93, 94, 95, 96, 97, 98, 99, 100, 101, 102, 103, 104, 105, 106, 107, 108, 109, 110, 111, 112, 113, 114, 115, 116, 117, 118, 119, 120, 121, 122, 123, 124, 125, 126, 127, 128, 129, 130, 131, 132, 133, 134, 135, 136, 137, 138, 139, 140, 141, 142, 143, 144, 145, 146, 147, 148, 149, 150, 151, 152, 153, 154, 155, 156, 157, 158, 159, 160, 161, 162, 163, 164, 165, 166, 167, 168, 169, 170, 171, 172, 173, 174, 175, 176, 177, 178, 179, 180, 181, 182, 183, 184, 185, 186, 187, 188, 189, 190],
      "AcquisitionTime": ["133412.902500", "133414.392500", "133415.882500", "133417.372500", "133418.862500", "133420.352500", "133421.842500", "133423.332500", "133424.822500", "133426.312500", "133427.802500", "133429.292500", "133430.782500", "133432.272500", "133433.762500", "133435.252500", "133436.742500", "133438.232500", "133439.722500", "133441.212500", "133442.702500", "133444.192500", "133445.682500", "133447.172500", "133448.662500", "133450.152500", "133451.642500", "133453.132500", "133454.622500", "133456.112500", "133457.602500", "133459.092500", "133500.582500", "133502.072500", "133503.562500", "133505.052500", "133506.542500", "133508.032500", "133509.522500", "133511.012500", "133512.502500", "133513.992500", "133515.482500", "133516.972500", "133518.462500", "133519.952500", "133521.442500", "133522.932500", "133524.422500", "133525.912500", "133527.402500", "133528.892500", "133530.382500", "133531.872500", "133533.362500", "133534.852500", "133536.342500", "133537.832500", "133539.322500", "133540.812500", "133542.302500", "133543.792500", "133545.282500", "133546.772500", "133548.262500", "133549.752500", "133551.242500", "133552.732500", "133554.222500", "133555.712500", "133557.202500", "133558.692500", "133600.182500", "133601.672500", "133603.162500", "133604.652500", "133606.142500", "133607.632500", "133609.122500", "133610.612500", "133612.102500", "133613.592500", "133615.082500", "133616.572500", "133618.062500", "133619.552500", "133621.042500", "133622.532500", "133624.022500", "133625.512500", "133627.002500", "133628.492500", "133629.982500", "133631.472500", "133632.962500", "133634.452500", "133635.942500", "133637.432500", "133638.922500", "133640.412500", "133641.902500", "133643.392500", "133644.882500", "133646.372500", "133647.862500", "133649.352500", "133650.842500", "133652.332500", "133653.822500", "133655.312500", "133656.802500", "133658.292500", "133659.782500", "133701.272500", "133702.762500", "133704.252500", "133705.742500", "133707.232500", "133708.722500", "133710.212500", "133711.702500", "133713.192500", "133714.682500", "133716.172500", "133717.662500", "133719.152500", "133720.642500", "133722.132500", "133723.622500", "133725.112500", "133726.602500", "133728.092500", "133729.582500", "133731.072500", "133732.562500", "133734.052500", "133735.542500", "133737.032500", "133738.522500", "133740.012500", "133741.502500", "133742.992500", "133744.482500", "133745.972500", "133747.462500", "133748.952500", "133750.442500", "133751.932500", "133753.422500", "133754.912500", "133756.402500", "133757.892500", "133759.382500", "133800.872500", "133802.362500", "133803.852500", "133805.342500", "133806.832500", "133808.322500", "133809.812500", "133811.302500", "133812.792500", "133814.282500", "133815.772500", "133817.262500", "133818.752500", "133820.242500", "133821.732500", "133823.222500", "133824.712500", "133826.202500", "133827.692500", "133829.182500", "133830.672500", "133832.162500", "133833.652500", "133835.142500", "133836.632500", "133838.122500", "133839.612500", "133841.102500", "133842.592500", "133844.082500", "133845.572500", "133847.062500", "133848.552500", "133850.042500", "133851.532500", "133853.022500", "133854.512500"],
      "ContentTime": ["133544.132000", "133544.135000", "133544.137000", "133544.140000", "133544.142000", "133544.150000", "133544.153000", "133544.155000", "133544.158000", "133544.160000", "133544.163000", "133544.169000", "133544.172000", "133544.174000", "133544.177000", "133544.179000", "133544.182000", "133544.184000", "133544.187000", "133544.189000", "133544.192000", "133544.194000", "133544.197000", "133544.199000", "133544.202000", "133544.204000", "133544.207000", "133544.209000", "133544.212000", "133544.214000", "133544.217000", "133544.219000", "133544.222000", "133544.224000", "133544.227000", "133544.229000", "133603.952000", "133603.955000", "133603.957000", "133603.960000", "133603.962000", "133603.971000", "133603.974000", "133603.976000", "133603.979000", "133603.981000", "133603.984000", "133603.986000", "133603.989000", "133603.991000", "133603.994000", "133603.996000", "133604.000000", "133604.002000", "133604.005000", "133604.007000", "133604.010000", "133623.951000", "133623.954000", "133623.956000", "133623.959000", "133623.961000", "133623.964000", "133623.966000", "133623.969000", "133623.971000", "133623.974000", "133623.976000", "133623.979000", "133623.981000", "133623.983000", "133623.986000", "133623.989000", "133623.991000", "133623.993000", "133623.996000", "133623.998000", "133643.950000", "133643.953000", "133643.955000", "133643.958000", "133643.961000", "133643.964000", "133643.967000", "133643.970000", "133643.972000", "133643.975000", "133643.978000", "133643.981000", "133643.983000", "133643.986000", "133643.988000", "133643.991000", "133643.993000", "133643.996000", "133643.998000", "133644.002000", "133723.998000", "133724.002000", "133724.004000", "133724.007000", "133724.009000", "133724.012000", "133724.015000", "133724.017000", "133724.019000", "133724.022000", "133724.025000", "133724.027000", "133724.030000", "133724.032000", "133724.035000", "133724.037000", "133724.040000", "133724.046000", "133724.048000", "133724.051000", "133724.053000", "133724.056000", "133724.059000", "133724.061000", "133724.063000", "133724.066000", "133724.069000", "133724.071000", "133724.074000", "133724.076000", "133803.995000", "133803.998000", "133804.000000", "133804.003000", "133804.005000", "133804.008000", "133804.010000", "133804.013000", "133804.015000", "133804.018000", "133804.020000", "133804.023000", "133804.025000", "133804.028000", "133804.030000", "133804.033000", "133804.035000", "133804.038000", "133804.040000", "133804.043000", "133804.045000", "133804.048000", "133804.050000", "133804.053000", "133804.055000", "133804.058000", "133804.060000", "133843.980000", "133843.982000", "133843.985000", "133843.987000", "133843.990000", "133843.992000", "133843.995000", "133843.998000", "133844.001000", "133844.004000", "133844.006000", "133844.009000", "133844.011000", "133844.014000", "133844.016000", "133844.019000", "133844.021000", "133844.024000", "133844.026000", "133844.029000", "133844.031000", "133844.034000", "133844.036000", "133844.039000", "133844.041000", "133844.044000", "133844.046000", "133857.206000", "133857.209000", "133857.212000", "133857.214000", "133857.217000", "133857.219000", "133857.222000", "133857.224000", "133857.227000"],
      "InstanceCreationTime": ["133544.132000", "133544.135000", "133544.137000", "133544.140000", "133544.142000", "133544.150000", "133544.153000", "133544.155000", "133544.158000", "133544.160000", "133544.163000", "133544.169000", "133544.172000", "133544.174000", "133544.177000", "133544.179000", "133544.182000", "133544.184000", "133544.187000", "133544.189000", "133544.192000", "133544.194000", "133544.197000", "133544.199000", "133544.202000", "133544.204000", "133544.207000", "133544.209000", "133544.212000", "133544.214000", "133544.217000", "133544.219000", "133544.222000", "133544.224000", "133544.227000", "133544.229000", "133603.952000", "133603.955000", "133603.957000", "133603.960000", "133603.962000", "133603.971000", "133603.974000", "133603.976000", "133603.979000", "133603.981000", "133603.984000", "133603.986000", "133603.989000", "133603.991000", "133603.994000", "133603.996000", "133604.000000", "133604.002000", "133604.005000", "133604.007000", "133604.010000", "133623.951000", "133623.954000", "133623.956000", "133623.959000", "133623.961000", "133623.964000", "133623.966000", "133623.969000", "133623.971000", "133623.974000", "133623.976000", "133623.979000", "133623.981000", "133623.983000", "133623.986000", "133623.989000", "133623.991000", "133623.993000", "133623.996000", "133623.998000", "133643.950000", "133643.953000", "133643.955000", "133643.958000", "133643.961000", "133643.964000", "133643.967000", "133643.970000", "133643.972000", "133643.975000", "133643.978000", "133643.981000", "133643.983000", "133643.986000", "133643.988000", "133643.991000", "133643.993000", "133643.996000", "133643.998000", "133644.002000", "133723.998000", "133724.002000", "133724.004000", "133724.007000", "133724.009000", "133724.012000", "133724.015000", "133724.017000", "133724.019000", "133724.022000", "133724.025000", "133724.027000", "133724.030000", "133724.032000", "133724.035000", "133724.037000", "133724.040000", "133724.046000", "133724.048000", "133724.051000", "133724.053000", "133724.056000", "133724.059000", "133724.061000", "133724.063000", "133724.066000", "133724.069000", "133724.071000", "133724.074000", "133724.076000", "133803.995000", "133803.998000", "133804.000000", "133804.003000", "133804.005000", "133804.008000", "133804.010000", "133804.013000", "133804.015000", "133804.018000", "133804.020000", "133804.023000", "133804.025000", "133804.028000", "133804.030000", "133804.033000", "133804.035000", "133804.038000", "133804.040000", "133804.043000", "133804.045000", "133804.048000", "133804.050000", "133804.053000", "133804.055000", "133804.058000", "133804.060000", "133843.980000", "133843.982000", "133843.985000", "133843.987000", "133843.990000", "133843.992000", "133843.995000", "133843.998000", "133844.001000", "133844.004000", "133844.006000", "133844.009000", "133844.011000", "133844.014000", "133844.016000", "133844.019000", "133844.021000", "133844.024000", "133844.026000", "133844.029000", "133844.031000", "133844.034000", "133844.036000", "133844.039000", "133844.041000", "133844.044000", "133844.046000", "133857.206000", "133857.209000", "133857.212000", "133857.214000", "133857.217000", "133857.219000", "133857.222000", "133857.224000", "133857.227000"],
      "InstanceNumber": [1, 2, 3, 4, 5, 6, 7, 8, 9, 10, 11, 12, 13, 14, 15, 16, 17, 18, 19, 20, 21, 22, 23, 24, 25, 26, 27, 28, 29, 30, 31, 32, 33, 34, 35, 36, 37, 38, 39, 40, 41, 42, 43, 44, 45, 46, 47, 48, 49, 50, 51, 52, 53, 54, 55, 56, 57, 58, 59, 60, 61, 62, 63, 64, 65, 66, 67, 68, 69, 70, 71, 72, 73, 74, 75, 76, 77, 78, 79, 80, 81, 82, 83, 84, 85, 86, 87, 88, 89, 90, 91, 92, 93, 94, 95, 96, 97, 98, 99, 100, 101, 102, 103, 104, 105, 106, 107, 108, 109, 110, 111, 112, 113, 114, 115, 116, 117, 118, 119, 120, 121, 122, 123, 124, 125, 126, 127, 128, 129, 130, 131, 132, 133, 134, 135, 136, 137, 138, 139, 140, 141, 142, 143, 144, 145, 146, 147, 148, 149, 150, 151, 152, 153, 154, 155, 156, 157, 158, 159, 160, 161, 162, 163, 164, 165, 166, 167, 168, 169, 170, 171, 172, 173, 174, 175, 176, 177, 178, 179, 180, 181, 182, 183, 184, 185, 186, 187, 188, 189, 190],
      "WindowCenter": [4746.0, 4770.0, 4750.0, 4750.0, 4744.0, 4748.0, 4744.0, 4770.0, 4740.0, 4744.0, 4770.0, 4744.0, 4748.0, 4748.0, 4746.0, 4748.0, 4770.0, 4746.0, 4770.0, 4746.0, 4770.0, 4744.0, 4744.0, 4748.0, 4748.0, 4748.0, 4746.0, 4748.0, 4746.0, 4766.0, 4744.0, 4770.0, 4744.0, 4746.0, 4746.0, 4768.0, 4746.0, 4768.0, 4746.0, 4746.0, 4746.0, 4748.0, 4748.0, 4748.0, 4744.0, 4746.0, 4746.0, 4768.0, 4748.0, 4768.0, 4746.0, 4746.0, 4746.0, 4748.0, 4744.0, 4746.0, 4748.0, 4744.0, 4746.0, 4744.0, 4768.0, 4748.0, 4768.0, 4744.0, 4746.0, 4746.0, 4746.0, 4746.0, 4744.0, 4748.0, 4744.0, 4748.0, 4744.0, 4768.0, 4766.0, 4744.0, 4746.0, 4746.0, 4748.0, 4744.0, 4746.0, 4740.0, 4746.0, 4748.0, 4748.0, 4746.0, 4746.0, 4746.0, 4748.0, 4744.0, 4766.0, 4744.0, 4746.0, 4746.0, 4746.0, 4744.0, 4746.0, 4744.0, 4746.0, 4746.0, 4772.0, 4746.0, 4744.0, 4746.0, 4746.0, 4746.0, 4748.0, 4770.0, 4744.0, 4750.0, 4770.0, 4744.0, 4746.0, 4746.0, 4748.0, 4770.0, 4746.0, 4746.0, 4768.0, 4750.0, 4746.0, 4748.0, 4768.0, 4746.0, 4746.0, 4744.0, 4744.0, 4744.0, 4746.0, 4744.0, 4746.0, 4746.0, 4748.0, 4770.0, 4746.0, 4746.0, 4748.0, 4746.0, 4748.0, 4748.0, 4746.0, 4746.0, 4750.0, 4748.0, 4748.0, 4768.0, 4742.0, 4748.0, 4742.0, 4744.0, 4768.0, 4770.0, 4744.0, 4748.0, 4744.0, 4750.0, 4746.0, 4748.0, 4746.0, 4766.0, 4748.0, 4746.0, 4744.0, 4748.0, 4744.0, 4770.0, 4744.0, 4744.0, 4748.0, 4748.0, 4744.0, 4772.0, 4770.0, 4744.0, 4744.0, 4748.0, 4746.0, 4744.0, 4746.0, 4744.0, 4768.0, 4744.0, 4748.0, 4744.0, 4766.0, 4746.0, 4746.0, 4746.0, 4750.0, 4744.0],
      "WindowWidth": [18544.0, 18570.0, 18546.0, 18542.0, 18542.0, 18548.0, 18544.0, 18576.0, 18540.0, 18546.0, 18578.0, 18542.0, 18546.0, 18542.0, 18544.0, 18542.0, 18576.0, 18548.0, 18576.0, 18542.0, 18576.0, 18544.0, 18542.0, 18544.0, 18546.0, 18544.0, 18542.0, 18546.0, 18544.0, 18576.0, 18540.0, 18574.0, 18538.0, 18544.0, 18544.0, 18578.0, 18548.0, 18576.0, 18548.0, 18548.0, 18540.0, 18544.0, 18544.0, 18548.0, 18546.0, 18542.0, 18544.0, 18574.0, 18546.0, 18576.0, 18542.0, 18546.0, 18540.0, 18544.0, 18540.0, 18544.0, 18546.0, 18540.0, 18544.0, 18546.0, 18576.0, 18546.0, 18572.0, 18546.0, 18542.0, 18542.0, 18544.0, 18544.0, 18544.0, 18544.0, 18544.0, 18546.0, 18542.0, 18576.0, 18574.0, 18542.0, 18542.0, 18544.0, 18542.0, 18540.0, 18546.0, 18540.0, 18544.0, 18544.0, 18544.0, 18546.0, 18542.0, 18546.0, 18546.0, 18540.0, 18574.0, 18540.0, 18546.0, 18542.0, 18544.0, 18542.0, 18542.0, 18542.0, 18546.0, 18546.0, 18580.0, 18542.0, 18542.0, 18542.0, 18544.0, 18544.0, 18542.0, 18578.0, 18542.0, 18546.0, 18578.0, 18540.0, 18542.0, 18542.0, 18546.0, 18574.0, 18550.0, 18538.0, 18576.0, 18546.0, 18544.0, 18546.0, 18570.0, 18546.0, 18546.0, 18538.0, 18542.0, 18542.0, 18548.0, 18542.0, 18538.0, 18540.0, 18546.0, 18576.0, 18544.0, 18544.0, 18548.0, 18542.0, 18542.0, 18536.0, 18544.0, 18544.0, 18544.0, 18546.0, 18546.0, 18570.0, 18540.0, 18544.0, 18536.0, 18540.0, 18572.0, 18574.0, 18542.0, 18544.0, 18540.0, 18546.0, 18540.0, 18548.0, 18540.0, 18574.0, 18548.0, 18544.0, 18542.0, 18546.0, 18542.0, 18572.0, 18540.0, 18538.0, 18546.0, 18546.0, 18542.0, 18576.0, 18578.0, 18542.0, 18542.0, 18542.0, 18544.0, 18538.0, 18540.0, 18540.0, 18574.0, 18538.0, 18546.0, 18536.0, 18572.0, 18542.0, 18542.0, 18542.0, 18542.0, 18538.0]
    },
    "slices": {}
  }
}