{
  "AcquisitionMatrixPE": 104,
  "AcquisitionNumber": 1,
  "AcquisitionTime": "13:16:7.837500",
  "BandwidthPerPixelPhaseEncode": 17.17,
  "BaseResolution": 104,
  "BodyPartExamined": "BRAIN",
  "CoilString": "HC1-7;NC1_2",
  "ConsistencyInfo": "N4_VE11C_LATEST_20160120",
  "ConversionSoftware": "dcm2niix",
  "ConversionSoftwareVersion": "v1.0.20190902",
  "DerivedVendorReportedEchoSpacing": 0.000560011,
  "DeviceSerialNumber": "167006",
  "DwellTime": 2.1e-06,
  "EchoTime": 0.037,
  "EchoTrainLength": 104,
  "EffectiveEchoSpacing": 0.000560011,
  "FlipAngle": 52,
  "HeudiconvVersion": "0.10.0",
  "ImageComments": "Unaliased_MB4_PE3_LB",
  "ImageOrientationPatientDICOM": [0.998924, 0.010759, 0.0451148, 0.00104608, 0.967248, -0.253832],
  "ImageType": [
    "ORIGINAL",
    "PRIMARY",
    "M",
    "MB",
    "ND",
    "MOSAIC"
],
  "ImagingFrequency": 123.259,
  "InPlanePhaseEncodingDirectionDICOM": "COL",
  "InstitutionAddress": "Chemin_Queen-Mary_4565_Montreal_District_CA_H3W_1W5",
  "InstitutionName": "IUGM",
  "InstitutionalDepartmentName": "Department",
  "MRAcquisitionType": "2D",
  "MagneticFieldStrength": 3,
  "Manufacturer": "Siemens",
  "ManufacturersModelName": "Prisma_fit",
  "Modality": "MR",
  "MultibandAccelerationFactor": 4,
  "PartialFourier": 1,
  "PatientPosition": "HFS",
  "PercentPhaseFOV": 100,
  "PhaseEncodingDirection": "j",
  "PhaseEncodingSteps": 104,
  "PhaseResolution": 1,
  "PixelBandwidth": 2290,
  "ProcedureStepDescription": "memory_things",
  "ProtocolName": "func_task-things_run-1",
  "PulseSequenceDetails": "%CustomerSeq%_cmrr_mbep2d_bold",
  "ReceiveCoilActiveElements": "HC1-7;NC1,2",
  "ReceiveCoilName": "HeadNeck_64",
  "ReconMatrixPE": 104,
  "RepetitionTime": 1.49,
  "SAR": 0.0485836,
  "ScanOptions": "FS",
  "ScanningSequence": "EP",
  "SequenceName": "epfid2d1_104",
  "SequenceVariant": "SK_SS",
  "SeriesDescription": "func_task-things_run-1",
  "SeriesNumber": 10,
  "ShimSetting": [641, -7211, -8785, 725, 48, 8, 61, -12],
  "SliceThickness": 2,
  "SliceTiming": [0, 0.785, 0.0975, 0.8825, 0.195, 0.98, 0.295, 1.0775, 0.3925, 1.175, 0.49, 1.275, 0.5875, 1.3725, 0.685, 0, 0.785, 0.0975, 0.8825, 0.195, 0.98, 0.295, 1.0775, 0.3925, 1.175, 0.49, 1.275, 0.5875, 1.3725, 0.685, 0, 0.785, 0.0975, 0.8825, 0.195, 0.98, 0.295, 1.0775, 0.3925, 1.175, 0.49, 1.275, 0.5875, 1.3725, 0.685, 0, 0.785, 0.0975, 0.8825, 0.195, 0.98, 0.295, 1.0775, 0.3925, 1.175, 0.49, 1.275, 0.5875, 1.3725, 0.685],
  "SoftwareVersions": "syngo_MR_E11",
  "SpacingBetweenSlices": 2,
  "StationName": "MRC35049",
  "TaskName": "things",
  "TotalReadoutTime": 0.0576811,
  "TxRefAmp": 229.866,
  "WipMemBlock": "718820d6-8f6c-4ccf-ac3b-57090a8aa392||Sequence: R016 ve11c/master r/e634e98; Dec 19 2017 11:00:25 by eja",
  "dcmmeta_affine": [
    [-1.9978477954864502, 0.002092157956212759, 0.09273631870746613, 106.33043670654297],
    [-0.021518031135201454, 1.934495449066162, -0.5072125792503357, -73.47113037109375],
    [0.0902295708656311, 0.5076644420623779, 1.9323911666870117, -64.60112762451172],
    [0.0, 0.0, 0.0, 1.0]
],
  "dcmmeta_reorient_transform": [
    [0.0, -1.0, 0.0, 103.0],
    [1.0, 0.0, 0.0, 0.0],
    [0.0, 0.0, 1.0, 0.0],
    [0.0, 0.0, 0.0, 1.0]
],
  "dcmmeta_shape": [104, 104, 60, 190],
  "dcmmeta_slice_dim": 2,
  "dcmmeta_version": 0.6,
  "global": {
    "const": {
      "AcquisitionMatrix": [104, 0, 0, 104],
      "AngioFlag": "N",
      "BitsAllocated": 16,
      "BitsStored": 16,
      "BodyPartExamined": "BRAIN",
      "Columns": 832,
      "EchoNumbers": 1,
      "EchoTime": 37.0,
      "EchoTrainLength": 104,
      "FlipAngle": 52.0,
      "HighBit": 15,
      "ImageOrientationPatient": [0.99892387083037, 0.01075901598587, 0.04511478538447, 0.00104607901402, 0.96724769489287, -0.2538322328687],
      "ImagePositionPatient": [-834.52405193951, -837.77078205951, 139.63461338942],
      "ImageType": [
        "ORIGINAL",
        "PRIMARY",
        "M",
        "MB",
        "ND",
        "MOSAIC"
],
      "ImagedNucleus": "1H",
      "ImagingFrequency": 123.258896,
      "InPlanePhaseEncodingDirection": "COL",
      "MRAcquisitionType": "2D",
      "MagneticFieldStrength": 3.0,
      "Manufacturer": "SIEMENS",
      "ManufacturerModelName": "Prisma_fit",
      "Modality": "MR",
      "NumberOfAverages": 1.0,
      "NumberOfPhaseEncodingSteps": 104,
      "PercentPhaseFieldOfView": 100.0,
      "PercentSampling": 100.0,
      "PerformedProcedureStepStartTime": "130408.111000",
      "PhotometricInterpretation": "MONOCHROME2",
      "PixelBandwidth": 2290.0,
      "PixelRepresentation": 0,
      "PixelSpacing": [2.0, 2.0],
      "ProtocolName": "func_task-things_run-1",
      "RepetitionTime": 1490.0,
      "Rows": 832,
      "SAR": 0.04858359358933,
      "SamplesPerPixel": 1,
      "ScanOptions": "FS",
      "ScanningSequence": "EP",
      "SequenceName": "epfid2d1_104",
      "SequenceVariant": [
        "SK",
        "SS"
],
      "SeriesDescription": "func_task-things_run-1",
      "SeriesNumber": 10,
      "SeriesTime": "131723.866000",
      "SliceLocation": -38.854237888947,
      "SliceThickness": 2.0,
      "SmallestImagePixelValue": 0,
      "SoftwareVersions": "syngo MR E11",
      "SpacingBetweenSlices": 2.000000040532,
      "SpecificCharacterSet": "ISO_IR 100",
      "StudyID": "1",
      "StudyTime": "130407.931000",
      "TransmitCoilName": "Body",
      "VariableFlipAngleFlag": "N",
      "WindowCenterWidthExplanation": "Algo1",
      "dBdt": 0.0},
    "slices": {}
  },
  "time": {
    "samples": {
      "AcquisitionNumber": [1, 2, 3, 4, 5, 6, 7, 8, 9, 10, 11, 12, 13, 14, 15, 16, 17, 18, 19, 20, 21, 22, 23, 24, 25, 26, 27, 28, 29, 30, 31, 32, 33, 34, 35, 36, 37, 38, 39, 40, 41, 42, 43, 44, 45, 46, 47, 48, 49, 50, 51, 52, 53, 54, 55, 56, 57, 58, 59, 60, 61, 62, 63, 64, 65, 66, 67, 68, 69, 70, 71, 72, 73, 74, 75, 76, 77, 78, 79, 80, 81, 82, 83, 84, 85, 86, 87, 88, 89, 90, 91, 92, 93, 94, 95, 96, 97, 98, 99, 100, 101, 102, 103, 104, 105, 106, 107, 108, 109, 110, 111, 112, 113, 114, 115, 116, 117, 118, 119, 120, 121, 122, 123, 124, 125, 126, 127, 128, 129, 130, 131, 132, 133, 134, 135, 136, 137, 138, 139, 140, 141, 142, 143, 144, 145, 146, 147, 148, 149, 150, 151, 152, 153, 154, 155, 156, 157, 158, 159, 160, 161, 162, 163, 164, 165, 166, 167, 168, 169, 170, 171, 172, 173, 174, 175, 176, 177, 178, 179, 180, 181, 182, 183, 184, 185, 186, 187, 188, 189, 190],
      "AcquisitionTime": ["131607.837500", "131609.327500", "131610.817500", "131612.307500", "131613.797500", "131615.287500", "131616.777500", "131618.267500", "131619.757500", "131621.247500", "131622.737500", "131624.227500", "131625.717500", "131627.207500", "131628.697500", "131630.187500", "131631.677500", "131633.167500", "131634.657500", "131636.147500", "131637.637500", "131639.127500", "131640.617500", "131642.107500", "131643.597500", "131645.087500", "131646.577500", "131648.067500", "131649.557500", "131651.047500", "131652.537500", "131654.027500", "131655.517500", "131657.007500", "131658.497500", "131659.987500", "131701.477500", "131702.967500", "131704.457500", "131705.947500", "131707.437500", "131708.927500", "131710.417500", "131711.907500", "131713.397500", "131714.887500", "131716.377500", "131717.867500", "131719.357500", "131720.847500", "131722.337500", "131723.827500", "131725.317500", "131726.807500", "131728.297500", "131729.787500", "131731.277500", "131732.767500", "131734.257500", "131735.747500", "131737.237500", "131738.727500", "131740.217500", "131741.707500", "131743.197500", "131744.687500", "131746.177500", "131747.667500", "131749.157500", "131750.647500", "131752.137500", "131753.627500", "131755.117500", "131756.607500", "131758.097500", "131759.587500", "131801.077500", "131802.567500", "131804.057500", "131805.547500", "131807.037500", "131808.527500", "131810.017500", "131811.507500", "131812.997500", "131814.487500", "131815.977500", "131817.467500", "131818.957500", "131820.447500", "131821.937500", "131823.427500", "131824.917500", "131826.407500", "131827.897500", "131829.387500", "131830.877500", "131832.367500", "131833.857500", "131835.347500", "131836.837500", "131838.327500", "131839.817500", "131841.307500", "131842.797500", "131844.287500", "131845.777500", "131847.267500", "131848.757500", "131850.247500", "131851.737500", "131853.227500", "131854.717500", "131856.207500", "131857.697500", "131859.187500", "131900.677500", "131902.167500", "131903.657500", "131905.147500", "131906.637500", "131908.127500", "131909.617500", "131911.107500", "131912.597500", "131914.087500", "131915.577500", "131917.067500", "131918.557500", "131920.047500", "131921.537500", "131923.027500", "131924.517500", "131926.007500", "131927.497500", "131928.987500", "131930.477500", "131931.967500", "131933.457500", "131934.947500", "131936.437500", "131937.927500", "131939.417500", "131940.907500", "131942.397500", "131943.887500", "131945.377500", "131946.867500", "131948.357500", "131949.847500", "131951.337500", "131952.827500", "131954.317500", "131955.807500", "131957.297500", "131958.787500", "132000.277500", "132001.767500", "132003.257500", "132004.747500", "132006.237500", "132007.727500", "132009.217500", "132010.707500", "132012.197500", "132013.687500", "132015.177500", "132016.667500", "132018.157500", "132019.647500", "132021.137500", "132022.627500", "132024.117500", "132025.607500", "132027.097500", "132028.587500", "132030.077500", "132031.567500", "132033.057500", "132034.547500", "132036.037500", "132037.527500", "132039.017500", "132040.507500", "132041.997500", "132043.487500", "132044.977500", "132046.467500", "132047.957500", "132049.447500"],
      "ContentTime": ["131723.869000", "131723.873000", "131723.877000", "131723.880000", "131723.883000", "131723.887000", "131723.890000", "131723.893000", "131723.896000", "131723.900000", "131723.907000", "131723.910000", "131723.913000", "131723.917000", "131723.920000", "131723.923000", "131723.926000", "131723.930000", "131723.933000", "131723.936000", "131723.939000", "131723.943000", "131743.843000", "131743.847000", "131743.850000", "131743.865000", "131743.869000", "131743.872000", "131743.875000", "131743.879000", "131743.882000", "131743.885000", "131743.889000", "131743.892000", "131743.895000", "131743.898000", "131743.902000", "131743.905000", "131743.908000", "131743.911000", "131743.915000", "131743.918000", "131743.921000", "131803.843000", "131803.855000", "131803.859000", "131803.862000", "131803.865000", "131803.869000", "131803.872000", "131803.875000", "131803.878000", "131803.882000", "131803.885000", "131803.888000", "131803.892000", "131803.895000", "131803.898000", "131803.901000", "131803.905000", "131803.908000", "131803.911000", "131803.915000", "131823.842000", "131823.846000", "131823.849000", "131823.852000", "131823.856000", "131823.859000", "131823.862000", "131823.866000", "131823.869000", "131823.872000", "131823.875000", "131823.879000", "131823.882000", "131823.885000", "131823.889000", "131823.892000", "131823.895000", "131823.898000", "131823.902000", "131823.905000", "131843.842000", "131843.846000", "131843.849000", "131843.852000", "131843.856000", "131843.859000", "131843.862000", "131843.866000", "131843.869000", "131843.872000", "131843.876000", "131843.879000", "131843.884000", "131843.887000", "131843.891000", "131843.895000", "131843.898000", "131843.902000", "131843.905000", "131843.909000", "131923.842000", "131923.846000", "131923.849000", "131923.852000", "131923.856000", "131923.859000", "131923.862000", "131923.866000", "131923.869000", "131923.872000", "131923.876000", "131923.880000", "131923.883000", "131923.887000", "131923.890000", "131923.894000", "131923.897000", "131923.900000", "131923.903000", "131923.907000", "131923.910000", "131923.913000", "131923.917000", "131923.920000", "131923.923000", "131923.926000", "131923.930000", "132003.843000", "132003.847000", "132003.850000", "132003.853000", "132003.857000", "132003.860000", "132003.863000", "132003.867000", "132003.870000", "132003.873000", "132003.876000", "132003.880000", "132003.883000", "132003.902000", "132003.905000", "132003.909000", "132003.912000", "132003.915000", "132003.919000", "132003.922000", "132003.925000", "132003.929000", "132003.932000", "132003.935000", "132003.939000", "132003.942000", "132003.945000", "132043.842000", "132043.846000", "132043.849000", "132043.852000", "132043.856000", "132043.859000", "132043.863000", "132043.866000", "132043.869000", "132043.873000", "132043.876000", "132043.879000", "132043.882000", "132043.886000", "132043.890000", "132043.893000", "132043.896000", "132043.900000", "132043.903000", "132043.906000", "132043.910000", "132043.913000", "132043.916000", "132043.920000", "132043.923000", "132043.926000", "132043.929000", "132051.988000", "132051.992000", "132051.995000", "132052.007000", "132052.011000", "132052.014000"],
      "InstanceCreationTime": ["131723.869000", "131723.873000", "131723.877000", "131723.880000", "131723.883000", "131723.887000", "131723.890000", "131723.893000", "131723.896000", "131723.900000", "131723.907000", "131723.910000", "131723.913000", "131723.917000", "131723.920000", "131723.923000", "131723.926000", "131723.930000", "131723.933000", "131723.936000", "131723.939000", "131723.943000", "131743.843000", "131743.847000", "131743.850000", "131743.865000", "131743.869000", "131743.872000", "131743.875000", "131743.879000", "131743.882000", "131743.885000", "131743.889000", "131743.892000", "131743.895000", "131743.898000", "131743.902000", "131743.905000", "131743.908000", "131743.911000", "131743.915000", "131743.918000", "131743.921000", "131803.843000", "131803.855000", "131803.859000", "131803.862000", "131803.865000", "131803.869000", "131803.872000", "131803.875000", "131803.878000", "131803.882000", "131803.885000", "131803.888000", "131803.892000", "131803.895000", "131803.898000", "131803.901000", "131803.905000", "131803.908000", "131803.911000", "131803.915000", "131823.842000", "131823.846000", "131823.849000", "131823.852000", "131823.856000", "131823.859000", "131823.862000", "131823.866000", "131823.869000", "131823.872000", "131823.875000", "131823.879000", "131823.882000", "131823.885000", "131823.889000", "131823.892000", "131823.895000", "131823.898000", "131823.902000", "131823.905000", "131843.842000", "131843.846000", "131843.849000", "131843.852000", "131843.856000", "131843.859000", "131843.862000", "131843.866000", "131843.869000", "131843.872000", "131843.876000", "131843.879000", "131843.884000", "131843.887000", "131843.891000", "131843.895000", "131843.898000", "131843.902000", "131843.905000", "131843.909000", "131923.842000", "131923.846000", "131923.849000", "131923.852000", "131923.856000", "131923.859000", "131923.862000", "131923.866000", "131923.869000", "131923.872000", "131923.876000", "131923.880000", "131923.883000", "131923.887000", "131923.890000", "131923.894000", "131923.897000", "131923.900000", "131923.903000", "131923.907000", "131923.910000", "131923.913000", "131923.917000", "131923.920000", "131923.923000", "131923.926000", "131923.930000", "132003.843000", "132003.847000", "132003.850000", "132003.853000", "132003.857000", "132003.860000", "132003.863000", "132003.867000", "132003.870000", "132003.873000", "132003.876000", "132003.880000", "132003.883000", "132003.902000", "132003.905000", "132003.909000", "132003.912000", "132003.915000", "132003.919000", "132003.922000", "132003.925000", "132003.929000", "132003.932000", "132003.935000", "132003.939000", "132003.942000", "132003.945000", "132043.842000", "132043.846000", "132043.849000", "132043.852000", "132043.856000", "132043.859000", "132043.863000", "132043.866000", "132043.869000", "132043.873000", "132043.876000", "132043.879000", "132043.882000", "132043.886000", "132043.890000", "132043.893000", "132043.896000", "132043.900000", "132043.903000", "132043.906000", "132043.910000", "132043.913000", "132043.916000", "132043.920000", "132043.923000", "132043.926000", "132043.929000", "132051.988000", "132051.992000", "132051.995000", "132052.007000", "132052.011000", "132052.014000"],
      "InstanceNumber": [1, 2, 3, 4, 5, 6, 7, 8, 9, 10, 11, 12, 13, 14, 15, 16, 17, 18, 19, 20, 21, 22, 23, 24, 25, 26, 27, 28, 29, 30, 31, 32, 33, 34, 35, 36, 37, 38, 39, 40, 41, 42, 43, 44, 45, 46, 47, 48, 49, 50, 51, 52, 53, 54, 55, 56, 57, 58, 59, 60, 61, 62, 63, 64, 65, 66, 67, 68, 69, 70, 71, 72, 73, 74, 75, 76, 77, 78, 79, 80, 81, 82, 83, 84, 85, 86, 87, 88, 89, 90, 91, 92, 93, 94, 95, 96, 97, 98, 99, 100, 101, 102, 103, 104, 105, 106, 107, 108, 109, 110, 111, 112, 113, 114, 115, 116, 117, 118, 119, 120, 121, 122, 123, 124, 125, 126, 127, 128, 129, 130, 131, 132, 133, 134, 135, 136, 137, 138, 139, 140, 141, 142, 143, 144, 145, 146, 147, 148, 149, 150, 151, 152, 153, 154, 155, 156, 157, 158, 159, 160, 161, 162, 163, 164, 165, 166, 167, 168, 169, 170, 171, 172, 173, 174, 175, 176, 177, 178, 179, 180, 181, 182, 183, 184, 185, 186, 187, 188, 189, 190],
      "LargestImagePixelValue": [42489, 41452, 40546, 40485, 39994, 39994, 40149, 40359, 40348, 40356, 40835, 40250, 40312, 39859, 40045, 40258, 40542, 40264, 39976, 40284, 39887, 40270, 40438, 40146, 40186, 40270, 40020, 40517, 40434, 40228, 40187, 40377, 40163, 40463, 40046, 40013, 40336, 40073, 40587, 40064, 39964, 40188, 40352, 39680, 40605, 40228, 40129, 39972, 40385, 40161, 40276, 39863, 40300, 40316, 39998, 39814, 39783, 39899, 39741, 40391, 40330, 39173, 39801, 39920, 39947, 39807, 40092, 39611, 39968, 39979, 39998, 39888, 39842, 39999, 40261, 40399, 39763, 40270, 39978, 39625, 40167, 39441, 40286, 39828, 40036, 39716, 40168, 39695, 40362, 39717, 40012, 39982, 39995, 39978, 39624, 39753, 39798, 40179, 39904, 39544, 40010, 39748, 40027, 39940, 39595, 39497, 39675, 39907, 39792, 39900, 39934, 40276, 39575, 39772, 39558, 39874, 39656, 39541, 39827, 39347, 39740, 39953, 39811, 39533, 39519, 39496, 39408, 39957, 39686, 39478, 40073, 39844, 39978, 39921, 40211, 38547, 39420, 39907, 39807, 39443, 39719, 39811, 39857, 39670, 40061, 40012, 39707, 39827, 40102, 39291, 39768, 39822, 39879, 39703, 40015, 39598, 39258, 39368, 40007, 39588, 39643, 39788, 39758, 39485, 39847, 39608, 39805, 40017, 39565, 39391, 40014, 39674, 39684, 39509, 39867, 39497, 39871, 39778, 39849, 39594, 39323, 39979, 39841, 39591, 39497, 39938, 39572, 39643, 39859, 40087],
      "WindowCenter": [10273.0, 10226.0, 10206.0, 10203.0, 10200.0, 10188.0, 10179.0, 10192.0, 10200.0, 10201.0, 10207.0, 10210.0, 10217.0, 10221.0, 10213.0, 10211.0, 10224.0, 10225.0, 10219.0, 10202.0, 10192.0, 10193.0, 10208.0, 10199.0, 10203.0, 10200.0, 10209.0, 10218.0, 10219.0, 10205.0, 10201.0, 10197.0, 10199.0, 10200.0, 10209.0, 10212.0, 10212.0, 10212.0, 10219.0, 10219.0, 10221.0, 10221.0, 10213.0, 10207.0, 10220.0, 10226.0, 10222.0, 10208.0, 10195.0, 10186.0, 10193.0, 10204.0, 10211.0, 10212.0, 10211.0, 10197.0, 10187.0, 10186.0, 10187.0, 10194.0, 10193.0, 10182.0, 10195.0, 10211.0, 10221.0, 10217.0, 10205.0, 10196.0, 10196.0, 10203.0, 10210.0, 10206.0, 10197.0, 10203.0, 10214.0, 10221.0, 10206.0, 10194.0, 10184.0, 10187.0, 10216.0, 10219.0, 10223.0, 10215.0, 10198.0, 10183.0, 10186.0, 10193.0, 10218.0, 10223.0, 10217.0, 10206.0, 10205.0, 10213.0, 10217.0, 10225.0, 10225.0, 10231.0, 10223.0, 10209.0, 10214.0, 10205.0, 10199.0, 10206.0, 10206.0, 10198.0, 10189.0, 10189.0, 10189.0, 10211.0, 10215.0, 10208.0, 10199.0, 10206.0, 10201.0, 10206.0, 10191.0, 10181.0, 10187.0, 10198.0, 10201.0, 10197.0, 10185.0, 10191.0, 10191.0, 10199.0, 10208.0, 10214.0, 10207.0, 10194.0, 10196.0, 10196.0, 10206.0, 10214.0, 10207.0, 10195.0, 10210.0, 10195.0, 10175.0, 10158.0, 10171.0, 10188.0, 10206.0, 10194.0, 10182.0, 10173.0, 10172.0, 10173.0, 10179.0, 10181.0, 10183.0, 10192.0, 10204.0, 10198.0, 10190.0, 10190.0, 10192.0, 10193.0, 10206.0, 10200.0, 10185.0, 10174.0, 10179.0, 10189.0, 10204.0, 10193.0, 10182.0, 10178.0, 10179.0, 10184.0, 10205.0, 10207.0, 10201.0, 10206.0, 10206.0, 10200.0, 10192.0, 10183.0, 10181.0, 10180.0, 10185.0, 10206.0, 10199.0, 10182.0, 10167.0, 10184.0, 10196.0, 10199.0, 10189.0, 10157.0],
      "WindowWidth": [21909.0, 21780.0, 21724.0, 21709.0, 21702.0, 21670.0, 21647.0, 21675.0, 21692.0, 21695.0, 21707.0, 21716.0, 21731.0, 21743.0, 21726.0, 21722.0, 21749.0, 21751.0, 21737.0, 21698.0, 21674.0, 21678.0, 21710.0, 21694.0, 21700.0, 21689.0, 21712.0, 21735.0, 21735.0, 21704.0, 21691.0, 21681.0, 21687.0, 21691.0, 21713.0, 21725.0, 21720.0, 21719.0, 21735.0, 21736.0, 21743.0, 21744.0, 21725.0, 21712.0, 21738.0, 21752.0, 21746.0, 21713.0, 21679.0, 21659.0, 21675.0, 21705.0, 21720.0, 21720.0, 21719.0, 21687.0, 21663.0, 21660.0, 21666.0, 21681.0, 21674.0, 21654.0, 21684.0, 21719.0, 21743.0, 21734.0, 21705.0, 21683.0, 21685.0, 21698.0, 21714.0, 21708.0, 21687.0, 21697.0, 21725.0, 21739.0, 21707.0, 21675.0, 21653.0, 21663.0, 21728.0, 21740.0, 21747.0, 21725.0, 21687.0, 21654.0, 21659.0, 21675.0, 21733.0, 21747.0, 21735.0, 21706.0, 21703.0, 21722.0, 21735.0, 21754.0, 21754.0, 21763.0, 21744.0, 21714.0, 21724.0, 21704.0, 21692.0, 21707.0, 21707.0, 21689.0, 21667.0, 21667.0, 21667.0, 21716.0, 21727.0, 21708.0, 21687.0, 21703.0, 21698.0, 21704.0, 21670.0, 21647.0, 21658.0, 21687.0, 21695.0, 21685.0, 21658.0, 21670.0, 21670.0, 21692.0, 21712.0, 21725.0, 21708.0, 21680.0, 21682.0, 21684.0, 21706.0, 21723.0, 21707.0, 21683.0, 21714.0, 21681.0, 21631.0, 21593.0, 21621.0, 21663.0, 21702.0, 21679.0, 21646.0, 21626.0, 21626.0, 21627.0, 21641.0, 21648.0, 21655.0, 21676.0, 21698.0, 21686.0, 21667.0, 21668.0, 21673.0, 21678.0, 21705.0, 21690.0, 21656.0, 21630.0, 21641.0, 21666.0, 21699.0, 21676.0, 21650.0, 21637.0, 21641.0, 21655.0, 21701.0, 21705.0, 21696.0, 21704.0, 21702.0, 21689.0, 21671.0, 21651.0, 21645.0, 21644.0, 21660.0, 21705.0, 21689.0, 21649.0, 21614.0, 21649.0, 21680.0, 21689.0, 21661.0, 21590.0]
    },
    "slices": {}
  }
}