{
  "AcquisitionMatrixPE": 104,
  "AcquisitionNumber": 1,
  "AcquisitionTime": "13:16:7.837500",
  "BandwidthPerPixelPhaseEncode": 17.17,
  "BaseResolution": 104,
  "BodyPartExamined": "BRAIN",
  "CoilString": "HC1-7;NC1_2",
  "ConsistencyInfo": "N4_VE11C_LATEST_20160120",
  "ConversionSoftware": "dcm2niix",
  "ConversionSoftwareVersion": "v1.0.20190902",
  "DerivedVendorReportedEchoSpacing": 0.000560011,
  "DeviceSerialNumber": "167006",
  "DwellTime": 2.1e-06,
  "EchoTime": 0.037,
  "EchoTrainLength": 104,
  "EffectiveEchoSpacing": 0.000560011,
  "FlipAngle": 52,
  "HeudiconvVersion": "0.10.0",
  "ImageComments": "Unaliased_MB4_PE3_LB",
  "ImageOrientationPatientDICOM": [0.998924, 0.010759, 0.0451148, 0.00104608, 0.967248, -0.253832],
  "ImageType": [
    "ORIGINAL",
    "PRIMARY",
    "P",
    "MB",
    "ND",
    "MOSAIC"
],
  "ImagingFrequency": 123.259,
  "InPlanePhaseEncodingDirectionDICOM": "COL",
  "InstitutionAddress": "Chemin_Queen-Mary_4565_Montreal_District_CA_H3W_1W5",
  "InstitutionName": "IUGM",
  "InstitutionalDepartmentName": "Department",
  "MRAcquisitionType": "2D",
  "MagneticFieldStrength": 3,
  "Manufacturer": "Siemens",
  "ManufacturersModelName": "Prisma_fit",
  "Modality": "MR",
  "MultibandAccelerationFactor": 4,
  "PartialFourier": 1,
  "PatientPosition": "HFS",
  "PercentPhaseFOV": 100,
  "PhaseEncodingDirection": "j",
  "PhaseEncodingSteps": 104,
  "PhaseResolution": 1,
  "PixelBandwidth": 2290,
  "ProcedureStepDescription": "memory_things",
  "ProtocolName": "func_task-things_run-1",
  "PulseSequenceDetails": "%CustomerSeq%_cmrr_mbep2d_bold",
  "ReceiveCoilActiveElements": "HC1-7;NC1,2",
  "ReceiveCoilName": "HeadNeck_64",
  "ReconMatrixPE": 104,
  "RepetitionTime": 1.49,
  "SAR": 0.0485836,
  "ScanOptions": "FS",
  "ScanningSequence": "EP",
  "SequenceName": "epfid2d1_104",
  "SequenceVariant": "SK_SS",
  "SeriesDescription": "func_task-things_run-1",
  "SeriesNumber": 11,
  "ShimSetting": [641, -7211, -8785, 725, 48, 8, 61, -12],
  "SliceThickness": 2,
  "SliceTiming": [0, 0.785, 0.0975, 0.8825, 0.195, 0.98, 0.295, 1.0775, 0.3925, 1.175, 0.49, 1.275, 0.5875, 1.3725, 0.685, 0, 0.785, 0.0975, 0.8825, 0.195, 0.98, 0.295, 1.0775, 0.3925, 1.175, 0.49, 1.275, 0.5875, 1.3725, 0.685, 0, 0.785, 0.0975, 0.8825, 0.195, 0.98, 0.295, 1.0775, 0.3925, 1.175, 0.49, 1.275, 0.5875, 1.3725, 0.685, 0, 0.785, 0.0975, 0.8825, 0.195, 0.98, 0.295, 1.0775, 0.3925, 1.175, 0.49, 1.275, 0.5875, 1.3725, 0.685],
  "SoftwareVersions": "syngo_MR_E11",
  "SpacingBetweenSlices": 2,
  "StationName": "MRC35049",
  "TaskName": "things",
  "TotalReadoutTime": 0.0576811,
  "TxRefAmp": 229.866,
  "WipMemBlock": "718820d6-8f6c-4ccf-ac3b-57090a8aa392||Sequence: R016 ve11c/master r/e634e98; Dec 19 2017 11:00:25 by eja",
  "dcmmeta_affine": [
    [-1.9978477954864502, 0.002092157956212759, 0.09273631870746613, 106.33043670654297],
    [-0.021518031135201454, 1.934495449066162, -0.5072125792503357, -73.47113037109375],
    [0.0902295708656311, 0.5076644420623779, 1.9323911666870117, -64.60112762451172],
    [0.0, 0.0, 0.0, 1.0]
],
  "dcmmeta_reorient_transform": [
    [0.0, -1.0, 0.0, 103.0],
    [1.0, 0.0, 0.0, 0.0],
    [0.0, 0.0, 1.0, 0.0],
    [0.0, 0.0, 0.0, 1.0]
],
  "dcmmeta_shape": [104, 104, 60, 190],
  "dcmmeta_slice_dim": 2,
  "dcmmeta_version": 0.6,
  "global": {
    "const": {
      "AcquisitionMatrix": [104, 0, 0, 104],
      "AngioFlag": "N",
      "BitsAllocated": 16,
      "BitsStored": 16,
      "BodyPartExamined": "BRAIN",
      "Columns": 832,
      "EchoNumbers": 1,
      "EchoTime": 37.0,
      "EchoTrainLength": 104,
      "FlipAngle": 52.0,
      "HighBit": 15,
      "ImageOrientationPatient": [0.99892387083037, 0.01075901598587, 0.04511478538447, 0.00104607901402, 0.96724769489287, -0.2538322328687],
      "ImagePositionPatient": [-834.52405193951, -837.77078205951, 139.63461338942],
      "ImageType": [
        "ORIGINAL",
        "PRIMARY",
        "P",
        "MB",
        "ND",
        "MOSAIC"
],
      "ImagedNucleus": "1H",
      "ImagingFrequency": 123.258896,
      "InPlanePhaseEncodingDirection": "COL",
      "LargestImagePixelValue": 4095,
      "MRAcquisitionType": "2D",
      "MagneticFieldStrength": 3.0,
      "Manufacturer": "SIEMENS",
      "ManufacturerModelName": "Prisma_fit",
      "Modality": "MR",
      "NumberOfAverages": 1.0,
      "NumberOfPhaseEncodingSteps": 104,
      "PercentPhaseFieldOfView": 100.0,
      "PercentSampling": 100.0,
      "PerformedProcedureStepStartTime": "130408.111000",
      "PhotometricInterpretation": "MONOCHROME2",
      "PixelBandwidth": 2290.0,
      "PixelRepresentation": 0,
      "PixelSpacing": [2.0, 2.0],
      "ProtocolName": "func_task-things_run-1",
      "RepetitionTime": 1490.0,
      "RescaleIntercept": -4096.0,
      "RescaleSlope": 2.0,
      "RescaleType": "US",
      "Rows": 832,
      "SAR": 0.04858359358933,
      "SamplesPerPixel": 1,
      "ScanOptions": "FS",
      "ScanningSequence": "EP",
      "SequenceName": "epfid2d1_104",
      "SequenceVariant": [
        "SK",
        "SS"
],
      "SeriesDescription": "func_task-things_run-1",
      "SeriesNumber": 11,
      "SeriesTime": "131724.006000",
      "SliceLocation": -38.854237888947,
      "SliceThickness": 2.0,
      "SmallestImagePixelValue": 0,
      "SoftwareVersions": "syngo MR E11",
      "SpacingBetweenSlices": 2.000000040532,
      "SpecificCharacterSet": "ISO_IR 100",
      "StudyID": "1",
      "StudyTime": "130407.931000",
      "TransmitCoilName": "Body",
      "VariableFlipAngleFlag": "N",
      "WindowCenterWidthExplanation": "Algo1",
      "dBdt": 0.0},
    "slices": {}
  },
  "time": {
    "samples": {
      "AcquisitionNumber": [1, 2, 3, 4, 5, 6, 7, 8, 9, 10, 11, 12, 13, 14, 15, 16, 17, 18, 19, 20, 21, 22, 23, 24, 25, 26, 27, 28, 29, 30, 31, 32, 33, 34, 35, 36, 37, 38, 39, 40, 41, 42, 43, 44, 45, 46, 47, 48, 49, 50, 51, 52, 53, 54, 55, 56, 57, 58, 59, 60, 61, 62, 63, 64, 65, 66, 67, 68, 69, 70, 71, 72, 73, 74, 75, 76, 77, 78, 79, 80, 81, 82, 83, 84, 85, 86, 87, 88, 89, 90, 91, 92, 93, 94, 95, 96, 97, 98, 99, 100, 101, 102, 103, 104, 105, 106, 107, 108, 109, 110, 111, 112, 113, 114, 115, 116, 117, 118, 119, 120, 121, 122, 123, 124, 125, 126, 127, 128, 129, 130, 131, 132, 133, 134, 135, 136, 137, 138, 139, 140, 141, 142, 143, 144, 145, 146, 147, 148, 149, 150, 151, 152, 153, 154, 155, 156, 157, 158, 159, 160, 161, 162, 163, 164, 165, 166, 167, 168, 169, 170, 171, 172, 173, 174, 175, 176, 177, 178, 179, 180, 181, 182, 183, 184, 185, 186, 187, 188, 189, 190],
      "AcquisitionTime": ["131607.837500", "131609.327500", "131610.817500", "131612.307500", "131613.797500", "131615.287500", "131616.777500", "131618.267500", "131619.757500", "131621.247500", "131622.737500", "131624.227500", "131625.717500", "131627.207500", "131628.697500", "131630.187500", "131631.677500", "131633.167500", "131634.657500", "131636.147500", "131637.637500", "131639.127500", "131640.617500", "131642.107500", "131643.597500", "131645.087500", "131646.577500", "131648.067500", "131649.557500", "131651.047500", "131652.537500", "131654.027500", "131655.517500", "131657.007500", "131658.497500", "131659.987500", "131701.477500", "131702.967500", "131704.457500", "131705.947500", "131707.437500", "131708.927500", "131710.417500", "131711.907500", "131713.397500", "131714.887500", "131716.377500", "131717.867500", "131719.357500", "131720.847500", "131722.337500", "131723.827500", "131725.317500", "131726.807500", "131728.297500", "131729.787500", "131731.277500", "131732.767500", "131734.257500", "131735.747500", "131737.237500", "131738.727500", "131740.217500", "131741.707500", "131743.197500", "131744.687500", "131746.177500", "131747.667500", "131749.157500", "131750.647500", "131752.137500", "131753.627500", "131755.117500", "131756.607500", "131758.097500", "131759.587500", "131801.077500", "131802.567500", "131804.057500", "131805.547500", "131807.037500", "131808.527500", "131810.017500", "131811.507500", "131812.997500", "131814.487500", "131815.977500", "131817.467500", "131818.957500", "131820.447500", "131821.937500", "131823.427500", "131824.917500", "131826.407500", "131827.897500", "131829.387500", "131830.877500", "131832.367500", "131833.857500", "131835.347500", "131836.837500", "131838.327500", "131839.817500", "131841.307500", "131842.797500", "131844.287500", "131845.777500", "131847.267500", "131848.757500", "131850.247500", "131851.737500", "131853.227500", "131854.717500", "131856.207500", "131857.697500", "131859.187500", "131900.677500", "131902.167500", "131903.657500", "131905.147500", "131906.637500", "131908.127500", "131909.617500", "131911.107500", "131912.597500", "131914.087500", "131915.577500", "131917.067500", "131918.557500", "131920.047500", "131921.537500", "131923.027500", "131924.517500", "131926.007500", "131927.497500", "131928.987500", "131930.477500", "131931.967500", "131933.457500", "131934.947500", "131936.437500", "131937.927500", "131939.417500", "131940.907500", "131942.397500", "131943.887500", "131945.377500", "131946.867500", "131948.357500", "131949.847500", "131951.337500", "131952.827500", "131954.317500", "131955.807500", "131957.297500", "131958.787500", "132000.277500", "132001.767500", "132003.257500", "132004.747500", "132006.237500", "132007.727500", "132009.217500", "132010.707500", "132012.197500", "132013.687500", "132015.177500", "132016.667500", "132018.157500", "132019.647500", "132021.137500", "132022.627500", "132024.117500", "132025.607500", "132027.097500", "132028.587500", "132030.077500", "132031.567500", "132033.057500", "132034.547500", "132036.037500", "132037.527500", "132039.017500", "132040.507500", "132041.997500", "132043.487500", "132044.977500", "132046.467500", "132047.957500", "132049.447500"],
      "ContentTime": ["131724.008000", "131724.010000", "131724.013000", "131724.015000", "131724.018000", "131724.020000", "131724.023000", "131724.025000", "131724.028000", "131724.030000", "131724.033000", "131724.035000", "131724.038000", "131724.040000", "131724.043000", "131724.046000", "131724.048000", "131724.052000", "131724.062000", "131724.065000", "131724.068000", "131724.070000", "131743.966000", "131743.968000", "131743.979000", "131743.981000", "131743.984000", "131743.986000", "131743.989000", "131743.991000", "131743.994000", "131743.996000", "131744.000000", "131744.003000", "131744.005000", "131744.007000", "131744.010000", "131744.013000", "131744.015000", "131744.017000", "131744.020000", "131744.022000", "131744.025000", "131803.953000", "131803.955000", "131803.958000", "131803.960000", "131803.963000", "131803.965000", "131803.968000", "131803.970000", "131803.973000", "131803.975000", "131803.978000", "131803.980000", "131803.982000", "131803.985000", "131803.988000", "131803.990000", "131803.993000", "131803.995000", "131803.998000", "131804.001000", "131823.957000", "131823.960000", "131823.963000", "131823.965000", "131823.968000", "131823.970000", "131823.973000", "131823.975000", "131823.978000", "131823.980000", "131823.983000", "131823.985000", "131823.987000", "131823.990000", "131823.993000", "131823.995000", "131823.997000", "131824.001000", "131824.004000", "131824.006000", "131843.962000", "131843.965000", "131843.967000", "131843.970000", "131843.973000", "131843.984000", "131843.986000", "131843.989000", "131843.991000", "131843.994000", "131843.996000", "131844.000000", "131844.002000", "131844.005000", "131844.008000", "131844.010000", "131844.012000", "131844.015000", "131844.018000", "131844.020000", "131923.987000", "131923.990000", "131923.993000", "131923.995000", "131923.998000", "131924.003000", "131924.006000", "131924.008000", "131924.011000", "131924.014000", "131924.016000", "131924.019000", "131924.022000", "131924.024000", "131924.027000", "131924.029000", "131924.032000", "131924.034000", "131924.037000", "131924.039000", "131924.042000", "131924.046000", "131924.049000", "131924.051000", "131924.054000", "131924.056000", "131924.059000", "132003.995000", "132003.998000", "132004.002000", "132004.004000", "132004.007000", "132004.009000", "132004.012000", "132004.014000", "132004.017000", "132004.019000", "132004.022000", "132004.024000", "132004.027000", "132004.029000", "132004.032000", "132004.034000", "132004.037000", "132004.040000", "132004.042000", "132004.044000", "132004.047000", "132004.050000", "132004.052000", "132004.054000", "132004.057000", "132004.060000", "132004.062000", "132043.974000", "132043.977000", "132043.980000", "132043.982000", "132043.985000", "132043.987000", "132043.990000", "132043.992000", "132043.995000", "132043.997000", "132044.001000", "132044.003000", "132044.006000", "132044.008000", "132044.011000", "132044.014000", "132044.016000", "132044.019000", "132044.021000", "132044.024000", "132044.026000", "132044.029000", "132044.031000", "132044.034000", "132044.036000", "132044.039000", "132044.041000", "132052.057000", "132052.060000", "132052.063000", "132052.065000", "132052.068000", "132052.074000"],
      "InstanceCreationTime": ["131724.008000", "131724.010000", "131724.013000", "131724.015000", "131724.018000", "131724.020000", "131724.023000", "131724.025000", "131724.028000", "131724.030000", "131724.033000", "131724.035000", "131724.038000", "131724.040000", "131724.043000", "131724.046000", "131724.048000", "131724.052000", "131724.062000", "131724.065000", "131724.068000", "131724.070000", "131743.966000", "131743.968000", "131743.979000", "131743.981000", "131743.984000", "131743.986000", "131743.989000", "131743.991000", "131743.994000", "131743.996000", "131744.000000", "131744.003000", "131744.005000", "131744.007000", "131744.010000", "131744.013000", "131744.015000", "131744.017000", "131744.020000", "131744.022000", "131744.025000", "131803.953000", "131803.955000", "131803.958000", "131803.960000", "131803.963000", "131803.965000", "131803.968000", "131803.970000", "131803.973000", "131803.975000", "131803.978000", "131803.980000", "131803.982000", "131803.985000", "131803.988000", "131803.990000", "131803.993000", "131803.995000", "131803.998000", "131804.001000", "131823.957000", "131823.960000", "131823.963000", "131823.965000", "131823.968000", "131823.970000", "131823.973000", "131823.975000", "131823.978000", "131823.980000", "131823.983000", "131823.985000", "131823.987000", "131823.990000", "131823.993000", "131823.995000", "131823.997000", "131824.001000", "131824.004000", "131824.006000", "131843.962000", "131843.965000", "131843.967000", "131843.970000", "131843.973000", "131843.984000", "131843.986000", "131843.989000", "131843.991000", "131843.994000", "131843.996000", "131844.000000", "131844.002000", "131844.005000", "131844.008000", "131844.010000", "131844.012000", "131844.015000", "131844.018000", "131844.020000", "131923.987000", "131923.990000", "131923.993000", "131923.995000", "131923.998000", "131924.003000", "131924.006000", "131924.008000", "131924.011000", "131924.014000", "131924.016000", "131924.019000", "131924.022000", "131924.024000", "131924.027000", "131924.029000", "131924.032000", "131924.034000", "131924.037000", "131924.039000", "131924.042000", "131924.046000", "131924.049000", "131924.051000", "131924.054000", "131924.056000", "131924.059000", "132003.995000", "132003.998000", "132004.002000", "132004.004000", "132004.007000", "132004.009000", "132004.012000", "132004.014000", "132004.017000", "132004.019000", "132004.022000", "132004.024000", "132004.027000", "132004.029000", "132004.032000", "132004.034000", "132004.037000", "132004.040000", "132004.042000", "132004.044000", "132004.047000", "132004.050000", "132004.052000", "132004.054000", "132004.057000", "132004.060000", "132004.062000", "132043.974000", "132043.977000", "132043.980000", "132043.982000", "132043.985000", "132043.987000", "132043.990000", "132043.992000", "132043.995000", "132043.997000", "132044.001000", "132044.003000", "132044.006000", "132044.008000", "132044.011000", "132044.014000", "132044.016000", "132044.019000", "132044.021000", "132044.024000", "132044.026000", "132044.029000", "132044.031000", "132044.034000", "132044.036000", "132044.039000", "132044.041000", "132052.057000", "132052.060000", "132052.063000", "132052.065000", "132052.068000", "132052.074000"],
      "InstanceNumber": [1, 2, 3, 4, 5, 6, 7, 8, 9, 10, 11, 12, 13, 14, 15, 16, 17, 18, 19, 20, 21, 22, 23, 24, 25, 26, 27, 28, 29, 30, 31, 32, 33, 34, 35, 36, 37, 38, 39, 40, 41, 42, 43, 44, 45, 46, 47, 48, 49, 50, 51, 52, 53, 54, 55, 56, 57, 58, 59, 60, 61, 62, 63, 64, 65, 66, 67, 68, 69, 70, 71, 72, 73, 74, 75, 76, 77, 78, 79, 80, 81, 82, 83, 84, 85, 86, 87, 88, 89, 90, 91, 92, 93, 94, 95, 96, 97, 98, 99, 100, 101, 102, 103, 104, 105, 106, 107, 108, 109, 110, 111, 112, 113, 114, 115, 116, 117, 118, 119, 120, 121, 122, 123, 124, 125, 126, 127, 128, 129, 130, 131, 132, 133, 134, 135, 136, 137, 138, 139, 140, 141, 142, 143, 144, 145, 146, 147, 148, 149, 150, 151, 152, 153, 154, 155, 156, 157, 158, 159, 160, 161, 162, 163, 164, 165, 166, 167, 168, 169, 170, 171, 172, 173, 174, 175, 176, 177, 178, 179, 180, 181, 182, 183, 184, 185, 186, 187, 188, 189, 190],
      "WindowCenter": [4748.0, 4748.0, 4748.0, 4748.0, 4748.0, 4772.0, 4770.0, 4746.0, 4772.0, 4750.0, 4746.0, 4750.0, 4748.0, 4746.0, 4748.0, 4748.0, 4746.0, 4748.0, 4748.0, 4748.0, 4748.0, 4772.0, 4748.0, 4750.0, 4746.0, 4750.0, 4748.0, 4750.0, 4746.0, 4746.0, 4748.0, 4750.0, 4750.0, 4748.0, 4772.0, 4748.0, 4748.0, 4748.0, 4750.0, 4772.0, 4746.0, 4748.0, 4748.0, 4748.0, 4752.0, 4750.0, 4746.0, 4750.0, 4750.0, 4746.0, 4746.0, 4774.0, 4770.0, 4748.0, 4748.0, 4748.0, 4748.0, 4748.0, 4750.0, 4750.0, 4750.0, 4748.0, 4748.0, 4748.0, 4746.0, 4750.0, 4746.0, 4750.0, 4774.0, 4748.0, 4746.0, 4746.0, 4770.0, 4748.0, 4746.0, 4748.0, 4750.0, 4746.0, 4774.0, 4746.0, 4748.0, 4746.0, 4748.0, 4772.0, 4746.0, 4746.0, 4750.0, 4748.0, 4746.0, 4746.0, 4748.0, 4750.0, 4750.0, 4748.0, 4748.0, 4746.0, 4748.0, 4746.0, 4748.0, 4744.0, 4748.0, 4750.0, 4770.0, 4746.0, 4752.0, 4748.0, 4748.0, 4748.0, 4750.0, 4746.0, 4746.0, 4752.0, 4748.0, 4774.0, 4774.0, 4774.0, 4748.0, 4750.0, 4746.0, 4748.0, 4750.0, 4750.0, 4750.0, 4744.0, 4748.0, 4750.0, 4744.0, 4748.0, 4748.0, 4748.0, 4746.0, 4750.0, 4746.0, 4752.0, 4750.0, 4750.0, 4746.0, 4750.0, 4748.0, 4750.0, 4748.0, 4748.0, 4744.0, 4750.0, 4748.0, 4750.0, 4748.0, 4750.0, 4748.0, 4748.0, 4748.0, 4750.0, 4748.0, 4750.0, 4750.0, 4748.0, 4744.0, 4748.0, 4748.0, 4746.0, 4748.0, 4750.0, 4748.0, 4748.0, 4748.0, 4748.0, 4748.0, 4750.0, 4750.0, 4748.0, 4752.0, 4750.0, 4750.0, 4748.0, 4746.0, 4750.0, 4748.0, 4748.0, 4746.0, 4752.0, 4748.0, 4748.0, 4750.0, 4748.0, 4750.0, 4748.0, 4746.0, 4748.0, 4746.0, 4748.0],
      "WindowWidth": [18548.0, 18544.0, 18546.0, 18538.0, 18546.0, 18574.0, 18572.0, 18542.0, 18572.0, 18544.0, 18544.0, 18546.0, 18542.0, 18540.0, 18548.0, 18548.0, 18536.0, 18542.0, 18544.0, 18540.0, 18544.0, 18578.0, 18542.0, 18544.0, 18544.0, 18544.0, 18542.0, 18540.0, 18544.0, 18542.0, 18546.0, 18542.0, 18544.0, 18542.0, 18576.0, 18542.0, 18542.0, 18538.0, 18544.0, 18574.0, 18542.0, 18538.0, 18538.0, 18544.0, 18540.0, 18542.0, 18544.0, 18542.0, 18548.0, 18540.0, 18538.0, 18576.0, 18572.0, 18544.0, 18546.0, 18542.0, 18540.0, 18538.0, 18544.0, 18544.0, 18538.0, 18540.0, 18542.0, 18542.0, 18540.0, 18546.0, 18540.0, 18546.0, 18576.0, 18538.0, 18538.0, 18536.0, 18574.0, 18542.0, 18540.0, 18544.0, 18538.0, 18538.0, 18576.0, 18538.0, 18544.0, 18538.0, 18538.0, 18574.0, 18540.0, 18544.0, 18544.0, 18548.0, 18538.0, 18546.0, 18538.0, 18542.0, 18546.0, 18536.0, 18540.0, 18540.0, 18544.0, 18540.0, 18544.0, 18536.0, 18544.0, 18542.0, 18572.0, 18538.0, 18546.0, 18542.0, 18538.0, 18540.0, 18544.0, 18534.0, 18544.0, 18546.0, 18544.0, 18570.0, 18574.0, 18570.0, 18540.0, 18540.0, 18542.0, 18536.0, 18544.0, 18540.0, 18542.0, 18538.0, 18546.0, 18542.0, 18536.0, 18540.0, 18542.0, 18540.0, 18540.0, 18538.0, 18536.0, 18542.0, 18540.0, 18538.0, 18532.0, 18542.0, 18540.0, 18544.0, 18540.0, 18544.0, 18538.0, 18540.0, 18538.0, 18544.0, 18540.0, 18540.0, 18544.0, 18538.0, 18540.0, 18548.0, 18542.0, 18544.0, 18546.0, 18542.0, 18534.0, 18540.0, 18538.0, 18540.0, 18540.0, 18542.0, 18538.0, 18538.0, 18540.0, 18542.0, 18538.0, 18542.0, 18536.0, 18542.0, 18542.0, 18544.0, 18544.0, 18544.0, 18542.0, 18546.0, 18542.0, 18538.0, 18536.0, 18544.0, 18538.0, 18534.0, 18544.0, 18538.0, 18544.0, 18540.0, 18538.0, 18536.0, 18536.0, 18538.0]
    },
    "slices": {}
  }
}