{
  "AcquisitionMatrixPE": 104,
  "AcquisitionNumber": 1,
  "AcquisitionTime": "13:40:16.195000",
  "BandwidthPerPixelPhaseEncode": 17.17,
  "BaseResolution": 104,
  "BodyPartExamined": "BRAIN",
  "CoilString": "HC1-7;NC1_2",
  "ConsistencyInfo": "N4_VE11C_LATEST_20160120",
  "ConversionSoftware": "dcm2niix",
  "ConversionSoftwareVersion": "v1.0.20190902",
  "DerivedVendorReportedEchoSpacing": 0.000560011,
  "DeviceSerialNumber": "167006",
  "DwellTime": 2.1e-06,
  "EchoTime": 0.037,
  "EchoTrainLength": 104,
  "EffectiveEchoSpacing": 0.000560011,
  "FlipAngle": 52,
  "HeudiconvVersion": "0.10.0",
  "ImageComments": "Unaliased_MB4_PE3_LB",
  "ImageOrientationPatientDICOM": [0.998924, 0.010759, 0.0451148, 0.00104608, 0.967248, -0.253832],
  "ImageType": [
    "ORIGINAL",
    "PRIMARY",
    "P",
    "MB",
    "ND",
    "MOSAIC"
],
  "ImagingFrequency": 123.259,
  "InPlanePhaseEncodingDirectionDICOM": "COL",
  "InstitutionAddress": "Chemin_Queen-Mary_4565_Montreal_District_CA_H3W_1W5",
  "InstitutionName": "IUGM",
  "InstitutionalDepartmentName": "Department",
  "MRAcquisitionType": "2D",
  "MagneticFieldStrength": 3,
  "Manufacturer": "Siemens",
  "ManufacturersModelName": "Prisma_fit",
  "Modality": "MR",
  "MultibandAccelerationFactor": 4,
  "PartialFourier": 1,
  "PatientPosition": "HFS",
  "PercentPhaseFOV": 100,
  "PhaseEncodingDirection": "j",
  "PhaseEncodingSteps": 104,
  "PhaseResolution": 1,
  "PixelBandwidth": 2290,
  "ProcedureStepDescription": "memory_things",
  "ProtocolName": "func_task-things_run-5",
  "PulseSequenceDetails": "%CustomerSeq%_cmrr_mbep2d_bold",
  "ReceiveCoilActiveElements": "HC1-7;NC1,2",
  "ReceiveCoilName": "HeadNeck_64",
  "ReconMatrixPE": 104,
  "RepetitionTime": 1.49,
  "SAR": 0.0485836,
  "ScanOptions": "FS",
  "ScanningSequence": "EP",
  "SequenceName": "epfid2d1_104",
  "SequenceVariant": "SK_SS",
  "SeriesDescription": "func_task-things_run-5",
  "SeriesNumber": 23,
  "ShimSetting": [641, -7211, -8785, 725, 48, 8, 61, -12],
  "SliceThickness": 2,
  "SliceTiming": [0, 0.785, 0.0975, 0.8825, 0.195, 0.98, 0.295, 1.0775, 0.3925, 1.175, 0.49, 1.2725, 0.5875, 1.3725, 0.685, 0, 0.785, 0.0975, 0.8825, 0.195, 0.98, 0.295, 1.0775, 0.3925, 1.175, 0.49, 1.2725, 0.5875, 1.3725, 0.685, 0, 0.785, 0.0975, 0.8825, 0.195, 0.98, 0.295, 1.0775, 0.3925, 1.175, 0.49, 1.2725, 0.5875, 1.3725, 0.685, 0, 0.785, 0.0975, 0.8825, 0.195, 0.98, 0.295, 1.0775, 0.3925, 1.175, 0.49, 1.2725, 0.5875, 1.3725, 0.685],
  "SoftwareVersions": "syngo_MR_E11",
  "SpacingBetweenSlices": 2,
  "StationName": "MRC35049",
  "TaskName": "things",
  "TotalReadoutTime": 0.0576811,
  "TxRefAmp": 229.866,
  "WipMemBlock": "f712ab0e-5cde-48b9-bc5a-291e368a7c60||Sequence: R016 ve11c/master r/e634e98; Dec 19 2017 11:00:25 by eja",
  "dcmmeta_affine": [
    [-1.9978477954864502, 0.002092157956212759, 0.09273631870746613, 106.33043670654297],
    [-0.021518031135201454, 1.934495449066162, -0.5072125792503357, -73.47113037109375],
    [0.0902295708656311, 0.5076644420623779, 1.9323911666870117, -64.60112762451172],
    [0.0, 0.0, 0.0, 1.0]
],
  "dcmmeta_reorient_transform": [
    [0.0, -1.0, 0.0, 103.0],
    [1.0, 0.0, 0.0, 0.0],
    [0.0, 0.0, 1.0, 0.0],
    [0.0, 0.0, 0.0, 1.0]
],
  "dcmmeta_shape": [104, 104, 60, 190],
  "dcmmeta_slice_dim": 2,
  "dcmmeta_version": 0.6,
  "global": {
    "const": {
      "AcquisitionMatrix": [104, 0, 0, 104],
      "AngioFlag": "N",
      "BitsAllocated": 16,
      "BitsStored": 16,
      "BodyPartExamined": "BRAIN",
      "Columns": 832,
      "EchoNumbers": 1,
      "EchoTime": 37.0,
      "EchoTrainLength": 104,
      "FlipAngle": 52.0,
      "HighBit": 15,
      "ImageOrientationPatient": [0.99892387083037, 0.01075901598587, 0.04511478538447, 0.00104607901402, 0.96724769489287, -0.2538322328687],
      "ImagePositionPatient": [-834.52405193951, -837.77078205951, 139.63461338942],
      "ImageType": [
        "ORIGINAL",
        "PRIMARY",
        "P",
        "MB",
        "ND",
        "MOSAIC"
],
      "ImagedNucleus": "1H",
      "ImagingFrequency": 123.258908,
      "InPlanePhaseEncodingDirection": "COL",
      "LargestImagePixelValue": 4095,
      "MRAcquisitionType": "2D",
      "MagneticFieldStrength": 3.0,
      "Manufacturer": "SIEMENS",
      "ManufacturerModelName": "Prisma_fit",
      "Modality": "MR",
      "NumberOfAverages": 1.0,
      "NumberOfPhaseEncodingSteps": 104,
      "PercentPhaseFieldOfView": 100.0,
      "PercentSampling": 100.0,
      "PerformedProcedureStepStartTime": "130408.111000",
      "PhotometricInterpretation": "MONOCHROME2",
      "PixelBandwidth": 2290.0,
      "PixelRepresentation": 0,
      "PixelSpacing": [2.0, 2.0],
      "ProtocolName": "func_task-things_run-5",
      "RepetitionTime": 1490.0,
      "RescaleIntercept": -4096.0,
      "RescaleSlope": 2.0,
      "RescaleType": "US",
      "Rows": 832,
      "SAR": 0.04858359358933,
      "SamplesPerPixel": 1,
      "ScanOptions": "FS",
      "ScanningSequence": "EP",
      "SequenceName": "epfid2d1_104",
      "SequenceVariant": [
        "SK",
        "SS"
],
      "SeriesDescription": "func_task-things_run-5",
      "SeriesNumber": 23,
      "SeriesTime": "134117.521000",
      "SliceLocation": -38.854237888947,
      "SliceThickness": 2.0,
      "SmallestImagePixelValue": 0,
      "SoftwareVersions": "syngo MR E11",
      "SpacingBetweenSlices": 2.000000040532,
      "SpecificCharacterSet": "ISO_IR 100",
      "StudyID": "1",
      "StudyTime": "130407.931000",
      "TransmitCoilName": "Body",
      "VariableFlipAngleFlag": "N",
      "WindowCenterWidthExplanation": "Algo1",
      "dBdt": 0.0},
    "slices": {}
  },
  "time": {
    "samples": {
      "AcquisitionNumber": [1, 2, 3, 4, 5, 6, 7, 8, 9, 10, 11, 12, 13, 14, 15, 16, 17, 18, 19, 20, 21, 22, 23, 24, 25, 26, 27, 28, 29, 30, 31, 32, 33, 34, 35, 36, 37, 38, 39, 40, 41, 42, 43, 44, 45, 46, 47, 48, 49, 50, 51, 52, 53, 54, 55, 56, 57, 58, 59, 60, 61, 62, 63, 64, 65, 66, 67, 68, 69, 70, 71, 72, 73, 74, 75, 76, 77, 78, 79, 80, 81, 82, 83, 84, 85, 86, 87, 88, 89, 90, 91, 92, 93, 94, 95, 96, 97, 98, 99, 100, 101, 102, 103, 104, 105, 106, 107, 108, 109, 110, 111, 112, 113, 114, 115, 116, 117, 118, 119, 120, 121, 122, 123, 124, 125, 126, 127, 128, 129, 130, 131, 132, 133, 134, 135, 136, 137, 138, 139, 140, 141, 142, 143, 144, 145, 146, 147, 148, 149, 150, 151, 152, 153, 154, 155, 156, 157, 158, 159, 160, 161, 162, 163, 164, 165, 166, 167, 168, 169, 170, 171, 172, 173, 174, 175, 176, 177, 178, 179, 180, 181, 182, 183, 184, 185, 186, 187, 188, 189, 190],
      "AcquisitionTime": ["134016.195000", "134017.685000", "134019.175000", "134020.665000", "134022.155000", "134023.645000", "134025.135000", "134026.625000", "134028.115000", "134029.605000", "134031.095000", "134032.585000", "134034.075000", "134035.565000", "134037.055000", "134038.545000", "134040.035000", "134041.525000", "134043.015000", "134044.505000", "134045.995000", "134047.485000", "134048.975000", "134050.465000", "134051.955000", "134053.445000", "134054.935000", "134056.425000", "134057.915000", "134059.405000", "134100.895000", "134102.385000", "134103.875000", "134105.365000", "134106.855000", "134108.345000", "134109.835000", "134111.325000", "134112.815000", "134114.305000", "134115.795000", "134117.285000", "134118.775000", "134120.265000", "134121.755000", "134123.245000", "134124.735000", "134126.225000", "134127.715000", "134129.205000", "134130.695000", "134132.185000", "134133.675000", "134135.165000", "134136.655000", "134138.145000", "134139.635000", "134141.125000", "134142.615000", "134144.105000", "134145.595000", "134147.085000", "134148.575000", "134150.065000", "134151.555000", "134153.045000", "134154.535000", "134156.025000", "134157.515000", "134159.005000", "134200.495000", "134201.985000", "134203.475000", "134204.965000", "134206.455000", "134207.945000", "134209.435000", "134210.925000", "134212.415000", "134213.905000", "134215.395000", "134216.885000", "134218.375000", "134219.865000", "134221.355000", "134222.845000", "134224.335000", "134225.825000", "134227.315000", "134228.805000", "134230.295000", "134231.785000", "134233.275000", "134234.765000", "134236.255000", "134237.745000", "134239.235000", "134240.725000", "134242.215000", "134243.705000", "134245.195000", "134246.685000", "134248.175000", "134249.665000", "134251.155000", "134252.645000", "134254.135000", "134255.625000", "134257.115000", "134258.605000", "134300.095000", "134301.585000", "134303.075000", "134304.565000", "134306.055000", "134307.545000", "134309.035000", "134310.525000", "134312.015000", "134313.505000", "134314.995000", "134316.485000", "134317.975000", "134319.465000", "134320.955000", "134322.445000", "134323.935000", "134325.425000", "134326.915000", "134328.405000", "134329.895000", "134331.385000", "134332.875000", "134334.365000", "134335.855000", "134337.345000", "134338.835000", "134340.325000", "134341.815000", "134343.305000", "134344.795000", "134346.285000", "134347.775000", "134349.265000", "134350.755000", "134352.245000", "134353.735000", "134355.225000", "134356.715000", "134358.205000", "134359.695000", "134401.185000", "134402.675000", "134404.165000", "134405.655000", "134407.145000", "134408.635000", "134410.125000", "134411.615000", "134413.105000", "134414.595000", "134416.085000", "134417.575000", "134419.065000", "134420.555000", "134422.045000", "134423.535000", "134425.025000", "134426.515000", "134428.005000", "134429.495000", "134430.985000", "134432.475000", "134433.965000", "134435.455000", "134436.945000", "134438.435000", "134439.925000", "134441.415000", "134442.905000", "134444.395000", "134445.885000", "134447.375000", "134448.865000", "134450.355000", "134451.845000", "134453.335000", "134454.825000", "134456.315000", "134457.805000"],
      "ContentTime": ["134117.523000", "134117.531000", "134117.534000", "134117.536000", "134117.542000", "134117.545000", "134117.554000", "134137.538000", "134137.541000", "134137.544000", "134137.549000", "134137.551000", "134137.554000", "134137.556000", "134137.559000", "134137.561000", "134137.564000", "134137.566000", "134137.569000", "134137.571000", "134137.574000", "134137.576000", "134137.579000", "134137.581000", "134137.584000", "134137.586000", "134137.589000", "134157.537000", "134157.539000", "134157.542000", "134157.544000", "134157.547000", "134157.550000", "134157.552000", "134157.554000", "134157.557000", "134157.560000", "134157.562000", "134157.565000", "134157.567000", "134157.570000", "134157.572000", "134157.575000", "134157.577000", "134157.580000", "134157.583000", "134157.585000", "134217.554000", "134217.557000", "134217.559000", "134217.562000", "134217.565000", "134217.568000", "134217.571000", "134217.573000", "134217.576000", "134217.579000", "134217.581000", "134217.583000", "134217.605000", "134217.608000", "134217.610000", "134217.613000", "134217.615000", "134217.618000", "134217.620000", "134217.623000", "134237.552000", "134237.555000", "134237.557000", "134237.560000", "134237.576000", "134237.578000", "134237.581000", "134237.583000", "134237.586000", "134237.588000", "134237.591000", "134237.593000", "134237.596000", "134237.598000", "134237.601000", "134237.603000", "134237.606000", "134237.609000", "134237.611000", "134237.614000", "134237.616000", "134317.606000", "134317.609000", "134317.611000", "134317.621000", "134317.623000", "134317.626000", "134317.628000", "134317.631000", "134317.633000", "134317.636000", "134317.638000", "134317.644000", "134317.646000", "134317.649000", "134317.651000", "134317.654000", "134317.656000", "134317.659000", "134317.661000", "134317.664000", "134317.666000", "134317.669000", "134317.671000", "134317.674000", "134317.676000", "134317.679000", "134317.681000", "134317.684000", "134317.687000", "134317.689000", "134317.691000", "134317.694000", "134357.609000", "134357.612000", "134357.614000", "134357.617000", "134357.620000", "134357.622000", "134357.624000", "134357.627000", "134357.630000", "134357.632000", "134357.635000", "134357.637000", "134357.640000", "134357.642000", "134357.645000", "134357.647000", "134357.650000", "134357.652000", "134357.655000", "134357.658000", "134357.661000", "134357.663000", "134357.666000", "134357.668000", "134357.671000", "134357.673000", "134357.676000", "134437.588000", "134437.590000", "134437.593000", "134437.596000", "134437.598000", "134437.601000", "134437.603000", "134437.606000", "134437.608000", "134437.611000", "134437.613000", "134437.616000", "134437.618000", "134437.621000", "134437.623000", "134437.626000", "134437.628000", "134437.631000", "134437.633000", "134437.636000", "134437.638000", "134437.641000", "134437.644000", "134437.646000", "134437.649000", "134437.651000", "134437.654000", "134500.472000", "134500.475000", "134500.478000", "134500.494000", "134500.496000", "134500.499000", "134500.501000", "134500.504000", "134500.507000", "134500.509000", "134500.512000", "134500.515000", "134500.517000", "134500.520000", "134500.523000", "134500.526000"],
      "InstanceCreationTime": ["134117.523000", "134117.531000", "134117.534000", "134117.536000", "134117.542000", "134117.545000", "134117.554000", "134137.538000", "134137.541000", "134137.544000", "134137.549000", "134137.551000", "134137.554000", "134137.556000", "134137.559000", "134137.561000", "134137.564000", "134137.566000", "134137.569000", "134137.571000", "134137.574000", "134137.576000", "134137.579000", "134137.581000", "134137.584000", "134137.586000", "134137.589000", "134157.537000", "134157.539000", "134157.542000", "134157.544000", "134157.547000", "134157.550000", "134157.552000", "134157.554000", "134157.557000", "134157.560000", "134157.562000", "134157.565000", "134157.567000", "134157.570000", "134157.572000", "134157.575000", "134157.577000", "134157.580000", "134157.583000", "134157.585000", "134217.554000", "134217.557000", "134217.559000", "134217.562000", "134217.565000", "134217.568000", "134217.571000", "134217.573000", "134217.576000", "134217.579000", "134217.581000", "134217.583000", "134217.605000", "134217.608000", "134217.610000", "134217.613000", "134217.615000", "134217.618000", "134217.620000", "134217.623000", "134237.552000", "134237.555000", "134237.557000", "134237.560000", "134237.576000", "134237.578000", "134237.581000", "134237.583000", "134237.586000", "134237.588000", "134237.591000", "134237.593000", "134237.596000", "134237.598000", "134237.601000", "134237.603000", "134237.606000", "134237.609000", "134237.611000", "134237.614000", "134237.616000", "134317.606000", "134317.609000", "134317.611000", "134317.621000", "134317.623000", "134317.626000", "134317.628000", "134317.631000", "134317.633000", "134317.636000", "134317.638000", "134317.644000", "134317.646000", "134317.649000", "134317.651000", "134317.654000", "134317.656000", "134317.659000", "134317.661000", "134317.664000", "134317.666000", "134317.669000", "134317.671000", "134317.674000", "134317.676000", "134317.679000", "134317.681000", "134317.684000", "134317.687000", "134317.689000", "134317.691000", "134317.694000", "134357.609000", "134357.612000", "134357.614000", "134357.617000", "134357.620000", "134357.622000", "134357.624000", "134357.627000", "134357.630000", "134357.632000", "134357.635000", "134357.637000", "134357.640000", "134357.642000", "134357.645000", "134357.647000", "134357.650000", "134357.652000", "134357.655000", "134357.658000", "134357.661000", "134357.663000", "134357.666000", "134357.668000", "134357.671000", "134357.673000", "134357.676000", "134437.588000", "134437.590000", "134437.593000", "134437.596000", "134437.598000", "134437.601000", "134437.603000", "134437.606000", "134437.608000", "134437.611000", "134437.613000", "134437.616000", "134437.618000", "134437.621000", "134437.623000", "134437.626000", "134437.628000", "134437.631000", "134437.633000", "134437.636000", "134437.638000", "134437.641000", "134437.644000", "134437.646000", "134437.649000", "134437.651000", "134437.654000", "134500.472000", "134500.475000", "134500.478000", "134500.494000", "134500.496000", "134500.499000", "134500.501000", "134500.504000", "134500.507000", "134500.509000", "134500.512000", "134500.515000", "134500.517000", "134500.520000", "134500.523000", "134500.526000"],
      "InstanceNumber": [1, 2, 3, 4, 5, 6, 7, 8, 9, 10, 11, 12, 13, 14, 15, 16, 17, 18, 19, 20, 21, 22, 23, 24, 25, 26, 27, 28, 29, 30, 31, 32, 33, 34, 35, 36, 37, 38, 39, 40, 41, 42, 43, 44, 45, 46, 47, 48, 49, 50, 51, 52, 53, 54, 55, 56, 57, 58, 59, 60, 61, 62, 63, 64, 65, 66, 67, 68, 69, 70, 71, 72, 73, 74, 75, 76, 77, 78, 79, 80, 81, 82, 83, 84, 85, 86, 87, 88, 89, 90, 91, 92, 93, 94, 95, 96, 97, 98, 99, 100, 101, 102, 103, 104, 105, 106, 107, 108, 109, 110, 111, 112, 113, 114, 115, 116, 117, 118, 119, 120, 121, 122, 123, 124, 125, 126, 127, 128, 129, 130, 131, 132, 133, 134, 135, 136, 137, 138, 139, 140, 141, 142, 143, 144, 145, 146, 147, 148, 149, 150, 151, 152, 153, 154, 155, 156, 157, 158, 159, 160, 161, 162, 163, 164, 165, 166, 167, 168, 169, 170, 171, 172, 173, 174, 175, 176, 177, 178, 179, 180, 181, 182, 183, 184, 185, 186, 187, 188, 189, 190],
      "WindowCenter": [4744.0, 4744.0, 4744.0, 4746.0, 4748.0, 4744.0, 4744.0, 4744.0, 4768.0, 4746.0, 4768.0, 4748.0, 4746.0, 4746.0, 4746.0, 4768.0, 4746.0, 4742.0, 4744.0, 4744.0, 4766.0, 4746.0, 4748.0, 4770.0, 4748.0, 4772.0, 4746.0, 4746.0, 4766.0, 4768.0, 4744.0, 4768.0, 4746.0, 4746.0, 4746.0, 4746.0, 4768.0, 4748.0, 4744.0, 4768.0, 4744.0, 4746.0, 4744.0, 4748.0, 4746.0, 4746.0, 4766.0, 4744.0, 4768.0, 4764.0, 4744.0, 4746.0, 4768.0, 4768.0, 4746.0, 4746.0, 4744.0, 4744.0, 4746.0, 4746.0, 4746.0, 4768.0, 4740.0, 4768.0, 4746.0, 4746.0, 4742.0, 4744.0, 4768.0, 4768.0, 4746.0, 4772.0, 4742.0, 4746.0, 4748.0, 4768.0, 4746.0, 4768.0, 4768.0, 4748.0, 4768.0, 4748.0, 4770.0, 4746.0, 4766.0, 4770.0, 4746.0, 4744.0, 4766.0, 4746.0, 4770.0, 4748.0, 4772.0, 4746.0, 4746.0, 4744.0, 4770.0, 4744.0, 4742.0, 4746.0, 4746.0, 4746.0, 4746.0, 4744.0, 4770.0, 4746.0, 4746.0, 4746.0, 4742.0, 4744.0, 4746.0, 4772.0, 4748.0, 4768.0, 4766.0, 4742.0, 4744.0, 4748.0, 4768.0, 4770.0, 4744.0, 4744.0, 4744.0, 4768.0, 4744.0, 4746.0, 4748.0, 4768.0, 4770.0, 4766.0, 4744.0, 4770.0, 4748.0, 4770.0, 4746.0, 4744.0, 4742.0, 4748.0, 4772.0, 4744.0, 4746.0, 4750.0, 4742.0, 4744.0, 4746.0, 4750.0, 4766.0, 4750.0, 4744.0, 4746.0, 4746.0, 4744.0, 4744.0, 4746.0, 4750.0, 4770.0, 4742.0, 4746.0, 4746.0, 4766.0, 4746.0, 4746.0, 4746.0, 4748.0, 4744.0, 4742.0, 4742.0, 4742.0, 4744.0, 4746.0, 4768.0, 4770.0, 4770.0, 4744.0, 4766.0, 4744.0, 4768.0, 4746.0, 4746.0, 4748.0, 4744.0, 4744.0, 4746.0, 4746.0, 4770.0, 4742.0, 4744.0, 4748.0, 4744.0, 4746.0],
      "WindowWidth": [18540.0, 18538.0, 18542.0, 18542.0, 18546.0, 18540.0, 18544.0, 18544.0, 18578.0, 18544.0, 18580.0, 18544.0, 18540.0, 18546.0, 18544.0, 18574.0, 18548.0, 18538.0, 18540.0, 18540.0, 18576.0, 18548.0, 18542.0, 18576.0, 18542.0, 18578.0, 18542.0, 18544.0, 18572.0, 18574.0, 18540.0, 18572.0, 18538.0, 18542.0, 18544.0, 18546.0, 18576.0, 18546.0, 18542.0, 18572.0, 18542.0, 18544.0, 18540.0, 18542.0, 18544.0, 18538.0, 18570.0, 18538.0, 18580.0, 18572.0, 18544.0, 18540.0, 18576.0, 18572.0, 18542.0, 18540.0, 18542.0, 18542.0, 18542.0, 18542.0, 18544.0, 18574.0, 18536.0, 18574.0, 18544.0, 18546.0, 18542.0, 18544.0, 18572.0, 18576.0, 18542.0, 18576.0, 18538.0, 18542.0, 18544.0, 18578.0, 18546.0, 18576.0, 18576.0, 18540.0, 18572.0, 18544.0, 18574.0, 18542.0, 18570.0, 18572.0, 18542.0, 18546.0, 18570.0, 18544.0, 18578.0, 18546.0, 18574.0, 18538.0, 18540.0, 18542.0, 18578.0, 18544.0, 18542.0, 18540.0, 18542.0, 18546.0, 18542.0, 18540.0, 18570.0, 18544.0, 18544.0, 18542.0, 18538.0, 18540.0, 18544.0, 18578.0, 18544.0, 18572.0, 18574.0, 18538.0, 18546.0, 18542.0, 18572.0, 18572.0, 18540.0, 18544.0, 18540.0, 18572.0, 18542.0, 18542.0, 18544.0, 18572.0, 18574.0, 18572.0, 18542.0, 18574.0, 18544.0, 18574.0, 18546.0, 18542.0, 18540.0, 18546.0, 18574.0, 18540.0, 18538.0, 18546.0, 18540.0, 18538.0, 18544.0, 18544.0, 18568.0, 18542.0, 18542.0, 18542.0, 18542.0, 18544.0, 18542.0, 18544.0, 18544.0, 18570.0, 18540.0, 18542.0, 18542.0, 18574.0, 18542.0, 18544.0, 18540.0, 18544.0, 18544.0, 18536.0, 18538.0, 18538.0, 18540.0, 18542.0, 18570.0, 18578.0, 18578.0, 18546.0, 18568.0, 18536.0, 18572.0, 18540.0, 18536.0, 18542.0, 18536.0, 18544.0, 18544.0, 18546.0, 18574.0, 18540.0, 18544.0, 18548.0, 18544.0, 18542.0]
    },
    "slices": {}
  }
}