{
  "AcquisitionMatrixPE": 104,
  "AcquisitionNumber": 1,
  "AcquisitionTime": "13:46:31.440000",
  "BandwidthPerPixelPhaseEncode": 17.17,
  "BaseResolution": 104,
  "BodyPartExamined": "BRAIN",
  "CoilString": "HC1-7;NC1_2",
  "ConsistencyInfo": "N4_VE11C_LATEST_20160120",
  "ConversionSoftware": "dcm2niix",
  "ConversionSoftwareVersion": "v1.0.20190902",
  "DerivedVendorReportedEchoSpacing": 0.000560011,
  "DeviceSerialNumber": "167006",
  "DwellTime": 2.1e-06,
  "EchoTime": 0.037,
  "EchoTrainLength": 104,
  "EffectiveEchoSpacing": 0.000560011,
  "FlipAngle": 52,
  "HeudiconvVersion": "0.10.0",
  "ImageComments": "Unaliased_MB4_PE3_LB",
  "ImageOrientationPatientDICOM": [0.998924, 0.010759, 0.0451148, 0.00104608, 0.967248, -0.253832],
  "ImageType": [
    "ORIGINAL",
    "PRIMARY",
    "P",
    "MB",
    "ND",
    "MOSAIC"
],
  "ImagingFrequency": 123.259,
  "InPlanePhaseEncodingDirectionDICOM": "COL",
  "InstitutionAddress": "Chemin_Queen-Mary_4565_Montreal_District_CA_H3W_1W5",
  "InstitutionName": "IUGM",
  "InstitutionalDepartmentName": "Department",
  "MRAcquisitionType": "2D",
  "MagneticFieldStrength": 3,
  "Manufacturer": "Siemens",
  "ManufacturersModelName": "Prisma_fit",
  "Modality": "MR",
  "MultibandAccelerationFactor": 4,
  "PartialFourier": 1,
  "PatientPosition": "HFS",
  "PercentPhaseFOV": 100,
  "PhaseEncodingDirection": "j",
  "PhaseEncodingSteps": 104,
  "PhaseResolution": 1,
  "PixelBandwidth": 2290,
  "ProcedureStepDescription": "memory_things",
  "ProtocolName": "func_task-things_run-6",
  "PulseSequenceDetails": "%CustomerSeq%_cmrr_mbep2d_bold",
  "ReceiveCoilActiveElements": "HC1-7;NC1,2",
  "ReceiveCoilName": "HeadNeck_64",
  "ReconMatrixPE": 104,
  "RepetitionTime": 1.49,
  "SAR": 0.0485836,
  "ScanOptions": "FS",
  "ScanningSequence": "EP",
  "SequenceName": "epfid2d1_104",
  "SequenceVariant": "SK_SS",
  "SeriesDescription": "func_task-things_run-6",
  "SeriesNumber": 26,
  "ShimSetting": [641, -7211, -8785, 725, 48, 8, 61, -12],
  "SliceThickness": 2,
  "SliceTiming": [0, 0.785, 0.0975, 0.8825, 0.195, 0.98, 0.295, 1.0775, 0.3925, 1.175, 0.49, 1.275, 0.5875, 1.3725, 0.685, 0, 0.785, 0.0975, 0.8825, 0.195, 0.98, 0.295, 1.0775, 0.3925, 1.175, 0.49, 1.275, 0.5875, 1.3725, 0.685, 0, 0.785, 0.0975, 0.8825, 0.195, 0.98, 0.295, 1.0775, 0.3925, 1.175, 0.49, 1.275, 0.5875, 1.3725, 0.685, 0, 0.785, 0.0975, 0.8825, 0.195, 0.98, 0.295, 1.0775, 0.3925, 1.175, 0.49, 1.275, 0.5875, 1.3725, 0.685],
  "SoftwareVersions": "syngo_MR_E11",
  "SpacingBetweenSlices": 2,
  "StationName": "MRC35049",
  "TaskName": "things",
  "TotalReadoutTime": 0.0576811,
  "TxRefAmp": 229.866,
  "WipMemBlock": "eceeacc6-e0a2-4e06-9678-7253bbae9c2d||Sequence: R016 ve11c/master r/e634e98; Dec 19 2017 11:00:25 by eja",
  "dcmmeta_affine": [
    [-1.9978477954864502, 0.002092157956212759, 0.09273631870746613, 106.33043670654297],
    [-0.021518031135201454, 1.934495449066162, -0.5072125792503357, -73.47113037109375],
    [0.0902295708656311, 0.5076644420623779, 1.9323911666870117, -64.60112762451172],
    [0.0, 0.0, 0.0, 1.0]
],
  "dcmmeta_reorient_transform": [
    [0.0, -1.0, 0.0, 103.0],
    [1.0, 0.0, 0.0, 0.0],
    [0.0, 0.0, 1.0, 0.0],
    [0.0, 0.0, 0.0, 1.0]
],
  "dcmmeta_shape": [104, 104, 60, 190],
  "dcmmeta_slice_dim": 2,
  "dcmmeta_version": 0.6,
  "global": {
    "const": {
      "AcquisitionMatrix": [104, 0, 0, 104],
      "AngioFlag": "N",
      "BitsAllocated": 16,
      "BitsStored": 16,
      "BodyPartExamined": "BRAIN",
      "Columns": 832,
      "EchoNumbers": 1,
      "EchoTime": 37.0,
      "EchoTrainLength": 104,
      "FlipAngle": 52.0,
      "HighBit": 15,
      "ImageOrientationPatient": [0.99892387083037, 0.01075901598587, 0.04511478538447, 0.00104607901402, 0.96724769489287, -0.2538322328687],
      "ImagePositionPatient": [-834.52405193951, -837.77078205951, 139.63461338942],
      "ImageType": [
        "ORIGINAL",
        "PRIMARY",
        "P",
        "MB",
        "ND",
        "MOSAIC"
],
      "ImagedNucleus": "1H",
      "ImagingFrequency": 123.25891,
      "InPlanePhaseEncodingDirection": "COL",
      "LargestImagePixelValue": 4095,
      "MRAcquisitionType": "2D",
      "MagneticFieldStrength": 3.0,
      "Manufacturer": "SIEMENS",
      "ManufacturerModelName": "Prisma_fit",
      "Modality": "MR",
      "NumberOfAverages": 1.0,
      "NumberOfPhaseEncodingSteps": 104,
      "PercentPhaseFieldOfView": 100.0,
      "PercentSampling": 100.0,
      "PerformedProcedureStepStartTime": "130408.111000",
      "PhotometricInterpretation": "MONOCHROME2",
      "PixelBandwidth": 2290.0,
      "PixelRepresentation": 0,
      "PixelSpacing": [2.0, 2.0],
      "ProtocolName": "func_task-things_run-6",
      "RepetitionTime": 1490.0,
      "RescaleIntercept": -4096.0,
      "RescaleSlope": 2.0,
      "RescaleType": "US",
      "Rows": 832,
      "SAR": 0.04858359358933,
      "SamplesPerPixel": 1,
      "ScanOptions": "FS",
      "ScanningSequence": "EP",
      "SequenceName": "epfid2d1_104",
      "SequenceVariant": [
        "SK",
        "SS"
],
      "SeriesDescription": "func_task-things_run-6",
      "SeriesNumber": 26,
      "SeriesTime": "134748.451000",
      "SliceLocation": -38.854237888947,
      "SliceThickness": 2.0,
      "SmallestImagePixelValue": 0,
      "SoftwareVersions": "syngo MR E11",
      "SpacingBetweenSlices": 2.000000040532,
      "SpecificCharacterSet": "ISO_IR 100",
      "StudyID": "1",
      "StudyTime": "130407.931000",
      "TransmitCoilName": "Body",
      "VariableFlipAngleFlag": "N",
      "WindowCenterWidthExplanation": "Algo1",
      "dBdt": 0.0},
    "slices": {}
  },
  "time": {
    "samples": {
      "AcquisitionNumber": [1, 2, 3, 4, 5, 6, 7, 8, 9, 10, 11, 12, 13, 14, 15, 16, 17, 18, 19, 20, 21, 22, 23, 24, 25, 26, 27, 28, 29, 30, 31, 32, 33, 34, 35, 36, 37, 38, 39, 40, 41, 42, 43, 44, 45, 46, 47, 48, 49, 50, 51, 52, 53, 54, 55, 56, 57, 58, 59, 60, 61, 62, 63, 64, 65, 66, 67, 68, 69, 70, 71, 72, 73, 74, 75, 76, 77, 78, 79, 80, 81, 82, 83, 84, 85, 86, 87, 88, 89, 90, 91, 92, 93, 94, 95, 96, 97, 98, 99, 100, 101, 102, 103, 104, 105, 106, 107, 108, 109, 110, 111, 112, 113, 114, 115, 116, 117, 118, 119, 120, 121, 122, 123, 124, 125, 126, 127, 128, 129, 130, 131, 132, 133, 134, 135, 136, 137, 138, 139, 140, 141, 142, 143, 144, 145, 146, 147, 148, 149, 150, 151, 152, 153, 154, 155, 156, 157, 158, 159, 160, 161, 162, 163, 164, 165, 166, 167, 168, 169, 170, 171, 172, 173, 174, 175, 176, 177, 178, 179, 180, 181, 182, 183, 184, 185, 186, 187, 188, 189, 190],
      "AcquisitionTime": ["134631.440000", "134632.930000", "134634.420000", "134635.910000", "134637.400000", "134638.890000", "134640.380000", "134641.870000", "134643.360000", "134644.850000", "134646.340000", "134647.830000", "134649.320000", "134650.810000", "134652.300000", "134653.790000", "134655.280000", "134656.770000", "134658.260000", "134659.750000", "134701.240000", "134702.730000", "134704.220000", "134705.710000", "134707.200000", "134708.690000", "134710.180000", "134711.670000", "134713.160000", "134714.650000", "134716.140000", "134717.630000", "134719.120000", "134720.610000", "134722.100000", "134723.590000", "134725.080000", "134726.570000", "134728.060000", "134729.550000", "134731.040000", "134732.530000", "134734.020000", "134735.510000", "134737.000000", "134738.490000", "134739.980000", "134741.470000", "134742.960000", "134744.450000", "134745.940000", "134747.430000", "134748.920000", "134750.410000", "134751.900000", "134753.390000", "134754.880000", "134756.370000", "134757.860000", "134759.350000", "134800.840000", "134802.330000", "134803.820000", "134805.310000", "134806.800000", "134808.290000", "134809.780000", "134811.270000", "134812.760000", "134814.250000", "134815.740000", "134817.230000", "134818.720000", "134820.210000", "134821.700000", "134823.190000", "134824.680000", "134826.170000", "134827.660000", "134829.150000", "134830.640000", "134832.130000", "134833.620000", "134835.110000", "134836.600000", "134838.090000", "134839.580000", "134841.070000", "134842.560000", "134844.050000", "134845.540000", "134847.030000", "134848.520000", "134850.010000", "134851.500000", "134852.990000", "134854.480000", "134855.970000", "134857.460000", "134858.950000", "134900.440000", "134901.930000", "134903.420000", "134904.910000", "134906.400000", "134907.890000", "134909.380000", "134910.870000", "134912.360000", "134913.850000", "134915.340000", "134916.830000", "134918.320000", "134919.810000", "134921.300000", "134922.790000", "134924.280000", "134925.770000", "134927.260000", "134928.750000", "134930.240000", "134931.730000", "134933.220000", "134934.710000", "134936.200000", "134937.690000", "134939.180000", "134940.670000", "134942.160000", "134943.650000", "134945.140000", "134946.630000", "134948.120000", "134949.610000", "134951.100000", "134952.590000", "134954.080000", "134955.570000", "134957.060000", "134958.550000", "135000.040000", "135001.530000", "135003.020000", "135004.510000", "135006.000000", "135007.490000", "135008.980000", "135010.470000", "135011.960000", "135013.450000", "135014.940000", "135016.430000", "135017.920000", "135019.410000", "135020.900000", "135022.390000", "135023.880000", "135025.370000", "135026.860000", "135028.350000", "135029.840000", "135031.330000", "135032.820000", "135034.310000", "135035.800000", "135037.290000", "135038.780000", "135040.270000", "135041.760000", "135043.250000", "135044.740000", "135046.230000", "135047.720000", "135049.210000", "135050.700000", "135052.190000", "135053.680000", "135055.170000", "135056.660000", "135058.150000", "135059.640000", "135101.130000", "135102.620000", "135104.110000", "135105.600000", "135107.090000", "135108.580000", "135110.070000", "135111.560000", "135113.050000"],
      "ContentTime": ["134748.453000", "134748.456000", "134748.459000", "134748.461000", "134748.464000", "134748.466000", "134748.469000", "134748.471000", "134748.474000", "134748.476000", "134748.479000", "134748.481000", "134748.484000", "134748.486000", "134748.489000", "134748.491000", "134748.494000", "134748.496000", "134748.499000", "134748.501000", "134748.504000", "134748.506000", "134748.509000", "134808.394000", "134808.397000", "134808.408000", "134808.410000", "134808.413000", "134808.415000", "134808.418000", "134808.421000", "134808.423000", "134808.425000", "134808.428000", "134808.430000", "134808.433000", "134808.435000", "134808.438000", "134808.441000", "134808.443000", "134808.445000", "134808.448000", "134808.450000", "134828.404000", "134828.407000", "134828.409000", "134828.412000", "134828.414000", "134828.417000", "134828.419000", "134828.422000", "134828.424000", "134828.427000", "134828.429000", "134828.432000", "134828.434000", "134828.437000", "134828.439000", "134828.442000", "134828.444000", "134828.447000", "134828.449000", "134828.452000", "134828.454000", "134848.392000", "134848.394000", "134848.397000", "134848.399000", "134848.402000", "134848.404000", "134848.407000", "134848.409000", "134848.412000", "134848.414000", "134848.417000", "134848.419000", "134848.422000", "134848.425000", "134848.427000", "134848.430000", "134848.432000", "134848.435000", "134848.437000", "134848.440000", "134908.392000", "134908.394000", "134908.397000", "134908.399000", "134908.402000", "134908.405000", "134908.407000", "134908.410000", "134908.412000", "134908.415000", "134908.417000", "134908.420000", "134908.422000", "134908.425000", "134908.427000", "134908.430000", "134908.432000", "134908.435000", "134908.437000", "134908.440000", "134948.435000", "134948.439000", "134948.442000", "134948.445000", "134948.448000", "134948.450000", "134948.453000", "134948.455000", "134948.458000", "134948.460000", "134948.463000", "134948.466000", "134948.468000", "134948.471000", "134948.473000", "134948.476000", "134948.478000", "134948.481000", "134948.483000", "134948.486000", "134948.488000", "134948.491000", "134948.493000", "134948.496000", "134948.498000", "134948.501000", "134948.503000", "135028.435000", "135028.438000", "135028.441000", "135028.443000", "135028.446000", "135028.448000", "135028.451000", "135028.453000", "135028.456000", "135028.458000", "135028.461000", "135028.463000", "135028.466000", "135028.468000", "135028.471000", "135028.473000", "135028.476000", "135028.479000", "135028.481000", "135028.483000", "135028.486000", "135028.489000", "135028.491000", "135028.494000", "135028.496000", "135028.499000", "135028.501000", "135108.432000", "135108.434000", "135108.437000", "135108.440000", "135108.442000", "135108.445000", "135108.447000", "135108.450000", "135108.452000", "135108.455000", "135108.457000", "135108.460000", "135108.462000", "135108.465000", "135108.467000", "135108.470000", "135108.472000", "135108.475000", "135108.477000", "135108.480000", "135108.482000", "135108.485000", "135108.488000", "135108.490000", "135108.493000", "135108.495000", "135108.498000", "135114.968000", "135114.971000", "135114.977000", "135114.980000", "135114.982000"],
      "InstanceCreationTime": ["134748.453000", "134748.456000", "134748.459000", "134748.461000", "134748.464000", "134748.466000", "134748.469000", "134748.471000", "134748.474000", "134748.476000", "134748.479000", "134748.481000", "134748.484000", "134748.486000", "134748.489000", "134748.491000", "134748.494000", "134748.496000", "134748.499000", "134748.501000", "134748.504000", "134748.506000", "134748.509000", "134808.394000", "134808.397000", "134808.408000", "134808.410000", "134808.413000", "134808.415000", "134808.418000", "134808.421000", "134808.423000", "134808.425000", "134808.428000", "134808.430000", "134808.433000", "134808.435000", "134808.438000", "134808.441000", "134808.443000", "134808.445000", "134808.448000", "134808.450000", "134828.404000", "134828.407000", "134828.409000", "134828.412000", "134828.414000", "134828.417000", "134828.419000", "134828.422000", "134828.424000", "134828.427000", "134828.429000", "134828.432000", "134828.434000", "134828.437000", "134828.439000", "134828.442000", "134828.444000", "134828.447000", "134828.449000", "134828.452000", "134828.454000", "134848.392000", "134848.394000", "134848.397000", "134848.399000", "134848.402000", "134848.404000", "134848.407000", "134848.409000", "134848.412000", "134848.414000", "134848.417000", "134848.419000", "134848.422000", "134848.425000", "134848.427000", "134848.430000", "134848.432000", "134848.435000", "134848.437000", "134848.440000", "134908.392000", "134908.394000", "134908.397000", "134908.399000", "134908.402000", "134908.405000", "134908.407000", "134908.410000", "134908.412000", "134908.415000", "134908.417000", "134908.420000", "134908.422000", "134908.425000", "134908.427000", "134908.430000", "134908.432000", "134908.435000", "134908.437000", "134908.440000", "134948.435000", "134948.439000", "134948.442000", "134948.445000", "134948.448000", "134948.450000", "134948.453000", "134948.455000", "134948.458000", "134948.460000", "134948.463000", "134948.466000", "134948.468000", "134948.471000", "134948.473000", "134948.476000", "134948.478000", "134948.481000", "134948.483000", "134948.486000", "134948.488000", "134948.491000", "134948.493000", "134948.496000", "134948.498000", "134948.501000", "134948.503000", "135028.435000", "135028.438000", "135028.441000", "135028.443000", "135028.446000", "135028.448000", "135028.451000", "135028.453000", "135028.456000", "135028.458000", "135028.461000", "135028.463000", "135028.466000", "135028.468000", "135028.471000", "135028.473000", "135028.476000", "135028.479000", "135028.481000", "135028.483000", "135028.486000", "135028.489000", "135028.491000", "135028.494000", "135028.496000", "135028.499000", "135028.501000", "135108.432000", "135108.434000", "135108.437000", "135108.440000", "135108.442000", "135108.445000", "135108.447000", "135108.450000", "135108.452000", "135108.455000", "135108.457000", "135108.460000", "135108.462000", "135108.465000", "135108.467000", "135108.470000", "135108.472000", "135108.475000", "135108.477000", "135108.480000", "135108.482000", "135108.485000", "135108.488000", "135108.490000", "135108.493000", "135108.495000", "135108.498000", "135114.968000", "135114.971000", "135114.977000", "135114.980000", "135114.982000"],
      "InstanceNumber": [1, 2, 3, 4, 5, 6, 7, 8, 9, 10, 11, 12, 13, 14, 15, 16, 17, 18, 19, 20, 21, 22, 23, 24, 25, 26, 27, 28, 29, 30, 31, 32, 33, 34, 35, 36, 37, 38, 39, 40, 41, 42, 43, 44, 45, 46, 47, 48, 49, 50, 51, 52, 53, 54, 55, 56, 57, 58, 59, 60, 61, 62, 63, 64, 65, 66, 67, 68, 69, 70, 71, 72, 73, 74, 75, 76, 77, 78, 79, 80, 81, 82, 83, 84, 85, 86, 87, 88, 89, 90, 91, 92, 93, 94, 95, 96, 97, 98, 99, 100, 101, 102, 103, 104, 105, 106, 107, 108, 109, 110, 111, 112, 113, 114, 115, 116, 117, 118, 119, 120, 121, 122, 123, 124, 125, 126, 127, 128, 129, 130, 131, 132, 133, 134, 135, 136, 137, 138, 139, 140, 141, 142, 143, 144, 145, 146, 147, 148, 149, 150, 151, 152, 153, 154, 155, 156, 157, 158, 159, 160, 161, 162, 163, 164, 165, 166, 167, 168, 169, 170, 171, 172, 173, 174, 175, 176, 177, 178, 179, 180, 181, 182, 183, 184, 185, 186, 187, 188, 189, 190],
      "WindowCenter": [4744.0, 4746.0, 4744.0, 4746.0, 4746.0, 4748.0, 4766.0, 4744.0, 4746.0, 4766.0, 4744.0, 4768.0, 4772.0, 4742.0, 4770.0, 4768.0, 4742.0, 4746.0, 4744.0, 4766.0, 4768.0, 4744.0, 4772.0, 4766.0, 4742.0, 4748.0, 4766.0, 4742.0, 4744.0, 4744.0, 4768.0, 4748.0, 4770.0, 4746.0, 4770.0, 4748.0, 4768.0, 4770.0, 4748.0, 4770.0, 4768.0, 4746.0, 4744.0, 4746.0, 4768.0, 4748.0, 4744.0, 4744.0, 4768.0, 4744.0, 4748.0, 4770.0, 4770.0, 4770.0, 4772.0, 4770.0, 4744.0, 4746.0, 4750.0, 4744.0, 4746.0, 4770.0, 4768.0, 4768.0, 4768.0, 4768.0, 4766.0, 4746.0, 4768.0, 4766.0, 4770.0, 4768.0, 4770.0, 4746.0, 4744.0, 4746.0, 4770.0, 4748.0, 4746.0, 4748.0, 4768.0, 4746.0, 4746.0, 4742.0, 4746.0, 4770.0, 4768.0, 4748.0, 4772.0, 4744.0, 4768.0, 4770.0, 4744.0, 4748.0, 4746.0, 4742.0, 4772.0, 4744.0, 4768.0, 4746.0, 4772.0, 4742.0, 4744.0, 4774.0, 4770.0, 4746.0, 4768.0, 4746.0, 4768.0, 4746.0, 4746.0, 4746.0, 4746.0, 4746.0, 4748.0, 4744.0, 4744.0, 4766.0, 4744.0, 4744.0, 4746.0, 4748.0, 4746.0, 4748.0, 4742.0, 4746.0, 4770.0, 4744.0, 4746.0, 4768.0, 4748.0, 4770.0, 4746.0, 4748.0, 4746.0, 4746.0, 4742.0, 4744.0, 4768.0, 4746.0, 4750.0, 4748.0, 4770.0, 4746.0, 4744.0, 4746.0, 4770.0, 4744.0, 4768.0, 4770.0, 4746.0, 4744.0, 4770.0, 4746.0, 4748.0, 4768.0, 4748.0, 4770.0, 4772.0, 4744.0, 4748.0, 4744.0, 4746.0, 4748.0, 4768.0, 4746.0, 4748.0, 4746.0, 4744.0, 4746.0, 4746.0, 4746.0, 4748.0, 4748.0, 4746.0, 4744.0, 4748.0, 4748.0, 4746.0, 4770.0, 4768.0, 4772.0, 4770.0, 4746.0, 4746.0, 4746.0, 4748.0, 4746.0, 4746.0, 4748.0],
      "WindowWidth": [18542.0, 18542.0, 18540.0, 18540.0, 18546.0, 18546.0, 18570.0, 18538.0, 18542.0, 18574.0, 18542.0, 18574.0, 18578.0, 18540.0, 18574.0, 18574.0, 18540.0, 18542.0, 18538.0, 18572.0, 18572.0, 18544.0, 18574.0, 18572.0, 18542.0, 18544.0, 18572.0, 18538.0, 18538.0, 18542.0, 18572.0, 18540.0, 18572.0, 18536.0, 18580.0, 18540.0, 18570.0, 18574.0, 18542.0, 18572.0, 18572.0, 18542.0, 18544.0, 18542.0, 18570.0, 18538.0, 18538.0, 18532.0, 18574.0, 18538.0, 18544.0, 18574.0, 18576.0, 18572.0, 18578.0, 18576.0, 18536.0, 18542.0, 18540.0, 18542.0, 18538.0, 18574.0, 18576.0, 18580.0, 18568.0, 18574.0, 18570.0, 18542.0, 18572.0, 18570.0, 18574.0, 18574.0, 18574.0, 18538.0, 18542.0, 18544.0, 18572.0, 18542.0, 18540.0, 18540.0, 18570.0, 18544.0, 18542.0, 18538.0, 18542.0, 18576.0, 18572.0, 18542.0, 18578.0, 18540.0, 18574.0, 18574.0, 18544.0, 18542.0, 18538.0, 18540.0, 18578.0, 18534.0, 18574.0, 18538.0, 18576.0, 18538.0, 18542.0, 18572.0, 18574.0, 18544.0, 18572.0, 18544.0, 18574.0, 18544.0, 18538.0, 18544.0, 18544.0, 18546.0, 18542.0, 18544.0, 18540.0, 18576.0, 18538.0, 18538.0, 18540.0, 18544.0, 18538.0, 18548.0, 18538.0, 18538.0, 18572.0, 18542.0, 18538.0, 18570.0, 18542.0, 18570.0, 18542.0, 18542.0, 18538.0, 18540.0, 18538.0, 18540.0, 18572.0, 18540.0, 18548.0, 18540.0, 18574.0, 18542.0, 18540.0, 18540.0, 18570.0, 18534.0, 18576.0, 18570.0, 18540.0, 18542.0, 18572.0, 18536.0, 18542.0, 18572.0, 18544.0, 18574.0, 18576.0, 18544.0, 18546.0, 18544.0, 18538.0, 18540.0, 18568.0, 18534.0, 18540.0, 18540.0, 18540.0, 18542.0, 18542.0, 18540.0, 18542.0, 18540.0, 18544.0, 18542.0, 18540.0, 18534.0, 18544.0, 18574.0, 18578.0, 18574.0, 18572.0, 18544.0, 18542.0, 18538.0, 18544.0, 18534.0, 18540.0, 18544.0]
    },
    "slices": {}
  }
}