{
  "AcquisitionMatrixPE": 104,
  "AcquisitionNumber": 1,
  "AcquisitionTime": "17:48:25.660000",
  "BandwidthPerPixelPhaseEncode": 17.17,
  "BaseResolution": 104,
  "BodyPartExamined": "BRAIN",
  "CoilString": "HC1-7;NC1_2",
  "ConsistencyInfo": "N4_VE11C_LATEST_20160120",
  "ConversionSoftware": "dcm2niix",
  "ConversionSoftwareVersion": "v1.0.20190902",
  "DerivedVendorReportedEchoSpacing": 0.000560011,
  "DeviceSerialNumber": "167006",
  "DwellTime": 2.1e-06,
  "EchoTime": 0.037,
  "EchoTrainLength": 104,
  "EffectiveEchoSpacing": 0.000560011,
  "FlipAngle": 52,
  "ImageComments": "Unaliased_MB4_PE3_LB",
  "ImageOrientationPatientDICOM": [0.998048, 0.0484439, 0.0394101, -0.0346782, 0.954748, -0.295387],
  "ImageType": [
    "ORIGINAL",
    "PRIMARY",
    "M",
    "MB",
    "ND",
    "MOSAIC"
],
  "ImagingFrequency": 123.259,
  "InPlanePhaseEncodingDirectionDICOM": "COL",
  "InstitutionAddress": "Chemin_Queen-Mary_4565_Montreal_District_CA_H3W_1W5",
  "InstitutionName": "IUGM",
  "InstitutionalDepartmentName": "Department",
  "MRAcquisitionType": "2D",
  "MagneticFieldStrength": 3,
  "Manufacturer": "Siemens",
  "ManufacturersModelName": "Prisma_fit",
  "Modality": "MR",
  "MultibandAccelerationFactor": 4,
  "PartialFourier": 1,
  "PatientPosition": "HFS",
  "PercentPhaseFOV": 100,
  "PhaseEncodingDirection": "j",
  "PhaseEncodingSteps": 104,
  "PhaseResolution": 1,
  "PixelBandwidth": 2290,
  "ProcedureStepDescription": "memory_things",
  "ProtocolName": "func_task-things_run-4",
  "PulseSequenceDetails": "%CustomerSeq%_cmrr_mbep2d_bold",
  "ReceiveCoilActiveElements": "HC1-7;NC1,2",
  "ReceiveCoilName": "HeadNeck_64",
  "ReconMatrixPE": 104,
  "RepetitionTime": 1.49,
  "SAR": 0.0360388,
  "ScanOptions": "FS",
  "ScanningSequence": "EP",
  "SequenceName": "epfid2d1_104",
  "SequenceVariant": "SK_SS",
  "SeriesDescription": "func_task-things_run-4",
  "SeriesNumber": 19,
  "ShimSetting": [638, -7180, -8759, 686, 77, 56, -14, -7],
  "SliceThickness": 2,
  "SliceTiming": [0, 0.785, 0.1, 0.8825, 0.1975, 0.98, 0.295, 1.08, 0.3925, 1.1775, 0.49, 1.275, 0.59, 1.3725, 0.6875, 0, 0.785, 0.1, 0.8825, 0.1975, 0.98, 0.295, 1.08, 0.3925, 1.1775, 0.49, 1.275, 0.59, 1.3725, 0.6875, 0, 0.785, 0.1, 0.8825, 0.1975, 0.98, 0.295, 1.08, 0.3925, 1.1775, 0.49, 1.275, 0.59, 1.3725, 0.6875, 0, 0.785, 0.1, 0.8825, 0.1975, 0.98, 0.295, 1.08, 0.3925, 1.1775, 0.49, 1.275, 0.59, 1.3725, 0.6875],
  "SoftwareVersions": "syngo_MR_E11",
  "SpacingBetweenSlices": 2,
  "StationName": "MRC35049",
  "TaskName": "things",
  "TotalReadoutTime": 0.0576811,
  "TxRefAmp": 244.848,
  "WipMemBlock": "01c7194e-9901-4829-b785-d896b6de00a5||Sequence: R016 ve11c/master r/e634e98; Dec 19 2017 11:00:25 by eja",
  "dcmmeta_affine": [
    [-1.9960962533950806, -0.06935632228851318, 0.10387293994426727, 108.1981430053711],
    [-0.09688783437013626, 1.9094959497451782, -0.5868883728981018, -58.43621063232422],
    [0.07882026582956314, 0.5907748341560364, 1.9091287851333618, -47.09035873413086],
    [0.0, 0.0, 0.0, 1.0]
],
  "dcmmeta_reorient_transform": [
    [0.0, -1.0, 0.0, 103.0],
    [1.0, 0.0, 0.0, 0.0],
    [0.0, 0.0, 1.0, 0.0],
    [0.0, 0.0, 0.0, 1.0]
],
  "dcmmeta_shape": [104, 104, 60, 190],
  "dcmmeta_slice_dim": 2,
  "dcmmeta_version": 0.6,
  "global": {
    "const": {
      "AcquisitionMatrix": [104, 0, 0, 104],
      "AngioFlag": "N",
      "BitsAllocated": 16,
      "BitsStored": 16,
      "BodyPartExamined": "BRAIN",
      "Columns": 832,
      "EchoNumbers": 1,
      "EchoTime": 37.0,
      "EchoTrainLength": 104,
      "FlipAngle": 52.0,
      "HighBit": 15,
      "ImageOrientationPatient": [0.99804810924097, 0.04844391575707, 0.03941013406027, -0.0346781609909, 0.95474797761674, -0.2953874140633],
      "ImagePositionPatient": [-802.38776454153, -868.56557121108, 200.11090671597],
      "ImageType": [
        "ORIGINAL",
        "PRIMARY",
        "M",
        "MB",
        "ND",
        "MOSAIC"
],
      "ImagedNucleus": "1H",
      "ImagingFrequency": 123.258903,
      "InPlanePhaseEncodingDirection": "COL",
      "MRAcquisitionType": "2D",
      "MagneticFieldStrength": 3.0,
      "Manufacturer": "SIEMENS",
      "ManufacturerModelName": "Prisma_fit",
      "Modality": "MR",
      "NumberOfAverages": 1.0,
      "NumberOfPhaseEncodingSteps": 104,
      "PercentPhaseFieldOfView": 100.0,
      "PercentSampling": 100.0,
      "PerformedProcedureStepStartTime": "171051.305000",
      "PhotometricInterpretation": "MONOCHROME2",
      "PixelBandwidth": 2290.0,
      "PixelRepresentation": 0,
      "PixelSpacing": [2.0, 2.0],
      "ProtocolName": "func_task-things_run-4",
      "RepetitionTime": 1490.0,
      "Rows": 832,
      "SAR": 0.03603882266943,
      "SamplesPerPixel": 1,
      "ScanOptions": "FS",
      "ScanningSequence": "EP",
      "SequenceName": "epfid2d1_104",
      "SequenceVariant": [
        "SK",
        "SS"
],
      "SeriesDescription": "func_task-things_run-4",
      "SeriesNumber": 19,
      "SeriesTime": "174953.941000",
      "SliceLocation": -22.183584414391,
      "SliceThickness": 2.0,
      "SmallestImagePixelValue": 0,
      "SoftwareVersions": "syngo MR E11",
      "SpacingBetweenSlices": 2.0000000309419,
      "SpecificCharacterSet": "ISO_IR 100",
      "StudyID": "1",
      "StudyTime": "171051.239000",
      "TransmitCoilName": "Body",
      "VariableFlipAngleFlag": "N",
      "WindowCenterWidthExplanation": "Algo1",
      "dBdt": 0.0},
    "slices": {}
  },
  "time": {
    "samples": {
      "AcquisitionNumber": [1, 2, 3, 4, 5, 6, 7, 8, 9, 10, 11, 12, 13, 14, 15, 16, 17, 18, 19, 20, 21, 22, 23, 24, 25, 26, 27, 28, 29, 30, 31, 32, 33, 34, 35, 36, 37, 38, 39, 40, 41, 42, 43, 44, 45, 46, 47, 48, 49, 50, 51, 52, 53, 54, 55, 56, 57, 58, 59, 60, 61, 62, 63, 64, 65, 66, 67, 68, 69, 70, 71, 72, 73, 74, 75, 76, 77, 78, 79, 80, 81, 82, 83, 84, 85, 86, 87, 88, 89, 90, 91, 92, 93, 94, 95, 96, 97, 98, 99, 100, 101, 102, 103, 104, 105, 106, 107, 108, 109, 110, 111, 112, 113, 114, 115, 116, 117, 118, 119, 120, 121, 122, 123, 124, 125, 126, 127, 128, 129, 130, 131, 132, 133, 134, 135, 136, 137, 138, 139, 140, 141, 142, 143, 144, 145, 146, 147, 148, 149, 150, 151, 152, 153, 154, 155, 156, 157, 158, 159, 160, 161, 162, 163, 164, 165, 166, 167, 168, 169, 170, 171, 172, 173, 174, 175, 176, 177, 178, 179, 180, 181, 182, 183, 184, 185, 186, 187, 188, 189, 190],
      "AcquisitionTime": ["174825.660000", "174827.150000", "174828.640000", "174830.130000", "174831.620000", "174833.110000", "174834.600000", "174836.090000", "174837.580000", "174839.070000", "174840.560000", "174842.050000", "174843.540000", "174845.030000", "174846.520000", "174848.010000", "174849.500000", "174850.990000", "174852.480000", "174853.970000", "174855.460000", "174856.950000", "174858.440000", "174859.930000", "174901.420000", "174902.910000", "174904.400000", "174905.890000", "174907.380000", "174908.870000", "174910.360000", "174911.850000", "174913.340000", "174914.830000", "174916.320000", "174917.810000", "174919.300000", "174920.790000", "174922.280000", "174923.770000", "174925.260000", "174926.750000", "174928.240000", "174929.730000", "174931.220000", "174932.710000", "174934.200000", "174935.690000", "174937.180000", "174938.670000", "174940.160000", "174941.650000", "174943.140000", "174944.630000", "174946.120000", "174947.610000", "174949.100000", "174950.590000", "174952.080000", "174953.570000", "174955.060000", "174956.550000", "174958.040000", "174959.530000", "175001.020000", "175002.510000", "175004.000000", "175005.490000", "175006.980000", "175008.470000", "175009.960000", "175011.450000", "175012.940000", "175014.430000", "175015.920000", "175017.410000", "175018.900000", "175020.390000", "175021.880000", "175023.370000", "175024.860000", "175026.350000", "175027.840000", "175029.330000", "175030.820000", "175032.310000", "175033.800000", "175035.290000", "175036.780000", "175038.270000", "175039.760000", "175041.250000", "175042.740000", "175044.230000", "175045.720000", "175047.210000", "175048.700000", "175050.190000", "175051.680000", "175053.170000", "175054.660000", "175056.150000", "175057.640000", "175059.130000", "175100.620000", "175102.110000", "175103.600000", "175105.090000", "175106.580000", "175108.070000", "175109.560000", "175111.050000", "175112.540000", "175114.030000", "175115.520000", "175117.010000", "175118.500000", "175119.990000", "175121.480000", "175122.970000", "175124.460000", "175125.950000", "175127.440000", "175128.930000", "175130.420000", "175131.910000", "175133.400000", "175134.890000", "175136.380000", "175137.870000", "175139.360000", "175140.850000", "175142.340000", "175143.830000", "175145.320000", "175146.810000", "175148.300000", "175149.790000", "175151.280000", "175152.770000", "175154.260000", "175155.750000", "175157.240000", "175158.730000", "175200.220000", "175201.710000", "175203.200000", "175204.690000", "175206.180000", "175207.670000", "175209.160000", "175210.650000", "175212.140000", "175213.630000", "175215.120000", "175216.610000", "175218.100000", "175219.590000", "175221.080000", "175222.570000", "175224.060000", "175225.550000", "175227.040000", "175228.530000", "175230.020000", "175231.510000", "175233.000000", "175234.490000", "175235.980000", "175237.470000", "175238.960000", "175240.450000", "175241.940000", "175243.430000", "175244.920000", "175246.410000", "175247.900000", "175249.390000", "175250.880000", "175252.370000", "175253.860000", "175255.350000", "175256.840000", "175258.330000", "175259.820000", "175301.310000", "175302.800000", "175304.290000", "175305.780000", "175307.270000"],
      "ContentTime": ["174953.945000", "174953.948000", "174953.952000", "174953.955000", "174953.958000", "174953.962000", "174953.965000", "174953.968000", "174953.972000", "174953.975000", "174953.978000", "174953.982000", "174953.985000", "174954.001000", "174954.004000", "174954.008000", "174954.011000", "174954.014000", "174954.018000", "174954.021000", "174954.033000", "174954.036000", "174954.040000", "174954.043000", "174954.046000", "174954.050000", "174954.053000", "174954.056000", "174954.059000", "174954.063000", "174954.066000", "174954.069000", "174954.073000", "175013.915000", "175013.919000", "175013.924000", "175013.927000", "175013.931000", "175013.934000", "175013.938000", "175013.941000", "175013.945000", "175013.948000", "175013.952000", "175013.955000", "175013.959000", "175013.962000", "175013.966000", "175013.970000", "175013.974000", "175013.977000", "175013.980000", "175013.984000", "175033.915000", "175033.919000", "175033.922000", "175033.926000", "175033.929000", "175033.932000", "175033.936000", "175033.939000", "175033.943000", "175033.946000", "175033.950000", "175033.953000", "175033.956000", "175033.960000", "175033.963000", "175033.967000", "175033.970000", "175033.973000", "175033.977000", "175033.980000", "175033.983000", "175053.915000", "175053.919000", "175053.922000", "175053.925000", "175053.929000", "175053.932000", "175053.936000", "175053.939000", "175053.942000", "175053.946000", "175053.949000", "175053.952000", "175053.956000", "175053.959000", "175053.962000", "175053.966000", "175053.969000", "175053.972000", "175053.976000", "175053.979000", "175113.915000", "175113.919000", "175113.922000", "175113.926000", "175113.929000", "175113.932000", "175113.936000", "175113.939000", "175113.942000", "175113.946000", "175113.949000", "175113.952000", "175113.956000", "175113.959000", "175113.962000", "175113.966000", "175113.969000", "175113.972000", "175153.932000", "175153.935000", "175153.939000", "175153.942000", "175153.946000", "175153.949000", "175153.952000", "175153.956000", "175153.959000", "175153.963000", "175153.966000", "175153.969000", "175153.973000", "175153.976000", "175153.979000", "175153.983000", "175153.986000", "175153.990000", "175153.993000", "175153.996000", "175154.001000", "175154.004000", "175154.007000", "175154.011000", "175154.014000", "175154.017000", "175154.021000", "175233.915000", "175233.919000", "175233.922000", "175233.926000", "175233.929000", "175233.932000", "175233.936000", "175233.939000", "175233.942000", "175233.946000", "175233.949000", "175233.952000", "175233.956000", "175233.959000", "175233.963000", "175233.966000", "175233.970000", "175233.973000", "175233.976000", "175233.979000", "175233.983000", "175233.986000", "175233.990000", "175233.993000", "175233.996000", "175234.001000", "175234.004000", "175309.536000", "175309.539000", "175309.543000", "175309.546000", "175309.549000", "175309.553000", "175309.556000", "175309.560000", "175309.563000", "175309.566000", "175309.570000", "175309.573000", "175309.577000", "175309.580000", "175309.584000", "175309.587000", "175309.590000", "175309.594000", "175309.597000", "175309.601000", "175309.605000", "175309.608000", "175309.611000", "175309.615000"],
      "InstanceCreationTime": ["174953.945000", "174953.948000", "174953.952000", "174953.955000", "174953.958000", "174953.962000", "174953.965000", "174953.968000", "174953.972000", "174953.975000", "174953.978000", "174953.982000", "174953.985000", "174954.001000", "174954.004000", "174954.008000", "174954.011000", "174954.014000", "174954.018000", "174954.021000", "174954.033000", "174954.036000", "174954.040000", "174954.043000", "174954.046000", "174954.050000", "174954.053000", "174954.056000", "174954.059000", "174954.063000", "174954.066000", "174954.069000", "174954.073000", "175013.915000", "175013.919000", "175013.924000", "175013.927000", "175013.931000", "175013.934000", "175013.938000", "175013.941000", "175013.945000", "175013.948000", "175013.952000", "175013.955000", "175013.959000", "175013.962000", "175013.966000", "175013.970000", "175013.974000", "175013.977000", "175013.980000", "175013.984000", "175033.915000", "175033.919000", "175033.922000", "175033.926000", "175033.929000", "175033.932000", "175033.936000", "175033.939000", "175033.943000", "175033.946000", "175033.950000", "175033.953000", "175033.956000", "175033.960000", "175033.963000", "175033.967000", "175033.970000", "175033.973000", "175033.977000", "175033.980000", "175033.983000", "175053.915000", "175053.919000", "175053.922000", "175053.925000", "175053.929000", "175053.932000", "175053.936000", "175053.939000", "175053.942000", "175053.946000", "175053.949000", "175053.952000", "175053.956000", "175053.959000", "175053.962000", "175053.966000", "175053.969000", "175053.972000", "175053.976000", "175053.979000", "175113.915000", "175113.919000", "175113.922000", "175113.926000", "175113.929000", "175113.932000", "175113.936000", "175113.939000", "175113.942000", "175113.946000", "175113.949000", "175113.952000", "175113.956000", "175113.959000", "175113.962000", "175113.966000", "175113.969000", "175113.972000", "175153.932000", "175153.935000", "175153.939000", "175153.942000", "175153.946000", "175153.949000", "175153.952000", "175153.956000", "175153.959000", "175153.963000", "175153.966000", "175153.969000", "175153.973000", "175153.976000", "175153.979000", "175153.983000", "175153.986000", "175153.990000", "175153.993000", "175153.996000", "175154.001000", "175154.004000", "175154.007000", "175154.011000", "175154.014000", "175154.017000", "175154.021000", "175233.915000", "175233.919000", "175233.922000", "175233.926000", "175233.929000", "175233.932000", "175233.936000", "175233.939000", "175233.942000", "175233.946000", "175233.949000", "175233.952000", "175233.956000", "175233.959000", "175233.963000", "175233.966000", "175233.970000", "175233.973000", "175233.976000", "175233.979000", "175233.983000", "175233.986000", "175233.990000", "175233.993000", "175233.996000", "175234.001000", "175234.004000", "175309.536000", "175309.539000", "175309.543000", "175309.546000", "175309.549000", "175309.553000", "175309.556000", "175309.560000", "175309.563000", "175309.566000", "175309.570000", "175309.573000", "175309.577000", "175309.580000", "175309.584000", "175309.587000", "175309.590000", "175309.594000", "175309.597000", "175309.601000", "175309.605000", "175309.608000", "175309.611000", "175309.615000"],
      "InstanceNumber": [1, 2, 3, 4, 5, 6, 7, 8, 9, 10, 11, 12, 13, 14, 15, 16, 17, 18, 19, 20, 21, 22, 23, 24, 25, 26, 27, 28, 29, 30, 31, 32, 33, 34, 35, 36, 37, 38, 39, 40, 41, 42, 43, 44, 45, 46, 47, 48, 49, 50, 51, 52, 53, 54, 55, 56, 57, 58, 59, 60, 61, 62, 63, 64, 65, 66, 67, 68, 69, 70, 71, 72, 73, 74, 75, 76, 77, 78, 79, 80, 81, 82, 83, 84, 85, 86, 87, 88, 89, 90, 91, 92, 93, 94, 95, 96, 97, 98, 99, 100, 101, 102, 103, 104, 105, 106, 107, 108, 109, 110, 111, 112, 113, 114, 115, 116, 117, 118, 119, 120, 121, 122, 123, 124, 125, 126, 127, 128, 129, 130, 131, 132, 133, 134, 135, 136, 137, 138, 139, 140, 141, 142, 143, 144, 145, 146, 147, 148, 149, 150, 151, 152, 153, 154, 155, 156, 157, 158, 159, 160, 161, 162, 163, 164, 165, 166, 167, 168, 169, 170, 171, 172, 173, 174, 175, 176, 177, 178, 179, 180, 181, 182, 183, 184, 185, 186, 187, 188, 189, 190],
      "LargestImagePixelValue": [42547, 42257, 41614, 41750, 41394, 41387, 41528, 41617, 41043, 40729, 41099, 40971, 41320, 41265, 41804, 41302, 41634, 41329, 40976, 41320, 40888, 41225, 41016, 41297, 41252, 41886, 41680, 41440, 41654, 41459, 41297, 41501, 40750, 41315, 41335, 41518, 41115, 41098, 41514, 41047, 41364, 40990, 41089, 41319, 41445, 41016, 40926, 40794, 40882, 40748, 40789, 41074, 40956, 41088, 41259, 41042, 40768, 40566, 40935, 40730, 41049, 40980, 41107, 40734, 40525, 40526, 40840, 41004, 41072, 40731, 41055, 41028, 40796, 40746, 41006, 40874, 40941, 41055, 41064, 41226, 41448, 41153, 41137, 41310, 41454, 41254, 40986, 41539, 41349, 41183, 41508, 41230, 41894, 42413, 42050, 41463, 41200, 41344, 41193, 41131, 41182, 41125, 41013, 42284, 44085, 42713, 41619, 41428, 41310, 41464, 41745, 40911, 40447, 40887, 41394, 41202, 41546, 41814, 41145, 41616, 41463, 41449, 41599, 40876, 40907, 40391, 41353, 41624, 41153, 41078, 40984, 41208, 41281, 41032, 40976, 40896, 41416, 41374, 40662, 40888, 41094, 41137, 40439, 41004, 40577, 40804, 41141, 41320, 42036, 41720, 41492, 42060, 41646, 41643, 41405, 41235, 41209, 41245, 41572, 41482, 41040, 41464, 41486, 41766, 40357, 41135, 40958, 40945, 41854, 42051, 41033, 41025, 40736, 40944, 42257, 41485, 41267, 42510, 42675, 42412, 41700, 40703, 40894, 40626, 41200, 41179, 41202, 42217, 41725, 41065],
      "WindowCenter": [10594.0, 10542.0, 10515.0, 10501.0, 10495.0, 10505.0, 10518.0, 10520.0, 10510.0, 10515.0, 10522.0, 10523.0, 10524.0, 10535.0, 10552.0, 10536.0, 10524.0, 10524.0, 10522.0, 10543.0, 10559.0, 10558.0, 10527.0, 10516.0, 10505.0, 10514.0, 10525.0, 10518.0, 10507.0, 10507.0, 10515.0, 10526.0, 10516.0, 10512.0, 10510.0, 10515.0, 10503.0, 10502.0, 10524.0, 10522.0, 10546.0, 10530.0, 10521.0, 10526.0, 10543.0, 10547.0, 10566.0, 10563.0, 10557.0, 10537.0, 10534.0, 10540.0, 10529.0, 10528.0, 10529.0, 10540.0, 10552.0, 10555.0, 10547.0, 10533.0, 10523.0, 10521.0, 10536.0, 10541.0, 10541.0, 10536.0, 10533.0, 10537.0, 10549.0, 10549.0, 10547.0, 10540.0, 10542.0, 10553.0, 10560.0, 10543.0, 10539.0, 10539.0, 10531.0, 10533.0, 10540.0, 10540.0, 10525.0, 10524.0, 10541.0, 10542.0, 10528.0, 10524.0, 10506.0, 10515.0, 10536.0, 10546.0, 10560.0, 10546.0, 10504.0, 10501.0, 10499.0, 10507.0, 10516.0, 10533.0, 10529.0, 10512.0, 10494.0, 10505.0, 10519.0, 10496.0, 10490.0, 10488.0, 10499.0, 10530.0, 10541.0, 10524.0, 10512.0, 10513.0, 10501.0, 10481.0, 10493.0, 10509.0, 10505.0, 10506.0, 10514.0, 10530.0, 10551.0, 10556.0, 10535.0, 10508.0, 10517.0, 10549.0, 10554.0, 10549.0, 10523.0, 10517.0, 10535.0, 10545.0, 10538.0, 10527.0, 10527.0, 10529.0, 10517.0, 10531.0, 10538.0, 10525.0, 10497.0, 10503.0, 10504.0, 10500.0, 10491.0, 10491.0, 10506.0, 10505.0, 10490.0, 10493.0, 10487.0, 10495.0, 10513.0, 10524.0, 10519.0, 10525.0, 10532.0, 10525.0, 10518.0, 10521.0, 10516.0, 10532.0, 10537.0, 10549.0, 10544.0, 10543.0, 10533.0, 10510.0, 10499.0, 10500.0, 10501.0, 10502.0, 10512.0, 10508.0, 10512.0, 10516.0, 10480.0, 10467.0, 10478.0, 10498.0, 10525.0, 10520.0, 10511.0, 10502.0, 10492.0, 10502.0, 10497.0, 10497.0],
      "WindowWidth": [22564.0, 22423.0, 22353.0, 22315.0, 22299.0, 22321.0, 22350.0, 22353.0, 22335.0, 22345.0, 22359.0, 22363.0, 22366.0, 22391.0, 22441.0, 22398.0, 22369.0, 22369.0, 22370.0, 22420.0, 22457.0, 22449.0, 22374.0, 22344.0, 22317.0, 22338.0, 22370.0, 22354.0, 22325.0, 22325.0, 22347.0, 22374.0, 22354.0, 22340.0, 22337.0, 22348.0, 22325.0, 22324.0, 22370.0, 22373.0, 22426.0, 22385.0, 22365.0, 22375.0, 22413.0, 22425.0, 22477.0, 22471.0, 22460.0, 22409.0, 22400.0, 22410.0, 22383.0, 22376.0, 22381.0, 22410.0, 22440.0, 22447.0, 22422.0, 22390.0, 22368.0, 22363.0, 22400.0, 22415.0, 22414.0, 22403.0, 22399.0, 22405.0, 22437.0, 22435.0, 22425.0, 22409.0, 22419.0, 22446.0, 22459.0, 22416.0, 22404.0, 22406.0, 22392.0, 22389.0, 22405.0, 22404.0, 22366.0, 22362.0, 22405.0, 22408.0, 22374.0, 22364.0, 22324.0, 22345.0, 22397.0, 22418.0, 22449.0, 22415.0, 22318.0, 22312.0, 22318.0, 22328.0, 22348.0, 22389.0, 22379.0, 22337.0, 22292.0, 22311.0, 22340.0, 22293.0, 22283.0, 22279.0, 22303.0, 22375.0, 22400.0, 22362.0, 22342.0, 22341.0, 22311.0, 22262.0, 22291.0, 22326.0, 22319.0, 22320.0, 22340.0, 22378.0, 22430.0, 22445.0, 22396.0, 22329.0, 22350.0, 22428.0, 22441.0, 22429.0, 22365.0, 22350.0, 22393.0, 22417.0, 22398.0, 22371.0, 22371.0, 22375.0, 22348.0, 22381.0, 22400.0, 22369.0, 22305.0, 22318.0, 22319.0, 22302.0, 22276.0, 22280.0, 22317.0, 22316.0, 22281.0, 22286.0, 22276.0, 22296.0, 22340.0, 22365.0, 22351.0, 22360.0, 22378.0, 22368.0, 22352.0, 22353.0, 22345.0, 22385.0, 22404.0, 22425.0, 22414.0, 22412.0, 22387.0, 22331.0, 22308.0, 22313.0, 22311.0, 22313.0, 22330.0, 22321.0, 22334.0, 22341.0, 22256.0, 22226.0, 22254.0, 22306.0, 22368.0, 22353.0, 22327.0, 22309.0, 22286.0, 22309.0, 22301.0, 22305.0]
    },
    "slices": {}
  }
}