{
  "AcquisitionMatrixPE": 104,
  "AcquisitionNumber": 1,
  "AcquisitionTime": "17:54:34.547500",
  "BandwidthPerPixelPhaseEncode": 17.17,
  "BaseResolution": 104,
  "BodyPartExamined": "BRAIN",
  "CoilString": "HC1-7;NC1_2",
  "ConsistencyInfo": "N4_VE11C_LATEST_20160120",
  "ConversionSoftware": "dcm2niix",
  "ConversionSoftwareVersion": "v1.0.20190902",
  "DerivedVendorReportedEchoSpacing": 0.000560011,
  "DeviceSerialNumber": "167006",
  "DwellTime": 2.1e-06,
  "EchoTime": 0.037,
  "EchoTrainLength": 104,
  "EffectiveEchoSpacing": 0.000560011,
  "FlipAngle": 52,
  "ImageComments": "Unaliased_MB4_PE3_LB",
  "ImageOrientationPatientDICOM": [0.998048, 0.0484439, 0.0394101, -0.0346782, 0.954748, -0.295387],
  "ImageType": [
    "ORIGINAL",
    "PRIMARY",
    "M",
    "MB",
    "ND",
    "MOSAIC"
],
  "ImagingFrequency": 123.259,
  "InPlanePhaseEncodingDirectionDICOM": "COL",
  "InstitutionAddress": "Chemin_Queen-Mary_4565_Montreal_District_CA_H3W_1W5",
  "InstitutionName": "IUGM",
  "InstitutionalDepartmentName": "Department",
  "MRAcquisitionType": "2D",
  "MagneticFieldStrength": 3,
  "Manufacturer": "Siemens",
  "ManufacturersModelName": "Prisma_fit",
  "Modality": "MR",
  "MultibandAccelerationFactor": 4,
  "PartialFourier": 1,
  "PatientPosition": "HFS",
  "PercentPhaseFOV": 100,
  "PhaseEncodingDirection": "j",
  "PhaseEncodingSteps": 104,
  "PhaseResolution": 1,
  "PixelBandwidth": 2290,
  "ProcedureStepDescription": "memory_things",
  "ProtocolName": "func_task-things_run-5",
  "PulseSequenceDetails": "%CustomerSeq%_cmrr_mbep2d_bold",
  "ReceiveCoilActiveElements": "HC1-7;NC1,2",
  "ReceiveCoilName": "HeadNeck_64",
  "ReconMatrixPE": 104,
  "RepetitionTime": 1.49,
  "SAR": 0.0360388,
  "ScanOptions": "FS",
  "ScanningSequence": "EP",
  "SequenceName": "epfid2d1_104",
  "SequenceVariant": "SK_SS",
  "SeriesDescription": "func_task-things_run-5",
  "SeriesNumber": 22,
  "ShimSetting": [638, -7180, -8759, 686, 77, 56, -14, -7],
  "SliceThickness": 2,
  "SliceTiming": [0, 0.785, 0.0975, 0.8825, 0.1975, 0.98, 0.295, 1.0775, 0.3925, 1.1775, 0.49, 1.275, 0.5875, 1.3725, 0.6875, 0, 0.785, 0.0975, 0.8825, 0.1975, 0.98, 0.295, 1.0775, 0.3925, 1.1775, 0.49, 1.275, 0.5875, 1.3725, 0.6875, 0, 0.785, 0.0975, 0.8825, 0.1975, 0.98, 0.295, 1.0775, 0.3925, 1.1775, 0.49, 1.275, 0.5875, 1.3725, 0.6875, 0, 0.785, 0.0975, 0.8825, 0.1975, 0.98, 0.295, 1.0775, 0.3925, 1.1775, 0.49, 1.275, 0.5875, 1.3725, 0.6875],
  "SoftwareVersions": "syngo_MR_E11",
  "SpacingBetweenSlices": 2,
  "StationName": "MRC35049",
  "TaskName": "things",
  "TotalReadoutTime": 0.0576811,
  "TxRefAmp": 244.848,
  "WipMemBlock": "f3bd7c1e-7bf5-472f-bc48-3ebd8ac02aa7||Sequence: R016 ve11c/master r/e634e98; Dec 19 2017 11:00:25 by eja",
  "dcmmeta_affine": [
    [-1.9960962533950806, -0.06935632228851318, 0.10387293994426727, 108.1981430053711],
    [-0.09688783437013626, 1.9094959497451782, -0.5868883728981018, -58.43621063232422],
    [0.07882026582956314, 0.5907748341560364, 1.9091287851333618, -47.09035873413086],
    [0.0, 0.0, 0.0, 1.0]
],
  "dcmmeta_reorient_transform": [
    [0.0, -1.0, 0.0, 103.0],
    [1.0, 0.0, 0.0, 0.0],
    [0.0, 0.0, 1.0, 0.0],
    [0.0, 0.0, 0.0, 1.0]
],
  "dcmmeta_shape": [104, 104, 60, 190],
  "dcmmeta_slice_dim": 2,
  "dcmmeta_version": 0.6,
  "global": {
    "const": {
      "AcquisitionMatrix": [104, 0, 0, 104],
      "AngioFlag": "N",
      "BitsAllocated": 16,
      "BitsStored": 16,
      "BodyPartExamined": "BRAIN",
      "Columns": 832,
      "EchoNumbers": 1,
      "EchoTime": 37.0,
      "EchoTrainLength": 104,
      "FlipAngle": 52.0,
      "HighBit": 15,
      "ImageOrientationPatient": [0.99804810924097, 0.04844391575707, 0.03941013406027, -0.0346781609909, 0.95474797761674, -0.2953874140633],
      "ImagePositionPatient": [-802.38776454153, -868.56557121108, 200.11090671597],
      "ImageType": [
        "ORIGINAL",
        "PRIMARY",
        "M",
        "MB",
        "ND",
        "MOSAIC"
],
      "ImagedNucleus": "1H",
      "ImagingFrequency": 123.258902,
      "InPlanePhaseEncodingDirection": "COL",
      "MRAcquisitionType": "2D",
      "MagneticFieldStrength": 3.0,
      "Manufacturer": "SIEMENS",
      "ManufacturerModelName": "Prisma_fit",
      "Modality": "MR",
      "NumberOfAverages": 1.0,
      "NumberOfPhaseEncodingSteps": 104,
      "PercentPhaseFieldOfView": 100.0,
      "PercentSampling": 100.0,
      "PerformedProcedureStepStartTime": "171051.305000",
      "PhotometricInterpretation": "MONOCHROME2",
      "PixelBandwidth": 2290.0,
      "PixelRepresentation": 0,
      "PixelSpacing": [2.0, 2.0],
      "ProtocolName": "func_task-things_run-5",
      "RepetitionTime": 1490.0,
      "Rows": 832,
      "SAR": 0.03603882266943,
      "SamplesPerPixel": 1,
      "ScanOptions": "FS",
      "ScanningSequence": "EP",
      "SequenceName": "epfid2d1_104",
      "SequenceVariant": [
        "SK",
        "SS"
],
      "SeriesDescription": "func_task-things_run-5",
      "SeriesNumber": 22,
      "SeriesTime": "175557.663000",
      "SliceLocation": -22.183584414391,
      "SliceThickness": 2.0,
      "SmallestImagePixelValue": 0,
      "SoftwareVersions": "syngo MR E11",
      "SpacingBetweenSlices": 2.0000000309419,
      "SpecificCharacterSet": "ISO_IR 100",
      "StudyID": "1",
      "StudyTime": "171051.239000",
      "TransmitCoilName": "Body",
      "VariableFlipAngleFlag": "N",
      "WindowCenterWidthExplanation": "Algo1",
      "dBdt": 0.0},
    "slices": {}
  },
  "time": {
    "samples": {
      "AcquisitionNumber": [1, 2, 3, 4, 5, 6, 7, 8, 9, 10, 11, 12, 13, 14, 15, 16, 17, 18, 19, 20, 21, 22, 23, 24, 25, 26, 27, 28, 29, 30, 31, 32, 33, 34, 35, 36, 37, 38, 39, 40, 41, 42, 43, 44, 45, 46, 47, 48, 49, 50, 51, 52, 53, 54, 55, 56, 57, 58, 59, 60, 61, 62, 63, 64, 65, 66, 67, 68, 69, 70, 71, 72, 73, 74, 75, 76, 77, 78, 79, 80, 81, 82, 83, 84, 85, 86, 87, 88, 89, 90, 91, 92, 93, 94, 95, 96, 97, 98, 99, 100, 101, 102, 103, 104, 105, 106, 107, 108, 109, 110, 111, 112, 113, 114, 115, 116, 117, 118, 119, 120, 121, 122, 123, 124, 125, 126, 127, 128, 129, 130, 131, 132, 133, 134, 135, 136, 137, 138, 139, 140, 141, 142, 143, 144, 145, 146, 147, 148, 149, 150, 151, 152, 153, 154, 155, 156, 157, 158, 159, 160, 161, 162, 163, 164, 165, 166, 167, 168, 169, 170, 171, 172, 173, 174, 175, 176, 177, 178, 179, 180, 181, 182, 183, 184, 185, 186, 187, 188, 189, 190],
      "AcquisitionTime": ["175434.547500", "175436.037500", "175437.527500", "175439.017500", "175440.507500", "175441.997500", "175443.487500", "175444.977500", "175446.467500", "175447.957500", "175449.447500", "175450.937500", "175452.427500", "175453.917500", "175455.407500", "175456.897500", "175458.387500", "175459.877500", "175501.367500", "175502.857500", "175504.347500", "175505.837500", "175507.327500", "175508.817500", "175510.307500", "175511.797500", "175513.287500", "175514.777500", "175516.267500", "175517.757500", "175519.247500", "175520.737500", "175522.227500", "175523.717500", "175525.207500", "175526.697500", "175528.187500", "175529.677500", "175531.167500", "175532.657500", "175534.147500", "175535.637500", "175537.127500", "175538.617500", "175540.107500", "175541.597500", "175543.087500", "175544.577500", "175546.067500", "175547.557500", "175549.047500", "175550.537500", "175552.027500", "175553.517500", "175555.007500", "175556.497500", "175557.987500", "175559.477500", "175600.967500", "175602.457500", "175603.947500", "175605.437500", "175606.927500", "175608.417500", "175609.907500", "175611.397500", "175612.887500", "175614.377500", "175615.867500", "175617.357500", "175618.847500", "175620.337500", "175621.827500", "175623.317500", "175624.807500", "175626.297500", "175627.787500", "175629.277500", "175630.767500", "175632.257500", "175633.747500", "175635.237500", "175636.727500", "175638.217500", "175639.707500", "175641.197500", "175642.687500", "175644.177500", "175645.667500", "175647.157500", "175648.647500", "175650.137500", "175651.627500", "175653.117500", "175654.607500", "175656.097500", "175657.587500", "175659.077500", "175700.567500", "175702.057500", "175703.547500", "175705.037500", "175706.527500", "175708.017500", "175709.507500", "175710.997500", "175712.487500", "175713.977500", "175715.467500", "175716.957500", "175718.447500", "175719.937500", "175721.427500", "175722.917500", "175724.407500", "175725.897500", "175727.387500", "175728.877500", "175730.367500", "175731.857500", "175733.347500", "175734.837500", "175736.327500", "175737.817500", "175739.307500", "175740.797500", "175742.287500", "175743.777500", "175745.267500", "175746.757500", "175748.247500", "175749.737500", "175751.227500", "175752.717500", "175754.207500", "175755.697500", "175757.187500", "175758.677500", "175800.167500", "175801.657500", "175803.147500", "175804.637500", "175806.127500", "175807.617500", "175809.107500", "175810.597500", "175812.087500", "175813.577500", "175815.067500", "175816.557500", "175818.047500", "175819.537500", "175821.027500", "175822.517500", "175824.007500", "175825.497500", "175826.987500", "175828.477500", "175829.967500", "175831.457500", "175832.947500", "175834.437500", "175835.927500", "175837.417500", "175838.907500", "175840.397500", "175841.887500", "175843.377500", "175844.867500", "175846.357500", "175847.847500", "175849.337500", "175850.827500", "175852.317500", "175853.807500", "175855.297500", "175856.787500", "175858.277500", "175859.767500", "175901.257500", "175902.747500", "175904.237500", "175905.727500", "175907.217500", "175908.707500", "175910.197500", "175911.687500", "175913.177500", "175914.667500", "175916.157500"],
      "ContentTime": ["175557.666000", "175557.670000", "175557.673000", "175557.677000", "175557.680000", "175557.683000", "175557.694000", "175557.698000", "175557.701000", "175557.704000", "175557.708000", "175557.711000", "175557.714000", "175557.718000", "175557.721000", "175557.724000", "175557.728000", "175557.731000", "175557.734000", "175557.737000", "175557.741000", "175557.769000", "175557.773000", "175557.776000", "175557.779000", "175557.783000", "175557.786000", "175557.789000", "175557.793000", "175617.628000", "175617.632000", "175617.635000", "175617.639000", "175617.642000", "175617.645000", "175617.648000", "175617.652000", "175617.664000", "175617.667000", "175617.670000", "175617.674000", "175617.679000", "175617.683000", "175617.687000", "175617.691000", "175617.694000", "175617.698000", "175617.701000", "175617.705000", "175637.628000", "175637.632000", "175637.635000", "175637.638000", "175637.642000", "175637.645000", "175637.649000", "175637.652000", "175637.655000", "175637.659000", "175637.662000", "175637.665000", "175637.669000", "175637.672000", "175637.675000", "175637.679000", "175637.682000", "175637.685000", "175637.689000", "175637.692000", "175637.695000", "175657.629000", "175657.633000", "175657.636000", "175657.640000", "175657.643000", "175657.646000", "175657.650000", "175657.653000", "175657.656000", "175657.660000", "175657.663000", "175657.667000", "175657.670000", "175657.673000", "175657.677000", "175657.680000", "175657.683000", "175657.687000", "175657.690000", "175657.693000", "175737.628000", "175737.632000", "175737.635000", "175737.638000", "175737.642000", "175737.645000", "175737.648000", "175737.652000", "175737.655000", "175737.658000", "175737.662000", "175737.665000", "175737.669000", "175737.672000", "175737.675000", "175737.679000", "175737.682000", "175737.685000", "175737.689000", "175737.692000", "175737.695000", "175737.699000", "175737.702000", "175737.705000", "175737.709000", "175737.712000", "175737.715000", "175737.719000", "175737.722000", "175737.725000", "175737.729000", "175737.732000", "175817.628000", "175817.632000", "175817.635000", "175817.638000", "175817.657000", "175817.660000", "175817.664000", "175817.667000", "175817.670000", "175817.674000", "175817.677000", "175817.681000", "175817.684000", "175817.687000", "175817.691000", "175817.694000", "175817.697000", "175817.700000", "175817.704000", "175817.707000", "175817.710000", "175817.714000", "175817.717000", "175817.721000", "175817.724000", "175817.727000", "175817.731000", "175857.628000", "175857.632000", "175857.635000", "175857.639000", "175857.642000", "175857.645000", "175857.649000", "175857.652000", "175857.655000", "175857.659000", "175857.662000", "175857.666000", "175857.669000", "175857.672000", "175857.676000", "175857.679000", "175857.682000", "175857.686000", "175857.689000", "175857.693000", "175857.697000", "175857.701000", "175857.704000", "175857.708000", "175857.711000", "175857.715000", "175918.631000", "175918.635000", "175918.638000", "175918.642000", "175918.645000", "175918.649000", "175918.652000", "175918.655000", "175918.659000", "175918.662000", "175918.665000", "175918.669000", "175918.672000", "175918.676000", "175918.679000"],
      "InstanceCreationTime": ["175557.666000", "175557.670000", "175557.673000", "175557.677000", "175557.680000", "175557.683000", "175557.694000", "175557.698000", "175557.701000", "175557.704000", "175557.708000", "175557.711000", "175557.714000", "175557.718000", "175557.721000", "175557.724000", "175557.728000", "175557.731000", "175557.734000", "175557.737000", "175557.741000", "175557.769000", "175557.773000", "175557.776000", "175557.779000", "175557.783000", "175557.786000", "175557.789000", "175557.793000", "175617.628000", "175617.632000", "175617.635000", "175617.639000", "175617.642000", "175617.645000", "175617.648000", "175617.652000", "175617.664000", "175617.667000", "175617.670000", "175617.674000", "175617.679000", "175617.683000", "175617.687000", "175617.691000", "175617.694000", "175617.698000", "175617.701000", "175617.705000", "175637.628000", "175637.632000", "175637.635000", "175637.638000", "175637.642000", "175637.645000", "175637.649000", "175637.652000", "175637.655000", "175637.659000", "175637.662000", "175637.665000", "175637.669000", "175637.672000", "175637.675000", "175637.679000", "175637.682000", "175637.685000", "175637.689000", "175637.692000", "175637.695000", "175657.629000", "175657.633000", "175657.636000", "175657.640000", "175657.643000", "175657.646000", "175657.650000", "175657.653000", "175657.656000", "175657.660000", "175657.663000", "175657.667000", "175657.670000", "175657.673000", "175657.677000", "175657.680000", "175657.683000", "175657.687000", "175657.690000", "175657.693000", "175737.628000", "175737.632000", "175737.635000", "175737.638000", "175737.642000", "175737.645000", "175737.648000", "175737.652000", "175737.655000", "175737.658000", "175737.662000", "175737.665000", "175737.669000", "175737.672000", "175737.675000", "175737.679000", "175737.682000", "175737.685000", "175737.689000", "175737.692000", "175737.695000", "175737.699000", "175737.702000", "175737.705000", "175737.709000", "175737.712000", "175737.715000", "175737.719000", "175737.722000", "175737.725000", "175737.729000", "175737.732000", "175817.628000", "175817.632000", "175817.635000", "175817.638000", "175817.657000", "175817.660000", "175817.664000", "175817.667000", "175817.670000", "175817.674000", "175817.677000", "175817.681000", "175817.684000", "175817.687000", "175817.691000", "175817.694000", "175817.697000", "175817.700000", "175817.704000", "175817.707000", "175817.710000", "175817.714000", "175817.717000", "175817.721000", "175817.724000", "175817.727000", "175817.731000", "175857.628000", "175857.632000", "175857.635000", "175857.639000", "175857.642000", "175857.645000", "175857.649000", "175857.652000", "175857.655000", "175857.659000", "175857.662000", "175857.666000", "175857.669000", "175857.672000", "175857.676000", "175857.679000", "175857.682000", "175857.686000", "175857.689000", "175857.693000", "175857.697000", "175857.701000", "175857.704000", "175857.708000", "175857.711000", "175857.715000", "175918.631000", "175918.635000", "175918.638000", "175918.642000", "175918.645000", "175918.649000", "175918.652000", "175918.655000", "175918.659000", "175918.662000", "175918.665000", "175918.669000", "175918.672000", "175918.676000", "175918.679000"],
      "InstanceNumber": [1, 2, 3, 4, 5, 6, 7, 8, 9, 10, 11, 12, 13, 14, 15, 16, 17, 18, 19, 20, 21, 22, 23, 24, 25, 26, 27, 28, 29, 30, 31, 32, 33, 34, 35, 36, 37, 38, 39, 40, 41, 42, 43, 44, 45, 46, 47, 48, 49, 50, 51, 52, 53, 54, 55, 56, 57, 58, 59, 60, 61, 62, 63, 64, 65, 66, 67, 68, 69, 70, 71, 72, 73, 74, 75, 76, 77, 78, 79, 80, 81, 82, 83, 84, 85, 86, 87, 88, 89, 90, 91, 92, 93, 94, 95, 96, 97, 98, 99, 100, 101, 102, 103, 104, 105, 106, 107, 108, 109, 110, 111, 112, 113, 114, 115, 116, 117, 118, 119, 120, 121, 122, 123, 124, 125, 126, 127, 128, 129, 130, 131, 132, 133, 134, 135, 136, 137, 138, 139, 140, 141, 142, 143, 144, 145, 146, 147, 148, 149, 150, 151, 152, 153, 154, 155, 156, 157, 158, 159, 160, 161, 162, 163, 164, 165, 166, 167, 168, 169, 170, 171, 172, 173, 174, 175, 176, 177, 178, 179, 180, 181, 182, 183, 184, 185, 186, 187, 188, 189, 190],
      "LargestImagePixelValue": [43640, 42148, 41269, 40908, 40481, 40598, 40617, 40678, 40887, 40889, 40448, 41396, 40695, 40353, 40165, 41122, 40413, 41089, 41003, 41122, 41236, 40506, 40434, 40609, 40801, 40521, 40976, 41005, 40650, 40698, 41074, 40660, 40708, 41109, 41165, 41090, 40925, 40295, 41200, 41052, 40544, 40868, 41051, 40418, 40388, 41211, 40285, 40025, 41000, 40983, 40281, 41404, 40908, 40950, 41123, 41507, 41150, 41420, 41781, 41237, 41410, 41717, 40994, 41055, 41569, 41617, 41484, 41546, 41414, 40816, 40768, 42211, 41912, 41652, 41392, 41067, 40533, 41189, 41562, 40978, 40819, 41155, 41229, 41609, 41661, 41167, 41123, 41095, 41133, 42047, 41199, 40438, 40771, 41153, 40857, 42043, 45334, 41009, 40527, 40627, 40460, 41888, 41302, 41486, 41255, 41014, 42010, 41463, 41503, 41328, 40761, 41511, 41790, 41318, 41094, 41643, 41208, 41184, 41372, 40672, 41029, 41481, 41278, 42832, 40857, 42050, 41369, 40905, 41136, 41201, 40619, 40227, 41744, 40916, 41382, 40708, 40681, 40725, 41617, 41068, 40537, 40481, 40791, 40261, 40523, 40975, 40784, 40815, 40773, 40537, 41443, 40796, 40262, 40117, 40811, 40621, 40562, 41016, 40810, 40435, 40508, 40839, 40556, 41546, 41397, 40635, 40862, 41115, 40389, 41460, 41144, 41086, 41387, 41457, 41948, 41798, 41871, 41754, 41415, 41620, 42428, 41079, 41699, 41134, 42289, 42368, 42373, 42028, 41303, 41359],
      "WindowCenter": [10605.0, 10549.0, 10516.0, 10517.0, 10521.0, 10509.0, 10507.0, 10513.0, 10537.0, 10556.0, 10544.0, 10540.0, 10527.0, 10525.0, 10534.0, 10536.0, 10514.0, 10510.0, 10509.0, 10508.0, 10528.0, 10523.0, 10507.0, 10512.0, 10510.0, 10502.0, 10508.0, 10512.0, 10536.0, 10550.0, 10533.0, 10516.0, 10509.0, 10528.0, 10537.0, 10534.0, 10528.0, 10500.0, 10505.0, 10505.0, 10503.0, 10510.0, 10516.0, 10510.0, 10510.0, 10527.0, 10509.0, 10501.0, 10502.0, 10501.0, 10492.0, 10502.0, 10503.0, 10510.0, 10509.0, 10508.0, 10509.0, 10511.0, 10523.0, 10526.0, 10539.0, 10539.0, 10514.0, 10505.0, 10501.0, 10500.0, 10501.0, 10513.0, 10511.0, 10508.0, 10500.0, 10505.0, 10491.0, 10480.0, 10482.0, 10476.0, 10484.0, 10507.0, 10528.0, 10530.0, 10527.0, 10528.0, 10523.0, 10494.0, 10471.0, 10470.0, 10474.0, 10495.0, 10520.0, 10549.0, 10547.0, 10534.0, 10540.0, 10526.0, 10499.0, 10508.0, 10546.0, 10522.0, 10553.0, 10549.0, 10515.0, 10512.0, 10495.0, 10508.0, 10524.0, 10513.0, 10505.0, 10490.0, 10505.0, 10526.0, 10528.0, 10528.0, 10519.0, 10503.0, 10507.0, 10524.0, 10511.0, 10510.0, 10510.0, 10504.0, 10496.0, 10506.0, 10507.0, 10537.0, 10516.0, 10519.0, 10505.0, 10505.0, 10513.0, 10512.0, 10490.0, 10489.0, 10514.0, 10520.0, 10529.0, 10526.0, 10510.0, 10490.0, 10499.0, 10495.0, 10507.0, 10526.0, 10538.0, 10528.0, 10500.0, 10474.0, 10455.0, 10451.0, 10446.0, 10471.0, 10517.0, 10527.0, 10514.0, 10499.0, 10484.0, 10480.0, 10473.0, 10487.0, 10505.0, 10495.0, 10499.0, 10495.0, 10488.0, 10508.0, 10524.0, 10521.0, 10510.0, 10492.0, 10477.0, 10473.0, 10477.0, 10474.0, 10480.0, 10493.0, 10511.0, 10517.0, 10508.0, 10494.0, 10493.0, 10500.0, 10523.0, 10517.0, 10523.0, 10509.0, 10513.0, 10509.0, 10510.0, 10513.0, 10520.0, 10521.0],
      "WindowWidth": [22595.0, 22441.0, 22355.0, 22358.0, 22360.0, 22332.0, 22322.0, 22335.0, 22392.0, 22438.0, 22411.0, 22396.0, 22370.0, 22362.0, 22387.0, 22389.0, 22339.0, 22325.0, 22322.0, 22319.0, 22369.0, 22359.0, 22321.0, 22333.0, 22329.0, 22311.0, 22324.0, 22334.0, 22391.0, 22430.0, 22394.0, 22346.0, 22330.0, 22371.0, 22395.0, 22387.0, 22368.0, 22306.0, 22317.0, 22317.0, 22310.0, 22329.0, 22349.0, 22335.0, 22332.0, 22371.0, 22333.0, 22312.0, 22310.0, 22305.0, 22288.0, 22308.0, 22312.0, 22327.0, 22323.0, 22321.0, 22327.0, 22329.0, 22351.0, 22357.0, 22395.0, 22395.0, 22339.0, 22317.0, 22304.0, 22299.0, 22310.0, 22328.0, 22329.0, 22323.0, 22302.0, 22306.0, 22285.0, 22256.0, 22261.0, 22250.0, 22263.0, 22312.0, 22369.0, 22369.0, 22365.0, 22369.0, 22357.0, 22286.0, 22228.0, 22227.0, 22238.0, 22293.0, 22350.0, 22418.0, 22417.0, 22391.0, 22404.0, 22367.0, 22302.0, 22317.0, 22405.0, 22354.0, 22432.0, 22422.0, 22341.0, 22321.0, 22285.0, 22317.0, 22357.0, 22334.0, 22308.0, 22270.0, 22308.0, 22362.0, 22371.0, 22363.0, 22347.0, 22305.0, 22322.0, 22359.0, 22330.0, 22329.0, 22326.0, 22314.0, 22294.0, 22310.0, 22313.0, 22387.0, 22340.0, 22344.0, 22315.0, 22318.0, 22338.0, 22338.0, 22288.0, 22282.0, 22334.0, 22351.0, 22368.0, 22363.0, 22326.0, 22279.0, 22301.0, 22290.0, 22318.0, 22362.0, 22390.0, 22372.0, 22305.0, 22239.0, 22196.0, 22186.0, 22175.0, 22234.0, 22339.0, 22371.0, 22336.0, 22301.0, 22265.0, 22253.0, 22240.0, 22275.0, 22318.0, 22299.0, 22303.0, 22287.0, 22272.0, 22314.0, 22353.0, 22349.0, 22323.0, 22282.0, 22256.0, 22234.0, 22244.0, 22240.0, 22249.0, 22277.0, 22320.0, 22333.0, 22315.0, 22288.0, 22282.0, 22297.0, 22348.0, 22344.0, 22352.0, 22322.0, 22336.0, 22316.0, 22317.0, 22328.0, 22351.0, 22354.0]
    },
    "slices": {}
  }
}