{
  "AcquisitionMatrixPE": 104,
  "AcquisitionNumber": 1,
  "AcquisitionTime": "17:54:34.547500",
  "BandwidthPerPixelPhaseEncode": 17.17,
  "BaseResolution": 104,
  "BodyPartExamined": "BRAIN",
  "CoilString": "HC1-7;NC1_2",
  "ConsistencyInfo": "N4_VE11C_LATEST_20160120",
  "ConversionSoftware": "dcm2niix",
  "ConversionSoftwareVersion": "v1.0.20190902",
  "DerivedVendorReportedEchoSpacing": 0.000560011,
  "DeviceSerialNumber": "167006",
  "DwellTime": 2.1e-06,
  "EchoTime": 0.037,
  "EchoTrainLength": 104,
  "EffectiveEchoSpacing": 0.000560011,
  "FlipAngle": 52,
  "ImageComments": "Unaliased_MB4_PE3_LB",
  "ImageOrientationPatientDICOM": [0.998048, 0.0484439, 0.0394101, -0.0346782, 0.954748, -0.295387],
  "ImageType": [
    "ORIGINAL",
    "PRIMARY",
    "P",
    "MB",
    "ND",
    "MOSAIC"
],
  "ImagingFrequency": 123.259,
  "InPlanePhaseEncodingDirectionDICOM": "COL",
  "InstitutionAddress": "Chemin_Queen-Mary_4565_Montreal_District_CA_H3W_1W5",
  "InstitutionName": "IUGM",
  "InstitutionalDepartmentName": "Department",
  "MRAcquisitionType": "2D",
  "MagneticFieldStrength": 3,
  "Manufacturer": "Siemens",
  "ManufacturersModelName": "Prisma_fit",
  "Modality": "MR",
  "MultibandAccelerationFactor": 4,
  "PartialFourier": 1,
  "PatientPosition": "HFS",
  "PercentPhaseFOV": 100,
  "PhaseEncodingDirection": "j",
  "PhaseEncodingSteps": 104,
  "PhaseResolution": 1,
  "PixelBandwidth": 2290,
  "ProcedureStepDescription": "memory_things",
  "ProtocolName": "func_task-things_run-5",
  "PulseSequenceDetails": "%CustomerSeq%_cmrr_mbep2d_bold",
  "ReceiveCoilActiveElements": "HC1-7;NC1,2",
  "ReceiveCoilName": "HeadNeck_64",
  "ReconMatrixPE": 104,
  "RepetitionTime": 1.49,
  "SAR": 0.0360388,
  "ScanOptions": "FS",
  "ScanningSequence": "EP",
  "SequenceName": "epfid2d1_104",
  "SequenceVariant": "SK_SS",
  "SeriesDescription": "func_task-things_run-5",
  "SeriesNumber": 23,
  "ShimSetting": [638, -7180, -8759, 686, 77, 56, -14, -7],
  "SliceThickness": 2,
  "SliceTiming": [0, 0.785, 0.0975, 0.8825, 0.1975, 0.98, 0.295, 1.0775, 0.3925, 1.1775, 0.49, 1.275, 0.5875, 1.3725, 0.6875, 0, 0.785, 0.0975, 0.8825, 0.1975, 0.98, 0.295, 1.0775, 0.3925, 1.1775, 0.49, 1.275, 0.5875, 1.3725, 0.6875, 0, 0.785, 0.0975, 0.8825, 0.1975, 0.98, 0.295, 1.0775, 0.3925, 1.1775, 0.49, 1.275, 0.5875, 1.3725, 0.6875, 0, 0.785, 0.0975, 0.8825, 0.1975, 0.98, 0.295, 1.0775, 0.3925, 1.1775, 0.49, 1.275, 0.5875, 1.3725, 0.6875],
  "SoftwareVersions": "syngo_MR_E11",
  "SpacingBetweenSlices": 2,
  "StationName": "MRC35049",
  "TaskName": "things",
  "TotalReadoutTime": 0.0576811,
  "TxRefAmp": 244.848,
  "WipMemBlock": "f3bd7c1e-7bf5-472f-bc48-3ebd8ac02aa7||Sequence: R016 ve11c/master r/e634e98; Dec 19 2017 11:00:25 by eja",
  "dcmmeta_affine": [
    [-1.9960962533950806, -0.06935632228851318, 0.10387293994426727, 108.1981430053711],
    [-0.09688783437013626, 1.9094959497451782, -0.5868883728981018, -58.43621063232422],
    [0.07882026582956314, 0.5907748341560364, 1.9091287851333618, -47.09035873413086],
    [0.0, 0.0, 0.0, 1.0]
],
  "dcmmeta_reorient_transform": [
    [0.0, -1.0, 0.0, 103.0],
    [1.0, 0.0, 0.0, 0.0],
    [0.0, 0.0, 1.0, 0.0],
    [0.0, 0.0, 0.0, 1.0]
],
  "dcmmeta_shape": [104, 104, 60, 190],
  "dcmmeta_slice_dim": 2,
  "dcmmeta_version": 0.6,
  "global": {
    "const": {
      "AcquisitionMatrix": [104, 0, 0, 104],
      "AngioFlag": "N",
      "BitsAllocated": 16,
      "BitsStored": 16,
      "BodyPartExamined": "BRAIN",
      "Columns": 832,
      "EchoNumbers": 1,
      "EchoTime": 37.0,
      "EchoTrainLength": 104,
      "FlipAngle": 52.0,
      "HighBit": 15,
      "ImageOrientationPatient": [0.99804810924097, 0.04844391575707, 0.03941013406027, -0.0346781609909, 0.95474797761674, -0.2953874140633],
      "ImagePositionPatient": [-802.38776454153, -868.56557121108, 200.11090671597],
      "ImageType": [
        "ORIGINAL",
        "PRIMARY",
        "P",
        "MB",
        "ND",
        "MOSAIC"
],
      "ImagedNucleus": "1H",
      "ImagingFrequency": 123.258902,
      "InPlanePhaseEncodingDirection": "COL",
      "LargestImagePixelValue": 4095,
      "MRAcquisitionType": "2D",
      "MagneticFieldStrength": 3.0,
      "Manufacturer": "SIEMENS",
      "ManufacturerModelName": "Prisma_fit",
      "Modality": "MR",
      "NumberOfAverages": 1.0,
      "NumberOfPhaseEncodingSteps": 104,
      "PercentPhaseFieldOfView": 100.0,
      "PercentSampling": 100.0,
      "PerformedProcedureStepStartTime": "171051.305000",
      "PhotometricInterpretation": "MONOCHROME2",
      "PixelBandwidth": 2290.0,
      "PixelRepresentation": 0,
      "PixelSpacing": [2.0, 2.0],
      "ProtocolName": "func_task-things_run-5",
      "RepetitionTime": 1490.0,
      "RescaleIntercept": -4096.0,
      "RescaleSlope": 2.0,
      "RescaleType": "US",
      "Rows": 832,
      "SAR": 0.03603882266943,
      "SamplesPerPixel": 1,
      "ScanOptions": "FS",
      "ScanningSequence": "EP",
      "SequenceName": "epfid2d1_104",
      "SequenceVariant": [
        "SK",
        "SS"
],
      "SeriesDescription": "func_task-things_run-5",
      "SeriesNumber": 23,
      "SeriesTime": "175557.833000",
      "SliceLocation": -22.183584414391,
      "SliceThickness": 2.0,
      "SmallestImagePixelValue": 0,
      "SoftwareVersions": "syngo MR E11",
      "SpacingBetweenSlices": 2.0000000309419,
      "SpecificCharacterSet": "ISO_IR 100",
      "StudyID": "1",
      "StudyTime": "171051.239000",
      "TransmitCoilName": "Body",
      "VariableFlipAngleFlag": "N",
      "WindowCenterWidthExplanation": "Algo1",
      "dBdt": 0.0},
    "slices": {}
  },
  "time": {
    "samples": {
      "AcquisitionNumber": [1, 2, 3, 4, 5, 6, 7, 8, 9, 10, 11, 12, 13, 14, 15, 16, 17, 18, 19, 20, 21, 22, 23, 24, 25, 26, 27, 28, 29, 30, 31, 32, 33, 34, 35, 36, 37, 38, 39, 40, 41, 42, 43, 44, 45, 46, 47, 48, 49, 50, 51, 52, 53, 54, 55, 56, 57, 58, 59, 60, 61, 62, 63, 64, 65, 66, 67, 68, 69, 70, 71, 72, 73, 74, 75, 76, 77, 78, 79, 80, 81, 82, 83, 84, 85, 86, 87, 88, 89, 90, 91, 92, 93, 94, 95, 96, 97, 98, 99, 100, 101, 102, 103, 104, 105, 106, 107, 108, 109, 110, 111, 112, 113, 114, 115, 116, 117, 118, 119, 120, 121, 122, 123, 124, 125, 126, 127, 128, 129, 130, 131, 132, 133, 134, 135, 136, 137, 138, 139, 140, 141, 142, 143, 144, 145, 146, 147, 148, 149, 150, 151, 152, 153, 154, 155, 156, 157, 158, 159, 160, 161, 162, 163, 164, 165, 166, 167, 168, 169, 170, 171, 172, 173, 174, 175, 176, 177, 178, 179, 180, 181, 182, 183, 184, 185, 186, 187, 188, 189, 190],
      "AcquisitionTime": ["175434.547500", "175436.037500", "175437.527500", "175439.017500", "175440.507500", "175441.997500", "175443.487500", "175444.977500", "175446.467500", "175447.957500", "175449.447500", "175450.937500", "175452.427500", "175453.917500", "175455.407500", "175456.897500", "175458.387500", "175459.877500", "175501.367500", "175502.857500", "175504.347500", "175505.837500", "175507.327500", "175508.817500", "175510.307500", "175511.797500", "175513.287500", "175514.777500", "175516.267500", "175517.757500", "175519.247500", "175520.737500", "175522.227500", "175523.717500", "175525.207500", "175526.697500", "175528.187500", "175529.677500", "175531.167500", "175532.657500", "175534.147500", "175535.637500", "175537.127500", "175538.617500", "175540.107500", "175541.597500", "175543.087500", "175544.577500", "175546.067500", "175547.557500", "175549.047500", "175550.537500", "175552.027500", "175553.517500", "175555.007500", "175556.497500", "175557.987500", "175559.477500", "175600.967500", "175602.457500", "175603.947500", "175605.437500", "175606.927500", "175608.417500", "175609.907500", "175611.397500", "175612.887500", "175614.377500", "175615.867500", "175617.357500", "175618.847500", "175620.337500", "175621.827500", "175623.317500", "175624.807500", "175626.297500", "175627.787500", "175629.277500", "175630.767500", "175632.257500", "175633.747500", "175635.237500", "175636.727500", "175638.217500", "175639.707500", "175641.197500", "175642.687500", "175644.177500", "175645.667500", "175647.157500", "175648.647500", "175650.137500", "175651.627500", "175653.117500", "175654.607500", "175656.097500", "175657.587500", "175659.077500", "175700.567500", "175702.057500", "175703.547500", "175705.037500", "175706.527500", "175708.017500", "175709.507500", "175710.997500", "175712.487500", "175713.977500", "175715.467500", "175716.957500", "175718.447500", "175719.937500", "175721.427500", "175722.917500", "175724.407500", "175725.897500", "175727.387500", "175728.877500", "175730.367500", "175731.857500", "175733.347500", "175734.837500", "175736.327500", "175737.817500", "175739.307500", "175740.797500", "175742.287500", "175743.777500", "175745.267500", "175746.757500", "175748.247500", "175749.737500", "175751.227500", "175752.717500", "175754.207500", "175755.697500", "175757.187500", "175758.677500", "175800.167500", "175801.657500", "175803.147500", "175804.637500", "175806.127500", "175807.617500", "175809.107500", "175810.597500", "175812.087500", "175813.577500", "175815.067500", "175816.557500", "175818.047500", "175819.537500", "175821.027500", "175822.517500", "175824.007500", "175825.497500", "175826.987500", "175828.477500", "175829.967500", "175831.457500", "175832.947500", "175834.437500", "175835.927500", "175837.417500", "175838.907500", "175840.397500", "175841.887500", "175843.377500", "175844.867500", "175846.357500", "175847.847500", "175849.337500", "175850.827500", "175852.317500", "175853.807500", "175855.297500", "175856.787500", "175858.277500", "175859.767500", "175901.257500", "175902.747500", "175904.237500", "175905.727500", "175907.217500", "175908.707500", "175910.197500", "175911.687500", "175913.177500", "175914.667500", "175916.157500"],
      "ContentTime": ["175557.835000", "175557.838000", "175557.840000", "175557.843000", "175557.845000", "175557.848000", "175557.850000", "175557.853000", "175557.856000", "175557.858000", "175557.861000", "175557.863000", "175557.866000", "175557.868000", "175557.871000", "175557.873000", "175557.876000", "175557.878000", "175557.881000", "175557.883000", "175557.886000", "175557.888000", "175557.891000", "175557.893000", "175557.896000", "175557.898000", "175557.901000", "175557.903000", "175557.906000", "175617.764000", "175617.766000", "175617.769000", "175617.771000", "175617.774000", "175617.776000", "175617.779000", "175617.781000", "175617.784000", "175617.786000", "175617.789000", "175617.791000", "175617.794000", "175617.796000", "175617.799000", "175617.801000", "175617.804000", "175617.806000", "175617.809000", "175617.812000", "175638.248000", "175638.250000", "175638.253000", "175638.256000", "175638.258000", "175638.261000", "175638.263000", "175638.266000", "175638.268000", "175638.271000", "175638.273000", "175638.276000", "175638.278000", "175638.281000", "175638.283000", "175638.286000", "175638.288000", "175638.291000", "175638.293000", "175638.296000", "175638.298000", "175657.745000", "175657.748000", "175657.751000", "175657.753000", "175657.756000", "175657.758000", "175657.761000", "175657.763000", "175657.766000", "175657.769000", "175657.771000", "175657.774000", "175657.776000", "175657.779000", "175657.781000", "175657.784000", "175657.786000", "175657.789000", "175657.791000", "175657.794000", "175737.783000", "175737.785000", "175737.788000", "175737.790000", "175737.793000", "175737.795000", "175737.798000", "175737.800000", "175737.803000", "175737.806000", "175737.808000", "175737.810000", "175737.813000", "175737.815000", "175737.818000", "175737.820000", "175737.823000", "175737.826000", "175737.828000", "175737.830000", "175737.833000", "175737.835000", "175737.838000", "175737.841000", "175737.843000", "175737.846000", "175737.848000", "175737.851000", "175737.853000", "175737.856000", "175737.858000", "175737.861000", "175817.782000", "175817.785000", "175817.788000", "175817.790000", "175817.793000", "175817.795000", "175817.798000", "175817.800000", "175817.803000", "175817.805000", "175817.808000", "175817.810000", "175817.813000", "175817.815000", "175817.818000", "175817.820000", "175817.823000", "175817.825000", "175817.828000", "175817.830000", "175817.833000", "175817.836000", "175817.838000", "175817.841000", "175817.843000", "175817.846000", "175817.848000", "175857.773000", "175857.775000", "175857.778000", "175857.781000", "175857.783000", "175857.786000", "175857.788000", "175857.791000", "175857.793000", "175857.796000", "175857.798000", "175857.801000", "175857.803000", "175857.806000", "175857.808000", "175857.811000", "175857.813000", "175857.816000", "175857.818000", "175857.821000", "175857.823000", "175857.826000", "175857.828000", "175857.831000", "175857.833000", "175857.836000", "175918.730000", "175918.733000", "175918.736000", "175918.739000", "175918.741000", "175918.744000", "175918.747000", "175918.749000", "175918.752000", "175918.755000", "175918.757000", "175918.760000", "175918.762000", "175918.765000", "175918.767000"],
      "InstanceCreationTime": ["175557.835000", "175557.838000", "175557.840000", "175557.843000", "175557.845000", "175557.848000", "175557.850000", "175557.853000", "175557.856000", "175557.858000", "175557.861000", "175557.863000", "175557.866000", "175557.868000", "175557.871000", "175557.873000", "175557.876000", "175557.878000", "175557.881000", "175557.883000", "175557.886000", "175557.888000", "175557.891000", "175557.893000", "175557.896000", "175557.898000", "175557.901000", "175557.903000", "175557.906000", "175617.764000", "175617.766000", "175617.769000", "175617.771000", "175617.774000", "175617.776000", "175617.779000", "175617.781000", "175617.784000", "175617.786000", "175617.789000", "175617.791000", "175617.794000", "175617.796000", "175617.799000", "175617.801000", "175617.804000", "175617.806000", "175617.809000", "175617.812000", "175638.248000", "175638.250000", "175638.253000", "175638.256000", "175638.258000", "175638.261000", "175638.263000", "175638.266000", "175638.268000", "175638.271000", "175638.273000", "175638.276000", "175638.278000", "175638.281000", "175638.283000", "175638.286000", "175638.288000", "175638.291000", "175638.293000", "175638.296000", "175638.298000", "175657.745000", "175657.748000", "175657.751000", "175657.753000", "175657.756000", "175657.758000", "175657.761000", "175657.763000", "175657.766000", "175657.769000", "175657.771000", "175657.774000", "175657.776000", "175657.779000", "175657.781000", "175657.784000", "175657.786000", "175657.789000", "175657.791000", "175657.794000", "175737.783000", "175737.785000", "175737.788000", "175737.790000", "175737.793000", "175737.795000", "175737.798000", "175737.800000", "175737.803000", "175737.806000", "175737.808000", "175737.810000", "175737.813000", "175737.815000", "175737.818000", "175737.820000", "175737.823000", "175737.826000", "175737.828000", "175737.830000", "175737.833000", "175737.835000", "175737.838000", "175737.841000", "175737.843000", "175737.846000", "175737.848000", "175737.851000", "175737.853000", "175737.856000", "175737.858000", "175737.861000", "175817.782000", "175817.785000", "175817.788000", "175817.790000", "175817.793000", "175817.795000", "175817.798000", "175817.800000", "175817.803000", "175817.805000", "175817.808000", "175817.810000", "175817.813000", "175817.815000", "175817.818000", "175817.820000", "175817.823000", "175817.825000", "175817.828000", "175817.830000", "175817.833000", "175817.836000", "175817.838000", "175817.841000", "175817.843000", "175817.846000", "175817.848000", "175857.773000", "175857.775000", "175857.778000", "175857.781000", "175857.783000", "175857.786000", "175857.788000", "175857.791000", "175857.793000", "175857.796000", "175857.798000", "175857.801000", "175857.803000", "175857.806000", "175857.808000", "175857.811000", "175857.813000", "175857.816000", "175857.818000", "175857.821000", "175857.823000", "175857.826000", "175857.828000", "175857.831000", "175857.833000", "175857.836000", "175918.730000", "175918.733000", "175918.736000", "175918.739000", "175918.741000", "175918.744000", "175918.747000", "175918.749000", "175918.752000", "175918.755000", "175918.757000", "175918.760000", "175918.762000", "175918.765000", "175918.767000"],
      "InstanceNumber": [1, 2, 3, 4, 5, 6, 7, 8, 9, 10, 11, 12, 13, 14, 15, 16, 17, 18, 19, 20, 21, 22, 23, 24, 25, 26, 27, 28, 29, 30, 31, 32, 33, 34, 35, 36, 37, 38, 39, 40, 41, 42, 43, 44, 45, 46, 47, 48, 49, 50, 51, 52, 53, 54, 55, 56, 57, 58, 59, 60, 61, 62, 63, 64, 65, 66, 67, 68, 69, 70, 71, 72, 73, 74, 75, 76, 77, 78, 79, 80, 81, 82, 83, 84, 85, 86, 87, 88, 89, 90, 91, 92, 93, 94, 95, 96, 97, 98, 99, 100, 101, 102, 103, 104, 105, 106, 107, 108, 109, 110, 111, 112, 113, 114, 115, 116, 117, 118, 119, 120, 121, 122, 123, 124, 125, 126, 127, 128, 129, 130, 131, 132, 133, 134, 135, 136, 137, 138, 139, 140, 141, 142, 143, 144, 145, 146, 147, 148, 149, 150, 151, 152, 153, 154, 155, 156, 157, 158, 159, 160, 161, 162, 163, 164, 165, 166, 167, 168, 169, 170, 171, 172, 173, 174, 175, 176, 177, 178, 179, 180, 181, 182, 183, 184, 185, 186, 187, 188, 189, 190],
      "WindowCenter": [4858.0, 4860.0, 4860.0, 4860.0, 4856.0, 4856.0, 4884.0, 4882.0, 4882.0, 4858.0, 4862.0, 4858.0, 4882.0, 4880.0, 4856.0, 4854.0, 4830.0, 4862.0, 4856.0, 4856.0, 4858.0, 4858.0, 4860.0, 4858.0, 4856.0, 4856.0, 4860.0, 4880.0, 4880.0, 4858.0, 4856.0, 4860.0, 4880.0, 4882.0, 4878.0, 4858.0, 4858.0, 4854.0, 4858.0, 4858.0, 4876.0, 4882.0, 4880.0, 4882.0, 4882.0, 4856.0, 4832.0, 4856.0, 4854.0, 4856.0, 4880.0, 4884.0, 4882.0, 4880.0, 4882.0, 4862.0, 4854.0, 4860.0, 4874.0, 4874.0, 4878.0, 4858.0, 4854.0, 4832.0, 4854.0, 4884.0, 4880.0, 4858.0, 4880.0, 4858.0, 4882.0, 4856.0, 4882.0, 4858.0, 4858.0, 4856.0, 4880.0, 4878.0, 4880.0, 4876.0, 4878.0, 4878.0, 4858.0, 4856.0, 4852.0, 4854.0, 4852.0, 4858.0, 4882.0, 4878.0, 4874.0, 4878.0, 4882.0, 4858.0, 4858.0, 4856.0, 4858.0, 4860.0, 4856.0, 4860.0, 4856.0, 4878.0, 4878.0, 4880.0, 4860.0, 4856.0, 4862.0, 4880.0, 4880.0, 4858.0, 4858.0, 4860.0, 4878.0, 4872.0, 4874.0, 4880.0, 4854.0, 4856.0, 4856.0, 4858.0, 4880.0, 4854.0, 4862.0, 4880.0, 4882.0, 4882.0, 4878.0, 4876.0, 4878.0, 4858.0, 4854.0, 4832.0, 4858.0, 4882.0, 4874.0, 4878.0, 4880.0, 4858.0, 4858.0, 4880.0, 4874.0, 4870.0, 4874.0, 4858.0, 4856.0, 4854.0, 4854.0, 4858.0, 4880.0, 4870.0, 4880.0, 4880.0, 4862.0, 4860.0, 4858.0, 4860.0, 4860.0, 4880.0, 4882.0, 4856.0, 4880.0, 4858.0, 4880.0, 4876.0, 4870.0, 4870.0, 4878.0, 4858.0, 4826.0, 4804.0, 4832.0, 4882.0, 4876.0, 4868.0, 4866.0, 4880.0, 4858.0, 4830.0, 4858.0, 4854.0, 4858.0, 4884.0, 4882.0, 4862.0, 4858.0, 4882.0, 4874.0, 4872.0, 4872.0, 4872.0],
      "WindowWidth": [18618.0, 18620.0, 18620.0, 18616.0, 18612.0, 18612.0, 18652.0, 18656.0, 18654.0, 18618.0, 18618.0, 18618.0, 18654.0, 18658.0, 18622.0, 18616.0, 18582.0, 18614.0, 18618.0, 18620.0, 18622.0, 18626.0, 18626.0, 18614.0, 18616.0, 18614.0, 18618.0, 18658.0, 18658.0, 18620.0, 18616.0, 18626.0, 18660.0, 18662.0, 18654.0, 18620.0, 18618.0, 18616.0, 18616.0, 18622.0, 18660.0, 18662.0, 18656.0, 18666.0, 18658.0, 18618.0, 18584.0, 18616.0, 18610.0, 18620.0, 18654.0, 18660.0, 18652.0, 18658.0, 18658.0, 18634.0, 18612.0, 18622.0, 18664.0, 18668.0, 18662.0, 18626.0, 18620.0, 18586.0, 18616.0, 18658.0, 18662.0, 18624.0, 18658.0, 18628.0, 18654.0, 18624.0, 18658.0, 18618.0, 18622.0, 18618.0, 18656.0, 18664.0, 18664.0, 18660.0, 18664.0, 18662.0, 18632.0, 18618.0, 18614.0, 18616.0, 18614.0, 18620.0, 18652.0, 18660.0, 18662.0, 18662.0, 18654.0, 18620.0, 18618.0, 18618.0, 18626.0, 18626.0, 18620.0, 18612.0, 18622.0, 18658.0, 18664.0, 18660.0, 18620.0, 18620.0, 18624.0, 18656.0, 18652.0, 18622.0, 18620.0, 18626.0, 18660.0, 18666.0, 18666.0, 18662.0, 18620.0, 18618.0, 18620.0, 18622.0, 18658.0, 18624.0, 18624.0, 18652.0, 18654.0, 18656.0, 18664.0, 18660.0, 18660.0, 18620.0, 18616.0, 18586.0, 18620.0, 18656.0, 18662.0, 18660.0, 18656.0, 18620.0, 18622.0, 18658.0, 18664.0, 18670.0, 18662.0, 18632.0, 18624.0, 18622.0, 18614.0, 18620.0, 18662.0, 18660.0, 18670.0, 18656.0, 18622.0, 18622.0, 18616.0, 18624.0, 18626.0, 18664.0, 18656.0, 18620.0, 18654.0, 18618.0, 18664.0, 18664.0, 18666.0, 18666.0, 18654.0, 18620.0, 18584.0, 18556.0, 18582.0, 18650.0, 18662.0, 18664.0, 18668.0, 18664.0, 18622.0, 18584.0, 18616.0, 18612.0, 18620.0, 18654.0, 18650.0, 18624.0, 18622.0, 18652.0, 18658.0, 18664.0, 18664.0, 18670.0]
    },
    "slices": {}
  }
}