{
  "AcquisitionMatrixPE": 104,
  "AcquisitionNumber": 1,
  "AcquisitionTime": "17:42:24.022500",
  "BandwidthPerPixelPhaseEncode": 17.17,
  "BaseResolution": 104,
  "BodyPartExamined": "BRAIN",
  "CoilString": "HC1-7;NC1_2",
  "ConsistencyInfo": "N4_VE11C_LATEST_20160120",
  "ConversionSoftware": "dcm2niix",
  "ConversionSoftwareVersion": "v1.0.20190902",
  "DerivedVendorReportedEchoSpacing": 0.000560011,
  "DeviceSerialNumber": "167006",
  "DwellTime": 2.1e-06,
  "EchoTime": 0.037,
  "EchoTrainLength": 104,
  "EffectiveEchoSpacing": 0.000560011,
  "FlipAngle": 52,
  "ImageComments": "Unaliased_MB4_PE3_LB",
  "ImageOrientationPatientDICOM": [0.998048, 0.0484439, 0.0394101, -0.0346782, 0.954748, -0.295387],
  "ImageType": [
    "ORIGINAL",
    "PRIMARY",
    "P",
    "MB",
    "ND",
    "MOSAIC"
],
  "ImagingFrequency": 123.259,
  "InPlanePhaseEncodingDirectionDICOM": "COL",
  "InstitutionAddress": "Chemin_Queen-Mary_4565_Montreal_District_CA_H3W_1W5",
  "InstitutionName": "IUGM",
  "InstitutionalDepartmentName": "Department",
  "MRAcquisitionType": "2D",
  "MagneticFieldStrength": 3,
  "Manufacturer": "Siemens",
  "ManufacturersModelName": "Prisma_fit",
  "Modality": "MR",
  "MultibandAccelerationFactor": 4,
  "PartialFourier": 1,
  "PatientPosition": "HFS",
  "PercentPhaseFOV": 100,
  "PhaseEncodingDirection": "j",
  "PhaseEncodingSteps": 104,
  "PhaseResolution": 1,
  "PixelBandwidth": 2290,
  "ProcedureStepDescription": "memory_things",
  "ProtocolName": "func_task-things_run-3",
  "PulseSequenceDetails": "%CustomerSeq%_cmrr_mbep2d_bold",
  "ReceiveCoilActiveElements": "HC1-7;NC1,2",
  "ReceiveCoilName": "HeadNeck_64",
  "ReconMatrixPE": 104,
  "RepetitionTime": 1.49,
  "SAR": 0.0360388,
  "ScanOptions": "FS",
  "ScanningSequence": "EP",
  "SequenceName": "epfid2d1_104",
  "SequenceVariant": "SK_SS",
  "SeriesDescription": "func_task-things_run-3",
  "SeriesNumber": 17,
  "ShimSetting": [638, -7180, -8759, 686, 77, 56, -14, -7],
  "SliceThickness": 2,
  "SliceTiming": [0, 0.785, 0.0975, 0.8825, 0.195, 0.98, 0.295, 1.0775, 0.3925, 1.175, 0.49, 1.275, 0.5875, 1.3725, 0.685, 0, 0.785, 0.0975, 0.8825, 0.195, 0.98, 0.295, 1.0775, 0.3925, 1.175, 0.49, 1.275, 0.5875, 1.3725, 0.685, 0, 0.785, 0.0975, 0.8825, 0.195, 0.98, 0.295, 1.0775, 0.3925, 1.175, 0.49, 1.275, 0.5875, 1.3725, 0.685, 0, 0.785, 0.0975, 0.8825, 0.195, 0.98, 0.295, 1.0775, 0.3925, 1.175, 0.49, 1.275, 0.5875, 1.3725, 0.685],
  "SoftwareVersions": "syngo_MR_E11",
  "SpacingBetweenSlices": 2,
  "StationName": "MRC35049",
  "TaskName": "things",
  "TotalReadoutTime": 0.0576811,
  "TxRefAmp": 244.848,
  "WipMemBlock": "13298b98-b98d-4770-af7f-58538166c966||Sequence: R016 ve11c/master r/e634e98; Dec 19 2017 11:00:25 by eja",
  "dcmmeta_affine": [
    [-1.9960962533950806, -0.06935632228851318, 0.10387293994426727, 108.1981430053711],
    [-0.09688783437013626, 1.9094959497451782, -0.5868883728981018, -58.43621063232422],
    [0.07882026582956314, 0.5907748341560364, 1.9091287851333618, -47.09035873413086],
    [0.0, 0.0, 0.0, 1.0]
],
  "dcmmeta_reorient_transform": [
    [0.0, -1.0, 0.0, 103.0],
    [1.0, 0.0, 0.0, 0.0],
    [0.0, 0.0, 1.0, 0.0],
    [0.0, 0.0, 0.0, 1.0]
],
  "dcmmeta_shape": [104, 104, 60, 190],
  "dcmmeta_slice_dim": 2,
  "dcmmeta_version": 0.6,
  "global": {
    "const": {
      "AcquisitionMatrix": [104, 0, 0, 104],
      "AngioFlag": "N",
      "BitsAllocated": 16,
      "BitsStored": 16,
      "BodyPartExamined": "BRAIN",
      "Columns": 832,
      "EchoNumbers": 1,
      "EchoTime": 37.0,
      "EchoTrainLength": 104,
      "FlipAngle": 52.0,
      "HighBit": 15,
      "ImageOrientationPatient": [0.99804810924097, 0.04844391575707, 0.03941013406027, -0.0346781609909, 0.95474797761674, -0.2953874140633],
      "ImagePositionPatient": [-802.38776454153, -868.56557121108, 200.11090671597],
      "ImageType": [
        "ORIGINAL",
        "PRIMARY",
        "P",
        "MB",
        "ND",
        "MOSAIC"
],
      "ImagedNucleus": "1H",
      "ImagingFrequency": 123.258894,
      "InPlanePhaseEncodingDirection": "COL",
      "LargestImagePixelValue": 4095,
      "MRAcquisitionType": "2D",
      "MagneticFieldStrength": 3.0,
      "Manufacturer": "SIEMENS",
      "ManufacturerModelName": "Prisma_fit",
      "Modality": "MR",
      "NumberOfAverages": 1.0,
      "NumberOfPhaseEncodingSteps": 104,
      "PercentPhaseFieldOfView": 100.0,
      "PercentSampling": 100.0,
      "PerformedProcedureStepStartTime": "171051.305000",
      "PhotometricInterpretation": "MONOCHROME2",
      "PixelBandwidth": 2290.0,
      "PixelRepresentation": 0,
      "PixelSpacing": [2.0, 2.0],
      "ProtocolName": "func_task-things_run-3",
      "RepetitionTime": 1490.0,
      "RescaleIntercept": -4096.0,
      "RescaleSlope": 2.0,
      "RescaleType": "US",
      "Rows": 832,
      "SAR": 0.03603882266943,
      "SamplesPerPixel": 1,
      "ScanOptions": "FS",
      "ScanningSequence": "EP",
      "SequenceName": "epfid2d1_104",
      "SequenceVariant": [
        "SK",
        "SS"
],
      "SeriesDescription": "func_task-things_run-3",
      "SeriesNumber": 17,
      "SeriesTime": "174339.302000",
      "SliceLocation": -22.183584414391,
      "SliceThickness": 2.0,
      "SmallestImagePixelValue": 0,
      "SoftwareVersions": "syngo MR E11",
      "SpacingBetweenSlices": 2.0000000309419,
      "SpecificCharacterSet": "ISO_IR 100",
      "StudyID": "1",
      "StudyTime": "171051.239000",
      "TransmitCoilName": "Body",
      "VariableFlipAngleFlag": "N",
      "WindowCenterWidthExplanation": "Algo1",
      "dBdt": 0.0},
    "slices": {}
  },
  "time": {
    "samples": {
      "AcquisitionNumber": [1, 2, 3, 4, 5, 6, 7, 8, 9, 10, 11, 12, 13, 14, 15, 16, 17, 18, 19, 20, 21, 22, 23, 24, 25, 26, 27, 28, 29, 30, 31, 32, 33, 34, 35, 36, 37, 38, 39, 40, 41, 42, 43, 44, 45, 46, 47, 48, 49, 50, 51, 52, 53, 54, 55, 56, 57, 58, 59, 60, 61, 62, 63, 64, 65, 66, 67, 68, 69, 70, 71, 72, 73, 74, 75, 76, 77, 78, 79, 80, 81, 82, 83, 84, 85, 86, 87, 88, 89, 90, 91, 92, 93, 94, 95, 96, 97, 98, 99, 100, 101, 102, 103, 104, 105, 106, 107, 108, 109, 110, 111, 112, 113, 114, 115, 116, 117, 118, 119, 120, 121, 122, 123, 124, 125, 126, 127, 128, 129, 130, 131, 132, 133, 134, 135, 136, 137, 138, 139, 140, 141, 142, 143, 144, 145, 146, 147, 148, 149, 150, 151, 152, 153, 154, 155, 156, 157, 158, 159, 160, 161, 162, 163, 164, 165, 166, 167, 168, 169, 170, 171, 172, 173, 174, 175, 176, 177, 178, 179, 180, 181, 182, 183, 184, 185, 186, 187, 188, 189, 190],
      "AcquisitionTime": ["174224.022500", "174225.512500", "174227.002500", "174228.492500", "174229.982500", "174231.472500", "174232.962500", "174234.452500", "174235.942500", "174237.432500", "174238.922500", "174240.412500", "174241.902500", "174243.392500", "174244.882500", "174246.372500", "174247.862500", "174249.352500", "174250.842500", "174252.332500", "174253.822500", "174255.312500", "174256.802500", "174258.292500", "174259.782500", "174301.272500", "174302.762500", "174304.252500", "174305.742500", "174307.232500", "174308.722500", "174310.212500", "174311.702500", "174313.192500", "174314.682500", "174316.172500", "174317.662500", "174319.152500", "174320.642500", "174322.132500", "174323.622500", "174325.112500", "174326.602500", "174328.092500", "174329.582500", "174331.072500", "174332.562500", "174334.052500", "174335.542500", "174337.032500", "174338.522500", "174340.012500", "174341.502500", "174342.992500", "174344.482500", "174345.972500", "174347.462500", "174348.952500", "174350.442500", "174351.932500", "174353.422500", "174354.912500", "174356.402500", "174357.892500", "174359.382500", "174400.872500", "174402.362500", "174403.852500", "174405.342500", "174406.832500", "174408.322500", "174409.812500", "174411.302500", "174412.792500", "174414.282500", "174415.772500", "174417.262500", "174418.752500", "174420.242500", "174421.732500", "174423.222500", "174424.712500", "174426.202500", "174427.692500", "174429.182500", "174430.672500", "174432.162500", "174433.652500", "174435.142500", "174436.632500", "174438.122500", "174439.612500", "174441.102500", "174442.592500", "174444.082500", "174445.572500", "174447.062500", "174448.552500", "174450.042500", "174451.532500", "174453.022500", "174454.512500", "174456.002500", "174457.492500", "174458.982500", "174500.472500", "174501.962500", "174503.452500", "174504.942500", "174506.432500", "174507.922500", "174509.412500", "174510.902500", "174512.392500", "174513.882500", "174515.372500", "174516.862500", "174518.352500", "174519.842500", "174521.332500", "174522.822500", "174524.312500", "174525.802500", "174527.292500", "174528.782500", "174530.272500", "174531.762500", "174533.252500", "174534.742500", "174536.232500", "174537.722500", "174539.212500", "174540.702500", "174542.192500", "174543.682500", "174545.172500", "174546.662500", "174548.152500", "174549.642500", "174551.132500", "174552.622500", "174554.112500", "174555.602500", "174557.092500", "174558.582500", "174600.072500", "174601.562500", "174603.052500", "174604.542500", "174606.032500", "174607.522500", "174609.012500", "174610.502500", "174611.992500", "174613.482500", "174614.972500", "174616.462500", "174617.952500", "174619.442500", "174620.932500", "174622.422500", "174623.912500", "174625.402500", "174626.892500", "174628.382500", "174629.872500", "174631.362500", "174632.852500", "174634.342500", "174635.832500", "174637.322500", "174638.812500", "174640.302500", "174641.792500", "174643.282500", "174644.772500", "174646.262500", "174647.752500", "174649.242500", "174650.732500", "174652.222500", "174653.712500", "174655.202500", "174656.692500", "174658.182500", "174659.672500", "174701.162500", "174702.652500", "174704.142500", "174705.632500"],
      "ContentTime": ["174339.304000", "174339.307000", "174339.309000", "174339.312000", "174339.314000", "174339.317000", "174339.319000", "174339.322000", "174339.324000", "174339.327000", "174339.329000", "174339.332000", "174339.334000", "174339.337000", "174339.339000", "174339.342000", "174339.344000", "174339.347000", "174339.350000", "174339.352000", "174339.355000", "174359.238000", "174359.241000", "174359.243000", "174359.246000", "174359.249000", "174359.251000", "174359.254000", "174359.256000", "174359.259000", "174359.262000", "174359.265000", "174359.268000", "174359.270000", "174359.273000", "174359.276000", "174359.278000", "174359.281000", "174359.283000", "174359.286000", "174359.288000", "174419.242000", "174419.245000", "174419.247000", "174419.250000", "174419.252000", "174419.255000", "174419.257000", "174419.260000", "174419.262000", "174419.265000", "174419.267000", "174419.270000", "174419.272000", "174419.275000", "174419.277000", "174419.280000", "174419.282000", "174419.285000", "174419.287000", "174419.290000", "174419.292000", "174439.235000", "174439.238000", "174439.240000", "174439.243000", "174439.245000", "174439.248000", "174439.250000", "174439.253000", "174439.255000", "174439.258000", "174439.260000", "174439.263000", "174439.265000", "174439.268000", "174439.270000", "174439.273000", "174439.275000", "174439.278000", "174439.280000", "174439.283000", "174459.245000", "174459.248000", "174459.250000", "174459.253000", "174459.255000", "174459.258000", "174459.260000", "174459.263000", "174459.265000", "174459.268000", "174459.270000", "174459.273000", "174459.275000", "174459.278000", "174459.280000", "174459.283000", "174459.285000", "174459.288000", "174459.290000", "174459.293000", "174539.277000", "174539.280000", "174539.282000", "174539.285000", "174539.287000", "174539.290000", "174539.292000", "174539.295000", "174539.297000", "174539.300000", "174539.303000", "174539.305000", "174539.308000", "174539.310000", "174539.313000", "174539.315000", "174539.317000", "174539.320000", "174539.322000", "174539.325000", "174539.327000", "174539.330000", "174539.337000", "174539.340000", "174539.342000", "174539.345000", "174539.347000", "174539.350000", "174619.273000", "174619.275000", "174619.278000", "174619.280000", "174619.283000", "174619.286000", "174619.288000", "174619.291000", "174619.293000", "174619.296000", "174619.298000", "174619.301000", "174619.303000", "174619.306000", "174619.308000", "174619.311000", "174619.313000", "174619.316000", "174619.318000", "174619.321000", "174619.323000", "174619.326000", "174619.328000", "174619.331000", "174619.333000", "174619.336000", "174619.338000", "174659.263000", "174659.266000", "174659.268000", "174659.271000", "174659.273000", "174659.276000", "174659.279000", "174659.281000", "174659.284000", "174659.286000", "174659.289000", "174659.291000", "174659.294000", "174659.296000", "174659.299000", "174659.301000", "174659.304000", "174659.306000", "174659.309000", "174659.311000", "174659.314000", "174659.316000", "174659.319000", "174659.321000", "174659.324000", "174659.326000", "174659.329000", "174707.841000", "174707.844000", "174707.846000", "174707.849000", "174707.852000", "174707.854000"],
      "InstanceCreationTime": ["174339.304000", "174339.307000", "174339.309000", "174339.312000", "174339.314000", "174339.317000", "174339.319000", "174339.322000", "174339.324000", "174339.327000", "174339.329000", "174339.332000", "174339.334000", "174339.337000", "174339.339000", "174339.342000", "174339.344000", "174339.347000", "174339.350000", "174339.352000", "174339.355000", "174359.238000", "174359.241000", "174359.243000", "174359.246000", "174359.249000", "174359.251000", "174359.254000", "174359.256000", "174359.259000", "174359.262000", "174359.265000", "174359.268000", "174359.270000", "174359.273000", "174359.276000", "174359.278000", "174359.281000", "174359.283000", "174359.286000", "174359.288000", "174419.242000", "174419.245000", "174419.247000", "174419.250000", "174419.252000", "174419.255000", "174419.257000", "174419.260000", "174419.262000", "174419.265000", "174419.267000", "174419.270000", "174419.272000", "174419.275000", "174419.277000", "174419.280000", "174419.282000", "174419.285000", "174419.287000", "174419.290000", "174419.292000", "174439.235000", "174439.238000", "174439.240000", "174439.243000", "174439.245000", "174439.248000", "174439.250000", "174439.253000", "174439.255000", "174439.258000", "174439.260000", "174439.263000", "174439.265000", "174439.268000", "174439.270000", "174439.273000", "174439.275000", "174439.278000", "174439.280000", "174439.283000", "174459.245000", "174459.248000", "174459.250000", "174459.253000", "174459.255000", "174459.258000", "174459.260000", "174459.263000", "174459.265000", "174459.268000", "174459.270000", "174459.273000", "174459.275000", "174459.278000", "174459.280000", "174459.283000", "174459.285000", "174459.288000", "174459.290000", "174459.293000", "174539.277000", "174539.280000", "174539.282000", "174539.285000", "174539.287000", "174539.290000", "174539.292000", "174539.295000", "174539.297000", "174539.300000", "174539.303000", "174539.305000", "174539.308000", "174539.310000", "174539.313000", "174539.315000", "174539.317000", "174539.320000", "174539.322000", "174539.325000", "174539.327000", "174539.330000", "174539.337000", "174539.340000", "174539.342000", "174539.345000", "174539.347000", "174539.350000", "174619.273000", "174619.275000", "174619.278000", "174619.280000", "174619.283000", "174619.286000", "174619.288000", "174619.291000", "174619.293000", "174619.296000", "174619.298000", "174619.301000", "174619.303000", "174619.306000", "174619.308000", "174619.311000", "174619.313000", "174619.316000", "174619.318000", "174619.321000", "174619.323000", "174619.326000", "174619.328000", "174619.331000", "174619.333000", "174619.336000", "174619.338000", "174659.263000", "174659.266000", "174659.268000", "174659.271000", "174659.273000", "174659.276000", "174659.279000", "174659.281000", "174659.284000", "174659.286000", "174659.289000", "174659.291000", "174659.294000", "174659.296000", "174659.299000", "174659.301000", "174659.304000", "174659.306000", "174659.309000", "174659.311000", "174659.314000", "174659.316000", "174659.319000", "174659.321000", "174659.324000", "174659.326000", "174659.329000", "174707.841000", "174707.844000", "174707.846000", "174707.849000", "174707.852000", "174707.854000"],
      "InstanceNumber": [1, 2, 3, 4, 5, 6, 7, 8, 9, 10, 11, 12, 13, 14, 15, 16, 17, 18, 19, 20, 21, 22, 23, 24, 25, 26, 27, 28, 29, 30, 31, 32, 33, 34, 35, 36, 37, 38, 39, 40, 41, 42, 43, 44, 45, 46, 47, 48, 49, 50, 51, 52, 53, 54, 55, 56, 57, 58, 59, 60, 61, 62, 63, 64, 65, 66, 67, 68, 69, 70, 71, 72, 73, 74, 75, 76, 77, 78, 79, 80, 81, 82, 83, 84, 85, 86, 87, 88, 89, 90, 91, 92, 93, 94, 95, 96, 97, 98, 99, 100, 101, 102, 103, 104, 105, 106, 107, 108, 109, 110, 111, 112, 113, 114, 115, 116, 117, 118, 119, 120, 121, 122, 123, 124, 125, 126, 127, 128, 129, 130, 131, 132, 133, 134, 135, 136, 137, 138, 139, 140, 141, 142, 143, 144, 145, 146, 147, 148, 149, 150, 151, 152, 153, 154, 155, 156, 157, 158, 159, 160, 161, 162, 163, 164, 165, 166, 167, 168, 169, 170, 171, 172, 173, 174, 175, 176, 177, 178, 179, 180, 181, 182, 183, 184, 185, 186, 187, 188, 189, 190],
      "WindowCenter": [4882.0, 4886.0, 4884.0, 4860.0, 4862.0, 4886.0, 4884.0, 4886.0, 4882.0, 4878.0, 4884.0, 4886.0, 4884.0, 4886.0, 4886.0, 4886.0, 4888.0, 4888.0, 4886.0, 4888.0, 4884.0, 4882.0, 4884.0, 4886.0, 4882.0, 4884.0, 4884.0, 4884.0, 4884.0, 4888.0, 4888.0, 4884.0, 4882.0, 4888.0, 4888.0, 4886.0, 4886.0, 4886.0, 4886.0, 4888.0, 4886.0, 4886.0, 4888.0, 4888.0, 4886.0, 4884.0, 4890.0, 4884.0, 4878.0, 4884.0, 4888.0, 4884.0, 4884.0, 4884.0, 4882.0, 4884.0, 4888.0, 4888.0, 4888.0, 4888.0, 4888.0, 4886.0, 4886.0, 4886.0, 4888.0, 4886.0, 4890.0, 4888.0, 4886.0, 4910.0, 4888.0, 4886.0, 4882.0, 4886.0, 4886.0, 4890.0, 4886.0, 4884.0, 4888.0, 4886.0, 4888.0, 4884.0, 4888.0, 4890.0, 4886.0, 4880.0, 4884.0, 4888.0, 4888.0, 4886.0, 4886.0, 4884.0, 4886.0, 4888.0, 4882.0, 4884.0, 4890.0, 4884.0, 4888.0, 4880.0, 4886.0, 4886.0, 4884.0, 4882.0, 4886.0, 4886.0, 4888.0, 4886.0, 4882.0, 4884.0, 4884.0, 4886.0, 4886.0, 4882.0, 4886.0, 4884.0, 4886.0, 4882.0, 4886.0, 4882.0, 4882.0, 4904.0, 4888.0, 4886.0, 4886.0, 4884.0, 4882.0, 4882.0, 4884.0, 4882.0, 4882.0, 4888.0, 4888.0, 4884.0, 4878.0, 4882.0, 4884.0, 4888.0, 4886.0, 4884.0, 4884.0, 4886.0, 4884.0, 4880.0, 4884.0, 4886.0, 4884.0, 4884.0, 4888.0, 4882.0, 4886.0, 4886.0, 4886.0, 4888.0, 4908.0, 4880.0, 4886.0, 4886.0, 4884.0, 4882.0, 4886.0, 4884.0, 4882.0, 4884.0, 4888.0, 4886.0, 4880.0, 4880.0, 4886.0, 4888.0, 4886.0, 4886.0, 4884.0, 4888.0, 4912.0, 4882.0, 4882.0, 4884.0, 4880.0, 4880.0, 4886.0, 4886.0, 4882.0, 4886.0, 4884.0, 4882.0, 4884.0, 4884.0, 4882.0, 4876.0],
      "WindowWidth": [18656.0, 18660.0, 18654.0, 18614.0, 18612.0, 18648.0, 18656.0, 18656.0, 18662.0, 18666.0, 18660.0, 18656.0, 18644.0, 18648.0, 18658.0, 18658.0, 18654.0, 18650.0, 18648.0, 18660.0, 18662.0, 18660.0, 18660.0, 18654.0, 18646.0, 18658.0, 18660.0, 18662.0, 18652.0, 18650.0, 18648.0, 18656.0, 18658.0, 18662.0, 18660.0, 18650.0, 18658.0, 18658.0, 18654.0, 18652.0, 18656.0, 18654.0, 18656.0, 18660.0, 18666.0, 18654.0, 18658.0, 18654.0, 18662.0, 18664.0, 18656.0, 18648.0, 18648.0, 18652.0, 18656.0, 18666.0, 18662.0, 18654.0, 18654.0, 18654.0, 18654.0, 18656.0, 18658.0, 18656.0, 18652.0, 18652.0, 18648.0, 18656.0, 18652.0, 18686.0, 18650.0, 18660.0, 18660.0, 18658.0, 18652.0, 18650.0, 18662.0, 18660.0, 18654.0, 18656.0, 18662.0, 18660.0, 18656.0, 18660.0, 18662.0, 18660.0, 18658.0, 18656.0, 18656.0, 18658.0, 18660.0, 18658.0, 18654.0, 18656.0, 18662.0, 18662.0, 18660.0, 18654.0, 18660.0, 18660.0, 18658.0, 18658.0, 18658.0, 18668.0, 18658.0, 18654.0, 18654.0, 18656.0, 18658.0, 18660.0, 18662.0, 18660.0, 18660.0, 18660.0, 18656.0, 18654.0, 18656.0, 18660.0, 18658.0, 18658.0, 18662.0, 18696.0, 18658.0, 18648.0, 18660.0, 18662.0, 18664.0, 18654.0, 18658.0, 18662.0, 18664.0, 18656.0, 18654.0, 18658.0, 18656.0, 18662.0, 18656.0, 18660.0, 18660.0, 18660.0, 18658.0, 18658.0, 18656.0, 18658.0, 18662.0, 18656.0, 18656.0, 18662.0, 18664.0, 18658.0, 18658.0, 18658.0, 18658.0, 18660.0, 18690.0, 18668.0, 18664.0, 18658.0, 18658.0, 18662.0, 18658.0, 18650.0, 18662.0, 18660.0, 18656.0, 18654.0, 18662.0, 18666.0, 18664.0, 18658.0, 18656.0, 18660.0, 18660.0, 18658.0, 18690.0, 18658.0, 18662.0, 18660.0, 18660.0, 18662.0, 18660.0, 18660.0, 18664.0, 18658.0, 18654.0, 18652.0, 18656.0, 18662.0, 18660.0, 18662.0]
    },
    "slices": {}
  }
}