{
  "AcquisitionMatrixPE": 104,
  "AcquisitionNumber": 1,
  "AcquisitionTime": "17:30:18.605000",
  "BandwidthPerPixelPhaseEncode": 17.17,
  "BaseResolution": 104,
  "BodyPartExamined": "BRAIN",
  "CoilString": "HC1-7;NC1_2",
  "ConsistencyInfo": "N4_VE11C_LATEST_20160120",
  "ConversionSoftware": "dcm2niix",
  "ConversionSoftwareVersion": "v1.0.20190902",
  "DerivedVendorReportedEchoSpacing": 0.000560011,
  "DeviceSerialNumber": "167006",
  "DwellTime": 2.1e-06,
  "EchoTime": 0.037,
  "EchoTrainLength": 104,
  "EffectiveEchoSpacing": 0.000560011,
  "FlipAngle": 52,
  "ImageComments": "Unaliased_MB4_PE3_LB",
  "ImageOrientationPatientDICOM": [0.998048, 0.0484439, 0.0394101, -0.0346782, 0.954748, -0.295387],
  "ImageType": [
    "ORIGINAL",
    "PRIMARY",
    "P",
    "MB",
    "ND",
    "MOSAIC"
],
  "ImagingFrequency": 123.259,
  "InPlanePhaseEncodingDirectionDICOM": "COL",
  "InstitutionAddress": "Chemin_Queen-Mary_4565_Montreal_District_CA_H3W_1W5",
  "InstitutionName": "IUGM",
  "InstitutionalDepartmentName": "Department",
  "MRAcquisitionType": "2D",
  "MagneticFieldStrength": 3,
  "Manufacturer": "Siemens",
  "ManufacturersModelName": "Prisma_fit",
  "Modality": "MR",
  "MultibandAccelerationFactor": 4,
  "PartialFourier": 1,
  "PatientPosition": "HFS",
  "PercentPhaseFOV": 100,
  "PhaseEncodingDirection": "j",
  "PhaseEncodingSteps": 104,
  "PhaseResolution": 1,
  "PixelBandwidth": 2290,
  "ProcedureStepDescription": "memory_things",
  "ProtocolName": "func_task-things_run-1",
  "PulseSequenceDetails": "%CustomerSeq%_cmrr_mbep2d_bold",
  "ReceiveCoilActiveElements": "HC1-7;NC1,2",
  "ReceiveCoilName": "HeadNeck_64",
  "ReconMatrixPE": 104,
  "RepetitionTime": 1.49,
  "SAR": 0.0360388,
  "ScanOptions": "FS",
  "ScanningSequence": "EP",
  "SequenceName": "epfid2d1_104",
  "SequenceVariant": "SK_SS",
  "SeriesDescription": "func_task-things_run-1",
  "SeriesNumber": 11,
  "ShimSetting": [638, -7180, -8759, 686, 77, 56, -14, -7],
  "SliceThickness": 2,
  "SliceTiming": [0, 0.785, 0.0975, 0.8825, 0.195, 0.98, 0.295, 1.0775, 0.3925, 1.175, 0.49, 1.275, 0.5875, 1.3725, 0.685, 0, 0.785, 0.0975, 0.8825, 0.195, 0.98, 0.295, 1.0775, 0.3925, 1.175, 0.49, 1.275, 0.5875, 1.3725, 0.685, 0, 0.785, 0.0975, 0.8825, 0.195, 0.98, 0.295, 1.0775, 0.3925, 1.175, 0.49, 1.275, 0.5875, 1.3725, 0.685, 0, 0.785, 0.0975, 0.8825, 0.195, 0.98, 0.295, 1.0775, 0.3925, 1.175, 0.49, 1.275, 0.5875, 1.3725, 0.685],
  "SoftwareVersions": "syngo_MR_E11",
  "SpacingBetweenSlices": 2,
  "StationName": "MRC35049",
  "TaskName": "things",
  "TotalReadoutTime": 0.0576811,
  "TxRefAmp": 244.848,
  "WipMemBlock": "ec040965-bcc5-4701-ada5-0467fa90eae4||Sequence: R016 ve11c/master r/e634e98; Dec 19 2017 11:00:25 by eja",
  "dcmmeta_affine": [
    [-1.9960962533950806, -0.06935632228851318, 0.10387293994426727, 108.1981430053711],
    [-0.09688783437013626, 1.9094959497451782, -0.5868883728981018, -58.43621063232422],
    [0.07882026582956314, 0.5907748341560364, 1.9091287851333618, -47.09035873413086],
    [0.0, 0.0, 0.0, 1.0]
],
  "dcmmeta_reorient_transform": [
    [0.0, -1.0, 0.0, 103.0],
    [1.0, 0.0, 0.0, 0.0],
    [0.0, 0.0, 1.0, 0.0],
    [0.0, 0.0, 0.0, 1.0]
],
  "dcmmeta_shape": [104, 104, 60, 190],
  "dcmmeta_slice_dim": 2,
  "dcmmeta_version": 0.6,
  "global": {
    "const": {
      "AcquisitionMatrix": [104, 0, 0, 104],
      "AngioFlag": "N",
      "BitsAllocated": 16,
      "BitsStored": 16,
      "BodyPartExamined": "BRAIN",
      "Columns": 832,
      "EchoNumbers": 1,
      "EchoTime": 37.0,
      "EchoTrainLength": 104,
      "FlipAngle": 52.0,
      "HighBit": 15,
      "ImageOrientationPatient": [0.99804810924097, 0.04844391575707, 0.03941013406027, -0.0346781609909, 0.95474797761674, -0.2953874140633],
      "ImagePositionPatient": [-802.38776454153, -868.56557121108, 200.11090671597],
      "ImageType": [
        "ORIGINAL",
        "PRIMARY",
        "P",
        "MB",
        "ND",
        "MOSAIC"
],
      "ImagedNucleus": "1H",
      "ImagingFrequency": 123.258885,
      "InPlanePhaseEncodingDirection": "COL",
      "LargestImagePixelValue": 4095,
      "MRAcquisitionType": "2D",
      "MagneticFieldStrength": 3.0,
      "Manufacturer": "SIEMENS",
      "ManufacturerModelName": "Prisma_fit",
      "Modality": "MR",
      "NumberOfAverages": 1.0,
      "NumberOfPhaseEncodingSteps": 104,
      "PercentPhaseFieldOfView": 100.0,
      "PercentSampling": 100.0,
      "PerformedProcedureStepStartTime": "171051.305000",
      "PhotometricInterpretation": "MONOCHROME2",
      "PixelBandwidth": 2290.0,
      "PixelRepresentation": 0,
      "PixelSpacing": [2.0, 2.0],
      "ProtocolName": "func_task-things_run-1",
      "RepetitionTime": 1490.0,
      "RescaleIntercept": -4096.0,
      "RescaleSlope": 2.0,
      "RescaleType": "US",
      "Rows": 832,
      "SAR": 0.03603882266943,
      "SamplesPerPixel": 1,
      "ScanOptions": "FS",
      "ScanningSequence": "EP",
      "SequenceName": "epfid2d1_104",
      "SequenceVariant": [
        "SK",
        "SS"
],
      "SeriesDescription": "func_task-things_run-1",
      "SeriesNumber": 11,
      "SeriesTime": "173113.980000",
      "SliceLocation": -22.183584414391,
      "SliceThickness": 2.0,
      "SmallestImagePixelValue": 0,
      "SoftwareVersions": "syngo MR E11",
      "SpacingBetweenSlices": 2.0000000309419,
      "SpecificCharacterSet": "ISO_IR 100",
      "StudyID": "1",
      "StudyTime": "171051.239000",
      "TransmitCoilName": "Body",
      "VariableFlipAngleFlag": "N",
      "WindowCenterWidthExplanation": "Algo1",
      "dBdt": 0.0},
    "slices": {}
  },
  "time": {
    "samples": {
      "AcquisitionNumber": [1, 2, 3, 4, 5, 6, 7, 8, 9, 10, 11, 12, 13, 14, 15, 16, 17, 18, 19, 20, 21, 22, 23, 24, 25, 26, 27, 28, 29, 30, 31, 32, 33, 34, 35, 36, 37, 38, 39, 40, 41, 42, 43, 44, 45, 46, 47, 48, 49, 50, 51, 52, 53, 54, 55, 56, 57, 58, 59, 60, 61, 62, 63, 64, 65, 66, 67, 68, 69, 70, 71, 72, 73, 74, 75, 76, 77, 78, 79, 80, 81, 82, 83, 84, 85, 86, 87, 88, 89, 90, 91, 92, 93, 94, 95, 96, 97, 98, 99, 100, 101, 102, 103, 104, 105, 106, 107, 108, 109, 110, 111, 112, 113, 114, 115, 116, 117, 118, 119, 120, 121, 122, 123, 124, 125, 126, 127, 128, 129, 130, 131, 132, 133, 134, 135, 136, 137, 138, 139, 140, 141, 142, 143, 144, 145, 146, 147, 148, 149, 150, 151, 152, 153, 154, 155, 156, 157, 158, 159, 160, 161, 162, 163, 164, 165, 166, 167, 168, 169, 170, 171, 172, 173, 174, 175, 176, 177, 178, 179, 180, 181, 182, 183, 184, 185, 186, 187, 188, 189, 190],
      "AcquisitionTime": ["173018.605000", "173020.095000", "173021.585000", "173023.075000", "173024.565000", "173026.055000", "173027.545000", "173029.035000", "173030.525000", "173032.015000", "173033.505000", "173034.995000", "173036.485000", "173037.975000", "173039.465000", "173040.955000", "173042.445000", "173043.935000", "173045.425000", "173046.915000", "173048.405000", "173049.895000", "173051.385000", "173052.875000", "173054.365000", "173055.855000", "173057.345000", "173058.835000", "173100.325000", "173101.815000", "173103.305000", "173104.795000", "173106.285000", "173107.775000", "173109.265000", "173110.755000", "173112.245000", "173113.735000", "173115.225000", "173116.715000", "173118.205000", "173119.695000", "173121.185000", "173122.675000", "173124.165000", "173125.655000", "173127.145000", "173128.635000", "173130.125000", "173131.615000", "173133.105000", "173134.595000", "173136.085000", "173137.575000", "173139.065000", "173140.555000", "173142.045000", "173143.535000", "173145.025000", "173146.515000", "173148.005000", "173149.495000", "173150.985000", "173152.475000", "173153.965000", "173155.455000", "173156.945000", "173158.435000", "173159.925000", "173201.415000", "173202.905000", "173204.395000", "173205.885000", "173207.375000", "173208.865000", "173210.355000", "173211.845000", "173213.335000", "173214.825000", "173216.315000", "173217.805000", "173219.295000", "173220.785000", "173222.275000", "173223.765000", "173225.255000", "173226.745000", "173228.235000", "173229.725000", "173231.215000", "173232.705000", "173234.195000", "173235.685000", "173237.175000", "173238.665000", "173240.155000", "173241.645000", "173243.135000", "173244.625000", "173246.115000", "173247.605000", "173249.095000", "173250.585000", "173252.075000", "173253.565000", "173255.055000", "173256.545000", "173258.035000", "173259.525000", "173301.015000", "173302.505000", "173303.995000", "173305.485000", "173306.975000", "173308.465000", "173309.955000", "173311.445000", "173312.935000", "173314.425000", "173315.915000", "173317.405000", "173318.895000", "173320.385000", "173321.875000", "173323.365000", "173324.855000", "173326.345000", "173327.835000", "173329.325000", "173330.815000", "173332.305000", "173333.795000", "173335.285000", "173336.775000", "173338.265000", "173339.755000", "173341.245000", "173342.735000", "173344.225000", "173345.715000", "173347.205000", "173348.695000", "173350.185000", "173351.675000", "173353.165000", "173354.655000", "173356.145000", "173357.635000", "173359.125000", "173400.615000", "173402.105000", "173403.595000", "173405.085000", "173406.575000", "173408.065000", "173409.555000", "173411.045000", "173412.535000", "173414.025000", "173415.515000", "173417.005000", "173418.495000", "173419.985000", "173421.475000", "173422.965000", "173424.455000", "173425.945000", "173427.435000", "173428.925000", "173430.415000", "173431.905000", "173433.395000", "173434.885000", "173436.375000", "173437.865000", "173439.355000", "173440.845000", "173442.335000", "173443.825000", "173445.315000", "173446.805000", "173448.295000", "173449.785000", "173451.275000", "173452.765000", "173454.255000", "173455.745000", "173457.235000", "173458.725000", "173500.215000"],
      "ContentTime": ["173113.982000", "173134.077000", "173134.079000", "173134.082000", "173134.084000", "173134.087000", "173134.089000", "173134.092000", "173134.094000", "173134.097000", "173134.099000", "173134.102000", "173134.104000", "173134.107000", "173134.109000", "173134.112000", "173134.114000", "173134.117000", "173134.119000", "173134.122000", "173134.125000", "173154.025000", "173154.028000", "173154.031000", "173154.033000", "173154.036000", "173154.038000", "173154.040000", "173154.043000", "173154.045000", "173154.048000", "173154.050000", "173154.053000", "173154.055000", "173154.058000", "173154.060000", "173154.063000", "173154.065000", "173154.068000", "173154.070000", "173154.073000", "173154.075000", "173214.065000", "173214.068000", "173214.070000", "173214.073000", "173214.075000", "173214.078000", "173214.080000", "173214.083000", "173214.085000", "173214.088000", "173214.090000", "173214.093000", "173214.095000", "173214.098000", "173214.100000", "173214.103000", "173214.105000", "173214.108000", "173214.110000", "173214.113000", "173234.023000", "173234.025000", "173234.028000", "173234.031000", "173234.033000", "173234.036000", "173234.039000", "173234.042000", "173234.044000", "173234.047000", "173234.049000", "173234.052000", "173234.054000", "173234.057000", "173234.060000", "173234.062000", "173234.066000", "173234.068000", "173234.071000", "173234.074000", "173254.159000", "173254.161000", "173254.164000", "173254.166000", "173254.169000", "173254.171000", "173254.174000", "173254.176000", "173254.179000", "173254.181000", "173254.184000", "173254.187000", "173254.189000", "173254.192000", "173254.195000", "173254.198000", "173254.201000", "173254.203000", "173254.206000", "173254.208000", "173254.211000", "173334.058000", "173334.061000", "173334.063000", "173334.066000", "173334.068000", "173334.071000", "173334.073000", "173334.076000", "173334.078000", "173334.081000", "173334.083000", "173334.086000", "173334.088000", "173334.091000", "173334.093000", "173334.096000", "173334.098000", "173334.101000", "173334.103000", "173334.106000", "173334.108000", "173334.111000", "173334.114000", "173334.116000", "173334.119000", "173334.121000", "173334.124000", "173414.049000", "173414.052000", "173414.055000", "173414.057000", "173414.060000", "173414.062000", "173414.065000", "173414.067000", "173414.070000", "173414.072000", "173414.075000", "173414.077000", "173414.079000", "173414.082000", "173414.085000", "173414.087000", "173414.090000", "173414.092000", "173414.095000", "173414.097000", "173414.100000", "173414.102000", "173414.105000", "173414.107000", "173414.110000", "173414.112000", "173414.115000", "173454.062000", "173454.065000", "173454.068000", "173454.070000", "173454.073000", "173454.075000", "173454.078000", "173454.080000", "173454.083000", "173454.085000", "173454.088000", "173454.090000", "173454.093000", "173454.096000", "173454.098000", "173454.101000", "173454.103000", "173454.106000", "173454.108000", "173454.111000", "173454.113000", "173454.116000", "173454.118000", "173454.121000", "173454.123000", "173454.126000", "173454.128000", "173502.588000", "173502.591000", "173502.594000", "173502.597000", "173502.599000", "173502.602000"],
      "InstanceCreationTime": ["173113.982000", "173134.077000", "173134.079000", "173134.082000", "173134.084000", "173134.087000", "173134.089000", "173134.092000", "173134.094000", "173134.097000", "173134.099000", "173134.102000", "173134.104000", "173134.107000", "173134.109000", "173134.112000", "173134.114000", "173134.117000", "173134.119000", "173134.122000", "173134.125000", "173154.025000", "173154.028000", "173154.031000", "173154.033000", "173154.036000", "173154.038000", "173154.040000", "173154.043000", "173154.045000", "173154.048000", "173154.050000", "173154.053000", "173154.055000", "173154.058000", "173154.060000", "173154.063000", "173154.065000", "173154.068000", "173154.070000", "173154.073000", "173154.075000", "173214.065000", "173214.068000", "173214.070000", "173214.073000", "173214.075000", "173214.078000", "173214.080000", "173214.083000", "173214.085000", "173214.088000", "173214.090000", "173214.093000", "173214.095000", "173214.098000", "173214.100000", "173214.103000", "173214.105000", "173214.108000", "173214.110000", "173214.113000", "173234.023000", "173234.025000", "173234.028000", "173234.031000", "173234.033000", "173234.036000", "173234.039000", "173234.042000", "173234.044000", "173234.047000", "173234.049000", "173234.052000", "173234.054000", "173234.057000", "173234.060000", "173234.062000", "173234.066000", "173234.068000", "173234.071000", "173234.074000", "173254.159000", "173254.161000", "173254.164000", "173254.166000", "173254.169000", "173254.171000", "173254.174000", "173254.176000", "173254.179000", "173254.181000", "173254.184000", "173254.187000", "173254.189000", "173254.192000", "173254.195000", "173254.198000", "173254.201000", "173254.203000", "173254.206000", "173254.208000", "173254.211000", "173334.058000", "173334.061000", "173334.063000", "173334.066000", "173334.068000", "173334.071000", "173334.073000", "173334.076000", "173334.078000", "173334.081000", "173334.083000", "173334.086000", "173334.088000", "173334.091000", "173334.093000", "173334.096000", "173334.098000", "173334.101000", "173334.103000", "173334.106000", "173334.108000", "173334.111000", "173334.114000", "173334.116000", "173334.119000", "173334.121000", "173334.124000", "173414.049000", "173414.052000", "173414.055000", "173414.057000", "173414.060000", "173414.062000", "173414.065000", "173414.067000", "173414.070000", "173414.072000", "173414.075000", "173414.077000", "173414.079000", "173414.082000", "173414.085000", "173414.087000", "173414.090000", "173414.092000", "173414.095000", "173414.097000", "173414.100000", "173414.102000", "173414.105000", "173414.107000", "173414.110000", "173414.112000", "173414.115000", "173454.062000", "173454.065000", "173454.068000", "173454.070000", "173454.073000", "173454.075000", "173454.078000", "173454.080000", "173454.083000", "173454.085000", "173454.088000", "173454.090000", "173454.093000", "173454.096000", "173454.098000", "173454.101000", "173454.103000", "173454.106000", "173454.108000", "173454.111000", "173454.113000", "173454.116000", "173454.118000", "173454.121000", "173454.123000", "173454.126000", "173454.128000", "173502.588000", "173502.591000", "173502.594000", "173502.597000", "173502.599000", "173502.602000"],
      "InstanceNumber": [1, 2, 3, 4, 5, 6, 7, 8, 9, 10, 11, 12, 13, 14, 15, 16, 17, 18, 19, 20, 21, 22, 23, 24, 25, 26, 27, 28, 29, 30, 31, 32, 33, 34, 35, 36, 37, 38, 39, 40, 41, 42, 43, 44, 45, 46, 47, 48, 49, 50, 51, 52, 53, 54, 55, 56, 57, 58, 59, 60, 61, 62, 63, 64, 65, 66, 67, 68, 69, 70, 71, 72, 73, 74, 75, 76, 77, 78, 79, 80, 81, 82, 83, 84, 85, 86, 87, 88, 89, 90, 91, 92, 93, 94, 95, 96, 97, 98, 99, 100, 101, 102, 103, 104, 105, 106, 107, 108, 109, 110, 111, 112, 113, 114, 115, 116, 117, 118, 119, 120, 121, 122, 123, 124, 125, 126, 127, 128, 129, 130, 131, 132, 133, 134, 135, 136, 137, 138, 139, 140, 141, 142, 143, 144, 145, 146, 147, 148, 149, 150, 151, 152, 153, 154, 155, 156, 157, 158, 159, 160, 161, 162, 163, 164, 165, 166, 167, 168, 169, 170, 171, 172, 173, 174, 175, 176, 177, 178, 179, 180, 181, 182, 183, 184, 185, 186, 187, 188, 189, 190],
      "WindowCenter": [4886.0, 4884.0, 4886.0, 4890.0, 4884.0, 4886.0, 4884.0, 4886.0, 4884.0, 4880.0, 4886.0, 4888.0, 4886.0, 4886.0, 4886.0, 4888.0, 4884.0, 4888.0, 4886.0, 4888.0, 4886.0, 4864.0, 4888.0, 4882.0, 4886.0, 4888.0, 4886.0, 4886.0, 4882.0, 4882.0, 4886.0, 4860.0, 4864.0, 4866.0, 4884.0, 4884.0, 4884.0, 4890.0, 4890.0, 4886.0, 4886.0, 4888.0, 4886.0, 4886.0, 4888.0, 4886.0, 4884.0, 4888.0, 4886.0, 4888.0, 4888.0, 4886.0, 4884.0, 4884.0, 4890.0, 4888.0, 4888.0, 4884.0, 4886.0, 4888.0, 4884.0, 4884.0, 4884.0, 4886.0, 4888.0, 4888.0, 4888.0, 4888.0, 4888.0, 4886.0, 4888.0, 4886.0, 4886.0, 4888.0, 4888.0, 4890.0, 4908.0, 4884.0, 4888.0, 4890.0, 4890.0, 4884.0, 4888.0, 4890.0, 4888.0, 4886.0, 4886.0, 4890.0, 4884.0, 4886.0, 4890.0, 4886.0, 4886.0, 4886.0, 4888.0, 4888.0, 4910.0, 4886.0, 4890.0, 4886.0, 4888.0, 4908.0, 4890.0, 4888.0, 4890.0, 4886.0, 4884.0, 4886.0, 4888.0, 4884.0, 4886.0, 4892.0, 4890.0, 4886.0, 4886.0, 4886.0, 4888.0, 4884.0, 4884.0, 4888.0, 4888.0, 4888.0, 4882.0, 4882.0, 4888.0, 4890.0, 4884.0, 4886.0, 4888.0, 4908.0, 4886.0, 4888.0, 4886.0, 4888.0, 4886.0, 4890.0, 4908.0, 4886.0, 4888.0, 4910.0, 4884.0, 4882.0, 4882.0, 4886.0, 4884.0, 4892.0, 4886.0, 4886.0, 4888.0, 4884.0, 4884.0, 4882.0, 4888.0, 4886.0, 4888.0, 4910.0, 4888.0, 4886.0, 4890.0, 4886.0, 4908.0, 4888.0, 4886.0, 4908.0, 4884.0, 4884.0, 4886.0, 4888.0, 4910.0, 4886.0, 4890.0, 4886.0, 4884.0, 4880.0, 4886.0, 4914.0, 4882.0, 4884.0, 4890.0, 4886.0, 4886.0, 4880.0, 4908.0, 4888.0, 4884.0, 4880.0, 4908.0, 4888.0, 4908.0, 4880.0],
      "WindowWidth": [18650.0, 18652.0, 18658.0, 18656.0, 18652.0, 18658.0, 18644.0, 18650.0, 18652.0, 18652.0, 18658.0, 18646.0, 18646.0, 18648.0, 18656.0, 18660.0, 18652.0, 18650.0, 18654.0, 18656.0, 18654.0, 18616.0, 18654.0, 18656.0, 18656.0, 18652.0, 18646.0, 18654.0, 18662.0, 18660.0, 18658.0, 18616.0, 18614.0, 18614.0, 18650.0, 18654.0, 18652.0, 18654.0, 18658.0, 18660.0, 18660.0, 18656.0, 18640.0, 18654.0, 18660.0, 18650.0, 18646.0, 18648.0, 18652.0, 18658.0, 18654.0, 18648.0, 18656.0, 18656.0, 18656.0, 18654.0, 18656.0, 18650.0, 18648.0, 18652.0, 18664.0, 18656.0, 18650.0, 18652.0, 18652.0, 18662.0, 18656.0, 18650.0, 18654.0, 18664.0, 18660.0, 18650.0, 18656.0, 18660.0, 18650.0, 18660.0, 18692.0, 18656.0, 18654.0, 18654.0, 18652.0, 18658.0, 18656.0, 18654.0, 18660.0, 18658.0, 18654.0, 18658.0, 18664.0, 18662.0, 18654.0, 18650.0, 18652.0, 18660.0, 18660.0, 18658.0, 18688.0, 18662.0, 18658.0, 18652.0, 18654.0, 18690.0, 18656.0, 18652.0, 18658.0, 18662.0, 18660.0, 18650.0, 18650.0, 18662.0, 18664.0, 18658.0, 18652.0, 18662.0, 18662.0, 18658.0, 18664.0, 18662.0, 18664.0, 18662.0, 18656.0, 18656.0, 18658.0, 18658.0, 18658.0, 18660.0, 18660.0, 18664.0, 18658.0, 18692.0, 18664.0, 18662.0, 18654.0, 18658.0, 18654.0, 18658.0, 18686.0, 18662.0, 18664.0, 18692.0, 18658.0, 18660.0, 18662.0, 18654.0, 18650.0, 18654.0, 18656.0, 18666.0, 18658.0, 18656.0, 18668.0, 18668.0, 18664.0, 18656.0, 18658.0, 18686.0, 18662.0, 18656.0, 18660.0, 18658.0, 18690.0, 18660.0, 18660.0, 18690.0, 18662.0, 18660.0, 18656.0, 18660.0, 18696.0, 18660.0, 18660.0, 18658.0, 18662.0, 18662.0, 18664.0, 18690.0, 18662.0, 18664.0, 18662.0, 18658.0, 18658.0, 18660.0, 18690.0, 18658.0, 18658.0, 18664.0, 18694.0, 18660.0, 18690.0, 18656.0]
    },
    "slices": {}
  }
}