{
  "AcquisitionMatrixPE": 104,
  "AcquisitionNumber": 1,
  "AcquisitionTime": "18:00:50.575000",
  "BandwidthPerPixelPhaseEncode": 17.17,
  "BaseResolution": 104,
  "BodyPartExamined": "BRAIN",
  "CoilString": "HC1-7;NC1_2",
  "ConsistencyInfo": "N4_VE11C_LATEST_20160120",
  "ConversionSoftware": "dcm2niix",
  "ConversionSoftwareVersion": "v1.0.20190902",
  "DerivedVendorReportedEchoSpacing": 0.000560011,
  "DeviceSerialNumber": "167006",
  "DwellTime": 2.1e-06,
  "EchoTime": 0.037,
  "EchoTrainLength": 104,
  "EffectiveEchoSpacing": 0.000560011,
  "FlipAngle": 52,
  "ImageComments": "Unaliased_MB4_PE3_LB",
  "ImageOrientationPatientDICOM": [0.998048, 0.0484439, 0.0394101, -0.0346782, 0.954748, -0.295387],
  "ImageType": [
    "ORIGINAL",
    "PRIMARY",
    "P",
    "MB",
    "ND",
    "MOSAIC"
],
  "ImagingFrequency": 123.259,
  "InPlanePhaseEncodingDirectionDICOM": "COL",
  "InstitutionAddress": "Chemin_Queen-Mary_4565_Montreal_District_CA_H3W_1W5",
  "InstitutionName": "IUGM",
  "InstitutionalDepartmentName": "Department",
  "MRAcquisitionType": "2D",
  "MagneticFieldStrength": 3,
  "Manufacturer": "Siemens",
  "ManufacturersModelName": "Prisma_fit",
  "Modality": "MR",
  "MultibandAccelerationFactor": 4,
  "PartialFourier": 1,
  "PatientPosition": "HFS",
  "PercentPhaseFOV": 100,
  "PhaseEncodingDirection": "j",
  "PhaseEncodingSteps": 104,
  "PhaseResolution": 1,
  "PixelBandwidth": 2290,
  "ProcedureStepDescription": "memory_things",
  "ProtocolName": "func_task-things_run-6",
  "PulseSequenceDetails": "%CustomerSeq%_cmrr_mbep2d_bold",
  "ReceiveCoilActiveElements": "HC1-7;NC1,2",
  "ReceiveCoilName": "HeadNeck_64",
  "ReconMatrixPE": 104,
  "RepetitionTime": 1.49,
  "SAR": 0.0360388,
  "ScanOptions": "FS",
  "ScanningSequence": "EP",
  "SequenceName": "epfid2d1_104",
  "SequenceVariant": "SK_SS",
  "SeriesDescription": "func_task-things_run-6",
  "SeriesNumber": 26,
  "ShimSetting": [638, -7180, -8759, 686, 77, 56, -14, -7],
  "SliceThickness": 2,
  "SliceTiming": [0, 0.7825, 0.0975, 0.88, 0.195, 0.98, 0.2925, 1.0775, 0.39, 1.175, 0.49, 1.2725, 0.5875, 1.37, 0.685, 0, 0.7825, 0.0975, 0.88, 0.195, 0.98, 0.2925, 1.0775, 0.39, 1.175, 0.49, 1.2725, 0.5875, 1.37, 0.685, 0, 0.7825, 0.0975, 0.88, 0.195, 0.98, 0.2925, 1.0775, 0.39, 1.175, 0.49, 1.2725, 0.5875, 1.37, 0.685, 0, 0.7825, 0.0975, 0.88, 0.195, 0.98, 0.2925, 1.0775, 0.39, 1.175, 0.49, 1.2725, 0.5875, 1.37, 0.685],
  "SoftwareVersions": "syngo_MR_E11",
  "SpacingBetweenSlices": 2,
  "StationName": "MRC35049",
  "TaskName": "things",
  "TotalReadoutTime": 0.0576811,
  "TxRefAmp": 244.848,
  "WipMemBlock": "58f6e969-2c7f-46ab-954f-73c34485002b||Sequence: R016 ve11c/master r/e634e98; Dec 19 2017 11:00:25 by eja",
  "dcmmeta_affine": [
    [-1.9960962533950806, -0.06935632228851318, 0.10387293994426727, 108.1981430053711],
    [-0.09688783437013626, 1.9094959497451782, -0.5868883728981018, -58.43621063232422],
    [0.07882026582956314, 0.5907748341560364, 1.9091287851333618, -47.09035873413086],
    [0.0, 0.0, 0.0, 1.0]
],
  "dcmmeta_reorient_transform": [
    [0.0, -1.0, 0.0, 103.0],
    [1.0, 0.0, 0.0, 0.0],
    [0.0, 0.0, 1.0, 0.0],
    [0.0, 0.0, 0.0, 1.0]
],
  "dcmmeta_shape": [104, 104, 60, 190],
  "dcmmeta_slice_dim": 2,
  "dcmmeta_version": 0.6,
  "global": {
    "const": {
      "AcquisitionMatrix": [104, 0, 0, 104],
      "AngioFlag": "N",
      "BitsAllocated": 16,
      "BitsStored": 16,
      "BodyPartExamined": "BRAIN",
      "Columns": 832,
      "EchoNumbers": 1,
      "EchoTime": 37.0,
      "EchoTrainLength": 104,
      "FlipAngle": 52.0,
      "HighBit": 15,
      "ImageOrientationPatient": [0.99804810924097, 0.04844391575707, 0.03941013406027, -0.0346781609909, 0.95474797761674, -0.2953874140633],
      "ImagePositionPatient": [-802.38776454153, -868.56557121108, 200.11090671597],
      "ImageType": [
        "ORIGINAL",
        "PRIMARY",
        "P",
        "MB",
        "ND",
        "MOSAIC"
],
      "ImagedNucleus": "1H",
      "ImagingFrequency": 123.258909,
      "InPlanePhaseEncodingDirection": "COL",
      "LargestImagePixelValue": 4095,
      "MRAcquisitionType": "2D",
      "MagneticFieldStrength": 3.0,
      "Manufacturer": "SIEMENS",
      "ManufacturerModelName": "Prisma_fit",
      "Modality": "MR",
      "NumberOfAverages": 1.0,
      "NumberOfPhaseEncodingSteps": 104,
      "PercentPhaseFieldOfView": 100.0,
      "PercentSampling": 100.0,
      "PerformedProcedureStepStartTime": "171051.305000",
      "PhotometricInterpretation": "MONOCHROME2",
      "PixelBandwidth": 2290.0,
      "PixelRepresentation": 0,
      "PixelSpacing": [2.0, 2.0],
      "ProtocolName": "func_task-things_run-6",
      "RepetitionTime": 1490.0,
      "RescaleIntercept": -4096.0,
      "RescaleSlope": 2.0,
      "RescaleType": "US",
      "Rows": 832,
      "SAR": 0.03603882266943,
      "SamplesPerPixel": 1,
      "ScanOptions": "FS",
      "ScanningSequence": "EP",
      "SequenceName": "epfid2d1_104",
      "SequenceVariant": [
        "SK",
        "SS"
],
      "SeriesDescription": "func_task-things_run-6",
      "SeriesNumber": 26,
      "SeriesTime": "180159.224000",
      "SliceLocation": -22.183584414391,
      "SliceThickness": 2.0,
      "SmallestImagePixelValue": 0,
      "SoftwareVersions": "syngo MR E11",
      "SpacingBetweenSlices": 2.0000000309419,
      "SpecificCharacterSet": "ISO_IR 100",
      "StudyID": "1",
      "StudyTime": "171051.239000",
      "TransmitCoilName": "Body",
      "VariableFlipAngleFlag": "N",
      "WindowCenterWidthExplanation": "Algo1",
      "dBdt": 0.0},
    "slices": {}
  },
  "time": {
    "samples": {
      "AcquisitionNumber": [1, 2, 3, 4, 5, 6, 7, 8, 9, 10, 11, 12, 13, 14, 15, 16, 17, 18, 19, 20, 21, 22, 23, 24, 25, 26, 27, 28, 29, 30, 31, 32, 33, 34, 35, 36, 37, 38, 39, 40, 41, 42, 43, 44, 45, 46, 47, 48, 49, 50, 51, 52, 53, 54, 55, 56, 57, 58, 59, 60, 61, 62, 63, 64, 65, 66, 67, 68, 69, 70, 71, 72, 73, 74, 75, 76, 77, 78, 79, 80, 81, 82, 83, 84, 85, 86, 87, 88, 89, 90, 91, 92, 93, 94, 95, 96, 97, 98, 99, 100, 101, 102, 103, 104, 105, 106, 107, 108, 109, 110, 111, 112, 113, 114, 115, 116, 117, 118, 119, 120, 121, 122, 123, 124, 125, 126, 127, 128, 129, 130, 131, 132, 133, 134, 135, 136, 137, 138, 139, 140, 141, 142, 143, 144, 145, 146, 147, 148, 149, 150, 151, 152, 153, 154, 155, 156, 157, 158, 159, 160, 161, 162, 163, 164, 165, 166, 167, 168, 169, 170, 171, 172, 173, 174, 175, 176, 177, 178, 179, 180, 181, 182, 183, 184, 185, 186, 187, 188, 189, 190],
      "AcquisitionTime": ["180050.575000", "180052.065000", "180053.555000", "180055.045000", "180056.535000", "180058.025000", "180059.515000", "180101.005000", "180102.495000", "180103.985000", "180105.475000", "180106.965000", "180108.455000", "180109.945000", "180111.435000", "180112.925000", "180114.415000", "180115.905000", "180117.395000", "180118.885000", "180120.375000", "180121.865000", "180123.355000", "180124.845000", "180126.335000", "180127.825000", "180129.315000", "180130.805000", "180132.295000", "180133.785000", "180135.275000", "180136.765000", "180138.255000", "180139.745000", "180141.235000", "180142.725000", "180144.215000", "180145.705000", "180147.195000", "180148.685000", "180150.175000", "180151.665000", "180153.155000", "180154.645000", "180156.135000", "180157.625000", "180159.115000", "180200.605000", "180202.095000", "180203.585000", "180205.075000", "180206.565000", "180208.055000", "180209.545000", "180211.035000", "180212.525000", "180214.015000", "180215.505000", "180216.995000", "180218.485000", "180219.975000", "180221.465000", "180222.955000", "180224.445000", "180225.935000", "180227.425000", "180228.915000", "180230.405000", "180231.895000", "180233.385000", "180234.875000", "180236.365000", "180237.855000", "180239.345000", "180240.835000", "180242.325000", "180243.815000", "180245.305000", "180246.795000", "180248.285000", "180249.775000", "180251.265000", "180252.755000", "180254.245000", "180255.735000", "180257.225000", "180258.715000", "180300.205000", "180301.695000", "180303.185000", "180304.675000", "180306.165000", "180307.655000", "180309.145000", "180310.635000", "180312.125000", "180313.615000", "180315.105000", "180316.595000", "180318.085000", "180319.575000", "180321.065000", "180322.555000", "180324.045000", "180325.535000", "180327.025000", "180328.515000", "180330.005000", "180331.495000", "180332.985000", "180334.475000", "180335.965000", "180337.455000", "180338.945000", "180340.435000", "180341.925000", "180343.415000", "180344.905000", "180346.395000", "180347.885000", "180349.375000", "180350.865000", "180352.355000", "180353.845000", "180355.335000", "180356.825000", "180358.315000", "180359.805000", "180401.295000", "180402.785000", "180404.275000", "180405.765000", "180407.255000", "180408.745000", "180410.235000", "180411.725000", "180413.215000", "180414.705000", "180416.195000", "180417.685000", "180419.175000", "180420.665000", "180422.155000", "180423.645000", "180425.135000", "180426.625000", "180428.115000", "180429.605000", "180431.095000", "180432.585000", "180434.075000", "180435.565000", "180437.055000", "180438.545000", "180440.035000", "180441.525000", "180443.015000", "180444.505000", "180445.995000", "180447.485000", "180448.975000", "180450.465000", "180451.955000", "180453.445000", "180454.935000", "180456.425000", "180457.915000", "180459.405000", "180500.895000", "180502.385000", "180503.875000", "180505.365000", "180506.855000", "180508.345000", "180509.835000", "180511.325000", "180512.815000", "180514.305000", "180515.795000", "180517.285000", "180518.775000", "180520.265000", "180521.755000", "180523.245000", "180524.735000", "180526.225000", "180527.715000", "180529.205000", "180530.695000", "180532.185000"],
      "ContentTime": ["180159.226000", "180159.236000", "180159.239000", "180159.242000", "180159.245000", "180159.247000", "180159.250000", "180159.253000", "180159.256000", "180219.252000", "180219.255000", "180219.257000", "180219.260000", "180219.262000", "180219.265000", "180219.267000", "180219.270000", "180219.272000", "180219.275000", "180219.277000", "180219.280000", "180219.282000", "180219.285000", "180219.287000", "180219.290000", "180219.292000", "180219.295000", "180219.297000", "180219.300000", "180219.302000", "180239.251000", "180239.254000", "180239.256000", "180239.259000", "180239.261000", "180239.264000", "180239.266000", "180239.269000", "180239.272000", "180239.274000", "180239.277000", "180239.279000", "180239.282000", "180239.284000", "180239.287000", "180239.289000", "180239.292000", "180239.294000", "180239.297000", "180239.299000", "180259.238000", "180259.241000", "180259.244000", "180259.246000", "180259.249000", "180259.251000", "180259.254000", "180259.256000", "180259.259000", "180259.261000", "180259.264000", "180259.266000", "180259.269000", "180259.271000", "180259.274000", "180259.276000", "180259.279000", "180259.281000", "180259.284000", "180259.286000", "180319.249000", "180319.252000", "180319.254000", "180319.257000", "180319.259000", "180319.262000", "180319.264000", "180319.267000", "180319.269000", "180319.272000", "180319.274000", "180319.277000", "180319.280000", "180319.282000", "180319.285000", "180319.287000", "180319.290000", "180319.292000", "180319.295000", "180319.297000", "180339.243000", "180339.246000", "180339.248000", "180339.251000", "180339.253000", "180339.256000", "180339.259000", "180339.261000", "180339.264000", "180339.266000", "180339.269000", "180339.271000", "180339.274000", "180339.276000", "180339.279000", "180339.281000", "180339.284000", "180339.286000", "180339.289000", "180339.291000", "180339.294000", "180419.285000", "180419.288000", "180419.300000", "180419.303000", "180419.305000", "180419.308000", "180419.310000", "180419.313000", "180419.315000", "180419.318000", "180419.320000", "180419.323000", "180419.325000", "180419.328000", "180419.330000", "180419.333000", "180419.336000", "180419.338000", "180419.341000", "180419.343000", "180419.346000", "180419.348000", "180419.351000", "180419.353000", "180419.356000", "180419.358000", "180419.361000", "180419.363000", "180459.264000", "180459.267000", "180459.270000", "180459.272000", "180459.275000", "180459.277000", "180459.280000", "180459.282000", "180459.285000", "180459.287000", "180459.290000", "180459.292000", "180459.295000", "180459.297000", "180459.300000", "180459.302000", "180459.305000", "180459.307000", "180459.310000", "180459.312000", "180459.315000", "180459.318000", "180459.320000", "180459.323000", "180459.325000", "180459.328000", "180459.330000", "180534.845000", "180534.848000", "180534.851000", "180534.853000", "180534.856000", "180534.858000", "180534.861000", "180534.863000", "180534.866000", "180534.869000", "180534.871000", "180534.874000", "180534.876000", "180534.879000", "180534.881000", "180534.884000", "180534.886000", "180534.889000", "180534.891000", "180534.894000", "180534.896000", "180534.899000", "180534.901000", "180534.904000"],
      "InstanceCreationTime": ["180159.226000", "180159.236000", "180159.239000", "180159.242000", "180159.245000", "180159.247000", "180159.250000", "180159.253000", "180159.256000", "180219.252000", "180219.255000", "180219.257000", "180219.260000", "180219.262000", "180219.265000", "180219.267000", "180219.270000", "180219.272000", "180219.275000", "180219.277000", "180219.280000", "180219.282000", "180219.285000", "180219.287000", "180219.290000", "180219.292000", "180219.295000", "180219.297000", "180219.300000", "180219.302000", "180239.251000", "180239.254000", "180239.256000", "180239.259000", "180239.261000", "180239.264000", "180239.266000", "180239.269000", "180239.272000", "180239.274000", "180239.277000", "180239.279000", "180239.282000", "180239.284000", "180239.287000", "180239.289000", "180239.292000", "180239.294000", "180239.297000", "180239.299000", "180259.238000", "180259.241000", "180259.244000", "180259.246000", "180259.249000", "180259.251000", "180259.254000", "180259.256000", "180259.259000", "180259.261000", "180259.264000", "180259.266000", "180259.269000", "180259.271000", "180259.274000", "180259.276000", "180259.279000", "180259.281000", "180259.284000", "180259.286000", "180319.249000", "180319.252000", "180319.254000", "180319.257000", "180319.259000", "180319.262000", "180319.264000", "180319.267000", "180319.269000", "180319.272000", "180319.274000", "180319.277000", "180319.280000", "180319.282000", "180319.285000", "180319.287000", "180319.290000", "180319.292000", "180319.295000", "180319.297000", "180339.243000", "180339.246000", "180339.248000", "180339.251000", "180339.253000", "180339.256000", "180339.259000", "180339.261000", "180339.264000", "180339.266000", "180339.269000", "180339.271000", "180339.274000", "180339.276000", "180339.279000", "180339.281000", "180339.284000", "180339.286000", "180339.289000", "180339.291000", "180339.294000", "180419.285000", "180419.288000", "180419.300000", "180419.303000", "180419.305000", "180419.308000", "180419.310000", "180419.313000", "180419.315000", "180419.318000", "180419.320000", "180419.323000", "180419.325000", "180419.328000", "180419.330000", "180419.333000", "180419.336000", "180419.338000", "180419.341000", "180419.343000", "180419.346000", "180419.348000", "180419.351000", "180419.353000", "180419.356000", "180419.358000", "180419.361000", "180419.363000", "180459.264000", "180459.267000", "180459.270000", "180459.272000", "180459.275000", "180459.277000", "180459.280000", "180459.282000", "180459.285000", "180459.287000", "180459.290000", "180459.292000", "180459.295000", "180459.297000", "180459.300000", "180459.302000", "180459.305000", "180459.307000", "180459.310000", "180459.312000", "180459.315000", "180459.318000", "180459.320000", "180459.323000", "180459.325000", "180459.328000", "180459.330000", "180534.845000", "180534.848000", "180534.851000", "180534.853000", "180534.856000", "180534.858000", "180534.861000", "180534.863000", "180534.866000", "180534.869000", "180534.871000", "180534.874000", "180534.876000", "180534.879000", "180534.881000", "180534.884000", "180534.886000", "180534.889000", "180534.891000", "180534.894000", "180534.896000", "180534.899000", "180534.901000", "180534.904000"],
      "InstanceNumber": [1, 2, 3, 4, 5, 6, 7, 8, 9, 10, 11, 12, 13, 14, 15, 16, 17, 18, 19, 20, 21, 22, 23, 24, 25, 26, 27, 28, 29, 30, 31, 32, 33, 34, 35, 36, 37, 38, 39, 40, 41, 42, 43, 44, 45, 46, 47, 48, 49, 50, 51, 52, 53, 54, 55, 56, 57, 58, 59, 60, 61, 62, 63, 64, 65, 66, 67, 68, 69, 70, 71, 72, 73, 74, 75, 76, 77, 78, 79, 80, 81, 82, 83, 84, 85, 86, 87, 88, 89, 90, 91, 92, 93, 94, 95, 96, 97, 98, 99, 100, 101, 102, 103, 104, 105, 106, 107, 108, 109, 110, 111, 112, 113, 114, 115, 116, 117, 118, 119, 120, 121, 122, 123, 124, 125, 126, 127, 128, 129, 130, 131, 132, 133, 134, 135, 136, 137, 138, 139, 140, 141, 142, 143, 144, 145, 146, 147, 148, 149, 150, 151, 152, 153, 154, 155, 156, 157, 158, 159, 160, 161, 162, 163, 164, 165, 166, 167, 168, 169, 170, 171, 172, 173, 174, 175, 176, 177, 178, 179, 180, 181, 182, 183, 184, 185, 186, 187, 188, 189, 190],
      "WindowCenter": [4796.0, 4796.0, 4800.0, 4800.0, 4798.0, 4794.0, 4794.0, 4794.0, 4824.0, 4830.0, 4826.0, 4800.0, 4788.0, 4786.0, 4794.0, 4820.0, 4828.0, 4824.0, 4794.0, 4794.0, 4792.0, 4794.0, 4798.0, 4826.0, 4828.0, 4798.0, 4798.0, 4794.0, 4794.0, 4798.0, 4802.0, 4800.0, 4800.0, 4796.0, 4794.0, 4796.0, 4798.0, 4828.0, 4804.0, 4796.0, 4792.0, 4824.0, 4826.0, 4800.0, 4800.0, 4796.0, 4796.0, 4792.0, 4796.0, 4824.0, 4826.0, 4796.0, 4788.0, 4794.0, 4796.0, 4800.0, 4826.0, 4824.0, 4800.0, 4824.0, 4826.0, 4830.0, 4826.0, 4794.0, 4790.0, 4786.0, 4790.0, 4830.0, 4848.0, 4848.0, 4848.0, 4796.0, 4786.0, 4782.0, 4782.0, 4786.0, 4796.0, 4830.0, 4856.0, 4858.0, 4828.0, 4800.0, 4792.0, 4790.0, 4794.0, 4794.0, 4796.0, 4802.0, 4828.0, 4828.0, 4830.0, 4800.0, 4822.0, 4826.0, 4826.0, 4824.0, 4792.0, 4784.0, 4784.0, 4790.0, 4802.0, 4832.0, 4830.0, 4854.0, 4832.0, 4828.0, 4800.0, 4820.0, 4796.0, 4822.0, 4824.0, 4820.0, 4818.0, 4792.0, 4794.0, 4794.0, 4802.0, 4830.0, 4834.0, 4830.0, 4828.0, 4824.0, 4824.0, 4798.0, 4796.0, 4822.0, 4820.0, 4822.0, 4822.0, 4792.0, 4786.0, 4786.0, 4790.0, 4792.0, 4802.0, 4830.0, 4856.0, 4858.0, 4854.0, 4800.0, 4794.0, 4790.0, 4788.0, 4790.0, 4800.0, 4826.0, 4826.0, 4826.0, 4828.0, 4828.0, 4800.0, 4796.0, 4796.0, 4794.0, 4798.0, 4802.0, 4804.0, 4802.0, 4828.0, 4826.0, 4804.0, 4826.0, 4804.0, 4824.0, 4796.0, 4798.0, 4798.0, 4802.0, 4828.0, 4828.0, 4804.0, 4802.0, 4802.0, 4798.0, 4800.0, 4804.0, 4832.0, 4830.0, 4798.0, 4796.0, 4794.0, 4790.0, 4802.0, 4804.0, 4826.0, 4828.0, 4828.0, 4824.0, 4802.0, 4824.0],
      "WindowWidth": [18556.0, 18562.0, 18554.0, 18554.0, 18556.0, 18560.0, 18564.0, 18560.0, 18590.0, 18586.0, 18584.0, 18558.0, 18560.0, 18562.0, 18558.0, 18588.0, 18590.0, 18586.0, 18550.0, 18560.0, 18558.0, 18558.0, 18556.0, 18586.0, 18590.0, 18554.0, 18560.0, 18558.0, 18558.0, 18560.0, 18552.0, 18556.0, 18558.0, 18558.0, 18556.0, 18558.0, 18550.0, 18584.0, 18556.0, 18560.0, 18552.0, 18586.0, 18584.0, 18552.0, 18552.0, 18558.0, 18562.0, 18558.0, 18550.0, 18588.0, 18590.0, 18556.0, 18556.0, 18554.0, 18558.0, 18556.0, 18582.0, 18586.0, 18556.0, 18588.0, 18584.0, 18590.0, 18590.0, 18554.0, 18558.0, 18560.0, 18554.0, 18592.0, 18626.0, 18626.0, 18622.0, 18558.0, 18562.0, 18566.0, 18564.0, 18560.0, 18558.0, 18584.0, 18618.0, 18618.0, 18584.0, 18556.0, 18558.0, 18558.0, 18558.0, 18558.0, 18558.0, 18554.0, 18590.0, 18584.0, 18586.0, 18556.0, 18582.0, 18590.0, 18588.0, 18588.0, 18560.0, 18562.0, 18558.0, 18558.0, 18556.0, 18588.0, 18586.0, 18620.0, 18584.0, 18588.0, 18556.0, 18588.0, 18560.0, 18586.0, 18588.0, 18592.0, 18592.0, 18556.0, 18560.0, 18556.0, 18558.0, 18590.0, 18588.0, 18582.0, 18586.0, 18586.0, 18584.0, 18558.0, 18554.0, 18588.0, 18592.0, 18590.0, 18594.0, 18558.0, 18560.0, 18558.0, 18556.0, 18556.0, 18554.0, 18584.0, 18616.0, 18622.0, 18614.0, 18550.0, 18560.0, 18562.0, 18556.0, 18556.0, 18556.0, 18584.0, 18582.0, 18582.0, 18586.0, 18588.0, 18554.0, 18556.0, 18554.0, 18556.0, 18560.0, 18558.0, 18554.0, 18556.0, 18586.0, 18580.0, 18554.0, 18590.0, 18556.0, 18586.0, 18552.0, 18558.0, 18558.0, 18552.0, 18588.0, 18588.0, 18560.0, 18554.0, 18552.0, 18552.0, 18554.0, 18552.0, 18592.0, 18588.0, 18558.0, 18556.0, 18556.0, 18550.0, 18556.0, 18556.0, 18588.0, 18586.0, 18580.0, 18590.0, 18558.0, 18586.0]
    },
    "slices": {}
  }
}