{
  "AcquisitionMatrixPE": 104,
  "AcquisitionNumber": 1,
  "AcquisitionTime": "17:48:25.660000",
  "BandwidthPerPixelPhaseEncode": 17.17,
  "BaseResolution": 104,
  "BodyPartExamined": "BRAIN",
  "CoilString": "HC1-7;NC1_2",
  "ConsistencyInfo": "N4_VE11C_LATEST_20160120",
  "ConversionSoftware": "dcm2niix",
  "ConversionSoftwareVersion": "v1.0.20190902",
  "DerivedVendorReportedEchoSpacing": 0.000560011,
  "DeviceSerialNumber": "167006",
  "DwellTime": 2.1e-06,
  "EchoTime": 0.037,
  "EchoTrainLength": 104,
  "EffectiveEchoSpacing": 0.000560011,
  "FlipAngle": 52,
  "ImageComments": "Unaliased_MB4_PE3_LB",
  "ImageOrientationPatientDICOM": [0.998048, 0.0484439, 0.0394101, -0.0346782, 0.954748, -0.295387],
  "ImageType": [
    "ORIGINAL",
    "PRIMARY",
    "P",
    "MB",
    "ND",
    "MOSAIC"
],
  "ImagingFrequency": 123.259,
  "InPlanePhaseEncodingDirectionDICOM": "COL",
  "InstitutionAddress": "Chemin_Queen-Mary_4565_Montreal_District_CA_H3W_1W5",
  "InstitutionName": "IUGM",
  "InstitutionalDepartmentName": "Department",
  "MRAcquisitionType": "2D",
  "MagneticFieldStrength": 3,
  "Manufacturer": "Siemens",
  "ManufacturersModelName": "Prisma_fit",
  "Modality": "MR",
  "MultibandAccelerationFactor": 4,
  "PartialFourier": 1,
  "PatientPosition": "HFS",
  "PercentPhaseFOV": 100,
  "PhaseEncodingDirection": "j",
  "PhaseEncodingSteps": 104,
  "PhaseResolution": 1,
  "PixelBandwidth": 2290,
  "ProcedureStepDescription": "memory_things",
  "ProtocolName": "func_task-things_run-4",
  "PulseSequenceDetails": "%CustomerSeq%_cmrr_mbep2d_bold",
  "ReceiveCoilActiveElements": "HC1-7;NC1,2",
  "ReceiveCoilName": "HeadNeck_64",
  "ReconMatrixPE": 104,
  "RepetitionTime": 1.49,
  "SAR": 0.0360388,
  "ScanOptions": "FS",
  "ScanningSequence": "EP",
  "SequenceName": "epfid2d1_104",
  "SequenceVariant": "SK_SS",
  "SeriesDescription": "func_task-things_run-4",
  "SeriesNumber": 20,
  "ShimSetting": [638, -7180, -8759, 686, 77, 56, -14, -7],
  "SliceThickness": 2,
  "SliceTiming": [0, 0.785, 0.1, 0.8825, 0.1975, 0.98, 0.295, 1.08, 0.3925, 1.1775, 0.49, 1.275, 0.59, 1.3725, 0.6875, 0, 0.785, 0.1, 0.8825, 0.1975, 0.98, 0.295, 1.08, 0.3925, 1.1775, 0.49, 1.275, 0.59, 1.3725, 0.6875, 0, 0.785, 0.1, 0.8825, 0.1975, 0.98, 0.295, 1.08, 0.3925, 1.1775, 0.49, 1.275, 0.59, 1.3725, 0.6875, 0, 0.785, 0.1, 0.8825, 0.1975, 0.98, 0.295, 1.08, 0.3925, 1.1775, 0.49, 1.275, 0.59, 1.3725, 0.6875],
  "SoftwareVersions": "syngo_MR_E11",
  "SpacingBetweenSlices": 2,
  "StationName": "MRC35049",
  "TaskName": "things",
  "TotalReadoutTime": 0.0576811,
  "TxRefAmp": 244.848,
  "WipMemBlock": "01c7194e-9901-4829-b785-d896b6de00a5||Sequence: R016 ve11c/master r/e634e98; Dec 19 2017 11:00:25 by eja",
  "dcmmeta_affine": [
    [-1.9960962533950806, -0.06935632228851318, 0.10387293994426727, 108.1981430053711],
    [-0.09688783437013626, 1.9094959497451782, -0.5868883728981018, -58.43621063232422],
    [0.07882026582956314, 0.5907748341560364, 1.9091287851333618, -47.09035873413086],
    [0.0, 0.0, 0.0, 1.0]
],
  "dcmmeta_reorient_transform": [
    [0.0, -1.0, 0.0, 103.0],
    [1.0, 0.0, 0.0, 0.0],
    [0.0, 0.0, 1.0, 0.0],
    [0.0, 0.0, 0.0, 1.0]
],
  "dcmmeta_shape": [104, 104, 60, 190],
  "dcmmeta_slice_dim": 2,
  "dcmmeta_version": 0.6,
  "global": {
    "const": {
      "AcquisitionMatrix": [104, 0, 0, 104],
      "AngioFlag": "N",
      "BitsAllocated": 16,
      "BitsStored": 16,
      "BodyPartExamined": "BRAIN",
      "Columns": 832,
      "EchoNumbers": 1,
      "EchoTime": 37.0,
      "EchoTrainLength": 104,
      "FlipAngle": 52.0,
      "HighBit": 15,
      "ImageOrientationPatient": [0.99804810924097, 0.04844391575707, 0.03941013406027, -0.0346781609909, 0.95474797761674, -0.2953874140633],
      "ImagePositionPatient": [-802.38776454153, -868.56557121108, 200.11090671597],
      "ImageType": [
        "ORIGINAL",
        "PRIMARY",
        "P",
        "MB",
        "ND",
        "MOSAIC"
],
      "ImagedNucleus": "1H",
      "ImagingFrequency": 123.258903,
      "InPlanePhaseEncodingDirection": "COL",
      "LargestImagePixelValue": 4095,
      "MRAcquisitionType": "2D",
      "MagneticFieldStrength": 3.0,
      "Manufacturer": "SIEMENS",
      "ManufacturerModelName": "Prisma_fit",
      "Modality": "MR",
      "NumberOfAverages": 1.0,
      "NumberOfPhaseEncodingSteps": 104,
      "PercentPhaseFieldOfView": 100.0,
      "PercentSampling": 100.0,
      "PerformedProcedureStepStartTime": "171051.305000",
      "PhotometricInterpretation": "MONOCHROME2",
      "PixelBandwidth": 2290.0,
      "PixelRepresentation": 0,
      "PixelSpacing": [2.0, 2.0],
      "ProtocolName": "func_task-things_run-4",
      "RepetitionTime": 1490.0,
      "RescaleIntercept": -4096.0,
      "RescaleSlope": 2.0,
      "RescaleType": "US",
      "Rows": 832,
      "SAR": 0.03603882266943,
      "SamplesPerPixel": 1,
      "ScanOptions": "FS",
      "ScanningSequence": "EP",
      "SequenceName": "epfid2d1_104",
      "SequenceVariant": [
        "SK",
        "SS"
],
      "SeriesDescription": "func_task-things_run-4",
      "SeriesNumber": 20,
      "SeriesTime": "174954.123000",
      "SliceLocation": -22.183584414391,
      "SliceThickness": 2.0,
      "SmallestImagePixelValue": 0,
      "SoftwareVersions": "syngo MR E11",
      "SpacingBetweenSlices": 2.0000000309419,
      "SpecificCharacterSet": "ISO_IR 100",
      "StudyID": "1",
      "StudyTime": "171051.239000",
      "TransmitCoilName": "Body",
      "VariableFlipAngleFlag": "N",
      "WindowCenterWidthExplanation": "Algo1",
      "dBdt": 0.0},
    "slices": {}
  },
  "time": {
    "samples": {
      "AcquisitionNumber": [1, 2, 3, 4, 5, 6, 7, 8, 9, 10, 11, 12, 13, 14, 15, 16, 17, 18, 19, 20, 21, 22, 23, 24, 25, 26, 27, 28, 29, 30, 31, 32, 33, 34, 35, 36, 37, 38, 39, 40, 41, 42, 43, 44, 45, 46, 47, 48, 49, 50, 51, 52, 53, 54, 55, 56, 57, 58, 59, 60, 61, 62, 63, 64, 65, 66, 67, 68, 69, 70, 71, 72, 73, 74, 75, 76, 77, 78, 79, 80, 81, 82, 83, 84, 85, 86, 87, 88, 89, 90, 91, 92, 93, 94, 95, 96, 97, 98, 99, 100, 101, 102, 103, 104, 105, 106, 107, 108, 109, 110, 111, 112, 113, 114, 115, 116, 117, 118, 119, 120, 121, 122, 123, 124, 125, 126, 127, 128, 129, 130, 131, 132, 133, 134, 135, 136, 137, 138, 139, 140, 141, 142, 143, 144, 145, 146, 147, 148, 149, 150, 151, 152, 153, 154, 155, 156, 157, 158, 159, 160, 161, 162, 163, 164, 165, 166, 167, 168, 169, 170, 171, 172, 173, 174, 175, 176, 177, 178, 179, 180, 181, 182, 183, 184, 185, 186, 187, 188, 189, 190],
      "AcquisitionTime": ["174825.660000", "174827.150000", "174828.640000", "174830.130000", "174831.620000", "174833.110000", "174834.600000", "174836.090000", "174837.580000", "174839.070000", "174840.560000", "174842.050000", "174843.540000", "174845.030000", "174846.520000", "174848.010000", "174849.500000", "174850.990000", "174852.480000", "174853.970000", "174855.460000", "174856.950000", "174858.440000", "174859.930000", "174901.420000", "174902.910000", "174904.400000", "174905.890000", "174907.380000", "174908.870000", "174910.360000", "174911.850000", "174913.340000", "174914.830000", "174916.320000", "174917.810000", "174919.300000", "174920.790000", "174922.280000", "174923.770000", "174925.260000", "174926.750000", "174928.240000", "174929.730000", "174931.220000", "174932.710000", "174934.200000", "174935.690000", "174937.180000", "174938.670000", "174940.160000", "174941.650000", "174943.140000", "174944.630000", "174946.120000", "174947.610000", "174949.100000", "174950.590000", "174952.080000", "174953.570000", "174955.060000", "174956.550000", "174958.040000", "174959.530000", "175001.020000", "175002.510000", "175004.000000", "175005.490000", "175006.980000", "175008.470000", "175009.960000", "175011.450000", "175012.940000", "175014.430000", "175015.920000", "175017.410000", "175018.900000", "175020.390000", "175021.880000", "175023.370000", "175024.860000", "175026.350000", "175027.840000", "175029.330000", "175030.820000", "175032.310000", "175033.800000", "175035.290000", "175036.780000", "175038.270000", "175039.760000", "175041.250000", "175042.740000", "175044.230000", "175045.720000", "175047.210000", "175048.700000", "175050.190000", "175051.680000", "175053.170000", "175054.660000", "175056.150000", "175057.640000", "175059.130000", "175100.620000", "175102.110000", "175103.600000", "175105.090000", "175106.580000", "175108.070000", "175109.560000", "175111.050000", "175112.540000", "175114.030000", "175115.520000", "175117.010000", "175118.500000", "175119.990000", "175121.480000", "175122.970000", "175124.460000", "175125.950000", "175127.440000", "175128.930000", "175130.420000", "175131.910000", "175133.400000", "175134.890000", "175136.380000", "175137.870000", "175139.360000", "175140.850000", "175142.340000", "175143.830000", "175145.320000", "175146.810000", "175148.300000", "175149.790000", "175151.280000", "175152.770000", "175154.260000", "175155.750000", "175157.240000", "175158.730000", "175200.220000", "175201.710000", "175203.200000", "175204.690000", "175206.180000", "175207.670000", "175209.160000", "175210.650000", "175212.140000", "175213.630000", "175215.120000", "175216.610000", "175218.100000", "175219.590000", "175221.080000", "175222.570000", "175224.060000", "175225.550000", "175227.040000", "175228.530000", "175230.020000", "175231.510000", "175233.000000", "175234.490000", "175235.980000", "175237.470000", "175238.960000", "175240.450000", "175241.940000", "175243.430000", "175244.920000", "175246.410000", "175247.900000", "175249.390000", "175250.880000", "175252.370000", "175253.860000", "175255.350000", "175256.840000", "175258.330000", "175259.820000", "175301.310000", "175302.800000", "175304.290000", "175305.780000", "175307.270000"],
      "ContentTime": ["174954.125000", "174954.128000", "174954.131000", "174954.133000", "174954.136000", "174954.145000", "174954.147000", "174954.151000", "174954.153000", "174954.156000", "174954.158000", "174954.161000", "174954.163000", "174954.166000", "174954.168000", "174954.171000", "174954.173000", "174954.180000", "174954.183000", "174954.185000", "174954.188000", "174954.190000", "174954.193000", "174954.196000", "174954.198000", "174954.201000", "174954.203000", "174954.206000", "174954.208000", "174954.211000", "174954.213000", "174954.216000", "174954.219000", "175014.050000", "175014.053000", "175014.056000", "175014.058000", "175014.061000", "175014.063000", "175014.066000", "175014.068000", "175014.071000", "175014.073000", "175014.076000", "175014.078000", "175014.081000", "175014.084000", "175014.086000", "175014.089000", "175014.091000", "175014.094000", "175014.096000", "175014.099000", "175034.031000", "175034.034000", "175034.036000", "175034.039000", "175034.041000", "175034.044000", "175034.046000", "175034.049000", "175034.052000", "175034.054000", "175034.057000", "175034.059000", "175034.062000", "175034.064000", "175034.067000", "175034.069000", "175034.072000", "175034.074000", "175034.077000", "175034.079000", "175034.082000", "175054.024000", "175054.027000", "175054.030000", "175054.032000", "175054.035000", "175054.037000", "175054.040000", "175054.042000", "175054.045000", "175054.047000", "175054.050000", "175054.052000", "175054.055000", "175054.058000", "175054.060000", "175054.063000", "175054.065000", "175054.068000", "175054.070000", "175054.073000", "175114.011000", "175114.014000", "175114.016000", "175114.019000", "175114.022000", "175114.024000", "175114.027000", "175114.029000", "175114.032000", "175114.034000", "175114.037000", "175114.039000", "175114.042000", "175114.044000", "175114.047000", "175114.049000", "175114.052000", "175114.054000", "175154.070000", "175154.073000", "175154.075000", "175154.078000", "175154.080000", "175154.083000", "175154.085000", "175154.088000", "175154.091000", "175154.093000", "175154.096000", "175154.098000", "175154.101000", "175154.103000", "175154.106000", "175154.108000", "175154.111000", "175154.114000", "175154.116000", "175154.119000", "175154.121000", "175154.124000", "175154.126000", "175154.129000", "175154.131000", "175154.134000", "175154.136000", "175234.060000", "175234.063000", "175234.066000", "175234.068000", "175234.071000", "175234.073000", "175234.076000", "175234.079000", "175234.081000", "175234.084000", "175234.086000", "175234.089000", "175234.091000", "175234.094000", "175234.096000", "175234.099000", "175234.101000", "175234.104000", "175234.107000", "175234.112000", "175234.115000", "175234.117000", "175234.120000", "175234.122000", "175234.125000", "175234.127000", "175234.130000", "175309.693000", "175309.696000", "175309.699000", "175309.701000", "175309.704000", "175309.707000", "175309.709000", "175309.712000", "175309.715000", "175309.717000", "175309.720000", "175309.722000", "175309.725000", "175309.728000", "175309.730000", "175309.733000", "175309.735000", "175309.738000", "175309.741000", "175309.743000", "175309.746000", "175309.748000", "175309.751000", "175309.754000"],
      "InstanceCreationTime": ["174954.125000", "174954.128000", "174954.131000", "174954.133000", "174954.136000", "174954.145000", "174954.147000", "174954.151000", "174954.153000", "174954.156000", "174954.158000", "174954.161000", "174954.163000", "174954.166000", "174954.168000", "174954.171000", "174954.173000", "174954.180000", "174954.183000", "174954.185000", "174954.188000", "174954.190000", "174954.193000", "174954.196000", "174954.198000", "174954.201000", "174954.203000", "174954.206000", "174954.208000", "174954.211000", "174954.213000", "174954.216000", "174954.219000", "175014.050000", "175014.053000", "175014.056000", "175014.058000", "175014.061000", "175014.063000", "175014.066000", "175014.068000", "175014.071000", "175014.073000", "175014.076000", "175014.078000", "175014.081000", "175014.084000", "175014.086000", "175014.089000", "175014.091000", "175014.094000", "175014.096000", "175014.099000", "175034.031000", "175034.034000", "175034.036000", "175034.039000", "175034.041000", "175034.044000", "175034.046000", "175034.049000", "175034.052000", "175034.054000", "175034.057000", "175034.059000", "175034.062000", "175034.064000", "175034.067000", "175034.069000", "175034.072000", "175034.074000", "175034.077000", "175034.079000", "175034.082000", "175054.024000", "175054.027000", "175054.030000", "175054.032000", "175054.035000", "175054.037000", "175054.040000", "175054.042000", "175054.045000", "175054.047000", "175054.050000", "175054.052000", "175054.055000", "175054.058000", "175054.060000", "175054.063000", "175054.065000", "175054.068000", "175054.070000", "175054.073000", "175114.011000", "175114.014000", "175114.016000", "175114.019000", "175114.022000", "175114.024000", "175114.027000", "175114.029000", "175114.032000", "175114.034000", "175114.037000", "175114.039000", "175114.042000", "175114.044000", "175114.047000", "175114.049000", "175114.052000", "175114.054000", "175154.070000", "175154.073000", "175154.075000", "175154.078000", "175154.080000", "175154.083000", "175154.085000", "175154.088000", "175154.091000", "175154.093000", "175154.096000", "175154.098000", "175154.101000", "175154.103000", "175154.106000", "175154.108000", "175154.111000", "175154.114000", "175154.116000", "175154.119000", "175154.121000", "175154.124000", "175154.126000", "175154.129000", "175154.131000", "175154.134000", "175154.136000", "175234.060000", "175234.063000", "175234.066000", "175234.068000", "175234.071000", "175234.073000", "175234.076000", "175234.079000", "175234.081000", "175234.084000", "175234.086000", "175234.089000", "175234.091000", "175234.094000", "175234.096000", "175234.099000", "175234.101000", "175234.104000", "175234.107000", "175234.112000", "175234.115000", "175234.117000", "175234.120000", "175234.122000", "175234.125000", "175234.127000", "175234.130000", "175309.693000", "175309.696000", "175309.699000", "175309.701000", "175309.704000", "175309.707000", "175309.709000", "175309.712000", "175309.715000", "175309.717000", "175309.720000", "175309.722000", "175309.725000", "175309.728000", "175309.730000", "175309.733000", "175309.735000", "175309.738000", "175309.741000", "175309.743000", "175309.746000", "175309.748000", "175309.751000", "175309.754000"],
      "InstanceNumber": [1, 2, 3, 4, 5, 6, 7, 8, 9, 10, 11, 12, 13, 14, 15, 16, 17, 18, 19, 20, 21, 22, 23, 24, 25, 26, 27, 28, 29, 30, 31, 32, 33, 34, 35, 36, 37, 38, 39, 40, 41, 42, 43, 44, 45, 46, 47, 48, 49, 50, 51, 52, 53, 54, 55, 56, 57, 58, 59, 60, 61, 62, 63, 64, 65, 66, 67, 68, 69, 70, 71, 72, 73, 74, 75, 76, 77, 78, 79, 80, 81, 82, 83, 84, 85, 86, 87, 88, 89, 90, 91, 92, 93, 94, 95, 96, 97, 98, 99, 100, 101, 102, 103, 104, 105, 106, 107, 108, 109, 110, 111, 112, 113, 114, 115, 116, 117, 118, 119, 120, 121, 122, 123, 124, 125, 126, 127, 128, 129, 130, 131, 132, 133, 134, 135, 136, 137, 138, 139, 140, 141, 142, 143, 144, 145, 146, 147, 148, 149, 150, 151, 152, 153, 154, 155, 156, 157, 158, 159, 160, 161, 162, 163, 164, 165, 166, 167, 168, 169, 170, 171, 172, 173, 174, 175, 176, 177, 178, 179, 180, 181, 182, 183, 184, 185, 186, 187, 188, 189, 190],
      "WindowCenter": [4804.0, 4802.0, 4826.0, 4828.0, 4830.0, 4828.0, 4798.0, 4800.0, 4802.0, 4802.0, 4802.0, 4826.0, 4834.0, 4834.0, 4830.0, 4826.0, 4800.0, 4804.0, 4828.0, 4828.0, 4824.0, 4826.0, 4826.0, 4834.0, 4856.0, 4830.0, 4802.0, 4800.0, 4802.0, 4800.0, 4802.0, 4804.0, 4830.0, 4834.0, 4828.0, 4828.0, 4802.0, 4826.0, 4828.0, 4802.0, 4826.0, 4802.0, 4826.0, 4826.0, 4830.0, 4830.0, 4826.0, 4826.0, 4826.0, 4828.0, 4830.0, 4802.0, 4802.0, 4826.0, 4824.0, 4832.0, 4828.0, 4828.0, 4804.0, 4804.0, 4830.0, 4830.0, 4828.0, 4828.0, 4826.0, 4828.0, 4832.0, 4828.0, 4804.0, 4824.0, 4830.0, 4830.0, 4828.0, 4826.0, 4830.0, 4828.0, 4826.0, 4830.0, 4832.0, 4826.0, 4806.0, 4826.0, 4832.0, 4830.0, 4832.0, 4828.0, 4830.0, 4834.0, 4828.0, 4836.0, 4858.0, 4858.0, 4852.0, 4824.0, 4796.0, 4792.0, 4792.0, 4826.0, 4832.0, 4856.0, 4834.0, 4858.0, 4856.0, 4832.0, 4820.0, 4798.0, 4798.0, 4826.0, 4854.0, 4832.0, 4830.0, 4798.0, 4830.0, 4824.0, 4834.0, 4832.0, 4832.0, 4832.0, 4828.0, 4832.0, 4830.0, 4822.0, 4828.0, 4826.0, 4830.0, 4832.0, 4832.0, 4830.0, 4830.0, 4830.0, 4830.0, 4826.0, 4828.0, 4828.0, 4830.0, 4832.0, 4830.0, 4858.0, 4882.0, 4854.0, 4828.0, 4796.0, 4794.0, 4796.0, 4802.0, 4828.0, 4854.0, 4856.0, 4856.0, 4832.0, 4824.0, 4830.0, 4830.0, 4800.0, 4824.0, 4828.0, 4830.0, 4830.0, 4830.0, 4826.0, 4828.0, 4830.0, 4830.0, 4832.0, 4830.0, 4858.0, 4860.0, 4854.0, 4828.0, 4796.0, 4792.0, 4796.0, 4826.0, 4830.0, 4856.0, 4880.0, 4882.0, 4834.0, 4800.0, 4792.0, 4792.0, 4796.0, 4802.0, 4850.0, 4858.0, 4856.0, 4856.0, 4834.0, 4830.0, 4828.0],
      "WindowWidth": [18554.0, 18552.0, 18580.0, 18582.0, 18584.0, 18586.0, 18548.0, 18556.0, 18556.0, 18552.0, 18550.0, 18578.0, 18586.0, 18588.0, 18580.0, 18582.0, 18556.0, 18558.0, 18588.0, 18582.0, 18580.0, 18584.0, 18582.0, 18584.0, 18614.0, 18582.0, 18550.0, 18552.0, 18552.0, 18550.0, 18550.0, 18550.0, 18578.0, 18588.0, 18576.0, 18576.0, 18550.0, 18584.0, 18582.0, 18550.0, 18584.0, 18556.0, 18588.0, 18586.0, 18588.0, 18582.0, 18580.0, 18582.0, 18584.0, 18582.0, 18584.0, 18554.0, 18550.0, 18582.0, 18580.0, 18588.0, 18584.0, 18580.0, 18554.0, 18550.0, 18584.0, 18582.0, 18584.0, 18580.0, 18584.0, 18584.0, 18584.0, 18580.0, 18552.0, 18580.0, 18582.0, 18582.0, 18580.0, 18582.0, 18588.0, 18586.0, 18582.0, 18584.0, 18590.0, 18578.0, 18554.0, 18582.0, 18590.0, 18584.0, 18584.0, 18584.0, 18584.0, 18588.0, 18584.0, 18588.0, 18622.0, 18628.0, 18610.0, 18578.0, 18554.0, 18554.0, 18548.0, 18586.0, 18586.0, 18616.0, 18584.0, 18616.0, 18620.0, 18590.0, 18578.0, 18554.0, 18554.0, 18582.0, 18618.0, 18584.0, 18592.0, 18552.0, 18592.0, 18580.0, 18584.0, 18580.0, 18586.0, 18584.0, 18578.0, 18584.0, 18584.0, 18578.0, 18584.0, 18586.0, 18584.0, 18584.0, 18584.0, 18584.0, 18588.0, 18588.0, 18584.0, 18588.0, 18582.0, 18582.0, 18588.0, 18588.0, 18584.0, 18622.0, 18664.0, 18620.0, 18588.0, 18552.0, 18556.0, 18562.0, 18562.0, 18580.0, 18612.0, 18618.0, 18610.0, 18580.0, 18580.0, 18582.0, 18588.0, 18550.0, 18584.0, 18586.0, 18584.0, 18580.0, 18582.0, 18584.0, 18580.0, 18586.0, 18586.0, 18584.0, 18584.0, 18624.0, 18630.0, 18618.0, 18580.0, 18554.0, 18554.0, 18554.0, 18588.0, 18584.0, 18620.0, 18668.0, 18666.0, 18584.0, 18552.0, 18554.0, 18554.0, 18556.0, 18552.0, 18618.0, 18616.0, 18612.0, 18616.0, 18584.0, 18588.0, 18582.0]
    },
    "slices": {}
  }
}