{
  "AcquisitionMatrixPE": 104,
  "AcquisitionNumber": 1,
  "AcquisitionTime": "17:36:22.145000",
  "BandwidthPerPixelPhaseEncode": 17.17,
  "BaseResolution": 104,
  "BodyPartExamined": "BRAIN",
  "CoilString": "HC1-7;NC1_2",
  "ConsistencyInfo": "N4_VE11C_LATEST_20160120",
  "ConversionSoftware": "dcm2niix",
  "ConversionSoftwareVersion": "v1.0.20190902",
  "DerivedVendorReportedEchoSpacing": 0.000560011,
  "DeviceSerialNumber": "167006",
  "DwellTime": 2.1e-06,
  "EchoTime": 0.037,
  "EchoTrainLength": 104,
  "EffectiveEchoSpacing": 0.000560011,
  "FlipAngle": 52,
  "ImageComments": "Unaliased_MB4_PE3_LB",
  "ImageOrientationPatientDICOM": [0.998048, 0.0484439, 0.0394101, -0.0346782, 0.954748, -0.295387],
  "ImageType": [
    "ORIGINAL",
    "PRIMARY",
    "P",
    "MB",
    "ND",
    "MOSAIC"
],
  "ImagingFrequency": 123.259,
  "InPlanePhaseEncodingDirectionDICOM": "COL",
  "InstitutionAddress": "Chemin_Queen-Mary_4565_Montreal_District_CA_H3W_1W5",
  "InstitutionName": "IUGM",
  "InstitutionalDepartmentName": "Department",
  "MRAcquisitionType": "2D",
  "MagneticFieldStrength": 3,
  "Manufacturer": "Siemens",
  "ManufacturersModelName": "Prisma_fit",
  "Modality": "MR",
  "MultibandAccelerationFactor": 4,
  "PartialFourier": 1,
  "PatientPosition": "HFS",
  "PercentPhaseFOV": 100,
  "PhaseEncodingDirection": "j",
  "PhaseEncodingSteps": 104,
  "PhaseResolution": 1,
  "PixelBandwidth": 2290,
  "ProcedureStepDescription": "memory_things",
  "ProtocolName": "func_task-things_run-2",
  "PulseSequenceDetails": "%CustomerSeq%_cmrr_mbep2d_bold",
  "ReceiveCoilActiveElements": "HC1-7;NC1,2",
  "ReceiveCoilName": "HeadNeck_64",
  "ReconMatrixPE": 104,
  "RepetitionTime": 1.49,
  "SAR": 0.0360388,
  "ScanOptions": "FS",
  "ScanningSequence": "EP",
  "SequenceName": "epfid2d1_104",
  "SequenceVariant": "SK_SS",
  "SeriesDescription": "func_task-things_run-2",
  "SeriesNumber": 14,
  "ShimSetting": [638, -7180, -8759, 686, 77, 56, -14, -7],
  "SliceThickness": 2,
  "SliceTiming": [0, 0.785, 0.0975, 0.8825, 0.1975, 0.98, 0.295, 1.0775, 0.3925, 1.1775, 0.49, 1.275, 0.5875, 1.3725, 0.6875, 0, 0.785, 0.0975, 0.8825, 0.1975, 0.98, 0.295, 1.0775, 0.3925, 1.1775, 0.49, 1.275, 0.5875, 1.3725, 0.6875, 0, 0.785, 0.0975, 0.8825, 0.1975, 0.98, 0.295, 1.0775, 0.3925, 1.1775, 0.49, 1.275, 0.5875, 1.3725, 0.6875, 0, 0.785, 0.0975, 0.8825, 0.1975, 0.98, 0.295, 1.0775, 0.3925, 1.1775, 0.49, 1.275, 0.5875, 1.3725, 0.6875],
  "SoftwareVersions": "syngo_MR_E11",
  "SpacingBetweenSlices": 2,
  "StationName": "MRC35049",
  "TaskName": "things",
  "TotalReadoutTime": 0.0576811,
  "TxRefAmp": 244.848,
  "WipMemBlock": "5083f06b-14bd-4cad-bdc7-f61fd7457bf1||Sequence: R016 ve11c/master r/e634e98; Dec 19 2017 11:00:25 by eja",
  "dcmmeta_affine": [
    [-1.9960962533950806, -0.06935632228851318, 0.10387293994426727, 108.1981430053711],
    [-0.09688783437013626, 1.9094959497451782, -0.5868883728981018, -58.43621063232422],
    [0.07882026582956314, 0.5907748341560364, 1.9091287851333618, -47.09035873413086],
    [0.0, 0.0, 0.0, 1.0]
],
  "dcmmeta_reorient_transform": [
    [0.0, -1.0, 0.0, 103.0],
    [1.0, 0.0, 0.0, 0.0],
    [0.0, 0.0, 1.0, 0.0],
    [0.0, 0.0, 0.0, 1.0]
],
  "dcmmeta_shape": [104, 104, 60, 190],
  "dcmmeta_slice_dim": 2,
  "dcmmeta_version": 0.6,
  "global": {
    "const": {
      "AcquisitionMatrix": [104, 0, 0, 104],
      "AngioFlag": "N",
      "BitsAllocated": 16,
      "BitsStored": 16,
      "BodyPartExamined": "BRAIN",
      "Columns": 832,
      "EchoNumbers": 1,
      "EchoTime": 37.0,
      "EchoTrainLength": 104,
      "FlipAngle": 52.0,
      "HighBit": 15,
      "ImageOrientationPatient": [0.99804810924097, 0.04844391575707, 0.03941013406027, -0.0346781609909, 0.95474797761674, -0.2953874140633],
      "ImagePositionPatient": [-802.38776454153, -868.56557121108, 200.11090671597],
      "ImageType": [
        "ORIGINAL",
        "PRIMARY",
        "P",
        "MB",
        "ND",
        "MOSAIC"
],
      "ImagedNucleus": "1H",
      "ImagingFrequency": 123.258891,
      "InPlanePhaseEncodingDirection": "COL",
      "LargestImagePixelValue": 4095,
      "MRAcquisitionType": "2D",
      "MagneticFieldStrength": 3.0,
      "Manufacturer": "SIEMENS",
      "ManufacturerModelName": "Prisma_fit",
      "Modality": "MR",
      "NumberOfAverages": 1.0,
      "NumberOfPhaseEncodingSteps": 104,
      "PercentPhaseFieldOfView": 100.0,
      "PercentSampling": 100.0,
      "PerformedProcedureStepStartTime": "171051.305000",
      "PhotometricInterpretation": "MONOCHROME2",
      "PixelBandwidth": 2290.0,
      "PixelRepresentation": 0,
      "PixelSpacing": [2.0, 2.0],
      "ProtocolName": "func_task-things_run-2",
      "RepetitionTime": 1490.0,
      "RescaleIntercept": -4096.0,
      "RescaleSlope": 2.0,
      "RescaleType": "US",
      "Rows": 832,
      "SAR": 0.03603882266943,
      "SamplesPerPixel": 1,
      "ScanOptions": "FS",
      "ScanningSequence": "EP",
      "SequenceName": "epfid2d1_104",
      "SequenceVariant": [
        "SK",
        "SS"
],
      "SeriesDescription": "func_task-things_run-2",
      "SeriesNumber": 14,
      "SeriesTime": "173737.826000",
      "SliceLocation": -22.183584414391,
      "SliceThickness": 2.0,
      "SmallestImagePixelValue": 0,
      "SoftwareVersions": "syngo MR E11",
      "SpacingBetweenSlices": 2.0000000309419,
      "SpecificCharacterSet": "ISO_IR 100",
      "StudyID": "1",
      "StudyTime": "171051.239000",
      "TransmitCoilName": "Body",
      "VariableFlipAngleFlag": "N",
      "WindowCenterWidthExplanation": "Algo1",
      "dBdt": 0.0},
    "slices": {}
  },
  "time": {
    "samples": {
      "AcquisitionNumber": [1, 2, 3, 4, 5, 6, 7, 8, 9, 10, 11, 12, 13, 14, 15, 16, 17, 18, 19, 20, 21, 22, 23, 24, 25, 26, 27, 28, 29, 30, 31, 32, 33, 34, 35, 36, 37, 38, 39, 40, 41, 42, 43, 44, 45, 46, 47, 48, 49, 50, 51, 52, 53, 54, 55, 56, 57, 58, 59, 60, 61, 62, 63, 64, 65, 66, 67, 68, 69, 70, 71, 72, 73, 74, 75, 76, 77, 78, 79, 80, 81, 82, 83, 84, 85, 86, 87, 88, 89, 90, 91, 92, 93, 94, 95, 96, 97, 98, 99, 100, 101, 102, 103, 104, 105, 106, 107, 108, 109, 110, 111, 112, 113, 114, 115, 116, 117, 118, 119, 120, 121, 122, 123, 124, 125, 126, 127, 128, 129, 130, 131, 132, 133, 134, 135, 136, 137, 138, 139, 140, 141, 142, 143, 144, 145, 146, 147, 148, 149, 150, 151, 152, 153, 154, 155, 156, 157, 158, 159, 160, 161, 162, 163, 164, 165, 166, 167, 168, 169, 170, 171, 172, 173, 174, 175, 176, 177, 178, 179, 180, 181, 182, 183, 184, 185, 186, 187, 188, 189, 190],
      "AcquisitionTime": ["173622.145000", "173623.635000", "173625.125000", "173626.615000", "173628.105000", "173629.595000", "173631.085000", "173632.575000", "173634.065000", "173635.555000", "173637.045000", "173638.535000", "173640.025000", "173641.515000", "173643.005000", "173644.495000", "173645.985000", "173647.475000", "173648.965000", "173650.455000", "173651.945000", "173653.435000", "173654.925000", "173656.415000", "173657.905000", "173659.395000", "173700.885000", "173702.375000", "173703.865000", "173705.355000", "173706.845000", "173708.335000", "173709.825000", "173711.315000", "173712.805000", "173714.295000", "173715.785000", "173717.275000", "173718.765000", "173720.255000", "173721.745000", "173723.235000", "173724.725000", "173726.215000", "173727.705000", "173729.195000", "173730.685000", "173732.175000", "173733.665000", "173735.155000", "173736.645000", "173738.135000", "173739.625000", "173741.115000", "173742.605000", "173744.095000", "173745.585000", "173747.075000", "173748.565000", "173750.055000", "173751.545000", "173753.035000", "173754.525000", "173756.015000", "173757.505000", "173758.995000", "173800.485000", "173801.975000", "173803.465000", "173804.955000", "173806.445000", "173807.935000", "173809.425000", "173810.915000", "173812.405000", "173813.895000", "173815.385000", "173816.875000", "173818.365000", "173819.855000", "173821.345000", "173822.835000", "173824.325000", "173825.815000", "173827.305000", "173828.795000", "173830.285000", "173831.775000", "173833.265000", "173834.755000", "173836.245000", "173837.735000", "173839.225000", "173840.715000", "173842.205000", "173843.695000", "173845.185000", "173846.675000", "173848.165000", "173849.655000", "173851.145000", "173852.635000", "173854.125000", "173855.615000", "173857.105000", "173858.595000", "173900.085000", "173901.575000", "173903.065000", "173904.555000", "173906.045000", "173907.535000", "173909.025000", "173910.515000", "173912.005000", "173913.495000", "173914.985000", "173916.475000", "173917.965000", "173919.455000", "173920.945000", "173922.435000", "173923.925000", "173925.415000", "173926.905000", "173928.395000", "173929.885000", "173931.375000", "173932.865000", "173934.355000", "173935.845000", "173937.335000", "173938.825000", "173940.315000", "173941.805000", "173943.295000", "173944.785000", "173946.275000", "173947.765000", "173949.255000", "173950.745000", "173952.235000", "173953.725000", "173955.215000", "173956.705000", "173958.195000", "173959.685000", "174001.175000", "174002.665000", "174004.155000", "174005.645000", "174007.135000", "174008.625000", "174010.115000", "174011.605000", "174013.095000", "174014.585000", "174016.075000", "174017.565000", "174019.055000", "174020.545000", "174022.035000", "174023.525000", "174025.015000", "174026.505000", "174027.995000", "174029.485000", "174030.975000", "174032.465000", "174033.955000", "174035.445000", "174036.935000", "174038.425000", "174039.915000", "174041.405000", "174042.895000", "174044.385000", "174045.875000", "174047.365000", "174048.855000", "174050.345000", "174051.835000", "174053.325000", "174054.815000", "174056.305000", "174057.795000", "174059.285000", "174100.775000", "174102.265000", "174103.755000"],
      "ContentTime": ["173737.829000", "173737.831000", "173737.834000", "173737.837000", "173737.839000", "173737.842000", "173737.844000", "173737.847000", "173737.849000", "173737.852000", "173737.854000", "173737.857000", "173737.859000", "173737.862000", "173737.865000", "173737.867000", "173737.870000", "173737.872000", "173737.875000", "173737.877000", "173737.880000", "173757.740000", "173757.743000", "173757.745000", "173757.748000", "173757.750000", "173757.753000", "173757.755000", "173757.758000", "173757.760000", "173757.763000", "173757.765000", "173757.768000", "173757.771000", "173757.773000", "173757.776000", "173757.778000", "173757.781000", "173757.783000", "173757.786000", "173757.788000", "173817.825000", "173817.828000", "173817.830000", "173817.833000", "173817.835000", "173817.838000", "173817.840000", "173817.843000", "173817.845000", "173817.848000", "173817.850000", "173817.853000", "173817.855000", "173817.858000", "173817.860000", "173817.863000", "173817.865000", "173817.868000", "173817.870000", "173817.873000", "173817.875000", "173837.762000", "173837.765000", "173837.767000", "173837.770000", "173837.772000", "173837.775000", "173837.777000", "173837.780000", "173837.782000", "173837.785000", "173837.787000", "173837.790000", "173837.792000", "173837.795000", "173837.797000", "173837.800000", "173837.802000", "173837.805000", "173837.807000", "173837.810000", "173857.732000", "173857.735000", "173857.738000", "173857.740000", "173857.743000", "173857.745000", "173857.748000", "173857.750000", "173857.753000", "173857.755000", "173857.759000", "173857.762000", "173857.765000", "173857.767000", "173857.770000", "173857.773000", "173857.776000", "173857.778000", "173857.781000", "173857.783000", "173937.792000", "173937.794000", "173937.797000", "173937.799000", "173937.802000", "173937.804000", "173937.807000", "173937.809000", "173937.812000", "173937.814000", "173937.817000", "173937.819000", "173937.822000", "173937.825000", "173937.827000", "173937.830000", "173937.832000", "173937.835000", "173937.837000", "173937.840000", "173937.842000", "173937.845000", "173937.847000", "173937.850000", "173937.852000", "173937.855000", "173937.857000", "173937.860000", "174017.776000", "174017.779000", "174017.781000", "174017.784000", "174017.786000", "174017.789000", "174017.791000", "174017.794000", "174017.796000", "174017.799000", "174017.802000", "174017.804000", "174017.807000", "174017.809000", "174017.812000", "174017.814000", "174017.817000", "174017.819000", "174017.822000", "174017.824000", "174017.827000", "174017.830000", "174017.832000", "174017.835000", "174017.837000", "174017.840000", "174017.842000", "174058.360000", "174058.363000", "174058.366000", "174058.368000", "174058.371000", "174058.373000", "174058.376000", "174058.378000", "174058.381000", "174058.383000", "174058.386000", "174058.388000", "174058.391000", "174058.393000", "174058.396000", "174058.398000", "174058.401000", "174058.403000", "174058.406000", "174058.408000", "174058.411000", "174058.413000", "174058.416000", "174058.419000", "174058.421000", "174058.424000", "174058.426000", "174106.252000", "174106.255000", "174106.258000", "174106.260000", "174106.263000", "174106.265000"],
      "InstanceCreationTime": ["173737.829000", "173737.831000", "173737.834000", "173737.837000", "173737.839000", "173737.842000", "173737.844000", "173737.847000", "173737.849000", "173737.852000", "173737.854000", "173737.857000", "173737.859000", "173737.862000", "173737.865000", "173737.867000", "173737.870000", "173737.872000", "173737.875000", "173737.877000", "173737.880000", "173757.740000", "173757.743000", "173757.745000", "173757.748000", "173757.750000", "173757.753000", "173757.755000", "173757.758000", "173757.760000", "173757.763000", "173757.765000", "173757.768000", "173757.771000", "173757.773000", "173757.776000", "173757.778000", "173757.781000", "173757.783000", "173757.786000", "173757.788000", "173817.825000", "173817.828000", "173817.830000", "173817.833000", "173817.835000", "173817.838000", "173817.840000", "173817.843000", "173817.845000", "173817.848000", "173817.850000", "173817.853000", "173817.855000", "173817.858000", "173817.860000", "173817.863000", "173817.865000", "173817.868000", "173817.870000", "173817.873000", "173817.875000", "173837.762000", "173837.765000", "173837.767000", "173837.770000", "173837.772000", "173837.775000", "173837.777000", "173837.780000", "173837.782000", "173837.785000", "173837.787000", "173837.790000", "173837.792000", "173837.795000", "173837.797000", "173837.800000", "173837.802000", "173837.805000", "173837.807000", "173837.810000", "173857.732000", "173857.735000", "173857.738000", "173857.740000", "173857.743000", "173857.745000", "173857.748000", "173857.750000", "173857.753000", "173857.755000", "173857.759000", "173857.762000", "173857.765000", "173857.767000", "173857.770000", "173857.773000", "173857.776000", "173857.778000", "173857.781000", "173857.783000", "173937.792000", "173937.794000", "173937.797000", "173937.799000", "173937.802000", "173937.804000", "173937.807000", "173937.809000", "173937.812000", "173937.814000", "173937.817000", "173937.819000", "173937.822000", "173937.825000", "173937.827000", "173937.830000", "173937.832000", "173937.835000", "173937.837000", "173937.840000", "173937.842000", "173937.845000", "173937.847000", "173937.850000", "173937.852000", "173937.855000", "173937.857000", "173937.860000", "174017.776000", "174017.779000", "174017.781000", "174017.784000", "174017.786000", "174017.789000", "174017.791000", "174017.794000", "174017.796000", "174017.799000", "174017.802000", "174017.804000", "174017.807000", "174017.809000", "174017.812000", "174017.814000", "174017.817000", "174017.819000", "174017.822000", "174017.824000", "174017.827000", "174017.830000", "174017.832000", "174017.835000", "174017.837000", "174017.840000", "174017.842000", "174058.360000", "174058.363000", "174058.366000", "174058.368000", "174058.371000", "174058.373000", "174058.376000", "174058.378000", "174058.381000", "174058.383000", "174058.386000", "174058.388000", "174058.391000", "174058.393000", "174058.396000", "174058.398000", "174058.401000", "174058.403000", "174058.406000", "174058.408000", "174058.411000", "174058.413000", "174058.416000", "174058.419000", "174058.421000", "174058.424000", "174058.426000", "174106.252000", "174106.255000", "174106.258000", "174106.260000", "174106.263000", "174106.265000"],
      "InstanceNumber": [1, 2, 3, 4, 5, 6, 7, 8, 9, 10, 11, 12, 13, 14, 15, 16, 17, 18, 19, 20, 21, 22, 23, 24, 25, 26, 27, 28, 29, 30, 31, 32, 33, 34, 35, 36, 37, 38, 39, 40, 41, 42, 43, 44, 45, 46, 47, 48, 49, 50, 51, 52, 53, 54, 55, 56, 57, 58, 59, 60, 61, 62, 63, 64, 65, 66, 67, 68, 69, 70, 71, 72, 73, 74, 75, 76, 77, 78, 79, 80, 81, 82, 83, 84, 85, 86, 87, 88, 89, 90, 91, 92, 93, 94, 95, 96, 97, 98, 99, 100, 101, 102, 103, 104, 105, 106, 107, 108, 109, 110, 111, 112, 113, 114, 115, 116, 117, 118, 119, 120, 121, 122, 123, 124, 125, 126, 127, 128, 129, 130, 131, 132, 133, 134, 135, 136, 137, 138, 139, 140, 141, 142, 143, 144, 145, 146, 147, 148, 149, 150, 151, 152, 153, 154, 155, 156, 157, 158, 159, 160, 161, 162, 163, 164, 165, 166, 167, 168, 169, 170, 171, 172, 173, 174, 175, 176, 177, 178, 179, 180, 181, 182, 183, 184, 185, 186, 187, 188, 189, 190],
      "WindowCenter": [4884.0, 4884.0, 4864.0, 4864.0, 4884.0, 4886.0, 4890.0, 4884.0, 4886.0, 4890.0, 4884.0, 4888.0, 4864.0, 4886.0, 4886.0, 4886.0, 4886.0, 4862.0, 4884.0, 4890.0, 4886.0, 4884.0, 4886.0, 4884.0, 4886.0, 4884.0, 4890.0, 4888.0, 4884.0, 4886.0, 4888.0, 4886.0, 4884.0, 4884.0, 4886.0, 4888.0, 4862.0, 4886.0, 4888.0, 4886.0, 4882.0, 4888.0, 4886.0, 4886.0, 4886.0, 4884.0, 4886.0, 4888.0, 4860.0, 4888.0, 4886.0, 4886.0, 4888.0, 4886.0, 4886.0, 4888.0, 4884.0, 4884.0, 4884.0, 4880.0, 4884.0, 4884.0, 4888.0, 4884.0, 4886.0, 4884.0, 4886.0, 4884.0, 4884.0, 4888.0, 4860.0, 4860.0, 4882.0, 4882.0, 4886.0, 4886.0, 4882.0, 4884.0, 4884.0, 4862.0, 4886.0, 4884.0, 4886.0, 4884.0, 4886.0, 4886.0, 4886.0, 4888.0, 4884.0, 4884.0, 4882.0, 4888.0, 4884.0, 4886.0, 4884.0, 4886.0, 4882.0, 4888.0, 4886.0, 4882.0, 4888.0, 4882.0, 4888.0, 4886.0, 4884.0, 4888.0, 4884.0, 4886.0, 4886.0, 4884.0, 4888.0, 4886.0, 4886.0, 4886.0, 4886.0, 4884.0, 4884.0, 4886.0, 4884.0, 4886.0, 4888.0, 4886.0, 4886.0, 4884.0, 4882.0, 4884.0, 4886.0, 4854.0, 4860.0, 4860.0, 4860.0, 4886.0, 4886.0, 4886.0, 4882.0, 4910.0, 4886.0, 4884.0, 4886.0, 4860.0, 4862.0, 4884.0, 4884.0, 4886.0, 4884.0, 4886.0, 4886.0, 4884.0, 4886.0, 4884.0, 4886.0, 4886.0, 4886.0, 4884.0, 4886.0, 4888.0, 4882.0, 4886.0, 4888.0, 4886.0, 4886.0, 4886.0, 4886.0, 4884.0, 4888.0, 4888.0, 4886.0, 4886.0, 4886.0, 4884.0, 4886.0, 4890.0, 4888.0, 4886.0, 4886.0, 4884.0, 4864.0, 4862.0, 4860.0, 4888.0, 4886.0, 4884.0, 4888.0, 4886.0, 4884.0, 4884.0, 4864.0, 4862.0, 4884.0, 4884.0],
      "WindowWidth": [18654.0, 18646.0, 18614.0, 18616.0, 18646.0, 18656.0, 18658.0, 18646.0, 18646.0, 18646.0, 18652.0, 18650.0, 18612.0, 18652.0, 18656.0, 18652.0, 18654.0, 18612.0, 18652.0, 18648.0, 18650.0, 18652.0, 18648.0, 18644.0, 18644.0, 18640.0, 18656.0, 18648.0, 18646.0, 18646.0, 18654.0, 18648.0, 18646.0, 18650.0, 18656.0, 18648.0, 18610.0, 18644.0, 18650.0, 18646.0, 18648.0, 18656.0, 18654.0, 18646.0, 18648.0, 18654.0, 18654.0, 18650.0, 18614.0, 18644.0, 18650.0, 18652.0, 18650.0, 18652.0, 18650.0, 18654.0, 18648.0, 18648.0, 18650.0, 18646.0, 18656.0, 18650.0, 18650.0, 18648.0, 18660.0, 18652.0, 18648.0, 18648.0, 18652.0, 18652.0, 18616.0, 18612.0, 18652.0, 18654.0, 18658.0, 18652.0, 18648.0, 18654.0, 18648.0, 18612.0, 18648.0, 18650.0, 18648.0, 18646.0, 18648.0, 18654.0, 18650.0, 18654.0, 18654.0, 18652.0, 18644.0, 18648.0, 18652.0, 18656.0, 18648.0, 18642.0, 18650.0, 18652.0, 18650.0, 18644.0, 18652.0, 18652.0, 18650.0, 18644.0, 18652.0, 18652.0, 18648.0, 18646.0, 18652.0, 18650.0, 18654.0, 18652.0, 18648.0, 18648.0, 18654.0, 18644.0, 18650.0, 18654.0, 18648.0, 18654.0, 18658.0, 18648.0, 18654.0, 18660.0, 18660.0, 18662.0, 18656.0, 18610.0, 18608.0, 18602.0, 18612.0, 18654.0, 18656.0, 18656.0, 18658.0, 18688.0, 18650.0, 18646.0, 18650.0, 18612.0, 18614.0, 18654.0, 18658.0, 18654.0, 18648.0, 18650.0, 18650.0, 18656.0, 18654.0, 18644.0, 18658.0, 18650.0, 18646.0, 18656.0, 18652.0, 18646.0, 18648.0, 18652.0, 18656.0, 18648.0, 18654.0, 18656.0, 18650.0, 18648.0, 18650.0, 18650.0, 18650.0, 18656.0, 18654.0, 18648.0, 18650.0, 18652.0, 18652.0, 18658.0, 18662.0, 18646.0, 18612.0, 18616.0, 18604.0, 18658.0, 18654.0, 18646.0, 18648.0, 18652.0, 18658.0, 18650.0, 18610.0, 18616.0, 18646.0, 18652.0]
    },
    "slices": {}
  }
}