{
  "AcquisitionMatrixPE": 104,
  "AcquisitionNumber": 1,
  "AcquisitionTime": "11:13:9.982500",
  "BandwidthPerPixelPhaseEncode": 17.17,
  "BaseResolution": 104,
  "BodyPartExamined": "BRAIN",
  "CoilCombinationMethod": "Sum of Squares",
  "ConsistencyInfo": "N4_VE11C_LATEST_20160120",
  "ConversionSoftware": "dcm2niix",
  "ConversionSoftwareVersion": "v1.0.20211006",
  "DerivedVendorReportedEchoSpacing": 0.000560011,
  "DeviceSerialNumber": "167006",
  "DwellTime": 2.1e-06,
  "EchoTime": 0.037,
  "EchoTrainLength": 104,
  "EffectiveEchoSpacing": 0.000560011,
  "FlipAngle": 52,
  "HeudiconvVersion": "0.10.0",
  "ImageComments": "Unaliased MB4/PE3/LB",
  "ImageOrientationPatientDICOM": [0.999598, 0.0174431, 0.0223568, -0.00453607, 0.876628, -0.481147],
  "ImageOrientationText": "Tra>Cor(-28.8)>Sag(1.6)",
  "ImageType": [
    "ORIGINAL",
    "PRIMARY",
    "M",
    "MB",
    "ND",
    "MOSAIC"
],
  "ImagingFrequency": 123.259,
  "InPlanePhaseEncodingDirectionDICOM": "COL",
  "InstitutionAddress": "Chemin Queen-Mary 4565,Montreal,District,CA,H3W 1W5",
  "InstitutionName": "IUGM",
  "InstitutionalDepartmentName": "Department",
  "MRAcquisitionType": "2D",
  "MagneticFieldStrength": 3,
  "Manufacturer": "Siemens",
  "ManufacturersModelName": "Prisma_fit",
  "MatrixCoilMode": "SENSE",
  "Modality": "MR",
  "MultibandAccelerationFactor": 4,
  "PartialFourier": 1,
  "PatientPosition": "HFS",
  "PercentPhaseFOV": 100,
  "PercentSampling": 100,
  "PhaseEncodingDirection": "j",
  "PhaseEncodingSteps": 104,
  "PhaseResolution": 1,
  "PixelBandwidth": 2290,
  "ProcedureStepDescription": "memory^things",
  "ProtocolName": "func_task-things_run-4",
  "PulseSequenceDetails": "%CustomerSeq%\\cmrr_mbep2d_bold",
  "ReceiveCoilActiveElements": "HC1-7;NC1,2",
  "ReceiveCoilName": "HeadNeck_64",
  "ReconMatrixPE": 104,
  "RepetitionTime": 1.49,
  "SAR": 0.0495976,
  "ScanOptions": "FS",
  "ScanningSequence": "EP",
  "SequenceName": "epfid2d1_104",
  "SequenceVariant": "SK\\SS",
  "SeriesDescription": "func_task-things_run-4",
  "SeriesNumber": 25,
  "ShimSetting": [617, -7184, -8857, 309, 18, -122, -46, -12],
  "SliceThickness": 2,
  "SliceTiming": [0, 0.785, 0.0975, 0.8825, 0.1975, 0.98, 0.295, 1.0775, 0.3925, 1.1775, 0.49, 1.275, 0.5875, 1.3725, 0.6875, 0, 0.785, 0.0975, 0.8825, 0.1975, 0.98, 0.295, 1.0775, 0.3925, 1.1775, 0.49, 1.275, 0.5875, 1.3725, 0.6875, 0, 0.785, 0.0975, 0.8825, 0.1975, 0.98, 0.295, 1.0775, 0.3925, 1.1775, 0.49, 1.275, 0.5875, 1.3725, 0.6875, 0, 0.785, 0.0975, 0.8825, 0.1975, 0.98, 0.295, 1.0775, 0.3925, 1.1775, 0.49, 1.275, 0.5875, 1.3725, 0.6875],
  "SoftwareVersions": "syngo MR E11",
  "SpacingBetweenSlices": 2,
  "StationName": "MRC35049",
  "TaskName": "things",
  "TotalReadoutTime": 0.0576811,
  "TxRefAmp": 283.354,
  "WipMemBlock": "9a040bcc-8e4a-4cae-bf55-e950f6214b01||Sequence: R016 ve11c/master r/e634e98; Dec 19 2017 11:00:25 by eja",
  "dcmmeta_affine": [
    [-1.9991956949234009, -0.009072137996554375, 0.055982556194067, 106.1611099243164],
    [-0.03488623723387718, 1.7532566785812378, -0.9617037773132324, -52.06081771850586],
    [0.04471353814005852, 0.9622935652732849, 1.7527098655700684, -93.40302276611328],
    [0.0, 0.0, 0.0, 1.0]
],
  "dcmmeta_reorient_transform": [
    [0.0, -1.0, 0.0, 103.0],
    [1.0, 0.0, 0.0, 0.0],
    [0.0, 0.0, 1.0, 0.0],
    [0.0, 0.0, 0.0, 1.0]
],
  "dcmmeta_shape": [104, 104, 60, 190],
  "dcmmeta_slice_dim": 2,
  "dcmmeta_version": 0.6,
  "global": {
    "const": {
      "AcquisitionMatrix": [104, 0, 0, 104],
      "AngioFlag": "N",
      "BitsAllocated": 16,
      "BitsStored": 16,
      "BodyPartExamined": "BRAIN",
      "Columns": 832,
      "EchoNumbers": 1,
      "EchoTime": 37.0,
      "EchoTrainLength": 104,
      "FlipAngle": 52.0,
      "HighBit": 15,
      "ImageOrientationPatient": [0.99959787538767, 0.01744311949612, 0.0223567686106, -0.0045360692124, 0.87662831268828, -0.4811467816264],
      "ImagePositionPatient": [-829.63167261001, -779.4086188638, 339.71234096949],
      "ImageType": [
        "ORIGINAL",
        "PRIMARY",
        "M",
        "MB",
        "ND",
        "MOSAIC"
],
      "ImagedNucleus": "1H",
      "ImagingFrequency": 123.258945,
      "InPlanePhaseEncodingDirection": "COL",
      "MRAcquisitionType": "2D",
      "MagneticFieldStrength": 3.0,
      "Manufacturer": "SIEMENS",
      "ManufacturerModelName": "Prisma_fit",
      "Modality": "MR",
      "NumberOfAverages": 1.0,
      "NumberOfPhaseEncodingSteps": 104,
      "PercentPhaseFieldOfView": 100.0,
      "PercentSampling": 100.0,
      "PerformedProcedureStepStartTime": "103931.407000",
      "PhotometricInterpretation": "MONOCHROME2",
      "PixelBandwidth": 2290.0,
      "PixelRepresentation": 0,
      "PixelSpacing": [2.0, 2.0],
      "ProtocolName": "func_task-things_run-4",
      "RepetitionTime": 1490.0,
      "Rows": 832,
      "SAR": 0.04959755085496,
      "SamplesPerPixel": 1,
      "ScanOptions": "FS",
      "ScanningSequence": "EP",
      "SequenceName": "epfid2d1_104",
      "SequenceVariant": [
        "SK",
        "SS"
],
      "SeriesDescription": "func_task-things_run-4",
      "SeriesNumber": 25,
      "SeriesTime": "111416.239000",
      "SliceLocation": -53.849074361735,
      "SliceThickness": 2.0,
      "SmallestImagePixelValue": 0,
      "SoftwareVersions": "syngo MR E11",
      "SpacingBetweenSlices": 2.000000023866,
      "SpecificCharacterSet": "ISO_IR 100",
      "StudyID": "1",
      "StudyTime": "103930.913000",
      "TransmitCoilName": "Body",
      "VariableFlipAngleFlag": "N",
      "WindowCenterWidthExplanation": "Algo1",
      "dBdt": 0.0},
    "slices": {}
  },
  "time": {
    "samples": {
      "AcquisitionNumber": [1, 2, 3, 4, 5, 6, 7, 8, 9, 10, 11, 12, 13, 14, 15, 16, 17, 18, 19, 20, 21, 22, 23, 24, 25, 26, 27, 28, 29, 30, 31, 32, 33, 34, 35, 36, 37, 38, 39, 40, 41, 42, 43, 44, 45, 46, 47, 48, 49, 50, 51, 52, 53, 54, 55, 56, 57, 58, 59, 60, 61, 62, 63, 64, 65, 66, 67, 68, 69, 70, 71, 72, 73, 74, 75, 76, 77, 78, 79, 80, 81, 82, 83, 84, 85, 86, 87, 88, 89, 90, 91, 92, 93, 94, 95, 96, 97, 98, 99, 100, 101, 102, 103, 104, 105, 106, 107, 108, 109, 110, 111, 112, 113, 114, 115, 116, 117, 118, 119, 120, 121, 122, 123, 124, 125, 126, 127, 128, 129, 130, 131, 132, 133, 134, 135, 136, 137, 138, 139, 140, 141, 142, 143, 144, 145, 146, 147, 148, 149, 150, 151, 152, 153, 154, 155, 156, 157, 158, 159, 160, 161, 162, 163, 164, 165, 166, 167, 168, 169, 170, 171, 172, 173, 174, 175, 176, 177, 178, 179, 180, 181, 182, 183, 184, 185, 186, 187, 188, 189, 190],
      "AcquisitionTime": ["111309.982500", "111311.472500", "111312.962500", "111314.452500", "111315.942500", "111317.432500", "111318.922500", "111320.412500", "111321.902500", "111323.392500", "111324.882500", "111326.372500", "111327.862500", "111329.352500", "111330.842500", "111332.332500", "111333.822500", "111335.312500", "111336.802500", "111338.292500", "111339.782500", "111341.272500", "111342.762500", "111344.252500", "111345.742500", "111347.232500", "111348.722500", "111350.212500", "111351.702500", "111353.192500", "111354.682500", "111356.172500", "111357.662500", "111359.152500", "111400.642500", "111402.132500", "111403.622500", "111405.112500", "111406.602500", "111408.092500", "111409.582500", "111411.072500", "111412.562500", "111414.052500", "111415.542500", "111417.032500", "111418.522500", "111420.012500", "111421.502500", "111422.992500", "111424.482500", "111425.972500", "111427.462500", "111428.952500", "111430.442500", "111431.932500", "111433.422500", "111434.912500", "111436.402500", "111437.892500", "111439.382500", "111440.872500", "111442.362500", "111443.852500", "111445.342500", "111446.832500", "111448.322500", "111449.812500", "111451.302500", "111452.792500", "111454.282500", "111455.772500", "111457.262500", "111458.752500", "111500.242500", "111501.732500", "111503.222500", "111504.712500", "111506.202500", "111507.692500", "111509.182500", "111510.672500", "111512.162500", "111513.652500", "111515.142500", "111516.632500", "111518.122500", "111519.612500", "111521.102500", "111522.592500", "111524.082500", "111525.572500", "111527.062500", "111528.552500", "111530.042500", "111531.532500", "111533.022500", "111534.512500", "111536.002500", "111537.492500", "111538.982500", "111540.472500", "111541.962500", "111543.452500", "111544.942500", "111546.432500", "111547.922500", "111549.412500", "111550.902500", "111552.392500", "111553.882500", "111555.372500", "111556.862500", "111558.352500", "111559.842500", "111601.332500", "111602.822500", "111604.312500", "111605.802500", "111607.292500", "111608.782500", "111610.272500", "111611.762500", "111613.252500", "111614.742500", "111616.232500", "111617.722500", "111619.212500", "111620.702500", "111622.192500", "111623.682500", "111625.172500", "111626.662500", "111628.152500", "111629.642500", "111631.132500", "111632.622500", "111634.112500", "111635.602500", "111637.092500", "111638.582500", "111640.072500", "111641.562500", "111643.052500", "111644.542500", "111646.032500", "111647.522500", "111649.012500", "111650.502500", "111651.992500", "111653.482500", "111654.972500", "111656.462500", "111657.952500", "111659.442500", "111700.932500", "111702.422500", "111703.912500", "111705.402500", "111706.892500", "111708.382500", "111709.872500", "111711.362500", "111712.852500", "111714.342500", "111715.832500", "111717.322500", "111718.812500", "111720.302500", "111721.792500", "111723.282500", "111724.772500", "111726.262500", "111727.752500", "111729.242500", "111730.732500", "111732.222500", "111733.712500", "111735.202500", "111736.692500", "111738.182500", "111739.672500", "111741.162500", "111742.652500", "111744.142500", "111745.632500", "111747.122500", "111748.612500", "111750.102500", "111751.592500"],
      "ContentTime": ["111416.242000", "111416.246000", "111416.249000", "111416.252000", "111416.256000", "111416.259000", "111416.271000", "111416.274000", "111416.277000", "111416.281000", "111416.284000", "111436.200000", "111436.204000", "111436.207000", "111436.210000", "111436.213000", "111436.217000", "111436.220000", "111436.223000", "111436.226000", "111436.230000", "111436.242000", "111436.246000", "111436.249000", "111436.252000", "111436.255000", "111436.259000", "111436.262000", "111436.265000", "111436.269000", "111436.272000", "111456.201000", "111456.204000", "111456.208000", "111456.211000", "111456.214000", "111456.218000", "111456.221000", "111456.224000", "111456.228000", "111456.231000", "111456.234000", "111456.238000", "111456.241000", "111456.244000", "111456.248000", "111456.251000", "111456.254000", "111456.257000", "111456.261000", "111456.264000", "111456.267000", "111516.201000", "111516.205000", "111516.208000", "111516.217000", "111516.220000", "111516.223000", "111516.227000", "111516.230000", "111516.233000", "111516.236000", "111516.239000", "111516.243000", "111516.246000", "111516.249000", "111516.252000", "111516.256000", "111516.259000", "111516.262000", "111516.265000", "111516.269000", "111536.200000", "111536.204000", "111536.207000", "111536.210000", "111536.214000", "111536.217000", "111536.220000", "111536.224000", "111536.227000", "111536.230000", "111536.233000", "111536.237000", "111536.240000", "111536.244000", "111536.247000", "111536.250000", "111536.253000", "111536.257000", "111536.260000", "111536.263000", "111616.200000", "111616.204000", "111616.207000", "111616.210000", "111616.214000", "111616.217000", "111616.220000", "111616.224000", "111616.227000", "111616.230000", "111616.234000", "111616.237000", "111616.240000", "111616.244000", "111616.247000", "111616.250000", "111616.254000", "111616.257000", "111616.260000", "111616.264000", "111616.281000", "111616.284000", "111616.287000", "111616.291000", "111616.294000", "111616.297000", "111616.300000", "111616.304000", "111616.307000", "111616.310000", "111616.314000", "111616.317000", "111656.200000", "111656.204000", "111656.207000", "111656.210000", "111656.213000", "111656.217000", "111656.220000", "111656.223000", "111656.227000", "111656.230000", "111656.233000", "111656.236000", "111656.240000", "111656.243000", "111656.246000", "111656.249000", "111656.253000", "111656.256000", "111656.259000", "111656.262000", "111656.266000", "111656.269000", "111656.272000", "111656.275000", "111656.279000", "111656.282000", "111656.285000", "111736.201000", "111736.205000", "111736.208000", "111736.211000", "111736.215000", "111736.218000", "111736.221000", "111736.224000", "111736.228000", "111736.231000", "111736.234000", "111736.237000", "111736.241000", "111736.244000", "111736.247000", "111736.250000", "111736.254000", "111736.257000", "111736.260000", "111736.264000", "111736.267000", "111736.270000", "111736.273000", "111736.277000", "111736.280000", "111736.283000", "111736.286000", "111753.732000", "111753.735000", "111753.739000", "111753.742000", "111753.746000", "111753.749000", "111753.752000", "111753.755000", "111753.759000", "111753.762000", "111753.765000", "111753.769000"],
      "InstanceCreationTime": ["111416.242000", "111416.246000", "111416.249000", "111416.252000", "111416.256000", "111416.259000", "111416.271000", "111416.274000", "111416.277000", "111416.281000", "111416.284000", "111436.200000", "111436.204000", "111436.207000", "111436.210000", "111436.213000", "111436.217000", "111436.220000", "111436.223000", "111436.226000", "111436.230000", "111436.242000", "111436.246000", "111436.249000", "111436.252000", "111436.255000", "111436.259000", "111436.262000", "111436.265000", "111436.269000", "111436.272000", "111456.201000", "111456.204000", "111456.208000", "111456.211000", "111456.214000", "111456.218000", "111456.221000", "111456.224000", "111456.228000", "111456.231000", "111456.234000", "111456.238000", "111456.241000", "111456.244000", "111456.248000", "111456.251000", "111456.254000", "111456.257000", "111456.261000", "111456.264000", "111456.267000", "111516.201000", "111516.205000", "111516.208000", "111516.217000", "111516.220000", "111516.223000", "111516.227000", "111516.230000", "111516.233000", "111516.236000", "111516.239000", "111516.243000", "111516.246000", "111516.249000", "111516.252000", "111516.256000", "111516.259000", "111516.262000", "111516.265000", "111516.269000", "111536.200000", "111536.204000", "111536.207000", "111536.210000", "111536.214000", "111536.217000", "111536.220000", "111536.224000", "111536.227000", "111536.230000", "111536.233000", "111536.237000", "111536.240000", "111536.244000", "111536.247000", "111536.250000", "111536.253000", "111536.257000", "111536.260000", "111536.263000", "111616.200000", "111616.204000", "111616.207000", "111616.210000", "111616.214000", "111616.217000", "111616.220000", "111616.224000", "111616.227000", "111616.230000", "111616.234000", "111616.237000", "111616.240000", "111616.244000", "111616.247000", "111616.250000", "111616.254000", "111616.257000", "111616.260000", "111616.264000", "111616.281000", "111616.284000", "111616.287000", "111616.291000", "111616.294000", "111616.297000", "111616.300000", "111616.304000", "111616.307000", "111616.310000", "111616.314000", "111616.317000", "111656.200000", "111656.204000", "111656.207000", "111656.210000", "111656.213000", "111656.217000", "111656.220000", "111656.223000", "111656.227000", "111656.230000", "111656.233000", "111656.236000", "111656.240000", "111656.243000", "111656.246000", "111656.249000", "111656.253000", "111656.256000", "111656.259000", "111656.262000", "111656.266000", "111656.269000", "111656.272000", "111656.275000", "111656.279000", "111656.282000", "111656.285000", "111736.201000", "111736.205000", "111736.208000", "111736.211000", "111736.215000", "111736.218000", "111736.221000", "111736.224000", "111736.228000", "111736.231000", "111736.234000", "111736.237000", "111736.241000", "111736.244000", "111736.247000", "111736.250000", "111736.254000", "111736.257000", "111736.260000", "111736.264000", "111736.267000", "111736.270000", "111736.273000", "111736.277000", "111736.280000", "111736.283000", "111736.286000", "111753.732000", "111753.735000", "111753.739000", "111753.742000", "111753.746000", "111753.749000", "111753.752000", "111753.755000", "111753.759000", "111753.762000", "111753.765000", "111753.769000"],
      "InstanceNumber": [1, 2, 3, 4, 5, 6, 7, 8, 9, 10, 11, 12, 13, 14, 15, 16, 17, 18, 19, 20, 21, 22, 23, 24, 25, 26, 27, 28, 29, 30, 31, 32, 33, 34, 35, 36, 37, 38, 39, 40, 41, 42, 43, 44, 45, 46, 47, 48, 49, 50, 51, 52, 53, 54, 55, 56, 57, 58, 59, 60, 61, 62, 63, 64, 65, 66, 67, 68, 69, 70, 71, 72, 73, 74, 75, 76, 77, 78, 79, 80, 81, 82, 83, 84, 85, 86, 87, 88, 89, 90, 91, 92, 93, 94, 95, 96, 97, 98, 99, 100, 101, 102, 103, 104, 105, 106, 107, 108, 109, 110, 111, 112, 113, 114, 115, 116, 117, 118, 119, 120, 121, 122, 123, 124, 125, 126, 127, 128, 129, 130, 131, 132, 133, 134, 135, 136, 137, 138, 139, 140, 141, 142, 143, 144, 145, 146, 147, 148, 149, 150, 151, 152, 153, 154, 155, 156, 157, 158, 159, 160, 161, 162, 163, 164, 165, 166, 167, 168, 169, 170, 171, 172, 173, 174, 175, 176, 177, 178, 179, 180, 181, 182, 183, 184, 185, 186, 187, 188, 189, 190],
      "LargestImagePixelValue": [44265, 41766, 43153, 42868, 42542, 42495, 41654, 41661, 41132, 41478, 42024, 41915, 42255, 41956, 42015, 41415, 41476, 42013, 41681, 41727, 41600, 41006, 41497, 41445, 41600, 41645, 41771, 41888, 41906, 41669, 41715, 41872, 41513, 42361, 42978, 42849, 42350, 42293, 42615, 41562, 41876, 41148, 41878, 41526, 41982, 42065, 41700, 42097, 42915, 42412, 41502, 41772, 41465, 41856, 41762, 41630, 41857, 41215, 41896, 41605, 42009, 40696, 41502, 41844, 41805, 41713, 41731, 41435, 41621, 41454, 41635, 41513, 41580, 41537, 42069, 41815, 41812, 41638, 41553, 41282, 41373, 42097, 41055, 41691, 41559, 41493, 41407, 41778, 41408, 41642, 41463, 41766, 41238, 41572, 41150, 41311, 41211, 41271, 41549, 41333, 41365, 41203, 41569, 41113, 41835, 41396, 41857, 41738, 41203, 41154, 41244, 41088, 40794, 41488, 41336, 40827, 41137, 41231, 41100, 41073, 41413, 41082, 41104, 41351, 41285, 40924, 41039, 40895, 41485, 41521, 41296, 41478, 41455, 41114, 41373, 40970, 41127, 41154, 40938, 40900, 40845, 41082, 40448, 40973, 41246, 41589, 41506, 41425, 41017, 41084, 41171, 40701, 41712, 41525, 41071, 41148, 41400, 41148, 41523, 40814, 40659, 40454, 40867, 40905, 40472, 40760, 40841, 40319, 40880, 40716, 41281, 41177, 41523, 41245, 40679, 40980, 40560, 39976, 40644, 41338, 41316, 41219, 41128, 41193, 40916, 41215, 40611, 41079, 40364, 40703],
      "WindowCenter": [10868.0, 10805.0, 10881.0, 10830.0, 10786.0, 10767.0, 10781.0, 10815.0, 10819.0, 10809.0, 10796.0, 10796.0, 10811.0, 10816.0, 10806.0, 10778.0, 10770.0, 10754.0, 10779.0, 10789.0, 10819.0, 10820.0, 10818.0, 10826.0, 10820.0, 10806.0, 10785.0, 10801.0, 10822.0, 10809.0, 10782.0, 10756.0, 10747.0, 10776.0, 10798.0, 10800.0, 10789.0, 10814.0, 10844.0, 10812.0, 10779.0, 10753.0, 10774.0, 10795.0, 10810.0, 10805.0, 10790.0, 10785.0, 10797.0, 10780.0, 10783.0, 10794.0, 10805.0, 10798.0, 10793.0, 10789.0, 10803.0, 10798.0, 10808.0, 10814.0, 10840.0, 10821.0, 10801.0, 10778.0, 10758.0, 10748.0, 10773.0, 10787.0, 10796.0, 10800.0, 10805.0, 10810.0, 10800.0, 10779.0, 10765.0, 10782.0, 10828.0, 10837.0, 10804.0, 10759.0, 10744.0, 10756.0, 10766.0, 10775.0, 10806.0, 10812.0, 10799.0, 10818.0, 10813.0, 10809.0, 10810.0, 10799.0, 10784.0, 10773.0, 10764.0, 10745.0, 10759.0, 10789.0, 10810.0, 10780.0, 10742.0, 10727.0, 10749.0, 10765.0, 10794.0, 10804.0, 10804.0, 10814.0, 10807.0, 10783.0, 10762.0, 10747.0, 10741.0, 10760.0, 10755.0, 10741.0, 10744.0, 10744.0, 10743.0, 10748.0, 10787.0, 10788.0, 10775.0, 10751.0, 10722.0, 10740.0, 10764.0, 10749.0, 10778.0, 10782.0, 10782.0, 10794.0, 10783.0, 10750.0, 10746.0, 10740.0, 10773.0, 10784.0, 10779.0, 10767.0, 10752.0, 10766.0, 10750.0, 10767.0, 10812.0, 10814.0, 10794.0, 10769.0, 10756.0, 10756.0, 10772.0, 10772.0, 10793.0, 10810.0, 10796.0, 10785.0, 10766.0, 10755.0, 10760.0, 10762.0, 10760.0, 10745.0, 10754.0, 10765.0, 10762.0, 10761.0, 10735.0, 10728.0, 10752.0, 10756.0, 10790.0, 10812.0, 10812.0, 10763.0, 10740.0, 10710.0, 10710.0, 10721.0, 10773.0, 10802.0, 10786.0, 10758.0, 10754.0, 10773.0, 10785.0, 10770.0, 10764.0, 10789.0, 10782.0, 10781.0],
      "WindowWidth": [23342.0, 23172.0, 23329.0, 23207.0, 23097.0, 23042.0, 23074.0, 23153.0, 23162.0, 23138.0, 23106.0, 23103.0, 23135.0, 23151.0, 23127.0, 23070.0, 23048.0, 23011.0, 23068.0, 23091.0, 23158.0, 23167.0, 23161.0, 23171.0, 23161.0, 23127.0, 23078.0, 23109.0, 23161.0, 23135.0, 23078.0, 23012.0, 22993.0, 23052.0, 23105.0, 23109.0, 23091.0, 23143.0, 23208.0, 23145.0, 23068.0, 23005.0, 23046.0, 23099.0, 23131.0, 23124.0, 23093.0, 23079.0, 23102.0, 23067.0, 23075.0, 23101.0, 23125.0, 23110.0, 23097.0, 23093.0, 23118.0, 23114.0, 23133.0, 23146.0, 23204.0, 23169.0, 23115.0, 23060.0, 23019.0, 22997.0, 23051.0, 23084.0, 23103.0, 23113.0, 23119.0, 23133.0, 23116.0, 23070.0, 23037.0, 23073.0, 23174.0, 23197.0, 23128.0, 23027.0, 22988.0, 23012.0, 23040.0, 23058.0, 23131.0, 23141.0, 23115.0, 23154.0, 23153.0, 23135.0, 23135.0, 23110.0, 23075.0, 23050.0, 23030.0, 22992.0, 23019.0, 23085.0, 23129.0, 23067.0, 22983.0, 22948.0, 22994.0, 23037.0, 23097.0, 23123.0, 23118.0, 23139.0, 23133.0, 23074.0, 23025.0, 22992.0, 22983.0, 23019.0, 23010.0, 22987.0, 22984.0, 22986.0, 22984.0, 22997.0, 23083.0, 23088.0, 23060.0, 23001.0, 22946.0, 22980.0, 23035.0, 23004.0, 23062.0, 23072.0, 23069.0, 23097.0, 23070.0, 22999.0, 22988.0, 22978.0, 23048.0, 23077.0, 23070.0, 23040.0, 23010.0, 23041.0, 23008.0, 23040.0, 23141.0, 23143.0, 23096.0, 23045.0, 23016.0, 23018.0, 23051.0, 23052.0, 23092.0, 23133.0, 23107.0, 23078.0, 23037.0, 23012.0, 23020.0, 23026.0, 23028.0, 22998.0, 23009.0, 23038.0, 23032.0, 23032.0, 22971.0, 22952.0, 23011.0, 23019.0, 23089.0, 23142.0, 23138.0, 23031.0, 22987.0, 22915.0, 22912.0, 22940.0, 23054.0, 23113.0, 23079.0, 23016.0, 23005.0, 23049.0, 23082.0, 23046.0, 23035.0, 23110.0, 23091.0, 23079.0]
    },
    "slices": {}
  }
}