{
  "AcquisitionMatrixPE": 104,
  "AcquisitionNumber": 1,
  "AcquisitionTime": "11:06:58.695000",
  "BandwidthPerPixelPhaseEncode": 17.17,
  "BaseResolution": 104,
  "BodyPartExamined": "BRAIN",
  "CoilCombinationMethod": "Sum of Squares",
  "ConsistencyInfo": "N4_VE11C_LATEST_20160120",
  "ConversionSoftware": "dcm2niix",
  "ConversionSoftwareVersion": "v1.0.20211006",
  "DerivedVendorReportedEchoSpacing": 0.000560011,
  "DeviceSerialNumber": "167006",
  "DwellTime": 2.1e-06,
  "EchoTime": 0.037,
  "EchoTime1": 0.037,
  "EchoTime2": 0.001,
  "EchoTrainLength": 104,
  "EffectiveEchoSpacing": 0.000560011,
  "FlipAngle": 52,
  "HeudiconvVersion": "0.10.0",
  "ImageComments": "Unaliased MB4/PE3/LB",
  "ImageOrientationPatientDICOM": [0.999598, 0.0174431, 0.0223568, -0.00453607, 0.876628, -0.481147],
  "ImageOrientationText": "Tra>Cor(-28.8)>Sag(1.6)",
  "ImageType": [
    "ORIGINAL",
    "PRIMARY",
    "P",
    "MB",
    "ND",
    "MOSAIC",
    "PHASE"
],
  "ImagingFrequency": 123.259,
  "InPlanePhaseEncodingDirectionDICOM": "COL",
  "InstitutionAddress": "Chemin Queen-Mary 4565,Montreal,District,CA,H3W 1W5",
  "InstitutionName": "IUGM",
  "InstitutionalDepartmentName": "Department",
  "MRAcquisitionType": "2D",
  "MagneticFieldStrength": 3,
  "Manufacturer": "Siemens",
  "ManufacturersModelName": "Prisma_fit",
  "MatrixCoilMode": "SENSE",
  "Modality": "MR",
  "MultibandAccelerationFactor": 4,
  "PartialFourier": 1,
  "PatientPosition": "HFS",
  "PercentPhaseFOV": 100,
  "PercentSampling": 100,
  "PhaseEncodingDirection": "j",
  "PhaseEncodingSteps": 104,
  "PhaseResolution": 1,
  "PixelBandwidth": 2290,
  "ProcedureStepDescription": "memory^things",
  "ProtocolName": "func_task-things_run-3",
  "PulseSequenceDetails": "%CustomerSeq%\\cmrr_mbep2d_bold",
  "ReceiveCoilActiveElements": "HC1-7;NC1,2",
  "ReceiveCoilName": "HeadNeck_64",
  "ReconMatrixPE": 104,
  "RepetitionTime": 1.49,
  "SAR": 0.0495976,
  "ScanOptions": "FS",
  "ScanningSequence": "EP",
  "SequenceName": "epfid2d1_104",
  "SequenceVariant": "SK\\SS",
  "SeriesDescription": "func_task-things_run-3",
  "SeriesNumber": 23,
  "ShimSetting": [617, -7184, -8857, 309, 18, -122, -46, -12],
  "SliceThickness": 2,
  "SliceTiming": [0, 0.7825, 0.0975, 0.8825, 0.195, 0.98, 0.2925, 1.0775, 0.3925, 1.175, 0.49, 1.2725, 0.5875, 1.3725, 0.685, 0, 0.7825, 0.0975, 0.8825, 0.195, 0.98, 0.2925, 1.0775, 0.3925, 1.175, 0.49, 1.2725, 0.5875, 1.3725, 0.685, 0, 0.7825, 0.0975, 0.8825, 0.195, 0.98, 0.2925, 1.0775, 0.3925, 1.175, 0.49, 1.2725, 0.5875, 1.3725, 0.685, 0, 0.7825, 0.0975, 0.8825, 0.195, 0.98, 0.2925, 1.0775, 0.3925, 1.175, 0.49, 1.2725, 0.5875, 1.3725, 0.685],
  "SoftwareVersions": "syngo MR E11",
  "SpacingBetweenSlices": 2,
  "StationName": "MRC35049",
  "TaskName": "things",
  "TotalReadoutTime": 0.0576811,
  "TxRefAmp": 283.354,
  "WipMemBlock": "9a40a1be-999a-4c19-a40d-a62b1064baa9||Sequence: R016 ve11c/master r/e634e98; Dec 19 2017 11:00:25 by eja",
  "dcmmeta_affine": [
    [-1.9991956949234009, -0.009072137996554375, 0.055982556194067, 106.1611099243164],
    [-0.03488623723387718, 1.7532566785812378, -0.9617037773132324, -52.06081771850586],
    [0.04471353814005852, 0.9622935652732849, 1.7527098655700684, -93.40302276611328],
    [0.0, 0.0, 0.0, 1.0]
],
  "dcmmeta_reorient_transform": [
    [0.0, -1.0, 0.0, 103.0],
    [1.0, 0.0, 0.0, 0.0],
    [0.0, 0.0, 1.0, 0.0],
    [0.0, 0.0, 0.0, 1.0]
],
  "dcmmeta_shape": [104, 104, 60, 190],
  "dcmmeta_slice_dim": 2,
  "dcmmeta_version": 0.6,
  "global": {
    "const": {
      "AcquisitionMatrix": [104, 0, 0, 104],
      "AngioFlag": "N",
      "BitsAllocated": 16,
      "BitsStored": 16,
      "BodyPartExamined": "BRAIN",
      "Columns": 832,
      "EchoNumbers": 1,
      "EchoTime": 37.0,
      "EchoTrainLength": 104,
      "FlipAngle": 52.0,
      "HighBit": 15,
      "ImageOrientationPatient": [0.99959787538767, 0.01744311949612, 0.0223567686106, -0.0045360692124, 0.87662831268828, -0.4811467816264],
      "ImagePositionPatient": [-829.63167261001, -779.4086188638, 339.71234096949],
      "ImageType": [
        "ORIGINAL",
        "PRIMARY",
        "P",
        "MB",
        "ND",
        "MOSAIC"
],
      "ImagedNucleus": "1H",
      "ImagingFrequency": 123.258941,
      "InPlanePhaseEncodingDirection": "COL",
      "LargestImagePixelValue": 4095,
      "MRAcquisitionType": "2D",
      "MagneticFieldStrength": 3.0,
      "Manufacturer": "SIEMENS",
      "ManufacturerModelName": "Prisma_fit",
      "Modality": "MR",
      "NumberOfAverages": 1.0,
      "NumberOfPhaseEncodingSteps": 104,
      "PercentPhaseFieldOfView": 100.0,
      "PercentSampling": 100.0,
      "PerformedProcedureStepStartTime": "103931.407000",
      "PhotometricInterpretation": "MONOCHROME2",
      "PixelBandwidth": 2290.0,
      "PixelRepresentation": 0,
      "PixelSpacing": [2.0, 2.0],
      "ProtocolName": "func_task-things_run-3",
      "RepetitionTime": 1490.0,
      "RescaleIntercept": -4096.0,
      "RescaleSlope": 2.0,
      "RescaleType": "US",
      "Rows": 832,
      "SAR": 0.04959755085496,
      "SamplesPerPixel": 1,
      "ScanOptions": "FS",
      "ScanningSequence": "EP",
      "SequenceName": "epfid2d1_104",
      "SequenceVariant": [
        "SK",
        "SS"
],
      "SeriesDescription": "func_task-things_run-3",
      "SeriesNumber": 23,
      "SeriesTime": "110815.242000",
      "SliceLocation": -53.849074361735,
      "SliceThickness": 2.0,
      "SmallestImagePixelValue": 0,
      "SoftwareVersions": "syngo MR E11",
      "SpacingBetweenSlices": 2.000000023866,
      "SpecificCharacterSet": "ISO_IR 100",
      "StudyID": "1",
      "StudyTime": "103930.913000",
      "TransmitCoilName": "Body",
      "VariableFlipAngleFlag": "N",
      "WindowCenterWidthExplanation": "Algo1",
      "dBdt": 0.0},
    "slices": {}
  },
  "time": {
    "samples": {
      "AcquisitionNumber": [1, 2, 3, 4, 5, 6, 7, 8, 9, 10, 11, 12, 13, 14, 15, 16, 17, 18, 19, 20, 21, 22, 23, 24, 25, 26, 27, 28, 29, 30, 31, 32, 33, 34, 35, 36, 37, 38, 39, 40, 41, 42, 43, 44, 45, 46, 47, 48, 49, 50, 51, 52, 53, 54, 55, 56, 57, 58, 59, 60, 61, 62, 63, 64, 65, 66, 67, 68, 69, 70, 71, 72, 73, 74, 75, 76, 77, 78, 79, 80, 81, 82, 83, 84, 85, 86, 87, 88, 89, 90, 91, 92, 93, 94, 95, 96, 97, 98, 99, 100, 101, 102, 103, 104, 105, 106, 107, 108, 109, 110, 111, 112, 113, 114, 115, 116, 117, 118, 119, 120, 121, 122, 123, 124, 125, 126, 127, 128, 129, 130, 131, 132, 133, 134, 135, 136, 137, 138, 139, 140, 141, 142, 143, 144, 145, 146, 147, 148, 149, 150, 151, 152, 153, 154, 155, 156, 157, 158, 159, 160, 161, 162, 163, 164, 165, 166, 167, 168, 169, 170, 171, 172, 173, 174, 175, 176, 177, 178, 179, 180, 181, 182, 183, 184, 185, 186, 187, 188, 189, 190],
      "AcquisitionTime": ["110658.695000", "110700.185000", "110701.675000", "110703.165000", "110704.655000", "110706.145000", "110707.635000", "110709.125000", "110710.615000", "110712.105000", "110713.595000", "110715.085000", "110716.575000", "110718.065000", "110719.555000", "110721.045000", "110722.535000", "110724.025000", "110725.515000", "110727.005000", "110728.495000", "110729.985000", "110731.475000", "110732.965000", "110734.455000", "110735.945000", "110737.435000", "110738.925000", "110740.415000", "110741.905000", "110743.395000", "110744.885000", "110746.375000", "110747.865000", "110749.355000", "110750.845000", "110752.335000", "110753.825000", "110755.315000", "110756.805000", "110758.295000", "110759.785000", "110801.275000", "110802.765000", "110804.255000", "110805.745000", "110807.235000", "110808.725000", "110810.215000", "110811.705000", "110813.195000", "110814.685000", "110816.175000", "110817.665000", "110819.155000", "110820.645000", "110822.135000", "110823.625000", "110825.115000", "110826.605000", "110828.095000", "110829.585000", "110831.075000", "110832.565000", "110834.055000", "110835.545000", "110837.035000", "110838.525000", "110840.015000", "110841.505000", "110842.995000", "110844.485000", "110845.975000", "110847.465000", "110848.955000", "110850.445000", "110851.935000", "110853.425000", "110854.915000", "110856.405000", "110857.895000", "110859.385000", "110900.875000", "110902.365000", "110903.855000", "110905.345000", "110906.835000", "110908.325000", "110909.815000", "110911.305000", "110912.795000", "110914.285000", "110915.775000", "110917.265000", "110918.755000", "110920.245000", "110921.735000", "110923.225000", "110924.715000", "110926.205000", "110927.695000", "110929.185000", "110930.675000", "110932.165000", "110933.655000", "110935.145000", "110936.635000", "110938.125000", "110939.615000", "110941.105000", "110942.595000", "110944.085000", "110945.575000", "110947.065000", "110948.555000", "110950.045000", "110951.535000", "110953.025000", "110954.515000", "110956.005000", "110957.495000", "110958.985000", "111000.475000", "111001.965000", "111003.455000", "111004.945000", "111006.435000", "111007.925000", "111009.415000", "111010.905000", "111012.395000", "111013.885000", "111015.375000", "111016.865000", "111018.355000", "111019.845000", "111021.335000", "111022.825000", "111024.315000", "111025.805000", "111027.295000", "111028.785000", "111030.275000", "111031.765000", "111033.255000", "111034.745000", "111036.235000", "111037.725000", "111039.215000", "111040.705000", "111042.195000", "111043.685000", "111045.175000", "111046.665000", "111048.155000", "111049.645000", "111051.135000", "111052.625000", "111054.115000", "111055.605000", "111057.095000", "111058.585000", "111100.075000", "111101.565000", "111103.055000", "111104.545000", "111106.035000", "111107.525000", "111109.015000", "111110.505000", "111111.995000", "111113.485000", "111114.975000", "111116.465000", "111117.955000", "111119.445000", "111120.935000", "111122.425000", "111123.915000", "111125.405000", "111126.895000", "111128.385000", "111129.875000", "111131.365000", "111132.855000", "111134.345000", "111135.835000", "111137.325000", "111138.815000", "111140.305000"],
      "ContentTime": ["110815.244000", "110815.247000", "110815.250000", "110815.252000", "110815.255000", "110815.257000", "110815.259000", "110815.262000", "110815.264000", "110815.267000", "110815.269000", "110815.272000", "110815.274000", "110815.277000", "110815.279000", "110815.282000", "110815.284000", "110815.287000", "110815.293000", "110815.296000", "110815.298000", "110815.301000", "110815.303000", "110815.306000", "110835.196000", "110835.199000", "110835.201000", "110835.204000", "110835.213000", "110835.215000", "110835.218000", "110835.220000", "110835.222000", "110835.225000", "110835.227000", "110835.230000", "110835.232000", "110835.235000", "110835.237000", "110835.240000", "110835.242000", "110835.244000", "110835.247000", "110835.249000", "110855.229000", "110855.232000", "110855.234000", "110855.237000", "110855.239000", "110855.242000", "110855.244000", "110855.247000", "110855.249000", "110855.251000", "110855.254000", "110855.256000", "110855.259000", "110855.261000", "110855.264000", "110855.266000", "110855.275000", "110855.277000", "110855.280000", "110855.282000", "110915.205000", "110915.208000", "110915.211000", "110915.213000", "110915.216000", "110915.218000", "110915.221000", "110915.223000", "110915.226000", "110915.228000", "110915.231000", "110915.233000", "110915.236000", "110915.238000", "110915.240000", "110915.243000", "110915.245000", "110915.253000", "110915.255000", "110915.258000", "110915.260000", "110955.260000", "110955.262000", "110955.265000", "110955.267000", "110955.270000", "110955.272000", "110955.275000", "110955.277000", "110955.280000", "110955.283000", "110955.285000", "110955.287000", "110955.290000", "110955.293000", "110955.295000", "110955.298000", "110955.300000", "110955.303000", "110955.305000", "110955.308000", "110955.310000", "110955.313000", "110955.315000", "110955.318000", "110955.320000", "110955.323000", "110955.325000", "110955.328000", "110955.330000", "110955.333000", "110955.335000", "110955.338000", "110955.340000", "111035.221000", "111035.224000", "111035.226000", "111035.229000", "111035.231000", "111035.234000", "111035.237000", "111035.241000", "111035.245000", "111035.247000", "111035.250000", "111035.254000", "111035.258000", "111035.260000", "111035.263000", "111035.266000", "111035.268000", "111035.271000", "111035.273000", "111035.276000", "111035.278000", "111035.281000", "111035.283000", "111035.286000", "111035.288000", "111035.291000", "111115.211000", "111115.214000", "111115.216000", "111115.219000", "111115.221000", "111115.224000", "111115.226000", "111115.229000", "111115.231000", "111115.234000", "111115.236000", "111115.239000", "111115.241000", "111115.249000", "111115.251000", "111115.254000", "111115.256000", "111115.259000", "111115.261000", "111115.264000", "111115.266000", "111115.269000", "111115.271000", "111115.274000", "111115.276000", "111115.279000", "111115.281000", "111142.460000", "111142.463000", "111142.466000", "111142.468000", "111142.471000", "111142.473000", "111142.476000", "111142.478000", "111142.481000", "111142.483000", "111142.486000", "111142.488000", "111142.491000", "111142.494000", "111142.496000", "111142.499000", "111142.501000", "111142.504000", "111142.507000"],
      "InstanceCreationTime": ["110815.244000", "110815.247000", "110815.250000", "110815.252000", "110815.255000", "110815.257000", "110815.259000", "110815.262000", "110815.264000", "110815.267000", "110815.269000", "110815.272000", "110815.274000", "110815.277000", "110815.279000", "110815.282000", "110815.284000", "110815.287000", "110815.293000", "110815.296000", "110815.298000", "110815.301000", "110815.303000", "110815.306000", "110835.196000", "110835.199000", "110835.201000", "110835.204000", "110835.213000", "110835.215000", "110835.218000", "110835.220000", "110835.222000", "110835.225000", "110835.227000", "110835.230000", "110835.232000", "110835.235000", "110835.237000", "110835.240000", "110835.242000", "110835.244000", "110835.247000", "110835.249000", "110855.229000", "110855.232000", "110855.234000", "110855.237000", "110855.239000", "110855.242000", "110855.244000", "110855.247000", "110855.249000", "110855.251000", "110855.254000", "110855.256000", "110855.259000", "110855.261000", "110855.264000", "110855.266000", "110855.275000", "110855.277000", "110855.280000", "110855.282000", "110915.205000", "110915.208000", "110915.211000", "110915.213000", "110915.216000", "110915.218000", "110915.221000", "110915.223000", "110915.226000", "110915.228000", "110915.231000", "110915.233000", "110915.236000", "110915.238000", "110915.240000", "110915.243000", "110915.245000", "110915.253000", "110915.255000", "110915.258000", "110915.260000", "110955.260000", "110955.262000", "110955.265000", "110955.267000", "110955.270000", "110955.272000", "110955.275000", "110955.277000", "110955.280000", "110955.283000", "110955.285000", "110955.287000", "110955.290000", "110955.293000", "110955.295000", "110955.298000", "110955.300000", "110955.303000", "110955.305000", "110955.308000", "110955.310000", "110955.313000", "110955.315000", "110955.318000", "110955.320000", "110955.323000", "110955.325000", "110955.328000", "110955.330000", "110955.333000", "110955.335000", "110955.338000", "110955.340000", "111035.221000", "111035.224000", "111035.226000", "111035.229000", "111035.231000", "111035.234000", "111035.237000", "111035.241000", "111035.245000", "111035.247000", "111035.250000", "111035.254000", "111035.258000", "111035.260000", "111035.263000", "111035.266000", "111035.268000", "111035.271000", "111035.273000", "111035.276000", "111035.278000", "111035.281000", "111035.283000", "111035.286000", "111035.288000", "111035.291000", "111115.211000", "111115.214000", "111115.216000", "111115.219000", "111115.221000", "111115.224000", "111115.226000", "111115.229000", "111115.231000", "111115.234000", "111115.236000", "111115.239000", "111115.241000", "111115.249000", "111115.251000", "111115.254000", "111115.256000", "111115.259000", "111115.261000", "111115.264000", "111115.266000", "111115.269000", "111115.271000", "111115.274000", "111115.276000", "111115.279000", "111115.281000", "111142.460000", "111142.463000", "111142.466000", "111142.468000", "111142.471000", "111142.473000", "111142.476000", "111142.478000", "111142.481000", "111142.483000", "111142.486000", "111142.488000", "111142.491000", "111142.494000", "111142.496000", "111142.499000", "111142.501000", "111142.504000", "111142.507000"],
      "InstanceNumber": [1, 2, 3, 4, 5, 6, 7, 8, 9, 10, 11, 12, 13, 14, 15, 16, 17, 18, 19, 20, 21, 22, 23, 24, 25, 26, 27, 28, 29, 30, 31, 32, 33, 34, 35, 36, 37, 38, 39, 40, 41, 42, 43, 44, 45, 46, 47, 48, 49, 50, 51, 52, 53, 54, 55, 56, 57, 58, 59, 60, 61, 62, 63, 64, 65, 66, 67, 68, 69, 70, 71, 72, 73, 74, 75, 76, 77, 78, 79, 80, 81, 82, 83, 84, 85, 86, 87, 88, 89, 90, 91, 92, 93, 94, 95, 96, 97, 98, 99, 100, 101, 102, 103, 104, 105, 106, 107, 108, 109, 110, 111, 112, 113, 114, 115, 116, 117, 118, 119, 120, 121, 122, 123, 124, 125, 126, 127, 128, 129, 130, 131, 132, 133, 134, 135, 136, 137, 138, 139, 140, 141, 142, 143, 144, 145, 146, 147, 148, 149, 150, 151, 152, 153, 154, 155, 156, 157, 158, 159, 160, 161, 162, 163, 164, 165, 166, 167, 168, 169, 170, 171, 172, 173, 174, 175, 176, 177, 178, 179, 180, 181, 182, 183, 184, 185, 186, 187, 188, 189, 190],
      "WindowCenter": [4788.0, 4800.0, 4790.0, 4784.0, 4796.0, 4832.0, 4834.0, 4800.0, 4744.0, 4764.0, 4768.0, 4768.0, 4778.0, 4790.0, 4794.0, 4792.0, 4790.0, 4790.0, 4788.0, 4822.0, 4800.0, 4784.0, 4748.0, 4748.0, 4772.0, 4782.0, 4796.0, 4798.0, 4790.0, 4796.0, 4796.0, 4792.0, 4786.0, 4776.0, 4774.0, 4780.0, 4786.0, 4792.0, 4798.0, 4794.0, 4792.0, 4798.0, 4786.0, 4778.0, 4776.0, 4784.0, 4800.0, 4804.0, 4794.0, 4792.0, 4792.0, 4776.0, 4790.0, 4786.0, 4786.0, 4788.0, 4794.0, 4788.0, 4792.0, 4792.0, 4790.0, 4784.0, 4798.0, 4796.0, 4782.0, 4778.0, 4782.0, 4788.0, 4794.0, 4792.0, 4792.0, 4792.0, 4790.0, 4784.0, 4776.0, 4788.0, 4794.0, 4790.0, 4792.0, 4794.0, 4786.0, 4792.0, 4784.0, 4796.0, 4778.0, 4792.0, 4788.0, 4782.0, 4792.0, 4796.0, 4788.0, 4798.0, 4794.0, 4784.0, 4780.0, 4776.0, 4778.0, 4790.0, 4792.0, 4786.0, 4796.0, 4794.0, 4786.0, 4796.0, 4788.0, 4780.0, 4792.0, 4780.0, 4778.0, 4790.0, 4792.0, 4792.0, 4796.0, 4790.0, 4784.0, 4794.0, 4794.0, 4784.0, 4780.0, 4778.0, 4778.0, 4794.0, 4798.0, 4792.0, 4794.0, 4796.0, 4786.0, 4796.0, 4780.0, 4772.0, 4788.0, 4782.0, 4786.0, 4800.0, 4796.0, 4790.0, 4820.0, 4784.0, 4776.0, 4786.0, 4790.0, 4788.0, 4790.0, 4800.0, 4802.0, 4826.0, 4790.0, 4748.0, 4740.0, 4742.0, 4768.0, 4782.0, 4796.0, 4796.0, 4788.0, 4788.0, 4786.0, 4788.0, 4782.0, 4784.0, 4782.0, 4782.0, 4792.0, 4806.0, 4804.0, 4796.0, 4782.0, 4780.0, 4742.0, 4742.0, 4784.0, 4788.0, 4790.0, 4790.0, 4792.0, 4790.0, 4800.0, 4800.0, 4792.0, 4770.0, 4764.0, 4768.0, 4772.0, 4792.0, 4830.0, 4830.0, 4802.0, 4796.0, 4766.0, 4758.0],
      "WindowWidth": [18590.0, 18574.0, 18590.0, 18592.0, 18578.0, 18564.0, 18576.0, 18582.0, 18544.0, 18574.0, 18578.0, 18576.0, 18584.0, 18574.0, 18544.0, 18546.0, 18558.0, 18580.0, 18596.0, 18600.0, 18584.0, 18582.0, 18546.0, 18544.0, 18584.0, 18588.0, 18562.0, 18566.0, 18574.0, 18560.0, 18574.0, 18592.0, 18586.0, 18580.0, 18582.0, 18588.0, 18590.0, 18578.0, 18554.0, 18572.0, 18584.0, 18580.0, 18592.0, 18584.0, 18582.0, 18584.0, 18552.0, 18548.0, 18584.0, 18596.0, 18590.0, 18582.0, 18590.0, 18590.0, 18592.0, 18596.0, 18582.0, 18584.0, 18590.0, 18566.0, 18588.0, 18586.0, 18584.0, 18598.0, 18594.0, 18586.0, 18592.0, 18592.0, 18584.0, 18582.0, 18584.0, 18586.0, 18596.0, 18586.0, 18584.0, 18590.0, 18578.0, 18594.0, 18564.0, 18580.0, 18592.0, 18588.0, 18586.0, 18590.0, 18580.0, 18592.0, 18594.0, 18588.0, 18576.0, 18590.0, 18588.0, 18576.0, 18588.0, 18594.0, 18584.0, 18586.0, 18588.0, 18584.0, 18588.0, 18582.0, 18562.0, 18576.0, 18584.0, 18580.0, 18592.0, 18586.0, 18592.0, 18586.0, 18588.0, 18582.0, 18592.0, 18584.0, 18566.0, 18582.0, 18592.0, 18588.0, 18594.0, 18590.0, 18584.0, 18580.0, 18584.0, 18576.0, 18582.0, 18584.0, 18560.0, 18568.0, 18590.0, 18592.0, 18588.0, 18580.0, 18592.0, 18588.0, 18590.0, 18552.0, 18564.0, 18590.0, 18622.0, 18588.0, 18586.0, 18588.0, 18590.0, 18588.0, 18592.0, 18546.0, 18532.0, 18596.0, 18586.0, 18544.0, 18544.0, 18540.0, 18576.0, 18590.0, 18552.0, 18552.0, 18566.0, 18580.0, 18586.0, 18592.0, 18592.0, 18592.0, 18592.0, 18586.0, 18584.0, 18528.0, 18530.0, 18570.0, 18588.0, 18578.0, 18546.0, 18546.0, 18582.0, 18594.0, 18592.0, 18564.0, 18574.0, 18574.0, 18540.0, 18550.0, 18596.0, 18576.0, 18576.0, 18576.0, 18584.0, 18558.0, 18550.0, 18544.0, 18536.0, 18584.0, 18578.0, 18568.0]
    },
    "slices": {}
  }
}