{
  "AcquisitionMatrixPE": 104,
  "AcquisitionNumber": 1,
  "AcquisitionTime": "10:54:37.730000",
  "BandwidthPerPixelPhaseEncode": 17.17,
  "BaseResolution": 104,
  "BodyPartExamined": "BRAIN",
  "CoilCombinationMethod": "Sum of Squares",
  "ConsistencyInfo": "N4_VE11C_LATEST_20160120",
  "ConversionSoftware": "dcm2niix",
  "ConversionSoftwareVersion": "v1.0.20211006",
  "DerivedVendorReportedEchoSpacing": 0.000560011,
  "DeviceSerialNumber": "167006",
  "DwellTime": 2.1e-06,
  "EchoTime": 0.037,
  "EchoTrainLength": 104,
  "EffectiveEchoSpacing": 0.000560011,
  "FlipAngle": 52,
  "HeudiconvVersion": "0.10.0",
  "ImageComments": "Unaliased MB4/PE3/LB",
  "ImageOrientationPatientDICOM": [0.999598, 0.0174431, 0.0223568, -0.00453607, 0.876628, -0.481147],
  "ImageOrientationText": "Tra>Cor(-28.8)>Sag(1.6)",
  "ImageType": [
    "ORIGINAL",
    "PRIMARY",
    "M",
    "MB",
    "ND",
    "MOSAIC"
],
  "ImagingFrequency": 123.259,
  "InPlanePhaseEncodingDirectionDICOM": "COL",
  "InstitutionAddress": "Chemin Queen-Mary 4565,Montreal,District,CA,H3W 1W5",
  "InstitutionName": "IUGM",
  "InstitutionalDepartmentName": "Department",
  "MRAcquisitionType": "2D",
  "MagneticFieldStrength": 3,
  "Manufacturer": "Siemens",
  "ManufacturersModelName": "Prisma_fit",
  "MatrixCoilMode": "SENSE",
  "Modality": "MR",
  "MultibandAccelerationFactor": 4,
  "PartialFourier": 1,
  "PatientPosition": "HFS",
  "PercentPhaseFOV": 100,
  "PercentSampling": 100,
  "PhaseEncodingDirection": "j",
  "PhaseEncodingSteps": 104,
  "PhaseResolution": 1,
  "PixelBandwidth": 2290,
  "ProcedureStepDescription": "memory^things",
  "ProtocolName": "func_task-things_run-1",
  "PulseSequenceDetails": "%CustomerSeq%\\cmrr_mbep2d_bold",
  "ReceiveCoilActiveElements": "HC1-7;NC1,2",
  "ReceiveCoilName": "HeadNeck_64",
  "ReconMatrixPE": 104,
  "RepetitionTime": 1.49,
  "SAR": 0.0495976,
  "ScanOptions": "FS",
  "ScanningSequence": "EP",
  "SequenceName": "epfid2d1_104",
  "SequenceVariant": "SK\\SS",
  "SeriesDescription": "func_task-things_run-1",
  "SeriesNumber": 16,
  "ShimSetting": [617, -7184, -8857, 309, 18, -122, -46, -12],
  "SliceThickness": 2,
  "SliceTiming": [0, 0.7825, 0.0975, 0.8825, 0.195, 0.98, 0.2925, 1.0775, 0.3925, 1.175, 0.49, 1.2725, 0.5875, 1.3725, 0.685, 0, 0.7825, 0.0975, 0.8825, 0.195, 0.98, 0.2925, 1.0775, 0.3925, 1.175, 0.49, 1.2725, 0.5875, 1.3725, 0.685, 0, 0.7825, 0.0975, 0.8825, 0.195, 0.98, 0.2925, 1.0775, 0.3925, 1.175, 0.49, 1.2725, 0.5875, 1.3725, 0.685, 0, 0.7825, 0.0975, 0.8825, 0.195, 0.98, 0.2925, 1.0775, 0.3925, 1.175, 0.49, 1.2725, 0.5875, 1.3725, 0.685],
  "SoftwareVersions": "syngo MR E11",
  "SpacingBetweenSlices": 2,
  "StationName": "MRC35049",
  "TaskName": "things",
  "TotalReadoutTime": 0.0576811,
  "TxRefAmp": 283.354,
  "WipMemBlock": "31241b8d-6e31-4be1-afd5-bbf1d2a0583f||Sequence: R016 ve11c/master r/e634e98; Dec 19 2017 11:00:25 by eja",
  "dcmmeta_affine": [
    [-1.9991956949234009, -0.009072137996554375, 0.055982556194067, 106.1611099243164],
    [-0.03488623723387718, 1.7532566785812378, -0.9617037773132324, -52.06081771850586],
    [0.04471353814005852, 0.9622935652732849, 1.7527098655700684, -93.40302276611328],
    [0.0, 0.0, 0.0, 1.0]
],
  "dcmmeta_reorient_transform": [
    [0.0, -1.0, 0.0, 103.0],
    [1.0, 0.0, 0.0, 0.0],
    [0.0, 0.0, 1.0, 0.0],
    [0.0, 0.0, 0.0, 1.0]
],
  "dcmmeta_shape": [104, 104, 60, 190],
  "dcmmeta_slice_dim": 2,
  "dcmmeta_version": 0.6,
  "global": {
    "const": {
      "AcquisitionMatrix": [104, 0, 0, 104],
      "AngioFlag": "N",
      "BitsAllocated": 16,
      "BitsStored": 16,
      "BodyPartExamined": "BRAIN",
      "Columns": 832,
      "EchoNumbers": 1,
      "EchoTime": 37.0,
      "EchoTrainLength": 104,
      "FlipAngle": 52.0,
      "HighBit": 15,
      "ImageOrientationPatient": [0.99959787538767, 0.01744311949612, 0.0223567686106, -0.0045360692124, 0.87662831268828, -0.4811467816264],
      "ImagePositionPatient": [-829.63167261001, -779.4086188638, 339.71234096949],
      "ImageType": [
        "ORIGINAL",
        "PRIMARY",
        "M",
        "MB",
        "ND",
        "MOSAIC"
],
      "ImagedNucleus": "1H",
      "ImagingFrequency": 123.258936,
      "InPlanePhaseEncodingDirection": "COL",
      "MRAcquisitionType": "2D",
      "MagneticFieldStrength": 3.0,
      "Manufacturer": "SIEMENS",
      "ManufacturerModelName": "Prisma_fit",
      "Modality": "MR",
      "NumberOfAverages": 1.0,
      "NumberOfPhaseEncodingSteps": 104,
      "PercentPhaseFieldOfView": 100.0,
      "PercentSampling": 100.0,
      "PerformedProcedureStepStartTime": "103931.407000",
      "PhotometricInterpretation": "MONOCHROME2",
      "PixelBandwidth": 2290.0,
      "PixelRepresentation": 0,
      "PixelSpacing": [2.0, 2.0],
      "ProtocolName": "func_task-things_run-1",
      "RepetitionTime": 1490.0,
      "Rows": 832,
      "SAR": 0.04959755085496,
      "SamplesPerPixel": 1,
      "ScanOptions": "FS",
      "ScanningSequence": "EP",
      "SequenceName": "epfid2d1_104",
      "SequenceVariant": [
        "SK",
        "SS"
],
      "SeriesDescription": "func_task-things_run-1",
      "SeriesNumber": 16,
      "SeriesTime": "105556.228000",
      "SliceLocation": -53.849074361735,
      "SliceThickness": 2.0,
      "SmallestImagePixelValue": 0,
      "SoftwareVersions": "syngo MR E11",
      "SpacingBetweenSlices": 2.000000023866,
      "SpecificCharacterSet": "ISO_IR 100",
      "StudyID": "1",
      "StudyTime": "103930.913000",
      "TransmitCoilName": "Body",
      "VariableFlipAngleFlag": "N",
      "WindowCenterWidthExplanation": "Algo1",
      "dBdt": 0.0},
    "slices": {}
  },
  "time": {
    "samples": {
      "AcquisitionNumber": [1, 2, 3, 4, 5, 6, 7, 8, 9, 10, 11, 12, 13, 14, 15, 16, 17, 18, 19, 20, 21, 22, 23, 24, 25, 26, 27, 28, 29, 30, 31, 32, 33, 34, 35, 36, 37, 38, 39, 40, 41, 42, 43, 44, 45, 46, 47, 48, 49, 50, 51, 52, 53, 54, 55, 56, 57, 58, 59, 60, 61, 62, 63, 64, 65, 66, 67, 68, 69, 70, 71, 72, 73, 74, 75, 76, 77, 78, 79, 80, 81, 82, 83, 84, 85, 86, 87, 88, 89, 90, 91, 92, 93, 94, 95, 96, 97, 98, 99, 100, 101, 102, 103, 104, 105, 106, 107, 108, 109, 110, 111, 112, 113, 114, 115, 116, 117, 118, 119, 120, 121, 122, 123, 124, 125, 126, 127, 128, 129, 130, 131, 132, 133, 134, 135, 136, 137, 138, 139, 140, 141, 142, 143, 144, 145, 146, 147, 148, 149, 150, 151, 152, 153, 154, 155, 156, 157, 158, 159, 160, 161, 162, 163, 164, 165, 166, 167, 168, 169, 170, 171, 172, 173, 174, 175, 176, 177, 178, 179, 180, 181, 182, 183, 184, 185, 186, 187, 188, 189, 190],
      "AcquisitionTime": ["105437.730000", "105439.220000", "105440.710000", "105442.200000", "105443.690000", "105445.180000", "105446.670000", "105448.160000", "105449.650000", "105451.140000", "105452.630000", "105454.120000", "105455.610000", "105457.100000", "105458.590000", "105500.080000", "105501.570000", "105503.060000", "105504.550000", "105506.040000", "105507.530000", "105509.020000", "105510.510000", "105512.000000", "105513.490000", "105514.980000", "105516.470000", "105517.960000", "105519.450000", "105520.940000", "105522.430000", "105523.920000", "105525.410000", "105526.900000", "105528.390000", "105529.880000", "105531.370000", "105532.860000", "105534.350000", "105535.840000", "105537.330000", "105538.820000", "105540.310000", "105541.800000", "105543.290000", "105544.780000", "105546.270000", "105547.760000", "105549.250000", "105550.740000", "105552.230000", "105553.720000", "105555.210000", "105556.700000", "105558.190000", "105559.680000", "105601.170000", "105602.660000", "105604.150000", "105605.640000", "105607.130000", "105608.620000", "105610.110000", "105611.600000", "105613.090000", "105614.580000", "105616.070000", "105617.560000", "105619.050000", "105620.540000", "105622.030000", "105623.520000", "105625.010000", "105626.500000", "105627.990000", "105629.480000", "105630.970000", "105632.460000", "105633.950000", "105635.440000", "105636.930000", "105638.420000", "105639.910000", "105641.400000", "105642.890000", "105644.380000", "105645.870000", "105647.360000", "105648.850000", "105650.340000", "105651.830000", "105653.320000", "105654.810000", "105656.300000", "105657.790000", "105659.280000", "105700.770000", "105702.260000", "105703.750000", "105705.240000", "105706.730000", "105708.220000", "105709.710000", "105711.200000", "105712.690000", "105714.180000", "105715.670000", "105717.160000", "105718.650000", "105720.140000", "105721.630000", "105723.120000", "105724.610000", "105726.100000", "105727.590000", "105729.080000", "105730.570000", "105732.060000", "105733.550000", "105735.040000", "105736.530000", "105738.020000", "105739.510000", "105741.000000", "105742.490000", "105743.980000", "105745.470000", "105746.960000", "105748.450000", "105749.940000", "105751.430000", "105752.920000", "105754.410000", "105755.900000", "105757.390000", "105758.880000", "105800.370000", "105801.860000", "105803.350000", "105804.840000", "105806.330000", "105807.820000", "105809.310000", "105810.800000", "105812.290000", "105813.780000", "105815.270000", "105816.760000", "105818.250000", "105819.740000", "105821.230000", "105822.720000", "105824.210000", "105825.700000", "105827.190000", "105828.680000", "105830.170000", "105831.660000", "105833.150000", "105834.640000", "105836.130000", "105837.620000", "105839.110000", "105840.600000", "105842.090000", "105843.580000", "105845.070000", "105846.560000", "105848.050000", "105849.540000", "105851.030000", "105852.520000", "105854.010000", "105855.500000", "105856.990000", "105858.480000", "105859.970000", "105901.460000", "105902.950000", "105904.440000", "105905.930000", "105907.420000", "105908.910000", "105910.400000", "105911.890000", "105913.380000", "105914.870000", "105916.360000", "105917.850000", "105919.340000"],
      "ContentTime": ["105556.231000", "105556.235000", "105556.238000", "105556.241000", "105556.244000", "105556.248000", "105556.259000", "105556.263000", "105556.266000", "105556.269000", "105556.272000", "105556.276000", "105556.279000", "105556.282000", "105556.285000", "105556.289000", "105556.292000", "105556.295000", "105556.298000", "105556.301000", "105556.305000", "105556.308000", "105556.311000", "105556.314000", "105636.201000", "105636.205000", "105636.208000", "105636.212000", "105636.215000", "105636.218000", "105636.221000", "105636.225000", "105636.228000", "105636.231000", "105636.235000", "105636.238000", "105636.241000", "105636.244000", "105636.247000", "105636.251000", "105636.254000", "105636.257000", "105636.261000", "105636.264000", "105636.267000", "105636.270000", "105636.279000", "105636.283000", "105636.286000", "105636.289000", "105636.293000", "105636.296000", "105636.299000", "105636.302000", "105636.306000", "105636.309000", "105636.312000", "105636.316000", "105636.319000", "105636.322000", "105636.325000", "105636.329000", "105636.332000", "105636.335000", "105656.200000", "105656.204000", "105656.207000", "105656.210000", "105656.213000", "105656.217000", "105656.220000", "105656.223000", "105656.227000", "105656.230000", "105656.233000", "105656.236000", "105656.239000", "105656.243000", "105656.246000", "105656.249000", "105656.252000", "105656.256000", "105656.259000", "105656.262000", "105716.200000", "105716.204000", "105716.207000", "105716.211000", "105716.214000", "105716.218000", "105716.221000", "105716.224000", "105716.227000", "105716.231000", "105716.234000", "105716.237000", "105716.240000", "105716.244000", "105716.247000", "105716.250000", "105716.254000", "105716.257000", "105716.260000", "105716.264000", "105756.200000", "105756.204000", "105756.207000", "105756.210000", "105756.213000", "105756.217000", "105756.220000", "105756.223000", "105756.227000", "105756.230000", "105756.233000", "105756.236000", "105756.240000", "105756.243000", "105756.246000", "105756.250000", "105756.253000", "105756.256000", "105756.259000", "105756.263000", "105756.266000", "105756.269000", "105756.273000", "105756.276000", "105756.279000", "105756.282000", "105756.286000", "105756.289000", "105836.201000", "105836.205000", "105836.208000", "105836.211000", "105836.215000", "105836.218000", "105836.221000", "105836.224000", "105836.228000", "105836.231000", "105836.234000", "105836.238000", "105836.241000", "105836.244000", "105836.247000", "105836.250000", "105836.254000", "105836.257000", "105836.260000", "105836.264000", "105836.267000", "105836.270000", "105836.274000", "105836.277000", "105836.280000", "105836.283000", "105836.287000", "105916.200000", "105916.204000", "105916.207000", "105916.210000", "105916.214000", "105916.217000", "105916.220000", "105916.223000", "105916.227000", "105916.230000", "105916.233000", "105916.237000", "105916.240000", "105916.243000", "105916.246000", "105916.250000", "105916.253000", "105916.256000", "105916.260000", "105916.263000", "105916.266000", "105916.269000", "105916.273000", "105916.276000", "105916.279000", "105916.283000", "105916.286000", "105921.515000", "105921.519000", "105921.522000", "105921.525000"],
      "InstanceCreationTime": ["105556.231000", "105556.235000", "105556.238000", "105556.241000", "105556.244000", "105556.248000", "105556.259000", "105556.263000", "105556.266000", "105556.269000", "105556.272000", "105556.276000", "105556.279000", "105556.282000", "105556.285000", "105556.289000", "105556.292000", "105556.295000", "105556.298000", "105556.301000", "105556.305000", "105556.308000", "105556.311000", "105556.314000", "105636.201000", "105636.205000", "105636.208000", "105636.212000", "105636.215000", "105636.218000", "105636.221000", "105636.225000", "105636.228000", "105636.231000", "105636.235000", "105636.238000", "105636.241000", "105636.244000", "105636.247000", "105636.251000", "105636.254000", "105636.257000", "105636.261000", "105636.264000", "105636.267000", "105636.270000", "105636.279000", "105636.283000", "105636.286000", "105636.289000", "105636.293000", "105636.296000", "105636.299000", "105636.302000", "105636.306000", "105636.309000", "105636.312000", "105636.316000", "105636.319000", "105636.322000", "105636.325000", "105636.329000", "105636.332000", "105636.335000", "105656.200000", "105656.204000", "105656.207000", "105656.210000", "105656.213000", "105656.217000", "105656.220000", "105656.223000", "105656.227000", "105656.230000", "105656.233000", "105656.236000", "105656.239000", "105656.243000", "105656.246000", "105656.249000", "105656.252000", "105656.256000", "105656.259000", "105656.262000", "105716.200000", "105716.204000", "105716.207000", "105716.211000", "105716.214000", "105716.218000", "105716.221000", "105716.224000", "105716.227000", "105716.231000", "105716.234000", "105716.237000", "105716.240000", "105716.244000", "105716.247000", "105716.250000", "105716.254000", "105716.257000", "105716.260000", "105716.264000", "105756.200000", "105756.204000", "105756.207000", "105756.210000", "105756.213000", "105756.217000", "105756.220000", "105756.223000", "105756.227000", "105756.230000", "105756.233000", "105756.236000", "105756.240000", "105756.243000", "105756.246000", "105756.250000", "105756.253000", "105756.256000", "105756.259000", "105756.263000", "105756.266000", "105756.269000", "105756.273000", "105756.276000", "105756.279000", "105756.282000", "105756.286000", "105756.289000", "105836.201000", "105836.205000", "105836.208000", "105836.211000", "105836.215000", "105836.218000", "105836.221000", "105836.224000", "105836.228000", "105836.231000", "105836.234000", "105836.238000", "105836.241000", "105836.244000", "105836.247000", "105836.250000", "105836.254000", "105836.257000", "105836.260000", "105836.264000", "105836.267000", "105836.270000", "105836.274000", "105836.277000", "105836.280000", "105836.283000", "105836.287000", "105916.200000", "105916.204000", "105916.207000", "105916.210000", "105916.214000", "105916.217000", "105916.220000", "105916.223000", "105916.227000", "105916.230000", "105916.233000", "105916.237000", "105916.240000", "105916.243000", "105916.246000", "105916.250000", "105916.253000", "105916.256000", "105916.260000", "105916.263000", "105916.266000", "105916.269000", "105916.273000", "105916.276000", "105916.279000", "105916.283000", "105916.286000", "105921.515000", "105921.519000", "105921.522000", "105921.525000"],
      "InstanceNumber": [1, 2, 3, 4, 5, 6, 7, 8, 9, 10, 11, 12, 13, 14, 15, 16, 17, 18, 19, 20, 21, 22, 23, 24, 25, 26, 27, 28, 29, 30, 31, 32, 33, 34, 35, 36, 37, 38, 39, 40, 41, 42, 43, 44, 45, 46, 47, 48, 49, 50, 51, 52, 53, 54, 55, 56, 57, 58, 59, 60, 61, 62, 63, 64, 65, 66, 67, 68, 69, 70, 71, 72, 73, 74, 75, 76, 77, 78, 79, 80, 81, 82, 83, 84, 85, 86, 87, 88, 89, 90, 91, 92, 93, 94, 95, 96, 97, 98, 99, 100, 101, 102, 103, 104, 105, 106, 107, 108, 109, 110, 111, 112, 113, 114, 115, 116, 117, 118, 119, 120, 121, 122, 123, 124, 125, 126, 127, 128, 129, 130, 131, 132, 133, 134, 135, 136, 137, 138, 139, 140, 141, 142, 143, 144, 145, 146, 147, 148, 149, 150, 151, 152, 153, 154, 155, 156, 157, 158, 159, 160, 161, 162, 163, 164, 165, 166, 167, 168, 169, 170, 171, 172, 173, 174, 175, 176, 177, 178, 179, 180, 181, 182, 183, 184, 185, 186, 187, 188, 189, 190],
      "LargestImagePixelValue": [43673, 43091, 42417, 42026, 42260, 41228, 41615, 41126, 41283, 41250, 41387, 41446, 41107, 41352, 41329, 41124, 41713, 41420, 42294, 41945, 42332, 41713, 41534, 41775, 41491, 41300, 41549, 42107, 42461, 41482, 41572, 41533, 42063, 41546, 41472, 41535, 41257, 41111, 41290, 41872, 41572, 41863, 41716, 41068, 41708, 41556, 41595, 41764, 41445, 41624, 41689, 41286, 41491, 41962, 41441, 42090, 42111, 41354, 41794, 41517, 41234, 42114, 41559, 41624, 42307, 42110, 42039, 41153, 42162, 41615, 41536, 41820, 41456, 41360, 41451, 41539, 41692, 41071, 41514, 42806, 42191, 41580, 41863, 41619, 41384, 41908, 41844, 41706, 42031, 42391, 41670, 42002, 42263, 41046, 41514, 41539, 42724, 41601, 42149, 41646, 41135, 41853, 41893, 41653, 41780, 41224, 41754, 42058, 41129, 41647, 42207, 41295, 41718, 41178, 41190, 41294, 41498, 41855, 41827, 41281, 41647, 41626, 41289, 41941, 41911, 42385, 42152, 42155, 41579, 41578, 42253, 41277, 41771, 41707, 41084, 41288, 41112, 41665, 41816, 41988, 41641, 41463, 42029, 41089, 41980, 41661, 41320, 41075, 41458, 41465, 42030, 41812, 41303, 41973, 41325, 41549, 41659, 41733, 41734, 41342, 41842, 41327, 40884, 41297, 41174, 41383, 40768, 41919, 41283, 41283, 41750, 41182, 41408, 41345, 41007, 41526, 40931, 41471, 41070, 41143, 41495, 41456, 41606, 41194, 41803, 41256, 41617, 41204, 40993, 40846],
      "WindowCenter": [10962.0, 10927.0, 10877.0, 10877.0, 10880.0, 10881.0, 10887.0, 10896.0, 10899.0, 10900.0, 10883.0, 10879.0, 10876.0, 10887.0, 10891.0, 10890.0, 10888.0, 10873.0, 10911.0, 10924.0, 10928.0, 10914.0, 10898.0, 10905.0, 10905.0, 10896.0, 10897.0, 10912.0, 10900.0, 10896.0, 10916.0, 10928.0, 10901.0, 10884.0, 10870.0, 10878.0, 10901.0, 10903.0, 10924.0, 10937.0, 10899.0, 10894.0, 10898.0, 10904.0, 10885.0, 10866.0, 10843.0, 10847.0, 10844.0, 10849.0, 10852.0, 10846.0, 10838.0, 10845.0, 10850.0, 10863.0, 10864.0, 10861.0, 10872.0, 10880.0, 10867.0, 10855.0, 10857.0, 10868.0, 10867.0, 10891.0, 10881.0, 10854.0, 10869.0, 10851.0, 10863.0, 10875.0, 10872.0, 10854.0, 10858.0, 10880.0, 10890.0, 10861.0, 10828.0, 10838.0, 10853.0, 10853.0, 10855.0, 10885.0, 10872.0, 10877.0, 10873.0, 10855.0, 10848.0, 10848.0, 10844.0, 10836.0, 10856.0, 10843.0, 10844.0, 10842.0, 10906.0, 10870.0, 10887.0, 10850.0, 10804.0, 10816.0, 10851.0, 10826.0, 10868.0, 10857.0, 10884.0, 10884.0, 10848.0, 10848.0, 10870.0, 10868.0, 10893.0, 10896.0, 10872.0, 10856.0, 10862.0, 10878.0, 10889.0, 10868.0, 10857.0, 10848.0, 10832.0, 10849.0, 10835.0, 10848.0, 10868.0, 10886.0, 10853.0, 10836.0, 10832.0, 10839.0, 10865.0, 10882.0, 10881.0, 10887.0, 10871.0, 10883.0, 10865.0, 10864.0, 10848.0, 10845.0, 10843.0, 10820.0, 10832.0, 10825.0, 10823.0, 10825.0, 10841.0, 10833.0, 10848.0, 10853.0, 10850.0, 10853.0, 10832.0, 10828.0, 10829.0, 10828.0, 10836.0, 10842.0, 10849.0, 10840.0, 10844.0, 10840.0, 10856.0, 10870.0, 10840.0, 10843.0, 10830.0, 10831.0, 10846.0, 10841.0, 10846.0, 10841.0, 10834.0, 10846.0, 10844.0, 10846.0, 10842.0, 10832.0, 10844.0, 10844.0, 10858.0, 10845.0, 10855.0, 10850.0, 10830.0, 10822.0, 10826.0, 10843.0],
      "WindowWidth": [23571.0, 23461.0, 23323.0, 23314.0, 23315.0, 23320.0, 23329.0, 23350.0, 23359.0, 23362.0, 23321.0, 23309.0, 23304.0, 23325.0, 23339.0, 23335.0, 23331.0, 23298.0, 23381.0, 23413.0, 23418.0, 23389.0, 23351.0, 23363.0, 23365.0, 23349.0, 23346.0, 23379.0, 23351.0, 23343.0, 23393.0, 23418.0, 23357.0, 23322.0, 23284.0, 23302.0, 23360.0, 23366.0, 23412.0, 23437.0, 23349.0, 23335.0, 23349.0, 23362.0, 23318.0, 23274.0, 23221.0, 23225.0, 23222.0, 23235.0, 23241.0, 23230.0, 23207.0, 23222.0, 23239.0, 23263.0, 23267.0, 23263.0, 23282.0, 23305.0, 23283.0, 23247.0, 23249.0, 23278.0, 23271.0, 23325.0, 23308.0, 23249.0, 23275.0, 23241.0, 23263.0, 23290.0, 23290.0, 23251.0, 23256.0, 23305.0, 23328.0, 23266.0, 23194.0, 23203.0, 23240.0, 23246.0, 23245.0, 23313.0, 23290.0, 23295.0, 23289.0, 23249.0, 23226.0, 23227.0, 23222.0, 23201.0, 23248.0, 23229.0, 23224.0, 23219.0, 23358.0, 23279.0, 23314.0, 23238.0, 23135.0, 23159.0, 23240.0, 23183.0, 23274.0, 23259.0, 23315.0, 23315.0, 23238.0, 23235.0, 23279.0, 23282.0, 23335.0, 23344.0, 23295.0, 23251.0, 23263.0, 23296.0, 23323.0, 23279.0, 23252.0, 23231.0, 23197.0, 23228.0, 23199.0, 23223.0, 23269.0, 23311.0, 23244.0, 23201.0, 23192.0, 23212.0, 23268.0, 23310.0, 23311.0, 23324.0, 23287.0, 23306.0, 23271.0, 23264.0, 23231.0, 23223.0, 23217.0, 23173.0, 23193.0, 23179.0, 23178.0, 23185.0, 23211.0, 23195.0, 23225.0, 23239.0, 23237.0, 23241.0, 23197.0, 23183.0, 23188.0, 23184.0, 23203.0, 23222.0, 23230.0, 23211.0, 23226.0, 23219.0, 23250.0, 23281.0, 23217.0, 23215.0, 23193.0, 23191.0, 23223.0, 23219.0, 23223.0, 23216.0, 23202.0, 23224.0, 23224.0, 23226.0, 23219.0, 23196.0, 23217.0, 23217.0, 23249.0, 23226.0, 23241.0, 23235.0, 23190.0, 23173.0, 23185.0, 23225.0]
    },
    "slices": {}
  }
}