{
  "AcquisitionMatrixPE": 104,
  "AcquisitionNumber": 1,
  "AcquisitionTime": "11:19:17.742500",
  "BandwidthPerPixelPhaseEncode": 17.17,
  "BaseResolution": 104,
  "BodyPartExamined": "BRAIN",
  "CoilCombinationMethod": "Sum of Squares",
  "ConsistencyInfo": "N4_VE11C_LATEST_20160120",
  "ConversionSoftware": "dcm2niix",
  "ConversionSoftwareVersion": "v1.0.20211006",
  "DerivedVendorReportedEchoSpacing": 0.000560011,
  "DeviceSerialNumber": "167006",
  "DwellTime": 2.1e-06,
  "EchoTime": 0.037,
  "EchoTime1": 0.037,
  "EchoTime2": 0.001,
  "EchoTrainLength": 104,
  "EffectiveEchoSpacing": 0.000560011,
  "FlipAngle": 52,
  "HeudiconvVersion": "0.10.0",
  "ImageComments": "Unaliased MB4/PE3/LB",
  "ImageOrientationPatientDICOM": [0.999598, 0.0174431, 0.0223568, -0.00453607, 0.876628, -0.481147],
  "ImageOrientationText": "Tra>Cor(-28.8)>Sag(1.6)",
  "ImageType": [
    "ORIGINAL",
    "PRIMARY",
    "P",
    "MB",
    "ND",
    "MOSAIC",
    "PHASE"
],
  "ImagingFrequency": 123.259,
  "InPlanePhaseEncodingDirectionDICOM": "COL",
  "InstitutionAddress": "Chemin Queen-Mary 4565,Montreal,District,CA,H3W 1W5",
  "InstitutionName": "IUGM",
  "InstitutionalDepartmentName": "Department",
  "MRAcquisitionType": "2D",
  "MagneticFieldStrength": 3,
  "Manufacturer": "Siemens",
  "ManufacturersModelName": "Prisma_fit",
  "MatrixCoilMode": "SENSE",
  "Modality": "MR",
  "MultibandAccelerationFactor": 4,
  "PartialFourier": 1,
  "PatientPosition": "HFS",
  "PercentPhaseFOV": 100,
  "PercentSampling": 100,
  "PhaseEncodingDirection": "j",
  "PhaseEncodingSteps": 104,
  "PhaseResolution": 1,
  "PixelBandwidth": 2290,
  "ProcedureStepDescription": "memory^things",
  "ProtocolName": "func_task-things_run-5",
  "PulseSequenceDetails": "%CustomerSeq%\\cmrr_mbep2d_bold",
  "ReceiveCoilActiveElements": "HC1-7;NC1,2",
  "ReceiveCoilName": "HeadNeck_64",
  "ReconMatrixPE": 104,
  "RepetitionTime": 1.49,
  "SAR": 0.0495976,
  "ScanOptions": "FS",
  "ScanningSequence": "EP",
  "SequenceName": "epfid2d1_104",
  "SequenceVariant": "SK\\SS",
  "SeriesDescription": "func_task-things_run-5",
  "SeriesNumber": 29,
  "ShimSetting": [617, -7184, -8857, 309, 18, -122, -46, -12],
  "SliceThickness": 2,
  "SliceTiming": [0, 0.7825, 0.0975, 0.8825, 0.195, 0.98, 0.295, 1.0775, 0.3925, 1.175, 0.49, 1.2725, 0.5875, 1.3725, 0.685, 0, 0.7825, 0.0975, 0.8825, 0.195, 0.98, 0.295, 1.0775, 0.3925, 1.175, 0.49, 1.2725, 0.5875, 1.3725, 0.685, 0, 0.7825, 0.0975, 0.8825, 0.195, 0.98, 0.295, 1.0775, 0.3925, 1.175, 0.49, 1.2725, 0.5875, 1.3725, 0.685, 0, 0.7825, 0.0975, 0.8825, 0.195, 0.98, 0.295, 1.0775, 0.3925, 1.175, 0.49, 1.2725, 0.5875, 1.3725, 0.685],
  "SoftwareVersions": "syngo MR E11",
  "SpacingBetweenSlices": 2,
  "StationName": "MRC35049",
  "TaskName": "things",
  "TotalReadoutTime": 0.0576811,
  "TxRefAmp": 283.354,
  "WipMemBlock": "c18c1e10-ccac-4146-8d61-e806c85145af||Sequence: R016 ve11c/master r/e634e98; Dec 19 2017 11:00:25 by eja",
  "dcmmeta_affine": [
    [-1.9991956949234009, -0.009072137996554375, 0.055982556194067, 106.1611099243164],
    [-0.03488623723387718, 1.7532566785812378, -0.9617037773132324, -52.06081771850586],
    [0.04471353814005852, 0.9622935652732849, 1.7527098655700684, -93.40302276611328],
    [0.0, 0.0, 0.0, 1.0]
],
  "dcmmeta_reorient_transform": [
    [0.0, -1.0, 0.0, 103.0],
    [1.0, 0.0, 0.0, 0.0],
    [0.0, 0.0, 1.0, 0.0],
    [0.0, 0.0, 0.0, 1.0]
],
  "dcmmeta_shape": [104, 104, 60, 190],
  "dcmmeta_slice_dim": 2,
  "dcmmeta_version": 0.6,
  "global": {
    "const": {
      "AcquisitionMatrix": [104, 0, 0, 104],
      "AngioFlag": "N",
      "BitsAllocated": 16,
      "BitsStored": 16,
      "BodyPartExamined": "BRAIN",
      "Columns": 832,
      "EchoNumbers": 1,
      "EchoTime": 37.0,
      "EchoTrainLength": 104,
      "FlipAngle": 52.0,
      "HighBit": 15,
      "ImageOrientationPatient": [0.99959787538767, 0.01744311949612, 0.0223567686106, -0.0045360692124, 0.87662831268828, -0.4811467816264],
      "ImagePositionPatient": [-829.63167261001, -779.4086188638, 339.71234096949],
      "ImageType": [
        "ORIGINAL",
        "PRIMARY",
        "P",
        "MB",
        "ND",
        "MOSAIC"
],
      "ImagedNucleus": "1H",
      "ImagingFrequency": 123.258947,
      "InPlanePhaseEncodingDirection": "COL",
      "LargestImagePixelValue": 4095,
      "MRAcquisitionType": "2D",
      "MagneticFieldStrength": 3.0,
      "Manufacturer": "SIEMENS",
      "ManufacturerModelName": "Prisma_fit",
      "Modality": "MR",
      "NumberOfAverages": 1.0,
      "NumberOfPhaseEncodingSteps": 104,
      "PercentPhaseFieldOfView": 100.0,
      "PercentSampling": 100.0,
      "PerformedProcedureStepStartTime": "103931.407000",
      "PhotometricInterpretation": "MONOCHROME2",
      "PixelBandwidth": 2290.0,
      "PixelRepresentation": 0,
      "PixelSpacing": [2.0, 2.0],
      "ProtocolName": "func_task-things_run-5",
      "RepetitionTime": 1490.0,
      "RescaleIntercept": -4096.0,
      "RescaleSlope": 2.0,
      "RescaleType": "US",
      "Rows": 832,
      "SAR": 0.04959755085496,
      "SamplesPerPixel": 1,
      "ScanOptions": "FS",
      "ScanningSequence": "EP",
      "SequenceName": "epfid2d1_104",
      "SequenceVariant": [
        "SK",
        "SS"
],
      "SeriesDescription": "func_task-things_run-5",
      "SeriesNumber": 29,
      "SeriesTime": "112034.720000",
      "SliceLocation": -53.849074361735,
      "SliceThickness": 2.0,
      "SmallestImagePixelValue": 0,
      "SoftwareVersions": "syngo MR E11",
      "SpacingBetweenSlices": 2.000000023866,
      "SpecificCharacterSet": "ISO_IR 100",
      "StudyID": "1",
      "StudyTime": "103930.913000",
      "TransmitCoilName": "Body",
      "VariableFlipAngleFlag": "N",
      "WindowCenterWidthExplanation": "Algo1",
      "dBdt": 0.0},
    "slices": {}
  },
  "time": {
    "samples": {
      "AcquisitionNumber": [1, 2, 3, 4, 5, 6, 7, 8, 9, 10, 11, 12, 13, 14, 15, 16, 17, 18, 19, 20, 21, 22, 23, 24, 25, 26, 27, 28, 29, 30, 31, 32, 33, 34, 35, 36, 37, 38, 39, 40, 41, 42, 43, 44, 45, 46, 47, 48, 49, 50, 51, 52, 53, 54, 55, 56, 57, 58, 59, 60, 61, 62, 63, 64, 65, 66, 67, 68, 69, 70, 71, 72, 73, 74, 75, 76, 77, 78, 79, 80, 81, 82, 83, 84, 85, 86, 87, 88, 89, 90, 91, 92, 93, 94, 95, 96, 97, 98, 99, 100, 101, 102, 103, 104, 105, 106, 107, 108, 109, 110, 111, 112, 113, 114, 115, 116, 117, 118, 119, 120, 121, 122, 123, 124, 125, 126, 127, 128, 129, 130, 131, 132, 133, 134, 135, 136, 137, 138, 139, 140, 141, 142, 143, 144, 145, 146, 147, 148, 149, 150, 151, 152, 153, 154, 155, 156, 157, 158, 159, 160, 161, 162, 163, 164, 165, 166, 167, 168, 169, 170, 171, 172, 173, 174, 175, 176, 177, 178, 179, 180, 181, 182, 183, 184, 185, 186, 187, 188, 189, 190],
      "AcquisitionTime": ["111917.742500", "111919.232500", "111920.722500", "111922.212500", "111923.702500", "111925.192500", "111926.682500", "111928.172500", "111929.662500", "111931.152500", "111932.642500", "111934.132500", "111935.622500", "111937.112500", "111938.602500", "111940.092500", "111941.582500", "111943.072500", "111944.562500", "111946.052500", "111947.542500", "111949.032500", "111950.522500", "111952.012500", "111953.502500", "111954.992500", "111956.482500", "111957.972500", "111959.462500", "112000.952500", "112002.442500", "112003.932500", "112005.422500", "112006.912500", "112008.402500", "112009.892500", "112011.382500", "112012.872500", "112014.362500", "112015.852500", "112017.342500", "112018.832500", "112020.322500", "112021.812500", "112023.302500", "112024.792500", "112026.282500", "112027.772500", "112029.262500", "112030.752500", "112032.242500", "112033.732500", "112035.222500", "112036.712500", "112038.202500", "112039.692500", "112041.182500", "112042.672500", "112044.162500", "112045.652500", "112047.142500", "112048.632500", "112050.122500", "112051.612500", "112053.102500", "112054.592500", "112056.082500", "112057.572500", "112059.062500", "112100.552500", "112102.042500", "112103.532500", "112105.022500", "112106.512500", "112108.002500", "112109.492500", "112110.982500", "112112.472500", "112113.962500", "112115.452500", "112116.942500", "112118.432500", "112119.922500", "112121.412500", "112122.902500", "112124.392500", "112125.882500", "112127.372500", "112128.862500", "112130.352500", "112131.842500", "112133.332500", "112134.822500", "112136.312500", "112137.802500", "112139.292500", "112140.782500", "112142.272500", "112143.762500", "112145.252500", "112146.742500", "112148.232500", "112149.722500", "112151.212500", "112152.702500", "112154.192500", "112155.682500", "112157.172500", "112158.662500", "112200.152500", "112201.642500", "112203.132500", "112204.622500", "112206.112500", "112207.602500", "112209.092500", "112210.582500", "112212.072500", "112213.562500", "112215.052500", "112216.542500", "112218.032500", "112219.522500", "112221.012500", "112222.502500", "112223.992500", "112225.482500", "112226.972500", "112228.462500", "112229.952500", "112231.442500", "112232.932500", "112234.422500", "112235.912500", "112237.402500", "112238.892500", "112240.382500", "112241.872500", "112243.362500", "112244.852500", "112246.342500", "112247.832500", "112249.322500", "112250.812500", "112252.302500", "112253.792500", "112255.282500", "112256.772500", "112258.262500", "112259.752500", "112301.242500", "112302.732500", "112304.222500", "112305.712500", "112307.202500", "112308.692500", "112310.182500", "112311.672500", "112313.162500", "112314.652500", "112316.142500", "112317.632500", "112319.122500", "112320.612500", "112322.102500", "112323.592500", "112325.082500", "112326.572500", "112328.062500", "112329.552500", "112331.042500", "112332.532500", "112334.022500", "112335.512500", "112337.002500", "112338.492500", "112339.982500", "112341.472500", "112342.962500", "112344.452500", "112345.942500", "112347.432500", "112348.922500", "112350.412500", "112351.902500", "112353.392500", "112354.882500", "112356.372500", "112357.862500", "112359.352500"],
      "ContentTime": ["112034.722000", "112034.725000", "112034.727000", "112034.730000", "112034.732000", "112034.735000", "112034.737000", "112034.740000", "112034.742000", "112034.745000", "112034.747000", "112034.749000", "112034.752000", "112034.754000", "112034.757000", "112034.759000", "112034.762000", "112034.765000", "112034.767000", "112034.770000", "112034.772000", "112034.775000", "112034.781000", "112054.668000", "112054.671000", "112054.673000", "112054.676000", "112054.678000", "112054.688000", "112054.690000", "112054.692000", "112054.695000", "112054.697000", "112054.700000", "112054.702000", "112054.705000", "112054.707000", "112054.710000", "112054.712000", "112054.714000", "112054.717000", "112054.719000", "112054.722000", "112054.724000", "112115.124000", "112115.127000", "112115.129000", "112115.131000", "112115.134000", "112115.137000", "112115.139000", "112115.142000", "112115.144000", "112115.148000", "112115.151000", "112115.153000", "112115.156000", "112115.158000", "112115.161000", "112115.164000", "112115.167000", "112115.169000", "112115.172000", "112115.175000", "112134.660000", "112134.663000", "112134.666000", "112134.668000", "112134.671000", "112134.673000", "112134.676000", "112134.678000", "112134.681000", "112134.683000", "112134.686000", "112134.688000", "112134.691000", "112134.693000", "112134.696000", "112134.698000", "112134.701000", "112134.704000", "112134.706000", "112134.709000", "112154.661000", "112154.663000", "112154.666000", "112154.668000", "112154.671000", "112154.673000", "112154.676000", "112154.678000", "112154.681000", "112154.684000", "112154.686000", "112154.689000", "112154.691000", "112154.693000", "112154.696000", "112154.698000", "112154.701000", "112154.703000", "112154.706000", "112154.708000", "112234.714000", "112234.716000", "112234.719000", "112234.721000", "112234.724000", "112234.726000", "112234.729000", "112234.732000", "112234.734000", "112234.737000", "112234.739000", "112234.742000", "112234.744000", "112234.747000", "112234.750000", "112234.752000", "112234.754000", "112234.757000", "112234.760000", "112234.762000", "112234.765000", "112234.767000", "112234.770000", "112234.772000", "112234.775000", "112234.777000", "112234.780000", "112314.676000", "112314.678000", "112314.685000", "112314.688000", "112314.690000", "112314.693000", "112314.695000", "112314.698000", "112314.700000", "112314.703000", "112314.705000", "112314.708000", "112314.710000", "112314.713000", "112314.715000", "112314.718000", "112314.720000", "112314.723000", "112314.726000", "112314.728000", "112314.730000", "112314.733000", "112314.735000", "112314.738000", "112314.740000", "112314.743000", "112314.745000", "112354.683000", "112354.686000", "112354.689000", "112354.691000", "112354.694000", "112354.696000", "112354.699000", "112354.701000", "112354.704000", "112354.706000", "112354.709000", "112354.711000", "112354.714000", "112354.716000", "112354.718000", "112354.721000", "112354.723000", "112354.726000", "112354.728000", "112354.731000", "112354.733000", "112354.736000", "112354.738000", "112354.741000", "112354.743000", "112354.746000", "112354.748000", "112401.711000", "112401.714000", "112401.716000", "112401.719000", "112401.725000"],
      "InstanceCreationTime": ["112034.722000", "112034.725000", "112034.727000", "112034.730000", "112034.732000", "112034.735000", "112034.737000", "112034.740000", "112034.742000", "112034.745000", "112034.747000", "112034.749000", "112034.752000", "112034.754000", "112034.757000", "112034.759000", "112034.762000", "112034.765000", "112034.767000", "112034.770000", "112034.772000", "112034.775000", "112034.781000", "112054.668000", "112054.671000", "112054.673000", "112054.676000", "112054.678000", "112054.688000", "112054.690000", "112054.692000", "112054.695000", "112054.697000", "112054.700000", "112054.702000", "112054.705000", "112054.707000", "112054.710000", "112054.712000", "112054.714000", "112054.717000", "112054.719000", "112054.722000", "112054.724000", "112115.124000", "112115.127000", "112115.129000", "112115.131000", "112115.134000", "112115.137000", "112115.139000", "112115.142000", "112115.144000", "112115.148000", "112115.151000", "112115.153000", "112115.156000", "112115.158000", "112115.161000", "112115.164000", "112115.167000", "112115.169000", "112115.172000", "112115.175000", "112134.660000", "112134.663000", "112134.666000", "112134.668000", "112134.671000", "112134.673000", "112134.676000", "112134.678000", "112134.681000", "112134.683000", "112134.686000", "112134.688000", "112134.691000", "112134.693000", "112134.696000", "112134.698000", "112134.701000", "112134.704000", "112134.706000", "112134.709000", "112154.661000", "112154.663000", "112154.666000", "112154.668000", "112154.671000", "112154.673000", "112154.676000", "112154.678000", "112154.681000", "112154.684000", "112154.686000", "112154.689000", "112154.691000", "112154.693000", "112154.696000", "112154.698000", "112154.701000", "112154.703000", "112154.706000", "112154.708000", "112234.714000", "112234.716000", "112234.719000", "112234.721000", "112234.724000", "112234.726000", "112234.729000", "112234.732000", "112234.734000", "112234.737000", "112234.739000", "112234.742000", "112234.744000", "112234.747000", "112234.750000", "112234.752000", "112234.754000", "112234.757000", "112234.760000", "112234.762000", "112234.765000", "112234.767000", "112234.770000", "112234.772000", "112234.775000", "112234.777000", "112234.780000", "112314.676000", "112314.678000", "112314.685000", "112314.688000", "112314.690000", "112314.693000", "112314.695000", "112314.698000", "112314.700000", "112314.703000", "112314.705000", "112314.708000", "112314.710000", "112314.713000", "112314.715000", "112314.718000", "112314.720000", "112314.723000", "112314.726000", "112314.728000", "112314.730000", "112314.733000", "112314.735000", "112314.738000", "112314.740000", "112314.743000", "112314.745000", "112354.683000", "112354.686000", "112354.689000", "112354.691000", "112354.694000", "112354.696000", "112354.699000", "112354.701000", "112354.704000", "112354.706000", "112354.709000", "112354.711000", "112354.714000", "112354.716000", "112354.718000", "112354.721000", "112354.723000", "112354.726000", "112354.728000", "112354.731000", "112354.733000", "112354.736000", "112354.738000", "112354.741000", "112354.743000", "112354.746000", "112354.748000", "112401.711000", "112401.714000", "112401.716000", "112401.719000", "112401.725000"],
      "InstanceNumber": [1, 2, 3, 4, 5, 6, 7, 8, 9, 10, 11, 12, 13, 14, 15, 16, 17, 18, 19, 20, 21, 22, 23, 24, 25, 26, 27, 28, 29, 30, 31, 32, 33, 34, 35, 36, 37, 38, 39, 40, 41, 42, 43, 44, 45, 46, 47, 48, 49, 50, 51, 52, 53, 54, 55, 56, 57, 58, 59, 60, 61, 62, 63, 64, 65, 66, 67, 68, 69, 70, 71, 72, 73, 74, 75, 76, 77, 78, 79, 80, 81, 82, 83, 84, 85, 86, 87, 88, 89, 90, 91, 92, 93, 94, 95, 96, 97, 98, 99, 100, 101, 102, 103, 104, 105, 106, 107, 108, 109, 110, 111, 112, 113, 114, 115, 116, 117, 118, 119, 120, 121, 122, 123, 124, 125, 126, 127, 128, 129, 130, 131, 132, 133, 134, 135, 136, 137, 138, 139, 140, 141, 142, 143, 144, 145, 146, 147, 148, 149, 150, 151, 152, 153, 154, 155, 156, 157, 158, 159, 160, 161, 162, 163, 164, 165, 166, 167, 168, 169, 170, 171, 172, 173, 174, 175, 176, 177, 178, 179, 180, 181, 182, 183, 184, 185, 186, 187, 188, 189, 190],
      "WindowCenter": [4762.0, 4778.0, 4802.0, 4796.0, 4758.0, 4714.0, 4784.0, 4858.0, 4856.0, 4790.0, 4762.0, 4786.0, 4786.0, 4786.0, 4788.0, 4768.0, 4766.0, 4740.0, 4760.0, 4788.0, 4738.0, 4740.0, 4742.0, 4766.0, 4762.0, 4778.0, 4794.0, 4790.0, 4768.0, 4738.0, 4762.0, 4782.0, 4762.0, 4762.0, 4762.0, 4774.0, 4778.0, 4780.0, 4788.0, 4784.0, 4762.0, 4766.0, 4762.0, 4788.0, 4758.0, 4758.0, 4766.0, 4774.0, 4772.0, 4766.0, 4762.0, 4764.0, 4778.0, 4784.0, 4774.0, 4760.0, 4784.0, 4762.0, 4744.0, 4768.0, 4738.0, 4760.0, 4762.0, 4760.0, 4760.0, 4746.0, 4770.0, 4744.0, 4766.0, 4766.0, 4762.0, 4774.0, 4740.0, 4762.0, 4764.0, 4762.0, 4764.0, 4768.0, 4764.0, 4770.0, 4768.0, 4760.0, 4764.0, 4762.0, 4764.0, 4790.0, 4792.0, 4772.0, 4762.0, 4740.0, 4756.0, 4762.0, 4758.0, 4760.0, 4764.0, 4762.0, 4766.0, 4776.0, 4774.0, 4768.0, 4774.0, 4776.0, 4768.0, 4760.0, 4760.0, 4764.0, 4742.0, 4766.0, 4764.0, 4778.0, 4778.0, 4768.0, 4766.0, 4764.0, 4762.0, 4742.0, 4766.0, 4738.0, 4762.0, 4764.0, 4764.0, 4770.0, 4770.0, 4768.0, 4782.0, 4802.0, 4788.0, 4738.0, 4786.0, 4758.0, 4756.0, 4738.0, 4758.0, 4762.0, 4772.0, 4770.0, 4774.0, 4792.0, 4800.0, 4786.0, 4740.0, 4790.0, 4852.0, 4852.0, 4790.0, 4764.0, 4774.0, 4784.0, 4790.0, 4806.0, 4806.0, 4774.0, 4784.0, 4926.0, 4928.0, 4896.0, 4792.0, 4766.0, 4784.0, 4784.0, 4786.0, 4768.0, 4788.0, 4762.0, 4762.0, 4760.0, 4786.0, 4788.0, 4784.0, 4764.0, 4764.0, 4778.0, 4794.0, 4788.0, 4768.0, 4762.0, 4820.0, 4786.0, 4760.0, 4762.0, 4762.0, 4768.0, 4776.0, 4772.0, 4772.0, 4764.0, 4786.0, 4768.0, 4790.0, 4788.0],
      "WindowWidth": [18576.0, 18588.0, 18580.0, 18580.0, 18550.0, 18504.0, 18606.0, 18694.0, 18690.0, 18604.0, 18574.0, 18592.0, 18588.0, 18588.0, 18596.0, 18578.0, 18578.0, 18542.0, 18572.0, 18606.0, 18542.0, 18542.0, 18542.0, 18576.0, 18578.0, 18590.0, 18586.0, 18596.0, 18582.0, 18542.0, 18574.0, 18600.0, 18572.0, 18576.0, 18580.0, 18582.0, 18594.0, 18592.0, 18590.0, 18592.0, 18578.0, 18578.0, 18578.0, 18608.0, 18568.0, 18574.0, 18582.0, 18588.0, 18588.0, 18578.0, 18576.0, 18578.0, 18592.0, 18588.0, 18586.0, 18574.0, 18606.0, 18576.0, 18544.0, 18580.0, 18544.0, 18580.0, 18574.0, 18576.0, 18574.0, 18550.0, 18588.0, 18548.0, 18580.0, 18582.0, 18578.0, 18586.0, 18546.0, 18578.0, 18576.0, 18582.0, 18580.0, 18580.0, 18580.0, 18588.0, 18576.0, 18578.0, 18576.0, 18578.0, 18582.0, 18590.0, 18590.0, 18586.0, 18576.0, 18544.0, 18568.0, 18574.0, 18570.0, 18576.0, 18576.0, 18580.0, 18586.0, 18588.0, 18588.0, 18584.0, 18586.0, 18588.0, 18582.0, 18576.0, 18576.0, 18578.0, 18544.0, 18578.0, 18580.0, 18588.0, 18588.0, 18580.0, 18576.0, 18582.0, 18580.0, 18546.0, 18580.0, 18544.0, 18576.0, 18580.0, 18580.0, 18580.0, 18586.0, 18584.0, 18594.0, 18582.0, 18584.0, 18544.0, 18608.0, 18574.0, 18568.0, 18540.0, 18572.0, 18574.0, 18584.0, 18582.0, 18586.0, 18586.0, 18580.0, 18586.0, 18544.0, 18608.0, 18686.0, 18686.0, 18608.0, 18578.0, 18582.0, 18598.0, 18562.0, 18524.0, 18562.0, 18580.0, 18606.0, 18750.0, 18746.0, 18728.0, 18608.0, 18580.0, 18596.0, 18576.0, 18554.0, 18522.0, 18596.0, 18580.0, 18576.0, 18572.0, 18604.0, 18610.0, 18608.0, 18582.0, 18588.0, 18590.0, 18558.0, 18586.0, 18588.0, 18580.0, 18646.0, 18606.0, 18576.0, 18572.0, 18586.0, 18588.0, 18590.0, 18588.0, 18588.0, 18584.0, 18614.0, 18580.0, 18594.0, 18596.0]
    },
    "slices": {}
  }
}