{
  "AcquisitionMatrixPE": 104,
  "AcquisitionNumber": 1,
  "AcquisitionTime": "10:54:37.730000",
  "BandwidthPerPixelPhaseEncode": 17.17,
  "BaseResolution": 104,
  "BodyPartExamined": "BRAIN",
  "CoilCombinationMethod": "Sum of Squares",
  "ConsistencyInfo": "N4_VE11C_LATEST_20160120",
  "ConversionSoftware": "dcm2niix",
  "ConversionSoftwareVersion": "v1.0.20211006",
  "DerivedVendorReportedEchoSpacing": 0.000560011,
  "DeviceSerialNumber": "167006",
  "DwellTime": 2.1e-06,
  "EchoTime": 0.037,
  "EchoTime1": 0.037,
  "EchoTime2": 0.001,
  "EchoTrainLength": 104,
  "EffectiveEchoSpacing": 0.000560011,
  "FlipAngle": 52,
  "HeudiconvVersion": "0.10.0",
  "ImageComments": "Unaliased MB4/PE3/LB",
  "ImageOrientationPatientDICOM": [0.999598, 0.0174431, 0.0223568, -0.00453607, 0.876628, -0.481147],
  "ImageOrientationText": "Tra>Cor(-28.8)>Sag(1.6)",
  "ImageType": [
    "ORIGINAL",
    "PRIMARY",
    "P",
    "MB",
    "ND",
    "MOSAIC",
    "PHASE"
],
  "ImagingFrequency": 123.259,
  "InPlanePhaseEncodingDirectionDICOM": "COL",
  "InstitutionAddress": "Chemin Queen-Mary 4565,Montreal,District,CA,H3W 1W5",
  "InstitutionName": "IUGM",
  "InstitutionalDepartmentName": "Department",
  "MRAcquisitionType": "2D",
  "MagneticFieldStrength": 3,
  "Manufacturer": "Siemens",
  "ManufacturersModelName": "Prisma_fit",
  "MatrixCoilMode": "SENSE",
  "Modality": "MR",
  "MultibandAccelerationFactor": 4,
  "PartialFourier": 1,
  "PatientPosition": "HFS",
  "PercentPhaseFOV": 100,
  "PercentSampling": 100,
  "PhaseEncodingDirection": "j",
  "PhaseEncodingSteps": 104,
  "PhaseResolution": 1,
  "PixelBandwidth": 2290,
  "ProcedureStepDescription": "memory^things",
  "ProtocolName": "func_task-things_run-1",
  "PulseSequenceDetails": "%CustomerSeq%\\cmrr_mbep2d_bold",
  "ReceiveCoilActiveElements": "HC1-7;NC1,2",
  "ReceiveCoilName": "HeadNeck_64",
  "ReconMatrixPE": 104,
  "RepetitionTime": 1.49,
  "SAR": 0.0495976,
  "ScanOptions": "FS",
  "ScanningSequence": "EP",
  "SequenceName": "epfid2d1_104",
  "SequenceVariant": "SK\\SS",
  "SeriesDescription": "func_task-things_run-1",
  "SeriesNumber": 17,
  "ShimSetting": [617, -7184, -8857, 309, 18, -122, -46, -12],
  "SliceThickness": 2,
  "SliceTiming": [0, 0.7825, 0.0975, 0.8825, 0.195, 0.98, 0.2925, 1.0775, 0.3925, 1.175, 0.49, 1.2725, 0.5875, 1.3725, 0.685, 0, 0.7825, 0.0975, 0.8825, 0.195, 0.98, 0.2925, 1.0775, 0.3925, 1.175, 0.49, 1.2725, 0.5875, 1.3725, 0.685, 0, 0.7825, 0.0975, 0.8825, 0.195, 0.98, 0.2925, 1.0775, 0.3925, 1.175, 0.49, 1.2725, 0.5875, 1.3725, 0.685, 0, 0.7825, 0.0975, 0.8825, 0.195, 0.98, 0.2925, 1.0775, 0.3925, 1.175, 0.49, 1.2725, 0.5875, 1.3725, 0.685],
  "SoftwareVersions": "syngo MR E11",
  "SpacingBetweenSlices": 2,
  "StationName": "MRC35049",
  "TaskName": "things",
  "TotalReadoutTime": 0.0576811,
  "TxRefAmp": 283.354,
  "WipMemBlock": "31241b8d-6e31-4be1-afd5-bbf1d2a0583f||Sequence: R016 ve11c/master r/e634e98; Dec 19 2017 11:00:25 by eja",
  "dcmmeta_affine": [
    [-1.9991956949234009, -0.009072137996554375, 0.055982556194067, 106.1611099243164],
    [-0.03488623723387718, 1.7532566785812378, -0.9617037773132324, -52.06081771850586],
    [0.04471353814005852, 0.9622935652732849, 1.7527098655700684, -93.40302276611328],
    [0.0, 0.0, 0.0, 1.0]
],
  "dcmmeta_reorient_transform": [
    [0.0, -1.0, 0.0, 103.0],
    [1.0, 0.0, 0.0, 0.0],
    [0.0, 0.0, 1.0, 0.0],
    [0.0, 0.0, 0.0, 1.0]
],
  "dcmmeta_shape": [104, 104, 60, 190],
  "dcmmeta_slice_dim": 2,
  "dcmmeta_version": 0.6,
  "global": {
    "const": {
      "AcquisitionMatrix": [104, 0, 0, 104],
      "AngioFlag": "N",
      "BitsAllocated": 16,
      "BitsStored": 16,
      "BodyPartExamined": "BRAIN",
      "Columns": 832,
      "EchoNumbers": 1,
      "EchoTime": 37.0,
      "EchoTrainLength": 104,
      "FlipAngle": 52.0,
      "HighBit": 15,
      "ImageOrientationPatient": [0.99959787538767, 0.01744311949612, 0.0223567686106, -0.0045360692124, 0.87662831268828, -0.4811467816264],
      "ImagePositionPatient": [-829.63167261001, -779.4086188638, 339.71234096949],
      "ImageType": [
        "ORIGINAL",
        "PRIMARY",
        "P",
        "MB",
        "ND",
        "MOSAIC"
],
      "ImagedNucleus": "1H",
      "ImagingFrequency": 123.258936,
      "InPlanePhaseEncodingDirection": "COL",
      "LargestImagePixelValue": 4095,
      "MRAcquisitionType": "2D",
      "MagneticFieldStrength": 3.0,
      "Manufacturer": "SIEMENS",
      "ManufacturerModelName": "Prisma_fit",
      "Modality": "MR",
      "NumberOfAverages": 1.0,
      "NumberOfPhaseEncodingSteps": 104,
      "PercentPhaseFieldOfView": 100.0,
      "PercentSampling": 100.0,
      "PerformedProcedureStepStartTime": "103931.407000",
      "PhotometricInterpretation": "MONOCHROME2",
      "PixelBandwidth": 2290.0,
      "PixelRepresentation": 0,
      "PixelSpacing": [2.0, 2.0],
      "ProtocolName": "func_task-things_run-1",
      "RepetitionTime": 1490.0,
      "RescaleIntercept": -4096.0,
      "RescaleSlope": 2.0,
      "RescaleType": "US",
      "Rows": 832,
      "SAR": 0.04959755085496,
      "SamplesPerPixel": 1,
      "ScanOptions": "FS",
      "ScanningSequence": "EP",
      "SequenceName": "epfid2d1_104",
      "SequenceVariant": [
        "SK",
        "SS"
],
      "SeriesDescription": "func_task-things_run-1",
      "SeriesNumber": 17,
      "SeriesTime": "105556.351000",
      "SliceLocation": -53.849074361735,
      "SliceThickness": 2.0,
      "SmallestImagePixelValue": 0,
      "SoftwareVersions": "syngo MR E11",
      "SpacingBetweenSlices": 2.000000023866,
      "SpecificCharacterSet": "ISO_IR 100",
      "StudyID": "1",
      "StudyTime": "103930.913000",
      "TransmitCoilName": "Body",
      "VariableFlipAngleFlag": "N",
      "WindowCenterWidthExplanation": "Algo1",
      "dBdt": 0.0},
    "slices": {}
  },
  "time": {
    "samples": {
      "AcquisitionNumber": [1, 2, 3, 4, 5, 6, 7, 8, 9, 10, 11, 12, 13, 14, 15, 16, 17, 18, 19, 20, 21, 22, 23, 24, 25, 26, 27, 28, 29, 30, 31, 32, 33, 34, 35, 36, 37, 38, 39, 40, 41, 42, 43, 44, 45, 46, 47, 48, 49, 50, 51, 52, 53, 54, 55, 56, 57, 58, 59, 60, 61, 62, 63, 64, 65, 66, 67, 68, 69, 70, 71, 72, 73, 74, 75, 76, 77, 78, 79, 80, 81, 82, 83, 84, 85, 86, 87, 88, 89, 90, 91, 92, 93, 94, 95, 96, 97, 98, 99, 100, 101, 102, 103, 104, 105, 106, 107, 108, 109, 110, 111, 112, 113, 114, 115, 116, 117, 118, 119, 120, 121, 122, 123, 124, 125, 126, 127, 128, 129, 130, 131, 132, 133, 134, 135, 136, 137, 138, 139, 140, 141, 142, 143, 144, 145, 146, 147, 148, 149, 150, 151, 152, 153, 154, 155, 156, 157, 158, 159, 160, 161, 162, 163, 164, 165, 166, 167, 168, 169, 170, 171, 172, 173, 174, 175, 176, 177, 178, 179, 180, 181, 182, 183, 184, 185, 186, 187, 188, 189, 190],
      "AcquisitionTime": ["105437.730000", "105439.220000", "105440.710000", "105442.200000", "105443.690000", "105445.180000", "105446.670000", "105448.160000", "105449.650000", "105451.140000", "105452.630000", "105454.120000", "105455.610000", "105457.100000", "105458.590000", "105500.080000", "105501.570000", "105503.060000", "105504.550000", "105506.040000", "105507.530000", "105509.020000", "105510.510000", "105512.000000", "105513.490000", "105514.980000", "105516.470000", "105517.960000", "105519.450000", "105520.940000", "105522.430000", "105523.920000", "105525.410000", "105526.900000", "105528.390000", "105529.880000", "105531.370000", "105532.860000", "105534.350000", "105535.840000", "105537.330000", "105538.820000", "105540.310000", "105541.800000", "105543.290000", "105544.780000", "105546.270000", "105547.760000", "105549.250000", "105550.740000", "105552.230000", "105553.720000", "105555.210000", "105556.700000", "105558.190000", "105559.680000", "105601.170000", "105602.660000", "105604.150000", "105605.640000", "105607.130000", "105608.620000", "105610.110000", "105611.600000", "105613.090000", "105614.580000", "105616.070000", "105617.560000", "105619.050000", "105620.540000", "105622.030000", "105623.520000", "105625.010000", "105626.500000", "105627.990000", "105629.480000", "105630.970000", "105632.460000", "105633.950000", "105635.440000", "105636.930000", "105638.420000", "105639.910000", "105641.400000", "105642.890000", "105644.380000", "105645.870000", "105647.360000", "105648.850000", "105650.340000", "105651.830000", "105653.320000", "105654.810000", "105656.300000", "105657.790000", "105659.280000", "105700.770000", "105702.260000", "105703.750000", "105705.240000", "105706.730000", "105708.220000", "105709.710000", "105711.200000", "105712.690000", "105714.180000", "105715.670000", "105717.160000", "105718.650000", "105720.140000", "105721.630000", "105723.120000", "105724.610000", "105726.100000", "105727.590000", "105729.080000", "105730.570000", "105732.060000", "105733.550000", "105735.040000", "105736.530000", "105738.020000", "105739.510000", "105741.000000", "105742.490000", "105743.980000", "105745.470000", "105746.960000", "105748.450000", "105749.940000", "105751.430000", "105752.920000", "105754.410000", "105755.900000", "105757.390000", "105758.880000", "105800.370000", "105801.860000", "105803.350000", "105804.840000", "105806.330000", "105807.820000", "105809.310000", "105810.800000", "105812.290000", "105813.780000", "105815.270000", "105816.760000", "105818.250000", "105819.740000", "105821.230000", "105822.720000", "105824.210000", "105825.700000", "105827.190000", "105828.680000", "105830.170000", "105831.660000", "105833.150000", "105834.640000", "105836.130000", "105837.620000", "105839.110000", "105840.600000", "105842.090000", "105843.580000", "105845.070000", "105846.560000", "105848.050000", "105849.540000", "105851.030000", "105852.520000", "105854.010000", "105855.500000", "105856.990000", "105858.480000", "105859.970000", "105901.460000", "105902.950000", "105904.440000", "105905.930000", "105907.420000", "105908.910000", "105910.400000", "105911.890000", "105913.380000", "105914.870000", "105916.360000", "105917.850000", "105919.340000"],
      "ContentTime": ["105556.353000", "105556.356000", "105556.358000", "105556.361000", "105556.363000", "105556.365000", "105556.368000", "105556.370000", "105556.373000", "105556.375000", "105556.378000", "105556.380000", "105556.383000", "105556.385000", "105556.395000", "105556.397000", "105556.400000", "105556.402000", "105556.405000", "105556.407000", "105556.410000", "105556.412000", "105556.415000", "105556.417000", "105636.407000", "105636.409000", "105636.412000", "105636.414000", "105636.417000", "105636.419000", "105636.422000", "105636.424000", "105636.427000", "105636.429000", "105636.432000", "105636.435000", "105636.437000", "105636.439000", "105636.442000", "105636.444000", "105636.447000", "105636.449000", "105636.452000", "105636.454000", "105636.457000", "105636.459000", "105636.462000", "105636.464000", "105636.467000", "105636.469000", "105636.472000", "105636.474000", "105636.477000", "105636.479000", "105636.482000", "105636.484000", "105636.487000", "105636.489000", "105636.492000", "105636.494000", "105636.497000", "105636.507000", "105636.509000", "105636.512000", "105656.302000", "105656.305000", "105656.307000", "105656.310000", "105656.312000", "105656.315000", "105656.317000", "105656.319000", "105656.322000", "105656.324000", "105656.327000", "105656.329000", "105656.332000", "105656.334000", "105656.337000", "105656.339000", "105656.342000", "105656.344000", "105656.347000", "105656.349000", "105716.324000", "105716.327000", "105716.329000", "105716.332000", "105716.334000", "105716.336000", "105716.339000", "105716.341000", "105716.344000", "105716.346000", "105716.349000", "105716.351000", "105716.373000", "105716.376000", "105716.378000", "105716.381000", "105716.383000", "105716.386000", "105716.388000", "105716.391000", "105756.343000", "105756.346000", "105756.348000", "105756.351000", "105756.353000", "105756.356000", "105756.358000", "105756.361000", "105756.363000", "105756.366000", "105756.368000", "105756.371000", "105756.373000", "105756.376000", "105756.378000", "105756.381000", "105756.384000", "105756.387000", "105756.390000", "105756.403000", "105756.405000", "105756.408000", "105756.410000", "105756.413000", "105756.415000", "105756.418000", "105756.420000", "105756.423000", "105836.346000", "105836.349000", "105836.351000", "105836.354000", "105836.356000", "105836.359000", "105836.361000", "105836.364000", "105836.366000", "105836.369000", "105836.371000", "105836.374000", "105836.376000", "105836.379000", "105836.382000", "105836.385000", "105836.388000", "105836.390000", "105836.393000", "105836.395000", "105836.398000", "105836.400000", "105836.403000", "105836.405000", "105836.408000", "105836.410000", "105836.413000", "105916.336000", "105916.339000", "105916.342000", "105916.344000", "105916.347000", "105916.349000", "105916.351000", "105916.354000", "105916.356000", "105916.359000", "105916.362000", "105916.364000", "105916.366000", "105916.369000", "105916.372000", "105916.374000", "105916.377000", "105916.379000", "105916.382000", "105916.384000", "105916.387000", "105916.389000", "105916.392000", "105916.394000", "105916.397000", "105916.400000", "105916.402000", "105921.574000", "105921.577000", "105921.580000", "105921.583000"],
      "InstanceCreationTime": ["105556.353000", "105556.356000", "105556.358000", "105556.361000", "105556.363000", "105556.365000", "105556.368000", "105556.370000", "105556.373000", "105556.375000", "105556.378000", "105556.380000", "105556.383000", "105556.385000", "105556.395000", "105556.397000", "105556.400000", "105556.402000", "105556.405000", "105556.407000", "105556.410000", "105556.412000", "105556.415000", "105556.417000", "105636.407000", "105636.409000", "105636.412000", "105636.414000", "105636.417000", "105636.419000", "105636.422000", "105636.424000", "105636.427000", "105636.429000", "105636.432000", "105636.435000", "105636.437000", "105636.439000", "105636.442000", "105636.444000", "105636.447000", "105636.449000", "105636.452000", "105636.454000", "105636.457000", "105636.459000", "105636.462000", "105636.464000", "105636.467000", "105636.469000", "105636.472000", "105636.474000", "105636.477000", "105636.479000", "105636.482000", "105636.484000", "105636.487000", "105636.489000", "105636.492000", "105636.494000", "105636.497000", "105636.507000", "105636.509000", "105636.512000", "105656.302000", "105656.305000", "105656.307000", "105656.310000", "105656.312000", "105656.315000", "105656.317000", "105656.319000", "105656.322000", "105656.324000", "105656.327000", "105656.329000", "105656.332000", "105656.334000", "105656.337000", "105656.339000", "105656.342000", "105656.344000", "105656.347000", "105656.349000", "105716.324000", "105716.327000", "105716.329000", "105716.332000", "105716.334000", "105716.336000", "105716.339000", "105716.341000", "105716.344000", "105716.346000", "105716.349000", "105716.351000", "105716.373000", "105716.376000", "105716.378000", "105716.381000", "105716.383000", "105716.386000", "105716.388000", "105716.391000", "105756.343000", "105756.346000", "105756.348000", "105756.351000", "105756.353000", "105756.356000", "105756.358000", "105756.361000", "105756.363000", "105756.366000", "105756.368000", "105756.371000", "105756.373000", "105756.376000", "105756.378000", "105756.381000", "105756.384000", "105756.387000", "105756.390000", "105756.403000", "105756.405000", "105756.408000", "105756.410000", "105756.413000", "105756.415000", "105756.418000", "105756.420000", "105756.423000", "105836.346000", "105836.349000", "105836.351000", "105836.354000", "105836.356000", "105836.359000", "105836.361000", "105836.364000", "105836.366000", "105836.369000", "105836.371000", "105836.374000", "105836.376000", "105836.379000", "105836.382000", "105836.385000", "105836.388000", "105836.390000", "105836.393000", "105836.395000", "105836.398000", "105836.400000", "105836.403000", "105836.405000", "105836.408000", "105836.410000", "105836.413000", "105916.336000", "105916.339000", "105916.342000", "105916.344000", "105916.347000", "105916.349000", "105916.351000", "105916.354000", "105916.356000", "105916.359000", "105916.362000", "105916.364000", "105916.366000", "105916.369000", "105916.372000", "105916.374000", "105916.377000", "105916.379000", "105916.382000", "105916.384000", "105916.387000", "105916.389000", "105916.392000", "105916.394000", "105916.397000", "105916.400000", "105916.402000", "105921.574000", "105921.577000", "105921.580000", "105921.583000"],
      "InstanceNumber": [1, 2, 3, 4, 5, 6, 7, 8, 9, 10, 11, 12, 13, 14, 15, 16, 17, 18, 19, 20, 21, 22, 23, 24, 25, 26, 27, 28, 29, 30, 31, 32, 33, 34, 35, 36, 37, 38, 39, 40, 41, 42, 43, 44, 45, 46, 47, 48, 49, 50, 51, 52, 53, 54, 55, 56, 57, 58, 59, 60, 61, 62, 63, 64, 65, 66, 67, 68, 69, 70, 71, 72, 73, 74, 75, 76, 77, 78, 79, 80, 81, 82, 83, 84, 85, 86, 87, 88, 89, 90, 91, 92, 93, 94, 95, 96, 97, 98, 99, 100, 101, 102, 103, 104, 105, 106, 107, 108, 109, 110, 111, 112, 113, 114, 115, 116, 117, 118, 119, 120, 121, 122, 123, 124, 125, 126, 127, 128, 129, 130, 131, 132, 133, 134, 135, 136, 137, 138, 139, 140, 141, 142, 143, 144, 145, 146, 147, 148, 149, 150, 151, 152, 153, 154, 155, 156, 157, 158, 159, 160, 161, 162, 163, 164, 165, 166, 167, 168, 169, 170, 171, 172, 173, 174, 175, 176, 177, 178, 179, 180, 181, 182, 183, 184, 185, 186, 187, 188, 189, 190],
      "WindowCenter": [4790.0, 4788.0, 4794.0, 4794.0, 4788.0, 4794.0, 4788.0, 4786.0, 4790.0, 4788.0, 4784.0, 4792.0, 4788.0, 4788.0, 4792.0, 4790.0, 4788.0, 4790.0, 4784.0, 4794.0, 4790.0, 4778.0, 4788.0, 4782.0, 4786.0, 4784.0, 4790.0, 4786.0, 4786.0, 4786.0, 4782.0, 4786.0, 4782.0, 4790.0, 4786.0, 4786.0, 4786.0, 4788.0, 4792.0, 4782.0, 4792.0, 4782.0, 4786.0, 4786.0, 4782.0, 4790.0, 4786.0, 4788.0, 4784.0, 4784.0, 4792.0, 4784.0, 4786.0, 4790.0, 4788.0, 4788.0, 4788.0, 4782.0, 4792.0, 4788.0, 4784.0, 4788.0, 4788.0, 4786.0, 4794.0, 4796.0, 4790.0, 4780.0, 4784.0, 4778.0, 4782.0, 4790.0, 4784.0, 4786.0, 4784.0, 4786.0, 4790.0, 4786.0, 4784.0, 4796.0, 4800.0, 4788.0, 4774.0, 4780.0, 4772.0, 4784.0, 4788.0, 4784.0, 4790.0, 4790.0, 4788.0, 4788.0, 4794.0, 4792.0, 4782.0, 4774.0, 4772.0, 4774.0, 4794.0, 4792.0, 4788.0, 4786.0, 4786.0, 4784.0, 4786.0, 4780.0, 4786.0, 4788.0, 4784.0, 4790.0, 4794.0, 4786.0, 4794.0, 4788.0, 4778.0, 4780.0, 4776.0, 4788.0, 4790.0, 4786.0, 4788.0, 4786.0, 4786.0, 4784.0, 4782.0, 4784.0, 4784.0, 4792.0, 4792.0, 4784.0, 4788.0, 4786.0, 4788.0, 4786.0, 4776.0, 4780.0, 4778.0, 4788.0, 4784.0, 4790.0, 4786.0, 4784.0, 4788.0, 4782.0, 4784.0, 4790.0, 4784.0, 4780.0, 4786.0, 4780.0, 4784.0, 4788.0, 4782.0, 4788.0, 4784.0, 4780.0, 4778.0, 4780.0, 4786.0, 4782.0, 4792.0, 4790.0, 4788.0, 4782.0, 4772.0, 4786.0, 4778.0, 4786.0, 4788.0, 4784.0, 4788.0, 4786.0, 4788.0, 4788.0, 4784.0, 4786.0, 4784.0, 4782.0, 4786.0, 4782.0, 4786.0, 4780.0, 4788.0, 4786.0, 4792.0, 4800.0, 4788.0, 4776.0, 4770.0, 4770.0],
      "WindowWidth": [18586.0, 18588.0, 18572.0, 18580.0, 18590.0, 18588.0, 18590.0, 18590.0, 18592.0, 18588.0, 18588.0, 18580.0, 18582.0, 18580.0, 18574.0, 18590.0, 18572.0, 18592.0, 18590.0, 18578.0, 18588.0, 18586.0, 18590.0, 18588.0, 18584.0, 18588.0, 18582.0, 18574.0, 18586.0, 18592.0, 18584.0, 18558.0, 18580.0, 18578.0, 18584.0, 18582.0, 18586.0, 18582.0, 18584.0, 18586.0, 18594.0, 18588.0, 18588.0, 18584.0, 18584.0, 18582.0, 18586.0, 18582.0, 18582.0, 18586.0, 18574.0, 18586.0, 18588.0, 18574.0, 18590.0, 18584.0, 18586.0, 18586.0, 18588.0, 18580.0, 18592.0, 18584.0, 18584.0, 18588.0, 18570.0, 18554.0, 18578.0, 18588.0, 18586.0, 18586.0, 18590.0, 18580.0, 18582.0, 18588.0, 18584.0, 18584.0, 18568.0, 18574.0, 18584.0, 18558.0, 18560.0, 18590.0, 18582.0, 18586.0, 18582.0, 18590.0, 18580.0, 18580.0, 18576.0, 18560.0, 18578.0, 18576.0, 18554.0, 18578.0, 18588.0, 18580.0, 18584.0, 18584.0, 18570.0, 18556.0, 18570.0, 18582.0, 18582.0, 18590.0, 18590.0, 18588.0, 18588.0, 18572.0, 18584.0, 18566.0, 18564.0, 18594.0, 18584.0, 18588.0, 18590.0, 18588.0, 18588.0, 18588.0, 18580.0, 18580.0, 18568.0, 18574.0, 18586.0, 18586.0, 18594.0, 18596.0, 18594.0, 18564.0, 18570.0, 18580.0, 18558.0, 18580.0, 18586.0, 18584.0, 18592.0, 18588.0, 18586.0, 18590.0, 18588.0, 18570.0, 18572.0, 18580.0, 18574.0, 18584.0, 18580.0, 18570.0, 18586.0, 18588.0, 18590.0, 18588.0, 18584.0, 18580.0, 18590.0, 18578.0, 18580.0, 18578.0, 18582.0, 18584.0, 18582.0, 18586.0, 18558.0, 18562.0, 18586.0, 18592.0, 18582.0, 18590.0, 18586.0, 18592.0, 18592.0, 18580.0, 18568.0, 18580.0, 18560.0, 18576.0, 18590.0, 18584.0, 18594.0, 18592.0, 18588.0, 18590.0, 18588.0, 18588.0, 18566.0, 18582.0, 18552.0, 18548.0, 18584.0, 18586.0, 18582.0, 18580.0]
    },
    "slices": {}
  }
}