{
  "AcquisitionMatrixPE": 104,
  "AcquisitionNumber": 1,
  "AcquisitionTime": "11:00:48.707500",
  "BandwidthPerPixelPhaseEncode": 17.17,
  "BaseResolution": 104,
  "BodyPartExamined": "BRAIN",
  "CoilCombinationMethod": "Sum of Squares",
  "ConsistencyInfo": "N4_VE11C_LATEST_20160120",
  "ConversionSoftware": "dcm2niix",
  "ConversionSoftwareVersion": "v1.0.20211006",
  "DerivedVendorReportedEchoSpacing": 0.000560011,
  "DeviceSerialNumber": "167006",
  "DwellTime": 2.1e-06,
  "EchoTime": 0.037,
  "EchoTime1": 0.037,
  "EchoTime2": 0.001,
  "EchoTrainLength": 104,
  "EffectiveEchoSpacing": 0.000560011,
  "FlipAngle": 52,
  "HeudiconvVersion": "0.10.0",
  "ImageComments": "Unaliased MB4/PE3/LB",
  "ImageOrientationPatientDICOM": [0.999598, 0.0174431, 0.0223568, -0.00453607, 0.876628, -0.481147],
  "ImageOrientationText": "Tra>Cor(-28.8)>Sag(1.6)",
  "ImageType": [
    "ORIGINAL",
    "PRIMARY",
    "P",
    "MB",
    "ND",
    "MOSAIC",
    "PHASE"
],
  "ImagingFrequency": 123.259,
  "InPlanePhaseEncodingDirectionDICOM": "COL",
  "InstitutionAddress": "Chemin Queen-Mary 4565,Montreal,District,CA,H3W 1W5",
  "InstitutionName": "IUGM",
  "InstitutionalDepartmentName": "Department",
  "MRAcquisitionType": "2D",
  "MagneticFieldStrength": 3,
  "Manufacturer": "Siemens",
  "ManufacturersModelName": "Prisma_fit",
  "MatrixCoilMode": "SENSE",
  "Modality": "MR",
  "MultibandAccelerationFactor": 4,
  "PartialFourier": 1,
  "PatientPosition": "HFS",
  "PercentPhaseFOV": 100,
  "PercentSampling": 100,
  "PhaseEncodingDirection": "j",
  "PhaseEncodingSteps": 104,
  "PhaseResolution": 1,
  "PixelBandwidth": 2290,
  "ProcedureStepDescription": "memory^things",
  "ProtocolName": "func_task-things_run-2",
  "PulseSequenceDetails": "%CustomerSeq%\\cmrr_mbep2d_bold",
  "ReceiveCoilActiveElements": "HC1-7;NC1,2",
  "ReceiveCoilName": "HeadNeck_64",
  "ReconMatrixPE": 104,
  "RepetitionTime": 1.49,
  "SAR": 0.0495976,
  "ScanOptions": "FS",
  "ScanningSequence": "EP",
  "SequenceName": "epfid2d1_104",
  "SequenceVariant": "SK\\SS",
  "SeriesDescription": "func_task-things_run-2",
  "SeriesNumber": 20,
  "ShimSetting": [617, -7184, -8857, 309, 18, -122, -46, -12],
  "SliceThickness": 2,
  "SliceTiming": [0, 0.7825, 0.0975, 0.8825, 0.195, 0.98, 0.295, 1.0775, 0.3925, 1.175, 0.49, 1.2725, 0.5875, 1.3725, 0.685, 0, 0.7825, 0.0975, 0.8825, 0.195, 0.98, 0.295, 1.0775, 0.3925, 1.175, 0.49, 1.2725, 0.5875, 1.3725, 0.685, 0, 0.7825, 0.0975, 0.8825, 0.195, 0.98, 0.295, 1.0775, 0.3925, 1.175, 0.49, 1.2725, 0.5875, 1.3725, 0.685, 0, 0.7825, 0.0975, 0.8825, 0.195, 0.98, 0.295, 1.0775, 0.3925, 1.175, 0.49, 1.2725, 0.5875, 1.3725, 0.685],
  "SoftwareVersions": "syngo MR E11",
  "SpacingBetweenSlices": 2,
  "StationName": "MRC35049",
  "TaskName": "things",
  "TotalReadoutTime": 0.0576811,
  "TxRefAmp": 283.354,
  "WipMemBlock": "e93f0d95-b2f7-4a2d-89c1-0deb36a41211||Sequence: R016 ve11c/master r/e634e98; Dec 19 2017 11:00:25 by eja",
  "dcmmeta_affine": [
    [-1.9991956949234009, -0.009072137996554375, 0.055982556194067, 106.1611099243164],
    [-0.03488623723387718, 1.7532566785812378, -0.9617037773132324, -52.06081771850586],
    [0.04471353814005852, 0.9622935652732849, 1.7527098655700684, -93.40302276611328],
    [0.0, 0.0, 0.0, 1.0]
],
  "dcmmeta_reorient_transform": [
    [0.0, -1.0, 0.0, 103.0],
    [1.0, 0.0, 0.0, 0.0],
    [0.0, 0.0, 1.0, 0.0],
    [0.0, 0.0, 0.0, 1.0]
],
  "dcmmeta_shape": [104, 104, 60, 190],
  "dcmmeta_slice_dim": 2,
  "dcmmeta_version": 0.6,
  "global": {
    "const": {
      "AcquisitionMatrix": [104, 0, 0, 104],
      "AngioFlag": "N",
      "BitsAllocated": 16,
      "BitsStored": 16,
      "BodyPartExamined": "BRAIN",
      "Columns": 832,
      "EchoNumbers": 1,
      "EchoTime": 37.0,
      "EchoTrainLength": 104,
      "FlipAngle": 52.0,
      "HighBit": 15,
      "ImageOrientationPatient": [0.99959787538767, 0.01744311949612, 0.0223567686106, -0.0045360692124, 0.87662831268828, -0.4811467816264],
      "ImagePositionPatient": [-829.63167261001, -779.4086188638, 339.71234096949],
      "ImageType": [
        "ORIGINAL",
        "PRIMARY",
        "P",
        "MB",
        "ND",
        "MOSAIC"
],
      "ImagedNucleus": "1H",
      "ImagingFrequency": 123.258943,
      "InPlanePhaseEncodingDirection": "COL",
      "LargestImagePixelValue": 4095,
      "MRAcquisitionType": "2D",
      "MagneticFieldStrength": 3.0,
      "Manufacturer": "SIEMENS",
      "ManufacturerModelName": "Prisma_fit",
      "Modality": "MR",
      "NumberOfAverages": 1.0,
      "NumberOfPhaseEncodingSteps": 104,
      "PercentPhaseFieldOfView": 100.0,
      "PercentSampling": 100.0,
      "PerformedProcedureStepStartTime": "103931.407000",
      "PhotometricInterpretation": "MONOCHROME2",
      "PixelBandwidth": 2290.0,
      "PixelRepresentation": 0,
      "PixelSpacing": [2.0, 2.0],
      "ProtocolName": "func_task-things_run-2",
      "RepetitionTime": 1490.0,
      "RescaleIntercept": -4096.0,
      "RescaleSlope": 2.0,
      "RescaleType": "US",
      "Rows": 832,
      "SAR": 0.04959755085496,
      "SamplesPerPixel": 1,
      "ScanOptions": "FS",
      "ScanningSequence": "EP",
      "SequenceName": "epfid2d1_104",
      "SequenceVariant": [
        "SK",
        "SS"
],
      "SeriesDescription": "func_task-things_run-2",
      "SeriesNumber": 20,
      "SeriesTime": "110214.755000",
      "SliceLocation": -53.849074361735,
      "SliceThickness": 2.0,
      "SmallestImagePixelValue": 0,
      "SoftwareVersions": "syngo MR E11",
      "SpacingBetweenSlices": 2.000000023866,
      "SpecificCharacterSet": "ISO_IR 100",
      "StudyID": "1",
      "StudyTime": "103930.913000",
      "TransmitCoilName": "Body",
      "VariableFlipAngleFlag": "N",
      "WindowCenterWidthExplanation": "Algo1",
      "dBdt": 0.0},
    "slices": {}
  },
  "time": {
    "samples": {
      "AcquisitionNumber": [1, 2, 3, 4, 5, 6, 7, 8, 9, 10, 11, 12, 13, 14, 15, 16, 17, 18, 19, 20, 21, 22, 23, 24, 25, 26, 27, 28, 29, 30, 31, 32, 33, 34, 35, 36, 37, 38, 39, 40, 41, 42, 43, 44, 45, 46, 47, 48, 49, 50, 51, 52, 53, 54, 55, 56, 57, 58, 59, 60, 61, 62, 63, 64, 65, 66, 67, 68, 69, 70, 71, 72, 73, 74, 75, 76, 77, 78, 79, 80, 81, 82, 83, 84, 85, 86, 87, 88, 89, 90, 91, 92, 93, 94, 95, 96, 97, 98, 99, 100, 101, 102, 103, 104, 105, 106, 107, 108, 109, 110, 111, 112, 113, 114, 115, 116, 117, 118, 119, 120, 121, 122, 123, 124, 125, 126, 127, 128, 129, 130, 131, 132, 133, 134, 135, 136, 137, 138, 139, 140, 141, 142, 143, 144, 145, 146, 147, 148, 149, 150, 151, 152, 153, 154, 155, 156, 157, 158, 159, 160, 161, 162, 163, 164, 165, 166, 167, 168, 169, 170, 171, 172, 173, 174, 175, 176, 177, 178, 179, 180, 181, 182, 183, 184, 185, 186, 187, 188, 189, 190],
      "AcquisitionTime": ["110048.707500", "110050.197500", "110051.687500", "110053.177500", "110054.667500", "110056.157500", "110057.647500", "110059.137500", "110100.627500", "110102.117500", "110103.607500", "110105.097500", "110106.587500", "110108.077500", "110109.567500", "110111.057500", "110112.547500", "110114.037500", "110115.527500", "110117.017500", "110118.507500", "110119.997500", "110121.487500", "110122.977500", "110124.467500", "110125.957500", "110127.447500", "110128.937500", "110130.427500", "110131.917500", "110133.407500", "110134.897500", "110136.387500", "110137.877500", "110139.367500", "110140.857500", "110142.347500", "110143.837500", "110145.327500", "110146.817500", "110148.307500", "110149.797500", "110151.287500", "110152.777500", "110154.267500", "110155.757500", "110157.247500", "110158.737500", "110200.227500", "110201.717500", "110203.207500", "110204.697500", "110206.187500", "110207.677500", "110209.167500", "110210.657500", "110212.147500", "110213.637500", "110215.127500", "110216.617500", "110218.107500", "110219.597500", "110221.087500", "110222.577500", "110224.067500", "110225.557500", "110227.047500", "110228.537500", "110230.027500", "110231.517500", "110233.007500", "110234.497500", "110235.987500", "110237.477500", "110238.967500", "110240.457500", "110241.947500", "110243.437500", "110244.927500", "110246.417500", "110247.907500", "110249.397500", "110250.887500", "110252.377500", "110253.867500", "110255.357500", "110256.847500", "110258.337500", "110259.827500", "110301.317500", "110302.807500", "110304.297500", "110305.787500", "110307.277500", "110308.767500", "110310.257500", "110311.747500", "110313.237500", "110314.727500", "110316.217500", "110317.707500", "110319.197500", "110320.687500", "110322.177500", "110323.667500", "110325.157500", "110326.647500", "110328.137500", "110329.627500", "110331.117500", "110332.607500", "110334.097500", "110335.587500", "110337.077500", "110338.567500", "110340.057500", "110341.547500", "110343.037500", "110344.527500", "110346.017500", "110347.507500", "110348.997500", "110350.487500", "110351.977500", "110353.467500", "110354.957500", "110356.447500", "110357.937500", "110359.427500", "110400.917500", "110402.407500", "110403.897500", "110405.387500", "110406.877500", "110408.367500", "110409.857500", "110411.347500", "110412.837500", "110414.327500", "110415.817500", "110417.307500", "110418.797500", "110420.287500", "110421.777500", "110423.267500", "110424.757500", "110426.247500", "110427.737500", "110429.227500", "110430.717500", "110432.207500", "110433.697500", "110435.187500", "110436.677500", "110438.167500", "110439.657500", "110441.147500", "110442.637500", "110444.127500", "110445.617500", "110447.107500", "110448.597500", "110450.087500", "110451.577500", "110453.067500", "110454.557500", "110456.047500", "110457.537500", "110459.027500", "110500.517500", "110502.007500", "110503.497500", "110504.987500", "110506.477500", "110507.967500", "110509.457500", "110510.947500", "110512.437500", "110513.927500", "110515.417500", "110516.907500", "110518.397500", "110519.887500", "110521.377500", "110522.867500", "110524.357500", "110525.847500", "110527.337500", "110528.827500", "110530.317500"],
      "ContentTime": ["110214.757000", "110214.759000", "110214.762000", "110214.764000", "110214.767000", "110214.769000", "110214.772000", "110214.774000", "110214.777000", "110214.779000", "110214.782000", "110214.784000", "110214.787000", "110214.789000", "110214.792000", "110214.794000", "110214.797000", "110214.799000", "110214.802000", "110214.804000", "110214.807000", "110214.809000", "110214.812000", "110214.814000", "110214.820000", "110214.822000", "110214.825000", "110214.828000", "110214.830000", "110214.833000", "110214.835000", "110214.838000", "110214.840000", "110214.843000", "110234.657000", "110234.659000", "110234.662000", "110234.664000", "110234.667000", "110234.673000", "110234.675000", "110234.678000", "110234.680000", "110234.683000", "110234.685000", "110234.688000", "110234.690000", "110234.693000", "110234.695000", "110234.698000", "110234.700000", "110234.703000", "110234.705000", "110234.708000", "110254.661000", "110254.664000", "110254.667000", "110254.669000", "110254.671000", "110254.674000", "110254.677000", "110254.679000", "110254.682000", "110254.684000", "110254.687000", "110254.689000", "110254.692000", "110254.695000", "110254.697000", "110254.699000", "110254.702000", "110254.705000", "110254.707000", "110254.709000", "110314.672000", "110314.674000", "110314.677000", "110314.679000", "110314.682000", "110314.684000", "110314.687000", "110314.689000", "110314.692000", "110314.694000", "110314.697000", "110314.699000", "110314.702000", "110314.704000", "110314.706000", "110314.709000", "110314.711000", "110314.714000", "110314.716000", "110314.719000", "110314.721000", "110354.698000", "110354.701000", "110354.703000", "110354.706000", "110354.708000", "110354.711000", "110354.713000", "110354.716000", "110354.718000", "110354.720000", "110354.723000", "110354.725000", "110354.728000", "110354.730000", "110354.733000", "110354.735000", "110354.738000", "110354.740000", "110354.743000", "110354.745000", "110354.748000", "110354.750000", "110354.753000", "110354.755000", "110354.758000", "110354.760000", "110354.763000", "110354.765000", "110354.768000", "110434.694000", "110434.697000", "110434.700000", "110434.702000", "110434.704000", "110434.707000", "110434.710000", "110434.712000", "110434.715000", "110434.717000", "110434.720000", "110434.722000", "110434.725000", "110434.727000", "110434.730000", "110434.732000", "110434.735000", "110434.737000", "110434.739000", "110434.742000", "110434.744000", "110434.747000", "110434.749000", "110434.752000", "110434.754000", "110434.757000", "110434.760000", "110514.679000", "110514.681000", "110514.684000", "110514.686000", "110514.689000", "110514.691000", "110514.694000", "110514.696000", "110514.699000", "110514.701000", "110514.704000", "110514.706000", "110514.709000", "110514.711000", "110514.714000", "110514.716000", "110514.719000", "110514.721000", "110514.724000", "110514.726000", "110514.729000", "110514.731000", "110514.734000", "110514.736000", "110514.738000", "110514.741000", "110532.607000", "110532.610000", "110532.612000", "110532.615000", "110532.617000", "110532.620000", "110532.622000", "110532.625000", "110532.627000", "110532.630000", "110532.632000", "110532.635000", "110532.638000"],
      "InstanceCreationTime": ["110214.757000", "110214.759000", "110214.762000", "110214.764000", "110214.767000", "110214.769000", "110214.772000", "110214.774000", "110214.777000", "110214.779000", "110214.782000", "110214.784000", "110214.787000", "110214.789000", "110214.792000", "110214.794000", "110214.797000", "110214.799000", "110214.802000", "110214.804000", "110214.807000", "110214.809000", "110214.812000", "110214.814000", "110214.820000", "110214.822000", "110214.825000", "110214.828000", "110214.830000", "110214.833000", "110214.835000", "110214.838000", "110214.840000", "110214.843000", "110234.657000", "110234.659000", "110234.662000", "110234.664000", "110234.667000", "110234.673000", "110234.675000", "110234.678000", "110234.680000", "110234.683000", "110234.685000", "110234.688000", "110234.690000", "110234.693000", "110234.695000", "110234.698000", "110234.700000", "110234.703000", "110234.705000", "110234.708000", "110254.661000", "110254.664000", "110254.667000", "110254.669000", "110254.671000", "110254.674000", "110254.677000", "110254.679000", "110254.682000", "110254.684000", "110254.687000", "110254.689000", "110254.692000", "110254.695000", "110254.697000", "110254.699000", "110254.702000", "110254.705000", "110254.707000", "110254.709000", "110314.672000", "110314.674000", "110314.677000", "110314.679000", "110314.682000", "110314.684000", "110314.687000", "110314.689000", "110314.692000", "110314.694000", "110314.697000", "110314.699000", "110314.702000", "110314.704000", "110314.706000", "110314.709000", "110314.711000", "110314.714000", "110314.716000", "110314.719000", "110314.721000", "110354.698000", "110354.701000", "110354.703000", "110354.706000", "110354.708000", "110354.711000", "110354.713000", "110354.716000", "110354.718000", "110354.720000", "110354.723000", "110354.725000", "110354.728000", "110354.730000", "110354.733000", "110354.735000", "110354.738000", "110354.740000", "110354.743000", "110354.745000", "110354.748000", "110354.750000", "110354.753000", "110354.755000", "110354.758000", "110354.760000", "110354.763000", "110354.765000", "110354.768000", "110434.694000", "110434.697000", "110434.700000", "110434.702000", "110434.704000", "110434.707000", "110434.710000", "110434.712000", "110434.715000", "110434.717000", "110434.720000", "110434.722000", "110434.725000", "110434.727000", "110434.730000", "110434.732000", "110434.735000", "110434.737000", "110434.739000", "110434.742000", "110434.744000", "110434.747000", "110434.749000", "110434.752000", "110434.754000", "110434.757000", "110434.760000", "110514.679000", "110514.681000", "110514.684000", "110514.686000", "110514.689000", "110514.691000", "110514.694000", "110514.696000", "110514.699000", "110514.701000", "110514.704000", "110514.706000", "110514.709000", "110514.711000", "110514.714000", "110514.716000", "110514.719000", "110514.721000", "110514.724000", "110514.726000", "110514.729000", "110514.731000", "110514.734000", "110514.736000", "110514.738000", "110514.741000", "110532.607000", "110532.610000", "110532.612000", "110532.615000", "110532.617000", "110532.620000", "110532.622000", "110532.625000", "110532.627000", "110532.630000", "110532.632000", "110532.635000", "110532.638000"],
      "InstanceNumber": [1, 2, 3, 4, 5, 6, 7, 8, 9, 10, 11, 12, 13, 14, 15, 16, 17, 18, 19, 20, 21, 22, 23, 24, 25, 26, 27, 28, 29, 30, 31, 32, 33, 34, 35, 36, 37, 38, 39, 40, 41, 42, 43, 44, 45, 46, 47, 48, 49, 50, 51, 52, 53, 54, 55, 56, 57, 58, 59, 60, 61, 62, 63, 64, 65, 66, 67, 68, 69, 70, 71, 72, 73, 74, 75, 76, 77, 78, 79, 80, 81, 82, 83, 84, 85, 86, 87, 88, 89, 90, 91, 92, 93, 94, 95, 96, 97, 98, 99, 100, 101, 102, 103, 104, 105, 106, 107, 108, 109, 110, 111, 112, 113, 114, 115, 116, 117, 118, 119, 120, 121, 122, 123, 124, 125, 126, 127, 128, 129, 130, 131, 132, 133, 134, 135, 136, 137, 138, 139, 140, 141, 142, 143, 144, 145, 146, 147, 148, 149, 150, 151, 152, 153, 154, 155, 156, 157, 158, 159, 160, 161, 162, 163, 164, 165, 166, 167, 168, 169, 170, 171, 172, 173, 174, 175, 176, 177, 178, 179, 180, 181, 182, 183, 184, 185, 186, 187, 188, 189, 190],
      "WindowCenter": [4766.0, 4766.0, 4756.0, 4746.0, 4762.0, 4852.0, 4888.0, 4826.0, 4744.0, 4742.0, 4760.0, 4764.0, 4818.0, 4824.0, 4824.0, 4796.0, 4768.0, 4796.0, 4794.0, 4750.0, 4758.0, 4860.0, 4884.0, 4760.0, 4758.0, 4760.0, 4762.0, 4760.0, 4764.0, 4742.0, 4760.0, 4762.0, 4764.0, 4796.0, 4822.0, 4792.0, 4766.0, 4790.0, 4782.0, 4736.0, 4824.0, 4886.0, 4860.0, 4856.0, 4746.0, 4790.0, 4776.0, 4764.0, 4818.0, 4820.0, 4824.0, 4850.0, 4816.0, 4788.0, 4764.0, 4776.0, 4792.0, 4778.0, 4760.0, 4820.0, 4792.0, 4816.0, 4828.0, 4822.0, 4796.0, 4764.0, 4766.0, 4768.0, 4776.0, 4770.0, 4764.0, 4824.0, 4862.0, 4760.0, 4734.0, 4736.0, 4762.0, 4762.0, 4760.0, 4760.0, 4766.0, 4796.0, 4762.0, 4740.0, 4738.0, 4760.0, 4764.0, 4740.0, 4762.0, 4792.0, 4742.0, 4740.0, 4734.0, 4792.0, 4818.0, 4822.0, 4822.0, 4760.0, 4792.0, 4784.0, 4740.0, 4790.0, 4860.0, 4862.0, 4860.0, 4820.0, 4774.0, 4804.0, 4796.0, 4744.0, 4790.0, 4850.0, 4852.0, 4886.0, 4858.0, 4766.0, 4788.0, 4788.0, 4748.0, 4760.0, 4826.0, 4884.0, 4760.0, 4734.0, 4762.0, 4764.0, 4762.0, 4764.0, 4766.0, 4768.0, 4768.0, 4764.0, 4770.0, 4794.0, 4806.0, 4748.0, 4818.0, 4896.0, 4926.0, 4898.0, 4818.0, 4762.0, 4766.0, 4772.0, 4774.0, 4766.0, 4768.0, 4766.0, 4774.0, 4744.0, 4758.0, 4824.0, 4760.0, 4822.0, 4820.0, 4760.0, 4758.0, 4762.0, 4764.0, 4760.0, 4760.0, 4764.0, 4766.0, 4766.0, 4748.0, 4742.0, 4760.0, 4828.0, 4764.0, 4740.0, 4764.0, 4826.0, 4816.0, 4792.0, 4788.0, 4764.0, 4762.0, 4764.0, 4768.0, 4788.0, 4780.0, 4760.0, 4828.0, 4760.0, 4734.0, 4786.0, 4826.0, 4822.0, 4790.0, 4764.0],
      "WindowWidth": [18576.0, 18578.0, 18548.0, 18544.0, 18574.0, 18684.0, 18716.0, 18648.0, 18546.0, 18544.0, 18576.0, 18576.0, 18644.0, 18646.0, 18648.0, 18612.0, 18578.0, 18590.0, 18588.0, 18542.0, 18568.0, 18696.0, 18718.0, 18572.0, 18570.0, 18572.0, 18570.0, 18572.0, 18572.0, 18540.0, 18576.0, 18574.0, 18576.0, 18612.0, 18646.0, 18610.0, 18576.0, 18582.0, 18586.0, 18538.0, 18650.0, 18722.0, 18688.0, 18688.0, 18544.0, 18586.0, 18580.0, 18578.0, 18644.0, 18642.0, 18648.0, 18680.0, 18642.0, 18606.0, 18576.0, 18582.0, 18594.0, 18586.0, 18572.0, 18642.0, 18610.0, 18642.0, 18656.0, 18650.0, 18612.0, 18576.0, 18574.0, 18580.0, 18582.0, 18582.0, 18574.0, 18648.0, 18690.0, 18568.0, 18538.0, 18536.0, 18576.0, 18570.0, 18570.0, 18564.0, 18580.0, 18614.0, 18572.0, 18542.0, 18544.0, 18566.0, 18574.0, 18540.0, 18576.0, 18606.0, 18538.0, 18538.0, 18538.0, 18610.0, 18642.0, 18648.0, 18650.0, 18570.0, 18592.0, 18586.0, 18546.0, 18608.0, 18694.0, 18694.0, 18690.0, 18644.0, 18578.0, 18584.0, 18594.0, 18548.0, 18610.0, 18682.0, 18686.0, 18724.0, 18690.0, 18572.0, 18588.0, 18588.0, 18546.0, 18570.0, 18656.0, 18722.0, 18574.0, 18536.0, 18570.0, 18574.0, 18572.0, 18574.0, 18574.0, 18574.0, 18576.0, 18574.0, 18580.0, 18586.0, 18578.0, 18544.0, 18646.0, 18718.0, 18742.0, 18720.0, 18644.0, 18574.0, 18584.0, 18590.0, 18586.0, 18576.0, 18582.0, 18582.0, 18578.0, 18542.0, 18570.0, 18652.0, 18574.0, 18650.0, 18648.0, 18572.0, 18570.0, 18574.0, 18576.0, 18574.0, 18574.0, 18578.0, 18578.0, 18578.0, 18544.0, 18542.0, 18570.0, 18654.0, 18570.0, 18536.0, 18572.0, 18652.0, 18640.0, 18610.0, 18604.0, 18574.0, 18568.0, 18578.0, 18580.0, 18588.0, 18588.0, 18570.0, 18650.0, 18570.0, 18536.0, 18608.0, 18652.0, 18650.0, 18610.0, 18578.0]
    },
    "slices": {}
  }
}