{
  "AcquisitionMatrixPE": 104,
  "AcquisitionNumber": 1,
  "AcquisitionTime": "11:25:23.500000",
  "BandwidthPerPixelPhaseEncode": 17.17,
  "BaseResolution": 104,
  "BodyPartExamined": "BRAIN",
  "CoilCombinationMethod": "Sum of Squares",
  "ConsistencyInfo": "N4_VE11C_LATEST_20160120",
  "ConversionSoftware": "dcm2niix",
  "ConversionSoftwareVersion": "v1.0.20211006",
  "DerivedVendorReportedEchoSpacing": 0.000560011,
  "DeviceSerialNumber": "167006",
  "DwellTime": 2.1e-06,
  "EchoTime": 0.037,
  "EchoTrainLength": 104,
  "EffectiveEchoSpacing": 0.000560011,
  "FlipAngle": 52,
  "HeudiconvVersion": "0.10.0",
  "ImageComments": "Unaliased MB4/PE3/LB",
  "ImageOrientationPatientDICOM": [0.999598, 0.0174431, 0.0223568, -0.00453607, 0.876628, -0.481147],
  "ImageOrientationText": "Tra>Cor(-28.8)>Sag(1.6)",
  "ImageType": [
    "ORIGINAL",
    "PRIMARY",
    "M",
    "MB",
    "ND",
    "MOSAIC"
],
  "ImagingFrequency": 123.259,
  "InPlanePhaseEncodingDirectionDICOM": "COL",
  "InstitutionAddress": "Chemin Queen-Mary 4565,Montreal,District,CA,H3W 1W5",
  "InstitutionName": "IUGM",
  "InstitutionalDepartmentName": "Department",
  "MRAcquisitionType": "2D",
  "MagneticFieldStrength": 3,
  "Manufacturer": "Siemens",
  "ManufacturersModelName": "Prisma_fit",
  "MatrixCoilMode": "SENSE",
  "Modality": "MR",
  "MultibandAccelerationFactor": 4,
  "PartialFourier": 1,
  "PatientPosition": "HFS",
  "PercentPhaseFOV": 100,
  "PercentSampling": 100,
  "PhaseEncodingDirection": "j",
  "PhaseEncodingSteps": 104,
  "PhaseResolution": 1,
  "PixelBandwidth": 2290,
  "ProcedureStepDescription": "memory^things",
  "ProtocolName": "func_task-things_run-6",
  "PulseSequenceDetails": "%CustomerSeq%\\cmrr_mbep2d_bold",
  "ReceiveCoilActiveElements": "HC1-7;NC1,2",
  "ReceiveCoilName": "HeadNeck_64",
  "ReconMatrixPE": 104,
  "RepetitionTime": 1.49,
  "SAR": 0.0495976,
  "ScanOptions": "FS",
  "ScanningSequence": "EP",
  "SequenceName": "epfid2d1_104",
  "SequenceVariant": "SK\\SS",
  "SeriesDescription": "func_task-things_run-6",
  "SeriesNumber": 31,
  "ShimSetting": [617, -7184, -8857, 309, 18, -122, -46, -12],
  "SliceThickness": 2,
  "SliceTiming": [0, 0.7825, 0.0975, 0.88, 0.195, 0.98, 0.2925, 1.0775, 0.39, 1.175, 0.49, 1.2725, 0.5875, 1.37, 0.685, 0, 0.7825, 0.0975, 0.88, 0.195, 0.98, 0.2925, 1.0775, 0.39, 1.175, 0.49, 1.2725, 0.5875, 1.37, 0.685, 0, 0.7825, 0.0975, 0.88, 0.195, 0.98, 0.2925, 1.0775, 0.39, 1.175, 0.49, 1.2725, 0.5875, 1.37, 0.685, 0, 0.7825, 0.0975, 0.88, 0.195, 0.98, 0.2925, 1.0775, 0.39, 1.175, 0.49, 1.2725, 0.5875, 1.37, 0.685],
  "SoftwareVersions": "syngo MR E11",
  "SpacingBetweenSlices": 2,
  "StationName": "MRC35049",
  "TaskName": "things",
  "TotalReadoutTime": 0.0576811,
  "TxRefAmp": 283.354,
  "WipMemBlock": "0c9f4e9e-0a33-4be5-97ca-fe874d2444f3||Sequence: R016 ve11c/master r/e634e98; Dec 19 2017 11:00:25 by eja",
  "dcmmeta_affine": [
    [-1.9991956949234009, -0.009072137996554375, 0.055982556194067, 106.1611099243164],
    [-0.03488623723387718, 1.7532566785812378, -0.9617037773132324, -52.06081771850586],
    [0.04471353814005852, 0.9622935652732849, 1.7527098655700684, -93.40302276611328],
    [0.0, 0.0, 0.0, 1.0]
],
  "dcmmeta_reorient_transform": [
    [0.0, -1.0, 0.0, 103.0],
    [1.0, 0.0, 0.0, 0.0],
    [0.0, 0.0, 1.0, 0.0],
    [0.0, 0.0, 0.0, 1.0]
],
  "dcmmeta_shape": [104, 104, 60, 190],
  "dcmmeta_slice_dim": 2,
  "dcmmeta_version": 0.6,
  "global": {
    "const": {
      "AcquisitionMatrix": [104, 0, 0, 104],
      "AngioFlag": "N",
      "BitsAllocated": 16,
      "BitsStored": 16,
      "BodyPartExamined": "BRAIN",
      "Columns": 832,
      "EchoNumbers": 1,
      "EchoTime": 37.0,
      "EchoTrainLength": 104,
      "FlipAngle": 52.0,
      "HighBit": 15,
      "ImageOrientationPatient": [0.99959787538767, 0.01744311949612, 0.0223567686106, -0.0045360692124, 0.87662831268828, -0.4811467816264],
      "ImagePositionPatient": [-829.63167261001, -779.4086188638, 339.71234096949],
      "ImageType": [
        "ORIGINAL",
        "PRIMARY",
        "M",
        "MB",
        "ND",
        "MOSAIC"
],
      "ImagedNucleus": "1H",
      "ImagingFrequency": 123.258949,
      "InPlanePhaseEncodingDirection": "COL",
      "MRAcquisitionType": "2D",
      "MagneticFieldStrength": 3.0,
      "Manufacturer": "SIEMENS",
      "ManufacturerModelName": "Prisma_fit",
      "Modality": "MR",
      "NumberOfAverages": 1.0,
      "NumberOfPhaseEncodingSteps": 104,
      "PercentPhaseFieldOfView": 100.0,
      "PercentSampling": 100.0,
      "PerformedProcedureStepStartTime": "103931.407000",
      "PhotometricInterpretation": "MONOCHROME2",
      "PixelBandwidth": 2290.0,
      "PixelRepresentation": 0,
      "PixelSpacing": [2.0, 2.0],
      "ProtocolName": "func_task-things_run-6",
      "RepetitionTime": 1490.0,
      "Rows": 832,
      "SAR": 0.04959755085496,
      "SamplesPerPixel": 1,
      "ScanOptions": "FS",
      "ScanningSequence": "EP",
      "SequenceName": "epfid2d1_104",
      "SequenceVariant": [
        "SK",
        "SS"
],
      "SeriesDescription": "func_task-things_run-6",
      "SeriesNumber": 31,
      "SeriesTime": "112655.122000",
      "SliceLocation": -53.849074361735,
      "SliceThickness": 2.0,
      "SmallestImagePixelValue": 0,
      "SoftwareVersions": "syngo MR E11",
      "SpacingBetweenSlices": 2.000000023866,
      "SpecificCharacterSet": "ISO_IR 100",
      "StudyID": "1",
      "StudyTime": "103930.913000",
      "TransmitCoilName": "Body",
      "VariableFlipAngleFlag": "N",
      "WindowCenterWidthExplanation": "Algo1",
      "dBdt": 0.0},
    "slices": {}
  },
  "time": {
    "samples": {
      "AcquisitionNumber": [1, 2, 3, 4, 5, 6, 7, 8, 9, 10, 11, 12, 13, 14, 15, 16, 17, 18, 19, 20, 21, 22, 23, 24, 25, 26, 27, 28, 29, 30, 31, 32, 33, 34, 35, 36, 37, 38, 39, 40, 41, 42, 43, 44, 45, 46, 47, 48, 49, 50, 51, 52, 53, 54, 55, 56, 57, 58, 59, 60, 61, 62, 63, 64, 65, 66, 67, 68, 69, 70, 71, 72, 73, 74, 75, 76, 77, 78, 79, 80, 81, 82, 83, 84, 85, 86, 87, 88, 89, 90, 91, 92, 93, 94, 95, 96, 97, 98, 99, 100, 101, 102, 103, 104, 105, 106, 107, 108, 109, 110, 111, 112, 113, 114, 115, 116, 117, 118, 119, 120, 121, 122, 123, 124, 125, 126, 127, 128, 129, 130, 131, 132, 133, 134, 135, 136, 137, 138, 139, 140, 141, 142, 143, 144, 145, 146, 147, 148, 149, 150, 151, 152, 153, 154, 155, 156, 157, 158, 159, 160, 161, 162, 163, 164, 165, 166, 167, 168, 169, 170, 171, 172, 173, 174, 175, 176, 177, 178, 179, 180, 181, 182, 183, 184, 185, 186, 187, 188, 189, 190],
      "AcquisitionTime": ["112523.500000", "112524.990000", "112526.480000", "112527.970000", "112529.460000", "112530.950000", "112532.440000", "112533.930000", "112535.420000", "112536.910000", "112538.400000", "112539.890000", "112541.380000", "112542.870000", "112544.360000", "112545.850000", "112547.340000", "112548.830000", "112550.320000", "112551.810000", "112553.300000", "112554.790000", "112556.280000", "112557.770000", "112559.260000", "112600.750000", "112602.240000", "112603.730000", "112605.220000", "112606.710000", "112608.200000", "112609.690000", "112611.180000", "112612.670000", "112614.160000", "112615.650000", "112617.140000", "112618.630000", "112620.120000", "112621.610000", "112623.100000", "112624.590000", "112626.080000", "112627.570000", "112629.060000", "112630.550000", "112632.040000", "112633.530000", "112635.020000", "112636.510000", "112638.000000", "112639.490000", "112640.980000", "112642.470000", "112643.960000", "112645.450000", "112646.940000", "112648.430000", "112649.920000", "112651.410000", "112652.900000", "112654.390000", "112655.880000", "112657.370000", "112658.860000", "112700.350000", "112701.840000", "112703.330000", "112704.820000", "112706.310000", "112707.800000", "112709.290000", "112710.780000", "112712.270000", "112713.760000", "112715.250000", "112716.740000", "112718.230000", "112719.720000", "112721.210000", "112722.700000", "112724.190000", "112725.680000", "112727.170000", "112728.660000", "112730.150000", "112731.640000", "112733.130000", "112734.620000", "112736.110000", "112737.600000", "112739.090000", "112740.580000", "112742.070000", "112743.560000", "112745.050000", "112746.540000", "112748.030000", "112749.520000", "112751.010000", "112752.500000", "112753.990000", "112755.480000", "112756.970000", "112758.460000", "112759.950000", "112801.440000", "112802.930000", "112804.420000", "112805.910000", "112807.400000", "112808.890000", "112810.380000", "112811.870000", "112813.360000", "112814.850000", "112816.340000", "112817.830000", "112819.320000", "112820.810000", "112822.300000", "112823.790000", "112825.280000", "112826.770000", "112828.260000", "112829.750000", "112831.240000", "112832.730000", "112834.220000", "112835.710000", "112837.200000", "112838.690000", "112840.180000", "112841.670000", "112843.160000", "112844.650000", "112846.140000", "112847.630000", "112849.120000", "112850.610000", "112852.100000", "112853.590000", "112855.080000", "112856.570000", "112858.060000", "112859.550000", "112901.040000", "112902.530000", "112904.020000", "112905.510000", "112907.000000", "112908.490000", "112909.980000", "112911.470000", "112912.960000", "112914.450000", "112915.940000", "112917.430000", "112918.920000", "112920.410000", "112921.900000", "112923.390000", "112924.880000", "112926.370000", "112927.860000", "112929.350000", "112930.840000", "112932.330000", "112933.820000", "112935.310000", "112936.800000", "112938.290000", "112939.780000", "112941.270000", "112942.760000", "112944.250000", "112945.740000", "112947.230000", "112948.720000", "112950.210000", "112951.700000", "112953.190000", "112954.680000", "112956.170000", "112957.660000", "112959.150000", "113000.640000", "113002.130000", "113003.620000", "113005.110000"],
      "ContentTime": ["112655.125000", "112655.129000", "112655.133000", "112655.136000", "112655.139000", "112655.142000", "112655.159000", "112655.163000", "112655.166000", "112655.169000", "112655.172000", "112655.176000", "112655.179000", "112655.182000", "112655.189000", "112655.193000", "112655.196000", "112655.199000", "112655.202000", "112655.206000", "112655.209000", "112655.212000", "112655.216000", "112655.219000", "112655.222000", "112655.225000", "112655.229000", "112655.232000", "112655.235000", "112655.238000", "112655.242000", "112655.245000", "112655.248000", "112655.251000", "112655.255000", "112655.258000", "112655.261000", "112655.264000", "112655.268000", "112715.076000", "112715.080000", "112715.083000", "112715.086000", "112715.089000", "112715.093000", "112715.096000", "112715.099000", "112715.103000", "112715.106000", "112715.109000", "112715.112000", "112715.116000", "112715.119000", "112715.122000", "112715.125000", "112715.129000", "112715.132000", "112715.135000", "112715.138000", "112735.076000", "112735.080000", "112735.083000", "112735.087000", "112735.090000", "112735.093000", "112735.097000", "112735.100000", "112735.103000", "112735.107000", "112735.111000", "112735.114000", "112735.118000", "112735.121000", "112735.124000", "112735.128000", "112735.131000", "112735.134000", "112735.137000", "112735.141000", "112735.144000", "112755.075000", "112755.079000", "112755.082000", "112755.085000", "112755.089000", "112755.092000", "112755.095000", "112755.098000", "112755.102000", "112755.105000", "112755.108000", "112755.111000", "112755.115000", "112755.118000", "112755.121000", "112755.124000", "112755.128000", "112755.131000", "112755.134000", "112755.137000", "112835.075000", "112835.079000", "112835.082000", "112835.085000", "112835.089000", "112835.092000", "112835.095000", "112835.099000", "112835.102000", "112835.105000", "112835.118000", "112835.121000", "112835.125000", "112835.128000", "112835.131000", "112835.135000", "112835.138000", "112835.141000", "112835.144000", "112835.148000", "112835.151000", "112835.154000", "112835.158000", "112835.161000", "112835.164000", "112835.167000", "112835.171000", "112835.174000", "112915.076000", "112915.080000", "112915.084000", "112915.088000", "112915.092000", "112915.095000", "112915.098000", "112915.102000", "112915.105000", "112915.109000", "112915.112000", "112915.115000", "112915.118000", "112915.122000", "112915.125000", "112915.128000", "112915.132000", "112915.135000", "112915.138000", "112915.141000", "112915.145000", "112915.148000", "112915.151000", "112915.155000", "112915.158000", "112915.161000", "112955.076000", "112955.080000", "112955.083000", "112955.087000", "112955.090000", "112955.093000", "112955.097000", "112955.100000", "112955.103000", "112955.107000", "112955.110000", "112955.113000", "112955.117000", "112955.120000", "112955.123000", "112955.126000", "112955.130000", "112955.133000", "112955.137000", "112955.140000", "112955.143000", "112955.146000", "112955.150000", "112955.153000", "112955.157000", "112955.160000", "112955.164000", "113007.290000", "113007.294000", "113007.297000", "113007.300000", "113007.304000", "113007.307000", "113007.310000", "113007.314000", "113007.317000"],
      "InstanceCreationTime": ["112655.125000", "112655.129000", "112655.133000", "112655.136000", "112655.139000", "112655.142000", "112655.159000", "112655.163000", "112655.166000", "112655.169000", "112655.172000", "112655.176000", "112655.179000", "112655.182000", "112655.189000", "112655.193000", "112655.196000", "112655.199000", "112655.202000", "112655.206000", "112655.209000", "112655.212000", "112655.216000", "112655.219000", "112655.222000", "112655.225000", "112655.229000", "112655.232000", "112655.235000", "112655.238000", "112655.242000", "112655.245000", "112655.248000", "112655.251000", "112655.255000", "112655.258000", "112655.261000", "112655.264000", "112655.268000", "112715.076000", "112715.080000", "112715.083000", "112715.086000", "112715.089000", "112715.093000", "112715.096000", "112715.099000", "112715.103000", "112715.106000", "112715.109000", "112715.112000", "112715.116000", "112715.119000", "112715.122000", "112715.125000", "112715.129000", "112715.132000", "112715.135000", "112715.138000", "112735.076000", "112735.080000", "112735.083000", "112735.087000", "112735.090000", "112735.093000", "112735.097000", "112735.100000", "112735.103000", "112735.107000", "112735.111000", "112735.114000", "112735.118000", "112735.121000", "112735.124000", "112735.128000", "112735.131000", "112735.134000", "112735.137000", "112735.141000", "112735.144000", "112755.075000", "112755.079000", "112755.082000", "112755.085000", "112755.089000", "112755.092000", "112755.095000", "112755.098000", "112755.102000", "112755.105000", "112755.108000", "112755.111000", "112755.115000", "112755.118000", "112755.121000", "112755.124000", "112755.128000", "112755.131000", "112755.134000", "112755.137000", "112835.075000", "112835.079000", "112835.082000", "112835.085000", "112835.089000", "112835.092000", "112835.095000", "112835.099000", "112835.102000", "112835.105000", "112835.118000", "112835.121000", "112835.125000", "112835.128000", "112835.131000", "112835.135000", "112835.138000", "112835.141000", "112835.144000", "112835.148000", "112835.151000", "112835.154000", "112835.158000", "112835.161000", "112835.164000", "112835.167000", "112835.171000", "112835.174000", "112915.076000", "112915.080000", "112915.084000", "112915.088000", "112915.092000", "112915.095000", "112915.098000", "112915.102000", "112915.105000", "112915.109000", "112915.112000", "112915.115000", "112915.118000", "112915.122000", "112915.125000", "112915.128000", "112915.132000", "112915.135000", "112915.138000", "112915.141000", "112915.145000", "112915.148000", "112915.151000", "112915.155000", "112915.158000", "112915.161000", "112955.076000", "112955.080000", "112955.083000", "112955.087000", "112955.090000", "112955.093000", "112955.097000", "112955.100000", "112955.103000", "112955.107000", "112955.110000", "112955.113000", "112955.117000", "112955.120000", "112955.123000", "112955.126000", "112955.130000", "112955.133000", "112955.137000", "112955.140000", "112955.143000", "112955.146000", "112955.150000", "112955.153000", "112955.157000", "112955.160000", "112955.164000", "113007.290000", "113007.294000", "113007.297000", "113007.300000", "113007.304000", "113007.307000", "113007.310000", "113007.314000", "113007.317000"],
      "InstanceNumber": [1, 2, 3, 4, 5, 6, 7, 8, 9, 10, 11, 12, 13, 14, 15, 16, 17, 18, 19, 20, 21, 22, 23, 24, 25, 26, 27, 28, 29, 30, 31, 32, 33, 34, 35, 36, 37, 38, 39, 40, 41, 42, 43, 44, 45, 46, 47, 48, 49, 50, 51, 52, 53, 54, 55, 56, 57, 58, 59, 60, 61, 62, 63, 64, 65, 66, 67, 68, 69, 70, 71, 72, 73, 74, 75, 76, 77, 78, 79, 80, 81, 82, 83, 84, 85, 86, 87, 88, 89, 90, 91, 92, 93, 94, 95, 96, 97, 98, 99, 100, 101, 102, 103, 104, 105, 106, 107, 108, 109, 110, 111, 112, 113, 114, 115, 116, 117, 118, 119, 120, 121, 122, 123, 124, 125, 126, 127, 128, 129, 130, 131, 132, 133, 134, 135, 136, 137, 138, 139, 140, 141, 142, 143, 144, 145, 146, 147, 148, 149, 150, 151, 152, 153, 154, 155, 156, 157, 158, 159, 160, 161, 162, 163, 164, 165, 166, 167, 168, 169, 170, 171, 172, 173, 174, 175, 176, 177, 178, 179, 180, 181, 182, 183, 184, 185, 186, 187, 188, 189, 190],
      "LargestImagePixelValue": [45528, 44315, 43697, 44024, 41681, 42555, 41879, 42688, 42244, 42312, 42641, 42399, 42403, 42171, 42451, 44086, 42570, 42520, 43348, 42471, 41965, 43743, 43748, 43304, 42326, 42456, 41630, 42803, 42447, 42629, 42493, 41937, 43681, 42926, 41975, 42553, 42940, 41568, 42985, 41507, 41560, 42596, 43761, 43461, 42794, 43532, 41382, 41966, 42035, 42664, 42844, 42287, 41418, 42193, 43998, 40959, 41404, 43478, 41609, 42207, 44214, 41917, 41695, 42315, 42381, 42378, 42144, 40860, 42946, 44688, 42787, 41988, 43075, 40356, 42138, 41232, 40247, 41945, 42159, 41887, 41703, 41295, 43795, 42415, 43603, 40788, 40876, 42871, 40425, 42919, 42326, 40503, 41520, 42216, 39843, 41680, 41814, 41539, 41707, 40813, 40070, 40399, 40223, 40831, 42480, 43604, 40974, 40246, 42593, 43856, 43251, 43397, 42127, 41649, 42855, 40726, 41563, 42084, 42026, 42027, 42306, 40838, 40174, 42496, 43530, 40570, 41250, 42551, 41716, 40940, 40488, 40966, 43166, 43829, 43500, 40322, 40516, 42563, 43398, 43377, 41490, 41168, 40473, 40651, 41403, 40001, 41941, 42444, 41700, 40706, 42883, 40885, 40980, 41183, 43312, 41906, 42018, 40576, 40103, 42056, 40242, 40822, 42167, 40037, 40652, 42283, 43077, 42113, 40342, 40442, 40162, 40174, 41165, 41147, 40788, 40025, 41324, 42899, 40970, 40471, 41966, 39930, 40325, 41693, 42679, 42145, 40945, 39566, 39819, 43410],
      "WindowCenter": [10859.0, 10838.0, 10865.0, 10849.0, 10781.0, 10764.0, 10747.0, 10756.0, 10766.0, 10776.0, 10790.0, 10794.0, 10838.0, 10877.0, 10868.0, 10859.0, 10810.0, 10799.0, 10815.0, 10823.0, 10835.0, 10865.0, 10859.0, 10828.0, 10843.0, 10840.0, 10840.0, 10841.0, 10811.0, 10801.0, 10830.0, 10848.0, 10836.0, 10795.0, 10771.0, 10780.0, 10791.0, 10796.0, 10821.0, 10829.0, 10820.0, 10830.0, 10839.0, 10814.0, 10816.0, 10813.0, 10784.0, 10784.0, 10777.0, 10789.0, 10786.0, 10803.0, 10810.0, 10808.0, 10794.0, 10740.0, 10750.0, 10792.0, 10788.0, 10831.0, 10849.0, 10809.0, 10801.0, 10806.0, 10801.0, 10793.0, 10841.0, 10831.0, 10833.0, 10816.0, 10754.0, 10730.0, 10756.0, 10754.0, 10808.0, 10786.0, 10774.0, 10777.0, 10776.0, 10764.0, 10788.0, 10813.0, 10839.0, 10787.0, 10762.0, 10711.0, 10730.0, 10767.0, 10795.0, 10827.0, 10789.0, 10751.0, 10758.0, 10765.0, 10742.0, 10769.0, 10758.0, 10741.0, 10737.0, 10743.0, 10734.0, 10759.0, 10756.0, 10750.0, 10746.0, 10743.0, 10714.0, 10717.0, 10793.0, 10816.0, 10811.0, 10829.0, 10823.0, 10813.0, 10794.0, 10746.0, 10765.0, 10743.0, 10736.0, 10724.0, 10741.0, 10767.0, 10756.0, 10773.0, 10765.0, 10742.0, 10766.0, 10791.0, 10771.0, 10806.0, 10823.0, 10816.0, 10807.0, 10780.0, 10736.0, 10706.0, 10734.0, 10785.0, 10797.0, 10785.0, 10760.0, 10771.0, 10771.0, 10797.0, 10798.0, 10765.0, 10762.0, 10730.0, 10705.0, 10710.0, 10748.0, 10754.0, 10775.0, 10796.0, 10808.0, 10771.0, 10762.0, 10760.0, 10773.0, 10781.0, 10748.0, 10753.0, 10758.0, 10728.0, 10738.0, 10765.0, 10776.0, 10753.0, 10724.0, 10721.0, 10739.0, 10761.0, 10774.0, 10756.0, 10770.0, 10779.0, 10789.0, 10770.0, 10711.0, 10694.0, 10735.0, 10753.0, 10777.0, 10790.0, 10789.0, 10768.0, 10784.0, 10777.0, 10759.0, 10823.0],
      "WindowWidth": [23305.0, 23224.0, 23266.0, 23219.0, 23066.0, 23019.0, 22979.0, 22998.0, 23023.0, 23044.0, 23078.0, 23087.0, 23182.0, 23277.0, 23256.0, 23233.0, 23127.0, 23100.0, 23133.0, 23157.0, 23182.0, 23243.0, 23231.0, 23166.0, 23199.0, 23191.0, 23193.0, 23194.0, 23125.0, 23100.0, 23165.0, 23209.0, 23176.0, 23088.0, 23038.0, 23054.0, 23077.0, 23092.0, 23144.0, 23167.0, 23145.0, 23163.0, 23180.0, 23127.0, 23133.0, 23128.0, 23068.0, 23061.0, 23049.0, 23075.0, 23065.0, 23106.0, 23122.0, 23117.0, 23081.0, 22970.0, 22986.0, 23076.0, 23075.0, 23170.0, 23206.0, 23126.0, 23105.0, 23121.0, 23104.0, 23083.0, 23194.0, 23171.0, 23167.0, 23121.0, 22995.0, 22944.0, 23001.0, 23003.0, 23115.0, 23075.0, 23051.0, 23047.0, 23047.0, 23017.0, 23075.0, 23139.0, 23199.0, 23072.0, 23012.0, 22911.0, 22948.0, 23025.0, 23092.0, 23158.0, 23075.0, 22997.0, 23002.0, 23022.0, 22978.0, 23030.0, 23006.0, 22969.0, 22957.0, 22972.0, 22958.0, 23009.0, 23008.0, 22988.0, 22973.0, 22977.0, 22912.0, 22920.0, 23083.0, 23131.0, 23119.0, 23156.0, 23148.0, 23126.0, 23075.0, 22975.0, 23012.0, 22965.0, 22954.0, 22923.0, 22966.0, 23026.0, 23007.0, 23037.0, 23012.0, 22973.0, 23025.0, 23074.0, 23033.0, 23113.0, 23150.0, 23135.0, 23103.0, 23041.0, 22951.0, 22894.0, 22953.0, 23056.0, 23088.0, 23060.0, 23006.0, 23035.0, 23039.0, 23092.0, 23096.0, 23025.0, 23006.0, 22937.0, 22888.0, 22903.0, 22977.0, 23000.0, 23040.0, 23093.0, 23111.0, 23034.0, 23013.0, 23017.0, 23043.0, 23055.0, 22988.0, 22994.0, 23009.0, 22951.0, 22965.0, 23022.0, 23043.0, 22992.0, 22940.0, 22928.0, 22966.0, 23022.0, 23043.0, 22999.0, 23037.0, 23057.0, 23072.0, 23023.0, 22905.0, 22867.0, 22959.0, 23004.0, 23050.0, 23073.0, 23071.0, 23025.0, 23072.0, 23056.0, 23013.0, 23162.0]
    },
    "slices": {}
  }
}