{
  "AcquisitionMatrixPE": 104,
  "AcquisitionNumber": 1,
  "AcquisitionTime": "11:19:17.742500",
  "BandwidthPerPixelPhaseEncode": 17.17,
  "BaseResolution": 104,
  "BodyPartExamined": "BRAIN",
  "CoilCombinationMethod": "Sum of Squares",
  "ConsistencyInfo": "N4_VE11C_LATEST_20160120",
  "ConversionSoftware": "dcm2niix",
  "ConversionSoftwareVersion": "v1.0.20211006",
  "DerivedVendorReportedEchoSpacing": 0.000560011,
  "DeviceSerialNumber": "167006",
  "DwellTime": 2.1e-06,
  "EchoTime": 0.037,
  "EchoTrainLength": 104,
  "EffectiveEchoSpacing": 0.000560011,
  "FlipAngle": 52,
  "HeudiconvVersion": "0.10.0",
  "ImageComments": "Unaliased MB4/PE3/LB",
  "ImageOrientationPatientDICOM": [0.999598, 0.0174431, 0.0223568, -0.00453607, 0.876628, -0.481147],
  "ImageOrientationText": "Tra>Cor(-28.8)>Sag(1.6)",
  "ImageType": [
    "ORIGINAL",
    "PRIMARY",
    "M",
    "MB",
    "ND",
    "MOSAIC"
],
  "ImagingFrequency": 123.259,
  "InPlanePhaseEncodingDirectionDICOM": "COL",
  "InstitutionAddress": "Chemin Queen-Mary 4565,Montreal,District,CA,H3W 1W5",
  "InstitutionName": "IUGM",
  "InstitutionalDepartmentName": "Department",
  "MRAcquisitionType": "2D",
  "MagneticFieldStrength": 3,
  "Manufacturer": "Siemens",
  "ManufacturersModelName": "Prisma_fit",
  "MatrixCoilMode": "SENSE",
  "Modality": "MR",
  "MultibandAccelerationFactor": 4,
  "PartialFourier": 1,
  "PatientPosition": "HFS",
  "PercentPhaseFOV": 100,
  "PercentSampling": 100,
  "PhaseEncodingDirection": "j",
  "PhaseEncodingSteps": 104,
  "PhaseResolution": 1,
  "PixelBandwidth": 2290,
  "ProcedureStepDescription": "memory^things",
  "ProtocolName": "func_task-things_run-5",
  "PulseSequenceDetails": "%CustomerSeq%\\cmrr_mbep2d_bold",
  "ReceiveCoilActiveElements": "HC1-7;NC1,2",
  "ReceiveCoilName": "HeadNeck_64",
  "ReconMatrixPE": 104,
  "RepetitionTime": 1.49,
  "SAR": 0.0495976,
  "ScanOptions": "FS",
  "ScanningSequence": "EP",
  "SequenceName": "epfid2d1_104",
  "SequenceVariant": "SK\\SS",
  "SeriesDescription": "func_task-things_run-5",
  "SeriesNumber": 28,
  "ShimSetting": [617, -7184, -8857, 309, 18, -122, -46, -12],
  "SliceThickness": 2,
  "SliceTiming": [0, 0.7825, 0.0975, 0.8825, 0.195, 0.98, 0.295, 1.0775, 0.3925, 1.175, 0.49, 1.2725, 0.5875, 1.3725, 0.685, 0, 0.7825, 0.0975, 0.8825, 0.195, 0.98, 0.295, 1.0775, 0.3925, 1.175, 0.49, 1.2725, 0.5875, 1.3725, 0.685, 0, 0.7825, 0.0975, 0.8825, 0.195, 0.98, 0.295, 1.0775, 0.3925, 1.175, 0.49, 1.2725, 0.5875, 1.3725, 0.685, 0, 0.7825, 0.0975, 0.8825, 0.195, 0.98, 0.295, 1.0775, 0.3925, 1.175, 0.49, 1.2725, 0.5875, 1.3725, 0.685],
  "SoftwareVersions": "syngo MR E11",
  "SpacingBetweenSlices": 2,
  "StationName": "MRC35049",
  "TaskName": "things",
  "TotalReadoutTime": 0.0576811,
  "TxRefAmp": 283.354,
  "WipMemBlock": "c18c1e10-ccac-4146-8d61-e806c85145af||Sequence: R016 ve11c/master r/e634e98; Dec 19 2017 11:00:25 by eja",
  "dcmmeta_affine": [
    [-1.9991956949234009, -0.009072137996554375, 0.055982556194067, 106.1611099243164],
    [-0.03488623723387718, 1.7532566785812378, -0.9617037773132324, -52.06081771850586],
    [0.04471353814005852, 0.9622935652732849, 1.7527098655700684, -93.40302276611328],
    [0.0, 0.0, 0.0, 1.0]
],
  "dcmmeta_reorient_transform": [
    [0.0, -1.0, 0.0, 103.0],
    [1.0, 0.0, 0.0, 0.0],
    [0.0, 0.0, 1.0, 0.0],
    [0.0, 0.0, 0.0, 1.0]
],
  "dcmmeta_shape": [104, 104, 60, 190],
  "dcmmeta_slice_dim": 2,
  "dcmmeta_version": 0.6,
  "global": {
    "const": {
      "AcquisitionMatrix": [104, 0, 0, 104],
      "AngioFlag": "N",
      "BitsAllocated": 16,
      "BitsStored": 16,
      "BodyPartExamined": "BRAIN",
      "Columns": 832,
      "EchoNumbers": 1,
      "EchoTime": 37.0,
      "EchoTrainLength": 104,
      "FlipAngle": 52.0,
      "HighBit": 15,
      "ImageOrientationPatient": [0.99959787538767, 0.01744311949612, 0.0223567686106, -0.0045360692124, 0.87662831268828, -0.4811467816264],
      "ImagePositionPatient": [-829.63167261001, -779.4086188638, 339.71234096949],
      "ImageType": [
        "ORIGINAL",
        "PRIMARY",
        "M",
        "MB",
        "ND",
        "MOSAIC"
],
      "ImagedNucleus": "1H",
      "ImagingFrequency": 123.258947,
      "InPlanePhaseEncodingDirection": "COL",
      "MRAcquisitionType": "2D",
      "MagneticFieldStrength": 3.0,
      "Manufacturer": "SIEMENS",
      "ManufacturerModelName": "Prisma_fit",
      "Modality": "MR",
      "NumberOfAverages": 1.0,
      "NumberOfPhaseEncodingSteps": 104,
      "PercentPhaseFieldOfView": 100.0,
      "PercentSampling": 100.0,
      "PerformedProcedureStepStartTime": "103931.407000",
      "PhotometricInterpretation": "MONOCHROME2",
      "PixelBandwidth": 2290.0,
      "PixelRepresentation": 0,
      "PixelSpacing": [2.0, 2.0],
      "ProtocolName": "func_task-things_run-5",
      "RepetitionTime": 1490.0,
      "Rows": 832,
      "SAR": 0.04959755085496,
      "SamplesPerPixel": 1,
      "ScanOptions": "FS",
      "ScanningSequence": "EP",
      "SequenceName": "epfid2d1_104",
      "SequenceVariant": [
        "SK",
        "SS"
],
      "SeriesDescription": "func_task-things_run-5",
      "SeriesNumber": 28,
      "SeriesTime": "112034.591000",
      "SliceLocation": -53.849074361735,
      "SliceThickness": 2.0,
      "SmallestImagePixelValue": 0,
      "SoftwareVersions": "syngo MR E11",
      "SpacingBetweenSlices": 2.000000023866,
      "SpecificCharacterSet": "ISO_IR 100",
      "StudyID": "1",
      "StudyTime": "103930.913000",
      "TransmitCoilName": "Body",
      "VariableFlipAngleFlag": "N",
      "WindowCenterWidthExplanation": "Algo1",
      "dBdt": 0.0},
    "slices": {}
  },
  "time": {
    "samples": {
      "AcquisitionNumber": [1, 2, 3, 4, 5, 6, 7, 8, 9, 10, 11, 12, 13, 14, 15, 16, 17, 18, 19, 20, 21, 22, 23, 24, 25, 26, 27, 28, 29, 30, 31, 32, 33, 34, 35, 36, 37, 38, 39, 40, 41, 42, 43, 44, 45, 46, 47, 48, 49, 50, 51, 52, 53, 54, 55, 56, 57, 58, 59, 60, 61, 62, 63, 64, 65, 66, 67, 68, 69, 70, 71, 72, 73, 74, 75, 76, 77, 78, 79, 80, 81, 82, 83, 84, 85, 86, 87, 88, 89, 90, 91, 92, 93, 94, 95, 96, 97, 98, 99, 100, 101, 102, 103, 104, 105, 106, 107, 108, 109, 110, 111, 112, 113, 114, 115, 116, 117, 118, 119, 120, 121, 122, 123, 124, 125, 126, 127, 128, 129, 130, 131, 132, 133, 134, 135, 136, 137, 138, 139, 140, 141, 142, 143, 144, 145, 146, 147, 148, 149, 150, 151, 152, 153, 154, 155, 156, 157, 158, 159, 160, 161, 162, 163, 164, 165, 166, 167, 168, 169, 170, 171, 172, 173, 174, 175, 176, 177, 178, 179, 180, 181, 182, 183, 184, 185, 186, 187, 188, 189, 190],
      "AcquisitionTime": ["111917.742500", "111919.232500", "111920.722500", "111922.212500", "111923.702500", "111925.192500", "111926.682500", "111928.172500", "111929.662500", "111931.152500", "111932.642500", "111934.132500", "111935.622500", "111937.112500", "111938.602500", "111940.092500", "111941.582500", "111943.072500", "111944.562500", "111946.052500", "111947.542500", "111949.032500", "111950.522500", "111952.012500", "111953.502500", "111954.992500", "111956.482500", "111957.972500", "111959.462500", "112000.952500", "112002.442500", "112003.932500", "112005.422500", "112006.912500", "112008.402500", "112009.892500", "112011.382500", "112012.872500", "112014.362500", "112015.852500", "112017.342500", "112018.832500", "112020.322500", "112021.812500", "112023.302500", "112024.792500", "112026.282500", "112027.772500", "112029.262500", "112030.752500", "112032.242500", "112033.732500", "112035.222500", "112036.712500", "112038.202500", "112039.692500", "112041.182500", "112042.672500", "112044.162500", "112045.652500", "112047.142500", "112048.632500", "112050.122500", "112051.612500", "112053.102500", "112054.592500", "112056.082500", "112057.572500", "112059.062500", "112100.552500", "112102.042500", "112103.532500", "112105.022500", "112106.512500", "112108.002500", "112109.492500", "112110.982500", "112112.472500", "112113.962500", "112115.452500", "112116.942500", "112118.432500", "112119.922500", "112121.412500", "112122.902500", "112124.392500", "112125.882500", "112127.372500", "112128.862500", "112130.352500", "112131.842500", "112133.332500", "112134.822500", "112136.312500", "112137.802500", "112139.292500", "112140.782500", "112142.272500", "112143.762500", "112145.252500", "112146.742500", "112148.232500", "112149.722500", "112151.212500", "112152.702500", "112154.192500", "112155.682500", "112157.172500", "112158.662500", "112200.152500", "112201.642500", "112203.132500", "112204.622500", "112206.112500", "112207.602500", "112209.092500", "112210.582500", "112212.072500", "112213.562500", "112215.052500", "112216.542500", "112218.032500", "112219.522500", "112221.012500", "112222.502500", "112223.992500", "112225.482500", "112226.972500", "112228.462500", "112229.952500", "112231.442500", "112232.932500", "112234.422500", "112235.912500", "112237.402500", "112238.892500", "112240.382500", "112241.872500", "112243.362500", "112244.852500", "112246.342500", "112247.832500", "112249.322500", "112250.812500", "112252.302500", "112253.792500", "112255.282500", "112256.772500", "112258.262500", "112259.752500", "112301.242500", "112302.732500", "112304.222500", "112305.712500", "112307.202500", "112308.692500", "112310.182500", "112311.672500", "112313.162500", "112314.652500", "112316.142500", "112317.632500", "112319.122500", "112320.612500", "112322.102500", "112323.592500", "112325.082500", "112326.572500", "112328.062500", "112329.552500", "112331.042500", "112332.532500", "112334.022500", "112335.512500", "112337.002500", "112338.492500", "112339.982500", "112341.472500", "112342.962500", "112344.452500", "112345.942500", "112347.432500", "112348.922500", "112350.412500", "112351.902500", "112353.392500", "112354.882500", "112356.372500", "112357.862500", "112359.352500"],
      "ContentTime": ["112034.595000", "112034.598000", "112034.602000", "112034.605000", "112034.608000", "112034.611000", "112034.615000", "112034.618000", "112034.621000", "112034.624000", "112034.628000", "112034.631000", "112034.634000", "112034.645000", "112034.649000", "112034.652000", "112034.655000", "112034.658000", "112034.662000", "112034.665000", "112034.668000", "112034.671000", "112034.675000", "112054.550000", "112054.554000", "112054.557000", "112054.561000", "112054.564000", "112054.567000", "112054.570000", "112054.574000", "112054.577000", "112054.581000", "112054.584000", "112054.587000", "112054.590000", "112054.593000", "112054.597000", "112054.600000", "112054.603000", "112054.606000", "112054.609000", "112054.613000", "112054.616000", "112114.550000", "112114.554000", "112114.558000", "112114.561000", "112114.564000", "112114.568000", "112114.571000", "112114.574000", "112114.578000", "112114.581000", "112114.584000", "112114.588000", "112114.591000", "112114.594000", "112114.597000", "112114.600000", "112114.604000", "112114.614000", "112114.617000", "112114.620000", "112134.550000", "112134.554000", "112134.557000", "112134.560000", "112134.563000", "112134.567000", "112134.570000", "112134.573000", "112134.577000", "112134.580000", "112134.583000", "112134.586000", "112134.590000", "112134.593000", "112134.596000", "112134.600000", "112134.603000", "112134.606000", "112134.609000", "112134.612000", "112154.551000", "112154.555000", "112154.558000", "112154.561000", "112154.565000", "112154.568000", "112154.572000", "112154.575000", "112154.578000", "112154.581000", "112154.585000", "112154.588000", "112154.591000", "112154.595000", "112154.598000", "112154.601000", "112154.604000", "112154.608000", "112154.611000", "112154.614000", "112234.550000", "112234.554000", "112234.557000", "112234.560000", "112234.564000", "112234.567000", "112234.587000", "112234.591000", "112234.594000", "112234.597000", "112234.601000", "112234.604000", "112234.607000", "112234.611000", "112234.614000", "112234.617000", "112234.620000", "112234.624000", "112234.627000", "112234.630000", "112234.634000", "112234.637000", "112234.641000", "112234.644000", "112234.647000", "112234.662000", "112234.665000", "112314.550000", "112314.554000", "112314.557000", "112314.560000", "112314.564000", "112314.567000", "112314.571000", "112314.574000", "112314.577000", "112314.581000", "112314.584000", "112314.587000", "112314.591000", "112314.594000", "112314.597000", "112314.601000", "112314.604000", "112314.607000", "112314.611000", "112314.614000", "112314.617000", "112314.620000", "112314.624000", "112314.627000", "112314.630000", "112314.634000", "112314.637000", "112354.550000", "112354.554000", "112354.557000", "112354.560000", "112354.564000", "112354.567000", "112354.571000", "112354.574000", "112354.577000", "112354.581000", "112354.584000", "112354.587000", "112354.591000", "112354.594000", "112354.597000", "112354.600000", "112354.604000", "112354.607000", "112354.610000", "112354.614000", "112354.617000", "112354.621000", "112354.624000", "112354.627000", "112354.630000", "112354.634000", "112354.637000", "112401.647000", "112401.651000", "112401.654000", "112401.658000", "112401.661000"],
      "InstanceCreationTime": ["112034.595000", "112034.598000", "112034.602000", "112034.605000", "112034.608000", "112034.611000", "112034.615000", "112034.618000", "112034.621000", "112034.624000", "112034.628000", "112034.631000", "112034.634000", "112034.645000", "112034.649000", "112034.652000", "112034.655000", "112034.658000", "112034.662000", "112034.665000", "112034.668000", "112034.671000", "112034.675000", "112054.550000", "112054.554000", "112054.557000", "112054.561000", "112054.564000", "112054.567000", "112054.570000", "112054.574000", "112054.577000", "112054.581000", "112054.584000", "112054.587000", "112054.590000", "112054.593000", "112054.597000", "112054.600000", "112054.603000", "112054.606000", "112054.609000", "112054.613000", "112054.616000", "112114.550000", "112114.554000", "112114.558000", "112114.561000", "112114.564000", "112114.568000", "112114.571000", "112114.574000", "112114.578000", "112114.581000", "112114.584000", "112114.588000", "112114.591000", "112114.594000", "112114.597000", "112114.600000", "112114.604000", "112114.614000", "112114.617000", "112114.620000", "112134.550000", "112134.554000", "112134.557000", "112134.560000", "112134.563000", "112134.567000", "112134.570000", "112134.573000", "112134.577000", "112134.580000", "112134.583000", "112134.586000", "112134.590000", "112134.593000", "112134.596000", "112134.600000", "112134.603000", "112134.606000", "112134.609000", "112134.612000", "112154.551000", "112154.555000", "112154.558000", "112154.561000", "112154.565000", "112154.568000", "112154.572000", "112154.575000", "112154.578000", "112154.581000", "112154.585000", "112154.588000", "112154.591000", "112154.595000", "112154.598000", "112154.601000", "112154.604000", "112154.608000", "112154.611000", "112154.614000", "112234.550000", "112234.554000", "112234.557000", "112234.560000", "112234.564000", "112234.567000", "112234.587000", "112234.591000", "112234.594000", "112234.597000", "112234.601000", "112234.604000", "112234.607000", "112234.611000", "112234.614000", "112234.617000", "112234.620000", "112234.624000", "112234.627000", "112234.630000", "112234.634000", "112234.637000", "112234.641000", "112234.644000", "112234.647000", "112234.662000", "112234.665000", "112314.550000", "112314.554000", "112314.557000", "112314.560000", "112314.564000", "112314.567000", "112314.571000", "112314.574000", "112314.577000", "112314.581000", "112314.584000", "112314.587000", "112314.591000", "112314.594000", "112314.597000", "112314.601000", "112314.604000", "112314.607000", "112314.611000", "112314.614000", "112314.617000", "112314.620000", "112314.624000", "112314.627000", "112314.630000", "112314.634000", "112314.637000", "112354.550000", "112354.554000", "112354.557000", "112354.560000", "112354.564000", "112354.567000", "112354.571000", "112354.574000", "112354.577000", "112354.581000", "112354.584000", "112354.587000", "112354.591000", "112354.594000", "112354.597000", "112354.600000", "112354.604000", "112354.607000", "112354.610000", "112354.614000", "112354.617000", "112354.621000", "112354.624000", "112354.627000", "112354.630000", "112354.634000", "112354.637000", "112401.647000", "112401.651000", "112401.654000", "112401.658000", "112401.661000"],
      "InstanceNumber": [1, 2, 3, 4, 5, 6, 7, 8, 9, 10, 11, 12, 13, 14, 15, 16, 17, 18, 19, 20, 21, 22, 23, 24, 25, 26, 27, 28, 29, 30, 31, 32, 33, 34, 35, 36, 37, 38, 39, 40, 41, 42, 43, 44, 45, 46, 47, 48, 49, 50, 51, 52, 53, 54, 55, 56, 57, 58, 59, 60, 61, 62, 63, 64, 65, 66, 67, 68, 69, 70, 71, 72, 73, 74, 75, 76, 77, 78, 79, 80, 81, 82, 83, 84, 85, 86, 87, 88, 89, 90, 91, 92, 93, 94, 95, 96, 97, 98, 99, 100, 101, 102, 103, 104, 105, 106, 107, 108, 109, 110, 111, 112, 113, 114, 115, 116, 117, 118, 119, 120, 121, 122, 123, 124, 125, 126, 127, 128, 129, 130, 131, 132, 133, 134, 135, 136, 137, 138, 139, 140, 141, 142, 143, 144, 145, 146, 147, 148, 149, 150, 151, 152, 153, 154, 155, 156, 157, 158, 159, 160, 161, 162, 163, 164, 165, 166, 167, 168, 169, 170, 171, 172, 173, 174, 175, 176, 177, 178, 179, 180, 181, 182, 183, 184, 185, 186, 187, 188, 189, 190],
      "LargestImagePixelValue": [44814, 43117, 42424, 42716, 45386, 45443, 45408, 44971, 43993, 43445, 42608, 42301, 43915, 44778, 45551, 45414, 44562, 44714, 44843, 44281, 43162, 43999, 44284, 44919, 44541, 43294, 43774, 45401, 44946, 44708, 45110, 44269, 43626, 43206, 42909, 42856, 43894, 43698, 42782, 44694, 44429, 44144, 44713, 44850, 43601, 44312, 42378, 43064, 43588, 43886, 43789, 43287, 41764, 43716, 44381, 44938, 45285, 41390, 41953, 43927, 44397, 44675, 43154, 44213, 43147, 43370, 44316, 43366, 44280, 44008, 42661, 43125, 44345, 44359, 42807, 44504, 42594, 43590, 44639, 42827, 43991, 44479, 44062, 44077, 42986, 41945, 43346, 44453, 44176, 43716, 44363, 43101, 43787, 44249, 44081, 43499, 43327, 41514, 44059, 44224, 41694, 42797, 44094, 44166, 44454, 44104, 42402, 44146, 43799, 40743, 43750, 44684, 42881, 44051, 42869, 41583, 42960, 42608, 43238, 42395, 42364, 41831, 43068, 42491, 40955, 40737, 44043, 44081, 43471, 41982, 42811, 42189, 42931, 42927, 41635, 43221, 42238, 40539, 42089, 43702, 42475, 42899, 42823, 41781, 40660, 39991, 41441, 42674, 40504, 40674, 43344, 42847, 43053, 42863, 41841, 40849, 40543, 40666, 41182, 41163, 40806, 42770, 43666, 43848, 42747, 43031, 44881, 44233, 42893, 43265, 43134, 43356, 41774, 43991, 44904, 44960, 43670, 41735, 42474, 43921, 43980, 41444, 42593, 43081, 44382, 44680, 43906, 41695, 42505, 44626],
      "WindowCenter": [10919.0, 10852.0, 10805.0, 10778.0, 10864.0, 10879.0, 10833.0, 10822.0, 10869.0, 10909.0, 10880.0, 10862.0, 10851.0, 10852.0, 10863.0, 10894.0, 10913.0, 10887.0, 10854.0, 10819.0, 10807.0, 10837.0, 10869.0, 10885.0, 10911.0, 10914.0, 10938.0, 10934.0, 10898.0, 10859.0, 10832.0, 10803.0, 10809.0, 10848.0, 10877.0, 10898.0, 10874.0, 10837.0, 10815.0, 10834.0, 10842.0, 10846.0, 10878.0, 10867.0, 10868.0, 10865.0, 10845.0, 10854.0, 10861.0, 10858.0, 10858.0, 10867.0, 10869.0, 10881.0, 10860.0, 10829.0, 10810.0, 10789.0, 10811.0, 10867.0, 10894.0, 10867.0, 10844.0, 10859.0, 10864.0, 10871.0, 10853.0, 10823.0, 10800.0, 10818.0, 10839.0, 10857.0, 10839.0, 10794.0, 10788.0, 10803.0, 10801.0, 10860.0, 10873.0, 10844.0, 10837.0, 10839.0, 10847.0, 10874.0, 10895.0, 10882.0, 10870.0, 10843.0, 10799.0, 10803.0, 10819.0, 10815.0, 10873.0, 10879.0, 10835.0, 10826.0, 10850.0, 10837.0, 10834.0, 10799.0, 10758.0, 10772.0, 10791.0, 10815.0, 10838.0, 10887.0, 10894.0, 10882.0, 10840.0, 10806.0, 10836.0, 10848.0, 10822.0, 10846.0, 10822.0, 10838.0, 10843.0, 10825.0, 10808.0, 10796.0, 10830.0, 10846.0, 10849.0, 10807.0, 10772.0, 10793.0, 10845.0, 10844.0, 10822.0, 10806.0, 10817.0, 10837.0, 10876.0, 10849.0, 10806.0, 10801.0, 10780.0, 10772.0, 10804.0, 10818.0, 10796.0, 10786.0, 10764.0, 10780.0, 10813.0, 10846.0, 10856.0, 10814.0, 10771.0, 10762.0, 10796.0, 10808.0, 10809.0, 10787.0, 10752.0, 10778.0, 10816.0, 10835.0, 10841.0, 10823.0, 10815.0, 10804.0, 10795.0, 10767.0, 10768.0, 10820.0, 10849.0, 10881.0, 10881.0, 10888.0, 10913.0, 10925.0, 10901.0, 10884.0, 10857.0, 10829.0, 10833.0, 10864.0, 10888.0, 10883.0, 10853.0, 10823.0, 10839.0, 10853.0, 10861.0, 10883.0, 10889.0, 10882.0, 10859.0, 10820.0],
      "WindowWidth": [23458.0, 23274.0, 23149.0, 23075.0, 23270.0, 23298.0, 23180.0, 23147.0, 23253.0, 23348.0, 23288.0, 23241.0, 23209.0, 23210.0, 23231.0, 23306.0, 23352.0, 23295.0, 23221.0, 23142.0, 23118.0, 23180.0, 23251.0, 23284.0, 23343.0, 23356.0, 23409.0, 23392.0, 23316.0, 23228.0, 23165.0, 23102.0, 23115.0, 23203.0, 23270.0, 23317.0, 23258.0, 23178.0, 23131.0, 23165.0, 23188.0, 23201.0, 23270.0, 23245.0, 23249.0, 23242.0, 23205.0, 23216.0, 23234.0, 23225.0, 23226.0, 23253.0, 23259.0, 23275.0, 23229.0, 23164.0, 23109.0, 23080.0, 23123.0, 23241.0, 23305.0, 23248.0, 23195.0, 23228.0, 23241.0, 23252.0, 23211.0, 23143.0, 23091.0, 23128.0, 23181.0, 23220.0, 23181.0, 23081.0, 23064.0, 23092.0, 23103.0, 23226.0, 23257.0, 23199.0, 23182.0, 23181.0, 23201.0, 23260.0, 23321.0, 23291.0, 23255.0, 23194.0, 23095.0, 23102.0, 23140.0, 23131.0, 23255.0, 23282.0, 23178.0, 23149.0, 23211.0, 23182.0, 23167.0, 23091.0, 23009.0, 23033.0, 23076.0, 23128.0, 23173.0, 23291.0, 23312.0, 23278.0, 23191.0, 23119.0, 23173.0, 23197.0, 23148.0, 23195.0, 23152.0, 23189.0, 23196.0, 23157.0, 23117.0, 23088.0, 23162.0, 23199.0, 23204.0, 23115.0, 23039.0, 23089.0, 23193.0, 23191.0, 23144.0, 23117.0, 23139.0, 23181.0, 23270.0, 23205.0, 23112.0, 23094.0, 23052.0, 23041.0, 23107.0, 23135.0, 23091.0, 23065.0, 23017.0, 23052.0, 23129.0, 23209.0, 23225.0, 23124.0, 23040.0, 23016.0, 23080.0, 23111.0, 23114.0, 23069.0, 22993.0, 23046.0, 23142.0, 23190.0, 23186.0, 23146.0, 23130.0, 23101.0, 23080.0, 23016.0, 23019.0, 23149.0, 23201.0, 23270.0, 23276.0, 23290.0, 23342.0, 23368.0, 23322.0, 23275.0, 23214.0, 23148.0, 23162.0, 23239.0, 23289.0, 23277.0, 23205.0, 23143.0, 23174.0, 23209.0, 23220.0, 23274.0, 23282.0, 23280.0, 23221.0, 23135.0]
    },
    "slices": {}
  }
}