{
  "AcquisitionMatrixPE": 104,
  "AcquisitionNumber": 1,
  "AcquisitionTime": "11:06:58.695000",
  "BandwidthPerPixelPhaseEncode": 17.17,
  "BaseResolution": 104,
  "BodyPartExamined": "BRAIN",
  "CoilCombinationMethod": "Sum of Squares",
  "ConsistencyInfo": "N4_VE11C_LATEST_20160120",
  "ConversionSoftware": "dcm2niix",
  "ConversionSoftwareVersion": "v1.0.20211006",
  "DerivedVendorReportedEchoSpacing": 0.000560011,
  "DeviceSerialNumber": "167006",
  "DwellTime": 2.1e-06,
  "EchoTime": 0.037,
  "EchoTrainLength": 104,
  "EffectiveEchoSpacing": 0.000560011,
  "FlipAngle": 52,
  "HeudiconvVersion": "0.10.0",
  "ImageComments": "Unaliased MB4/PE3/LB",
  "ImageOrientationPatientDICOM": [0.999598, 0.0174431, 0.0223568, -0.00453607, 0.876628, -0.481147],
  "ImageOrientationText": "Tra>Cor(-28.8)>Sag(1.6)",
  "ImageType": [
    "ORIGINAL",
    "PRIMARY",
    "M",
    "MB",
    "ND",
    "MOSAIC"
],
  "ImagingFrequency": 123.259,
  "InPlanePhaseEncodingDirectionDICOM": "COL",
  "InstitutionAddress": "Chemin Queen-Mary 4565,Montreal,District,CA,H3W 1W5",
  "InstitutionName": "IUGM",
  "InstitutionalDepartmentName": "Department",
  "MRAcquisitionType": "2D",
  "MagneticFieldStrength": 3,
  "Manufacturer": "Siemens",
  "ManufacturersModelName": "Prisma_fit",
  "MatrixCoilMode": "SENSE",
  "Modality": "MR",
  "MultibandAccelerationFactor": 4,
  "PartialFourier": 1,
  "PatientPosition": "HFS",
  "PercentPhaseFOV": 100,
  "PercentSampling": 100,
  "PhaseEncodingDirection": "j",
  "PhaseEncodingSteps": 104,
  "PhaseResolution": 1,
  "PixelBandwidth": 2290,
  "ProcedureStepDescription": "memory^things",
  "ProtocolName": "func_task-things_run-3",
  "PulseSequenceDetails": "%CustomerSeq%\\cmrr_mbep2d_bold",
  "ReceiveCoilActiveElements": "HC1-7;NC1,2",
  "ReceiveCoilName": "HeadNeck_64",
  "ReconMatrixPE": 104,
  "RepetitionTime": 1.49,
  "SAR": 0.0495976,
  "ScanOptions": "FS",
  "ScanningSequence": "EP",
  "SequenceName": "epfid2d1_104",
  "SequenceVariant": "SK\\SS",
  "SeriesDescription": "func_task-things_run-3",
  "SeriesNumber": 22,
  "ShimSetting": [617, -7184, -8857, 309, 18, -122, -46, -12],
  "SliceThickness": 2,
  "SliceTiming": [0, 0.7825, 0.0975, 0.8825, 0.195, 0.98, 0.2925, 1.0775, 0.3925, 1.175, 0.49, 1.2725, 0.5875, 1.3725, 0.685, 0, 0.7825, 0.0975, 0.8825, 0.195, 0.98, 0.2925, 1.0775, 0.3925, 1.175, 0.49, 1.2725, 0.5875, 1.3725, 0.685, 0, 0.7825, 0.0975, 0.8825, 0.195, 0.98, 0.2925, 1.0775, 0.3925, 1.175, 0.49, 1.2725, 0.5875, 1.3725, 0.685, 0, 0.7825, 0.0975, 0.8825, 0.195, 0.98, 0.2925, 1.0775, 0.3925, 1.175, 0.49, 1.2725, 0.5875, 1.3725, 0.685],
  "SoftwareVersions": "syngo MR E11",
  "SpacingBetweenSlices": 2,
  "StationName": "MRC35049",
  "TaskName": "things",
  "TotalReadoutTime": 0.0576811,
  "TxRefAmp": 283.354,
  "WipMemBlock": "9a40a1be-999a-4c19-a40d-a62b1064baa9||Sequence: R016 ve11c/master r/e634e98; Dec 19 2017 11:00:25 by eja",
  "dcmmeta_affine": [
    [-1.9991956949234009, -0.009072137996554375, 0.055982556194067, 106.1611099243164],
    [-0.03488623723387718, 1.7532566785812378, -0.9617037773132324, -52.06081771850586],
    [0.04471353814005852, 0.9622935652732849, 1.7527098655700684, -93.40302276611328],
    [0.0, 0.0, 0.0, 1.0]
],
  "dcmmeta_reorient_transform": [
    [0.0, -1.0, 0.0, 103.0],
    [1.0, 0.0, 0.0, 0.0],
    [0.0, 0.0, 1.0, 0.0],
    [0.0, 0.0, 0.0, 1.0]
],
  "dcmmeta_shape": [104, 104, 60, 190],
  "dcmmeta_slice_dim": 2,
  "dcmmeta_version": 0.6,
  "global": {
    "const": {
      "AcquisitionMatrix": [104, 0, 0, 104],
      "AngioFlag": "N",
      "BitsAllocated": 16,
      "BitsStored": 16,
      "BodyPartExamined": "BRAIN",
      "Columns": 832,
      "EchoNumbers": 1,
      "EchoTime": 37.0,
      "EchoTrainLength": 104,
      "FlipAngle": 52.0,
      "HighBit": 15,
      "ImageOrientationPatient": [0.99959787538767, 0.01744311949612, 0.0223567686106, -0.0045360692124, 0.87662831268828, -0.4811467816264],
      "ImagePositionPatient": [-829.63167261001, -779.4086188638, 339.71234096949],
      "ImageType": [
        "ORIGINAL",
        "PRIMARY",
        "M",
        "MB",
        "ND",
        "MOSAIC"
],
      "ImagedNucleus": "1H",
      "ImagingFrequency": 123.258941,
      "InPlanePhaseEncodingDirection": "COL",
      "MRAcquisitionType": "2D",
      "MagneticFieldStrength": 3.0,
      "Manufacturer": "SIEMENS",
      "ManufacturerModelName": "Prisma_fit",
      "Modality": "MR",
      "NumberOfAverages": 1.0,
      "NumberOfPhaseEncodingSteps": 104,
      "PercentPhaseFieldOfView": 100.0,
      "PercentSampling": 100.0,
      "PerformedProcedureStepStartTime": "103931.407000",
      "PhotometricInterpretation": "MONOCHROME2",
      "PixelBandwidth": 2290.0,
      "PixelRepresentation": 0,
      "PixelSpacing": [2.0, 2.0],
      "ProtocolName": "func_task-things_run-3",
      "RepetitionTime": 1490.0,
      "Rows": 832,
      "SAR": 0.04959755085496,
      "SamplesPerPixel": 1,
      "ScanOptions": "FS",
      "ScanningSequence": "EP",
      "SequenceName": "epfid2d1_104",
      "SequenceVariant": [
        "SK",
        "SS"
],
      "SeriesDescription": "func_task-things_run-3",
      "SeriesNumber": 22,
      "SeriesTime": "110815.107000",
      "SliceLocation": -53.849074361735,
      "SliceThickness": 2.0,
      "SmallestImagePixelValue": 0,
      "SoftwareVersions": "syngo MR E11",
      "SpacingBetweenSlices": 2.000000023866,
      "SpecificCharacterSet": "ISO_IR 100",
      "StudyID": "1",
      "StudyTime": "103930.913000",
      "TransmitCoilName": "Body",
      "VariableFlipAngleFlag": "N",
      "WindowCenterWidthExplanation": "Algo1",
      "dBdt": 0.0},
    "slices": {}
  },
  "time": {
    "samples": {
      "AcquisitionNumber": [1, 2, 3, 4, 5, 6, 7, 8, 9, 10, 11, 12, 13, 14, 15, 16, 17, 18, 19, 20, 21, 22, 23, 24, 25, 26, 27, 28, 29, 30, 31, 32, 33, 34, 35, 36, 37, 38, 39, 40, 41, 42, 43, 44, 45, 46, 47, 48, 49, 50, 51, 52, 53, 54, 55, 56, 57, 58, 59, 60, 61, 62, 63, 64, 65, 66, 67, 68, 69, 70, 71, 72, 73, 74, 75, 76, 77, 78, 79, 80, 81, 82, 83, 84, 85, 86, 87, 88, 89, 90, 91, 92, 93, 94, 95, 96, 97, 98, 99, 100, 101, 102, 103, 104, 105, 106, 107, 108, 109, 110, 111, 112, 113, 114, 115, 116, 117, 118, 119, 120, 121, 122, 123, 124, 125, 126, 127, 128, 129, 130, 131, 132, 133, 134, 135, 136, 137, 138, 139, 140, 141, 142, 143, 144, 145, 146, 147, 148, 149, 150, 151, 152, 153, 154, 155, 156, 157, 158, 159, 160, 161, 162, 163, 164, 165, 166, 167, 168, 169, 170, 171, 172, 173, 174, 175, 176, 177, 178, 179, 180, 181, 182, 183, 184, 185, 186, 187, 188, 189, 190],
      "AcquisitionTime": ["110658.695000", "110700.185000", "110701.675000", "110703.165000", "110704.655000", "110706.145000", "110707.635000", "110709.125000", "110710.615000", "110712.105000", "110713.595000", "110715.085000", "110716.575000", "110718.065000", "110719.555000", "110721.045000", "110722.535000", "110724.025000", "110725.515000", "110727.005000", "110728.495000", "110729.985000", "110731.475000", "110732.965000", "110734.455000", "110735.945000", "110737.435000", "110738.925000", "110740.415000", "110741.905000", "110743.395000", "110744.885000", "110746.375000", "110747.865000", "110749.355000", "110750.845000", "110752.335000", "110753.825000", "110755.315000", "110756.805000", "110758.295000", "110759.785000", "110801.275000", "110802.765000", "110804.255000", "110805.745000", "110807.235000", "110808.725000", "110810.215000", "110811.705000", "110813.195000", "110814.685000", "110816.175000", "110817.665000", "110819.155000", "110820.645000", "110822.135000", "110823.625000", "110825.115000", "110826.605000", "110828.095000", "110829.585000", "110831.075000", "110832.565000", "110834.055000", "110835.545000", "110837.035000", "110838.525000", "110840.015000", "110841.505000", "110842.995000", "110844.485000", "110845.975000", "110847.465000", "110848.955000", "110850.445000", "110851.935000", "110853.425000", "110854.915000", "110856.405000", "110857.895000", "110859.385000", "110900.875000", "110902.365000", "110903.855000", "110905.345000", "110906.835000", "110908.325000", "110909.815000", "110911.305000", "110912.795000", "110914.285000", "110915.775000", "110917.265000", "110918.755000", "110920.245000", "110921.735000", "110923.225000", "110924.715000", "110926.205000", "110927.695000", "110929.185000", "110930.675000", "110932.165000", "110933.655000", "110935.145000", "110936.635000", "110938.125000", "110939.615000", "110941.105000", "110942.595000", "110944.085000", "110945.575000", "110947.065000", "110948.555000", "110950.045000", "110951.535000", "110953.025000", "110954.515000", "110956.005000", "110957.495000", "110958.985000", "111000.475000", "111001.965000", "111003.455000", "111004.945000", "111006.435000", "111007.925000", "111009.415000", "111010.905000", "111012.395000", "111013.885000", "111015.375000", "111016.865000", "111018.355000", "111019.845000", "111021.335000", "111022.825000", "111024.315000", "111025.805000", "111027.295000", "111028.785000", "111030.275000", "111031.765000", "111033.255000", "111034.745000", "111036.235000", "111037.725000", "111039.215000", "111040.705000", "111042.195000", "111043.685000", "111045.175000", "111046.665000", "111048.155000", "111049.645000", "111051.135000", "111052.625000", "111054.115000", "111055.605000", "111057.095000", "111058.585000", "111100.075000", "111101.565000", "111103.055000", "111104.545000", "111106.035000", "111107.525000", "111109.015000", "111110.505000", "111111.995000", "111113.485000", "111114.975000", "111116.465000", "111117.955000", "111119.445000", "111120.935000", "111122.425000", "111123.915000", "111125.405000", "111126.895000", "111128.385000", "111129.875000", "111131.365000", "111132.855000", "111134.345000", "111135.835000", "111137.325000", "111138.815000", "111140.305000"],
      "ContentTime": ["110815.111000", "110815.115000", "110815.119000", "110815.122000", "110815.129000", "110815.132000", "110815.145000", "110815.148000", "110815.151000", "110815.155000", "110815.158000", "110815.161000", "110815.164000", "110815.168000", "110815.171000", "110815.174000", "110815.177000", "110815.181000", "110815.184000", "110815.187000", "110815.190000", "110815.194000", "110815.197000", "110815.200000", "110835.076000", "110835.080000", "110835.083000", "110835.086000", "110835.090000", "110835.093000", "110835.096000", "110835.099000", "110835.103000", "110835.106000", "110835.109000", "110835.112000", "110835.116000", "110835.119000", "110835.122000", "110835.125000", "110835.129000", "110835.132000", "110835.135000", "110835.138000", "110855.076000", "110855.080000", "110855.083000", "110855.086000", "110855.090000", "110855.093000", "110855.096000", "110855.099000", "110855.103000", "110855.109000", "110855.112000", "110855.115000", "110855.118000", "110855.122000", "110855.125000", "110855.129000", "110855.133000", "110855.136000", "110855.139000", "110855.143000", "110915.075000", "110915.079000", "110915.082000", "110915.085000", "110915.089000", "110915.092000", "110915.095000", "110915.098000", "110915.102000", "110915.105000", "110915.108000", "110915.111000", "110915.115000", "110915.118000", "110915.121000", "110915.124000", "110915.128000", "110915.131000", "110915.134000", "110915.137000", "110915.141000", "110955.075000", "110955.079000", "110955.082000", "110955.085000", "110955.088000", "110955.105000", "110955.108000", "110955.111000", "110955.115000", "110955.118000", "110955.121000", "110955.125000", "110955.128000", "110955.131000", "110955.135000", "110955.138000", "110955.141000", "110955.145000", "110955.148000", "110955.151000", "110955.154000", "110955.158000", "110955.161000", "110955.164000", "110955.167000", "110955.171000", "110955.174000", "110955.177000", "110955.190000", "110955.193000", "110955.196000", "110955.199000", "110955.203000", "111035.076000", "111035.080000", "111035.083000", "111035.086000", "111035.090000", "111035.093000", "111035.096000", "111035.099000", "111035.103000", "111035.106000", "111035.109000", "111035.112000", "111035.116000", "111035.120000", "111035.123000", "111035.127000", "111035.130000", "111035.133000", "111035.136000", "111035.140000", "111035.143000", "111035.146000", "111035.150000", "111035.153000", "111035.156000", "111035.159000", "111115.076000", "111115.080000", "111115.083000", "111115.086000", "111115.090000", "111115.093000", "111115.096000", "111115.100000", "111115.103000", "111115.106000", "111115.109000", "111115.113000", "111115.116000", "111115.119000", "111115.123000", "111115.126000", "111115.129000", "111115.132000", "111115.136000", "111115.139000", "111115.142000", "111115.146000", "111115.149000", "111115.152000", "111115.155000", "111115.158000", "111115.162000", "111142.360000", "111142.364000", "111142.368000", "111142.371000", "111142.374000", "111142.378000", "111142.381000", "111142.384000", "111142.388000", "111142.391000", "111142.395000", "111142.398000", "111142.402000", "111142.405000", "111142.409000", "111142.412000", "111142.415000", "111142.418000", "111142.422000"],
      "InstanceCreationTime": ["110815.111000", "110815.115000", "110815.119000", "110815.122000", "110815.129000", "110815.132000", "110815.145000", "110815.148000", "110815.151000", "110815.155000", "110815.158000", "110815.161000", "110815.164000", "110815.168000", "110815.171000", "110815.174000", "110815.177000", "110815.181000", "110815.184000", "110815.187000", "110815.190000", "110815.194000", "110815.197000", "110815.200000", "110835.076000", "110835.080000", "110835.083000", "110835.086000", "110835.090000", "110835.093000", "110835.096000", "110835.099000", "110835.103000", "110835.106000", "110835.109000", "110835.112000", "110835.116000", "110835.119000", "110835.122000", "110835.125000", "110835.129000", "110835.132000", "110835.135000", "110835.138000", "110855.076000", "110855.080000", "110855.083000", "110855.086000", "110855.090000", "110855.093000", "110855.096000", "110855.099000", "110855.103000", "110855.109000", "110855.112000", "110855.115000", "110855.118000", "110855.122000", "110855.125000", "110855.129000", "110855.133000", "110855.136000", "110855.139000", "110855.143000", "110915.075000", "110915.079000", "110915.082000", "110915.085000", "110915.089000", "110915.092000", "110915.095000", "110915.098000", "110915.102000", "110915.105000", "110915.108000", "110915.111000", "110915.115000", "110915.118000", "110915.121000", "110915.124000", "110915.128000", "110915.131000", "110915.134000", "110915.137000", "110915.141000", "110955.075000", "110955.079000", "110955.082000", "110955.085000", "110955.088000", "110955.105000", "110955.108000", "110955.111000", "110955.115000", "110955.118000", "110955.121000", "110955.125000", "110955.128000", "110955.131000", "110955.135000", "110955.138000", "110955.141000", "110955.145000", "110955.148000", "110955.151000", "110955.154000", "110955.158000", "110955.161000", "110955.164000", "110955.167000", "110955.171000", "110955.174000", "110955.177000", "110955.190000", "110955.193000", "110955.196000", "110955.199000", "110955.203000", "111035.076000", "111035.080000", "111035.083000", "111035.086000", "111035.090000", "111035.093000", "111035.096000", "111035.099000", "111035.103000", "111035.106000", "111035.109000", "111035.112000", "111035.116000", "111035.120000", "111035.123000", "111035.127000", "111035.130000", "111035.133000", "111035.136000", "111035.140000", "111035.143000", "111035.146000", "111035.150000", "111035.153000", "111035.156000", "111035.159000", "111115.076000", "111115.080000", "111115.083000", "111115.086000", "111115.090000", "111115.093000", "111115.096000", "111115.100000", "111115.103000", "111115.106000", "111115.109000", "111115.113000", "111115.116000", "111115.119000", "111115.123000", "111115.126000", "111115.129000", "111115.132000", "111115.136000", "111115.139000", "111115.142000", "111115.146000", "111115.149000", "111115.152000", "111115.155000", "111115.158000", "111115.162000", "111142.360000", "111142.364000", "111142.368000", "111142.371000", "111142.374000", "111142.378000", "111142.381000", "111142.384000", "111142.388000", "111142.391000", "111142.395000", "111142.398000", "111142.402000", "111142.405000", "111142.409000", "111142.412000", "111142.415000", "111142.418000", "111142.422000"],
      "InstanceNumber": [1, 2, 3, 4, 5, 6, 7, 8, 9, 10, 11, 12, 13, 14, 15, 16, 17, 18, 19, 20, 21, 22, 23, 24, 25, 26, 27, 28, 29, 30, 31, 32, 33, 34, 35, 36, 37, 38, 39, 40, 41, 42, 43, 44, 45, 46, 47, 48, 49, 50, 51, 52, 53, 54, 55, 56, 57, 58, 59, 60, 61, 62, 63, 64, 65, 66, 67, 68, 69, 70, 71, 72, 73, 74, 75, 76, 77, 78, 79, 80, 81, 82, 83, 84, 85, 86, 87, 88, 89, 90, 91, 92, 93, 94, 95, 96, 97, 98, 99, 100, 101, 102, 103, 104, 105, 106, 107, 108, 109, 110, 111, 112, 113, 114, 115, 116, 117, 118, 119, 120, 121, 122, 123, 124, 125, 126, 127, 128, 129, 130, 131, 132, 133, 134, 135, 136, 137, 138, 139, 140, 141, 142, 143, 144, 145, 146, 147, 148, 149, 150, 151, 152, 153, 154, 155, 156, 157, 158, 159, 160, 161, 162, 163, 164, 165, 166, 167, 168, 169, 170, 171, 172, 173, 174, 175, 176, 177, 178, 179, 180, 181, 182, 183, 184, 185, 186, 187, 188, 189, 190],
      "LargestImagePixelValue": [43700, 42861, 42145, 41746, 42775, 41930, 41978, 41858, 41273, 41158, 41517, 41029, 40825, 41011, 41919, 41095, 41443, 41694, 41577, 41326, 42195, 42408, 41774, 41514, 41338, 41628, 41560, 41564, 41277, 40997, 42055, 41320, 41519, 41029, 41257, 41994, 41184, 42047, 40986, 41399, 41409, 41683, 42139, 41415, 41518, 41022, 42247, 41100, 41180, 41429, 41438, 41684, 41816, 41011, 41459, 41326, 42157, 41541, 41079, 41947, 41797, 41680, 42128, 41179, 41164, 41149, 41527, 40977, 42211, 41492, 41103, 41307, 41537, 41384, 41312, 40946, 41845, 41229, 41635, 41361, 41668, 42041, 41619, 42173, 41955, 41756, 41178, 41409, 42094, 41220, 41324, 42574, 41558, 41783, 41507, 41879, 42315, 42340, 41513, 42011, 42713, 41494, 41446, 42347, 41800, 41722, 42143, 41509, 41508, 41646, 41085, 41473, 42195, 40750, 40726, 40788, 40673, 41132, 41507, 40555, 40481, 41656, 40982, 41296, 42017, 41359, 41262, 41309, 41312, 41169, 41890, 41509, 40755, 42194, 41582, 40942, 40786, 41167, 41769, 41471, 40712, 40986, 40836, 42405, 41485, 41090, 40476, 40840, 40768, 40967, 40915, 41228, 42931, 41064, 41086, 41054, 41017, 41382, 41552, 41514, 41251, 40568, 41006, 43084, 40429, 40695, 40866, 41188, 41118, 41058, 41612, 40807, 40038, 41533, 40776, 40289, 42239, 40609, 40258, 40451, 40574, 41262, 41042, 42109, 40630, 41136, 42591, 41677, 41315, 41375],
      "WindowCenter": [10925.0, 10880.0, 10838.0, 10809.0, 10906.0, 10875.0, 10876.0, 10878.0, 10836.0, 10798.0, 10795.0, 10817.0, 10849.0, 10847.0, 10832.0, 10792.0, 10790.0, 10796.0, 10804.0, 10812.0, 10827.0, 10835.0, 10821.0, 10810.0, 10833.0, 10861.0, 10887.0, 10872.0, 10811.0, 10793.0, 10810.0, 10806.0, 10829.0, 10819.0, 10835.0, 10858.0, 10848.0, 10837.0, 10824.0, 10827.0, 10827.0, 10838.0, 10838.0, 10825.0, 10841.0, 10868.0, 10892.0, 10845.0, 10815.0, 10771.0, 10779.0, 10798.0, 10835.0, 10839.0, 10829.0, 10807.0, 10809.0, 10806.0, 10798.0, 10816.0, 10803.0, 10782.0, 10788.0, 10784.0, 10788.0, 10793.0, 10801.0, 10792.0, 10812.0, 10808.0, 10795.0, 10799.0, 10794.0, 10795.0, 10822.0, 10848.0, 10853.0, 10811.0, 10797.0, 10778.0, 10783.0, 10830.0, 10828.0, 10851.0, 10845.0, 10841.0, 10834.0, 10835.0, 10830.0, 10800.0, 10797.0, 10805.0, 10799.0, 10791.0, 10780.0, 10806.0, 10825.0, 10822.0, 10778.0, 10746.0, 10747.0, 10742.0, 10766.0, 10814.0, 10818.0, 10805.0, 10797.0, 10793.0, 10796.0, 10804.0, 10790.0, 10802.0, 10818.0, 10796.0, 10776.0, 10768.0, 10774.0, 10791.0, 10804.0, 10784.0, 10812.0, 10838.0, 10806.0, 10781.0, 10758.0, 10758.0, 10775.0, 10802.0, 10802.0, 10795.0, 10820.0, 10805.0, 10777.0, 10807.0, 10804.0, 10783.0, 10784.0, 10778.0, 10780.0, 10774.0, 10757.0, 10786.0, 10783.0, 10816.0, 10809.0, 10797.0, 10770.0, 10764.0, 10732.0, 10775.0, 10817.0, 10840.0, 10853.0, 10782.0, 10741.0, 10736.0, 10755.0, 10797.0, 10804.0, 10798.0, 10790.0, 10784.0, 10817.0, 10869.0, 10831.0, 10814.0, 10766.0, 10758.0, 10761.0, 10778.0, 10833.0, 10842.0, 10794.0, 10786.0, 10763.0, 10754.0, 10786.0, 10773.0, 10753.0, 10730.0, 10728.0, 10746.0, 10781.0, 10832.0, 10806.0, 10803.0, 10799.0, 10758.0, 10729.0, 10709.0],
      "WindowWidth": [23484.0, 23347.0, 23232.0, 23158.0, 23379.0, 23301.0, 23296.0, 23294.0, 23204.0, 23117.0, 23103.0, 23152.0, 23224.0, 23220.0, 23180.0, 23097.0, 23087.0, 23101.0, 23126.0, 23137.0, 23169.0, 23188.0, 23161.0, 23138.0, 23197.0, 23252.0, 23314.0, 23279.0, 23137.0, 23095.0, 23131.0, 23129.0, 23176.0, 23161.0, 23194.0, 23241.0, 23230.0, 23200.0, 23171.0, 23176.0, 23177.0, 23202.0, 23200.0, 23173.0, 23207.0, 23271.0, 23325.0, 23220.0, 23157.0, 23054.0, 23069.0, 23109.0, 23192.0, 23209.0, 23186.0, 23131.0, 23130.0, 23133.0, 23111.0, 23149.0, 23119.0, 23073.0, 23083.0, 23079.0, 23093.0, 23100.0, 23119.0, 23099.0, 23138.0, 23135.0, 23110.0, 23114.0, 23102.0, 23109.0, 23165.0, 23229.0, 23234.0, 23143.0, 23112.0, 23068.0, 23080.0, 23189.0, 23180.0, 23229.0, 23217.0, 23210.0, 23193.0, 23196.0, 23180.0, 23117.0, 23110.0, 23121.0, 23110.0, 23094.0, 23065.0, 23119.0, 23158.0, 23156.0, 23059.0, 22986.0, 22984.0, 22978.0, 23036.0, 23141.0, 23150.0, 23126.0, 23100.0, 23093.0, 23103.0, 23121.0, 23092.0, 23115.0, 23152.0, 23108.0, 23065.0, 23051.0, 23061.0, 23098.0, 23124.0, 23082.0, 23143.0, 23196.0, 23132.0, 23071.0, 23017.0, 23017.0, 23061.0, 23118.0, 23117.0, 23100.0, 23153.0, 23120.0, 23063.0, 23121.0, 23115.0, 23080.0, 23075.0, 23060.0, 23063.0, 23052.0, 23017.0, 23084.0, 23073.0, 23140.0, 23127.0, 23111.0, 23049.0, 23035.0, 22960.0, 23052.0, 23149.0, 23199.0, 23221.0, 23070.0, 22977.0, 22964.0, 23007.0, 23101.0, 23117.0, 23106.0, 23089.0, 23078.0, 23154.0, 23259.0, 23189.0, 23161.0, 23041.0, 23018.0, 23028.0, 23065.0, 23185.0, 23212.0, 23110.0, 23080.0, 23032.0, 23010.0, 23077.0, 23063.0, 23011.0, 22958.0, 22958.0, 22988.0, 23067.0, 23169.0, 23124.0, 23115.0, 23103.0, 23015.0, 22955.0, 22906.0]
    },
    "slices": {}
  }
}