{
  "AcquisitionMatrixPE": 104,
  "AcquisitionNumber": 1,
  "AcquisitionTime": "11:13:9.982500",
  "BandwidthPerPixelPhaseEncode": 17.17,
  "BaseResolution": 104,
  "BodyPartExamined": "BRAIN",
  "CoilCombinationMethod": "Sum of Squares",
  "ConsistencyInfo": "N4_VE11C_LATEST_20160120",
  "ConversionSoftware": "dcm2niix",
  "ConversionSoftwareVersion": "v1.0.20211006",
  "DerivedVendorReportedEchoSpacing": 0.000560011,
  "DeviceSerialNumber": "167006",
  "DwellTime": 2.1e-06,
  "EchoTime": 0.037,
  "EchoTime1": 0.037,
  "EchoTime2": 0.001,
  "EchoTrainLength": 104,
  "EffectiveEchoSpacing": 0.000560011,
  "FlipAngle": 52,
  "HeudiconvVersion": "0.10.0",
  "ImageComments": "Unaliased MB4/PE3/LB",
  "ImageOrientationPatientDICOM": [0.999598, 0.0174431, 0.0223568, -0.00453607, 0.876628, -0.481147],
  "ImageOrientationText": "Tra>Cor(-28.8)>Sag(1.6)",
  "ImageType": [
    "ORIGINAL",
    "PRIMARY",
    "P",
    "MB",
    "ND",
    "MOSAIC",
    "PHASE"
],
  "ImagingFrequency": 123.259,
  "InPlanePhaseEncodingDirectionDICOM": "COL",
  "InstitutionAddress": "Chemin Queen-Mary 4565,Montreal,District,CA,H3W 1W5",
  "InstitutionName": "IUGM",
  "InstitutionalDepartmentName": "Department",
  "MRAcquisitionType": "2D",
  "MagneticFieldStrength": 3,
  "Manufacturer": "Siemens",
  "ManufacturersModelName": "Prisma_fit",
  "MatrixCoilMode": "SENSE",
  "Modality": "MR",
  "MultibandAccelerationFactor": 4,
  "PartialFourier": 1,
  "PatientPosition": "HFS",
  "PercentPhaseFOV": 100,
  "PercentSampling": 100,
  "PhaseEncodingDirection": "j",
  "PhaseEncodingSteps": 104,
  "PhaseResolution": 1,
  "PixelBandwidth": 2290,
  "ProcedureStepDescription": "memory^things",
  "ProtocolName": "func_task-things_run-4",
  "PulseSequenceDetails": "%CustomerSeq%\\cmrr_mbep2d_bold",
  "ReceiveCoilActiveElements": "HC1-7;NC1,2",
  "ReceiveCoilName": "HeadNeck_64",
  "ReconMatrixPE": 104,
  "RepetitionTime": 1.49,
  "SAR": 0.0495976,
  "ScanOptions": "FS",
  "ScanningSequence": "EP",
  "SequenceName": "epfid2d1_104",
  "SequenceVariant": "SK\\SS",
  "SeriesDescription": "func_task-things_run-4",
  "SeriesNumber": 26,
  "ShimSetting": [617, -7184, -8857, 309, 18, -122, -46, -12],
  "SliceThickness": 2,
  "SliceTiming": [0, 0.785, 0.0975, 0.8825, 0.1975, 0.98, 0.295, 1.0775, 0.3925, 1.1775, 0.49, 1.275, 0.5875, 1.3725, 0.6875, 0, 0.785, 0.0975, 0.8825, 0.1975, 0.98, 0.295, 1.0775, 0.3925, 1.1775, 0.49, 1.275, 0.5875, 1.3725, 0.6875, 0, 0.785, 0.0975, 0.8825, 0.1975, 0.98, 0.295, 1.0775, 0.3925, 1.1775, 0.49, 1.275, 0.5875, 1.3725, 0.6875, 0, 0.785, 0.0975, 0.8825, 0.1975, 0.98, 0.295, 1.0775, 0.3925, 1.1775, 0.49, 1.275, 0.5875, 1.3725, 0.6875],
  "SoftwareVersions": "syngo MR E11",
  "SpacingBetweenSlices": 2,
  "StationName": "MRC35049",
  "TaskName": "things",
  "TotalReadoutTime": 0.0576811,
  "TxRefAmp": 283.354,
  "WipMemBlock": "9a040bcc-8e4a-4cae-bf55-e950f6214b01||Sequence: R016 ve11c/master r/e634e98; Dec 19 2017 11:00:25 by eja",
  "dcmmeta_affine": [
    [-1.9991956949234009, -0.009072137996554375, 0.055982556194067, 106.1611099243164],
    [-0.03488623723387718, 1.7532566785812378, -0.9617037773132324, -52.06081771850586],
    [0.04471353814005852, 0.9622935652732849, 1.7527098655700684, -93.40302276611328],
    [0.0, 0.0, 0.0, 1.0]
],
  "dcmmeta_reorient_transform": [
    [0.0, -1.0, 0.0, 103.0],
    [1.0, 0.0, 0.0, 0.0],
    [0.0, 0.0, 1.0, 0.0],
    [0.0, 0.0, 0.0, 1.0]
],
  "dcmmeta_shape": [104, 104, 60, 190],
  "dcmmeta_slice_dim": 2,
  "dcmmeta_version": 0.6,
  "global": {
    "const": {
      "AcquisitionMatrix": [104, 0, 0, 104],
      "AngioFlag": "N",
      "BitsAllocated": 16,
      "BitsStored": 16,
      "BodyPartExamined": "BRAIN",
      "Columns": 832,
      "EchoNumbers": 1,
      "EchoTime": 37.0,
      "EchoTrainLength": 104,
      "FlipAngle": 52.0,
      "HighBit": 15,
      "ImageOrientationPatient": [0.99959787538767, 0.01744311949612, 0.0223567686106, -0.0045360692124, 0.87662831268828, -0.4811467816264],
      "ImagePositionPatient": [-829.63167261001, -779.4086188638, 339.71234096949],
      "ImageType": [
        "ORIGINAL",
        "PRIMARY",
        "P",
        "MB",
        "ND",
        "MOSAIC"
],
      "ImagedNucleus": "1H",
      "ImagingFrequency": 123.258945,
      "InPlanePhaseEncodingDirection": "COL",
      "LargestImagePixelValue": 4095,
      "MRAcquisitionType": "2D",
      "MagneticFieldStrength": 3.0,
      "Manufacturer": "SIEMENS",
      "ManufacturerModelName": "Prisma_fit",
      "Modality": "MR",
      "NumberOfAverages": 1.0,
      "NumberOfPhaseEncodingSteps": 104,
      "PercentPhaseFieldOfView": 100.0,
      "PercentSampling": 100.0,
      "PerformedProcedureStepStartTime": "103931.407000",
      "PhotometricInterpretation": "MONOCHROME2",
      "PixelBandwidth": 2290.0,
      "PixelRepresentation": 0,
      "PixelSpacing": [2.0, 2.0],
      "ProtocolName": "func_task-things_run-4",
      "RepetitionTime": 1490.0,
      "RescaleIntercept": -4096.0,
      "RescaleSlope": 2.0,
      "RescaleType": "US",
      "Rows": 832,
      "SAR": 0.04959755085496,
      "SamplesPerPixel": 1,
      "ScanOptions": "FS",
      "ScanningSequence": "EP",
      "SequenceName": "epfid2d1_104",
      "SequenceVariant": [
        "SK",
        "SS"
],
      "SeriesDescription": "func_task-things_run-4",
      "SeriesNumber": 26,
      "SeriesTime": "111416.320000",
      "SliceLocation": -53.849074361735,
      "SliceThickness": 2.0,
      "SmallestImagePixelValue": 0,
      "SoftwareVersions": "syngo MR E11",
      "SpacingBetweenSlices": 2.000000023866,
      "SpecificCharacterSet": "ISO_IR 100",
      "StudyID": "1",
      "StudyTime": "103930.913000",
      "TransmitCoilName": "Body",
      "VariableFlipAngleFlag": "N",
      "WindowCenterWidthExplanation": "Algo1",
      "dBdt": 0.0},
    "slices": {}
  },
  "time": {
    "samples": {
      "AcquisitionNumber": [1, 2, 3, 4, 5, 6, 7, 8, 9, 10, 11, 12, 13, 14, 15, 16, 17, 18, 19, 20, 21, 22, 23, 24, 25, 26, 27, 28, 29, 30, 31, 32, 33, 34, 35, 36, 37, 38, 39, 40, 41, 42, 43, 44, 45, 46, 47, 48, 49, 50, 51, 52, 53, 54, 55, 56, 57, 58, 59, 60, 61, 62, 63, 64, 65, 66, 67, 68, 69, 70, 71, 72, 73, 74, 75, 76, 77, 78, 79, 80, 81, 82, 83, 84, 85, 86, 87, 88, 89, 90, 91, 92, 93, 94, 95, 96, 97, 98, 99, 100, 101, 102, 103, 104, 105, 106, 107, 108, 109, 110, 111, 112, 113, 114, 115, 116, 117, 118, 119, 120, 121, 122, 123, 124, 125, 126, 127, 128, 129, 130, 131, 132, 133, 134, 135, 136, 137, 138, 139, 140, 141, 142, 143, 144, 145, 146, 147, 148, 149, 150, 151, 152, 153, 154, 155, 156, 157, 158, 159, 160, 161, 162, 163, 164, 165, 166, 167, 168, 169, 170, 171, 172, 173, 174, 175, 176, 177, 178, 179, 180, 181, 182, 183, 184, 185, 186, 187, 188, 189, 190],
      "AcquisitionTime": ["111309.982500", "111311.472500", "111312.962500", "111314.452500", "111315.942500", "111317.432500", "111318.922500", "111320.412500", "111321.902500", "111323.392500", "111324.882500", "111326.372500", "111327.862500", "111329.352500", "111330.842500", "111332.332500", "111333.822500", "111335.312500", "111336.802500", "111338.292500", "111339.782500", "111341.272500", "111342.762500", "111344.252500", "111345.742500", "111347.232500", "111348.722500", "111350.212500", "111351.702500", "111353.192500", "111354.682500", "111356.172500", "111357.662500", "111359.152500", "111400.642500", "111402.132500", "111403.622500", "111405.112500", "111406.602500", "111408.092500", "111409.582500", "111411.072500", "111412.562500", "111414.052500", "111415.542500", "111417.032500", "111418.522500", "111420.012500", "111421.502500", "111422.992500", "111424.482500", "111425.972500", "111427.462500", "111428.952500", "111430.442500", "111431.932500", "111433.422500", "111434.912500", "111436.402500", "111437.892500", "111439.382500", "111440.872500", "111442.362500", "111443.852500", "111445.342500", "111446.832500", "111448.322500", "111449.812500", "111451.302500", "111452.792500", "111454.282500", "111455.772500", "111457.262500", "111458.752500", "111500.242500", "111501.732500", "111503.222500", "111504.712500", "111506.202500", "111507.692500", "111509.182500", "111510.672500", "111512.162500", "111513.652500", "111515.142500", "111516.632500", "111518.122500", "111519.612500", "111521.102500", "111522.592500", "111524.082500", "111525.572500", "111527.062500", "111528.552500", "111530.042500", "111531.532500", "111533.022500", "111534.512500", "111536.002500", "111537.492500", "111538.982500", "111540.472500", "111541.962500", "111543.452500", "111544.942500", "111546.432500", "111547.922500", "111549.412500", "111550.902500", "111552.392500", "111553.882500", "111555.372500", "111556.862500", "111558.352500", "111559.842500", "111601.332500", "111602.822500", "111604.312500", "111605.802500", "111607.292500", "111608.782500", "111610.272500", "111611.762500", "111613.252500", "111614.742500", "111616.232500", "111617.722500", "111619.212500", "111620.702500", "111622.192500", "111623.682500", "111625.172500", "111626.662500", "111628.152500", "111629.642500", "111631.132500", "111632.622500", "111634.112500", "111635.602500", "111637.092500", "111638.582500", "111640.072500", "111641.562500", "111643.052500", "111644.542500", "111646.032500", "111647.522500", "111649.012500", "111650.502500", "111651.992500", "111653.482500", "111654.972500", "111656.462500", "111657.952500", "111659.442500", "111700.932500", "111702.422500", "111703.912500", "111705.402500", "111706.892500", "111708.382500", "111709.872500", "111711.362500", "111712.852500", "111714.342500", "111715.832500", "111717.322500", "111718.812500", "111720.302500", "111721.792500", "111723.282500", "111724.772500", "111726.262500", "111727.752500", "111729.242500", "111730.732500", "111732.222500", "111733.712500", "111735.202500", "111736.692500", "111738.182500", "111739.672500", "111741.162500", "111742.652500", "111744.142500", "111745.632500", "111747.122500", "111748.612500", "111750.102500", "111751.592500"],
      "ContentTime": ["111416.322000", "111416.325000", "111416.327000", "111416.330000", "111416.332000", "111416.334000", "111416.337000", "111416.340000", "111416.342000", "111416.344000", "111416.347000", "111436.342000", "111436.345000", "111436.359000", "111436.361000", "111436.364000", "111436.367000", "111436.369000", "111436.372000", "111436.374000", "111436.377000", "111436.379000", "111436.385000", "111436.388000", "111436.390000", "111436.393000", "111436.395000", "111436.398000", "111436.408000", "111436.410000", "111436.413000", "111456.309000", "111456.311000", "111456.314000", "111456.316000", "111456.319000", "111456.321000", "111456.324000", "111456.326000", "111456.329000", "111456.331000", "111456.334000", "111456.336000", "111456.339000", "111456.341000", "111456.343000", "111456.346000", "111456.348000", "111456.351000", "111456.353000", "111456.356000", "111456.358000", "111516.319000", "111516.321000", "111516.324000", "111516.326000", "111516.329000", "111516.331000", "111516.334000", "111516.336000", "111516.339000", "111516.341000", "111516.344000", "111516.346000", "111516.349000", "111516.351000", "111516.353000", "111516.356000", "111516.358000", "111516.361000", "111516.363000", "111516.366000", "111536.301000", "111536.303000", "111536.306000", "111536.308000", "111536.311000", "111536.313000", "111536.316000", "111536.318000", "111536.321000", "111536.324000", "111536.326000", "111536.329000", "111536.331000", "111536.334000", "111536.336000", "111536.339000", "111536.341000", "111536.344000", "111536.347000", "111536.349000", "111616.378000", "111616.380000", "111616.383000", "111616.385000", "111616.388000", "111616.390000", "111616.393000", "111616.395000", "111616.398000", "111616.400000", "111616.403000", "111616.405000", "111616.408000", "111616.410000", "111616.413000", "111616.415000", "111616.421000", "111616.423000", "111616.426000", "111616.428000", "111616.431000", "111616.433000", "111616.436000", "111616.438000", "111616.441000", "111616.443000", "111616.446000", "111616.448000", "111616.451000", "111616.453000", "111616.456000", "111616.458000", "111656.339000", "111656.342000", "111656.344000", "111656.347000", "111656.349000", "111656.352000", "111656.354000", "111656.357000", "111656.359000", "111656.362000", "111656.364000", "111656.367000", "111656.369000", "111656.372000", "111656.374000", "111656.377000", "111656.379000", "111656.382000", "111656.384000", "111656.387000", "111656.389000", "111656.391000", "111656.394000", "111656.396000", "111656.399000", "111656.401000", "111656.404000", "111736.342000", "111736.345000", "111736.347000", "111736.350000", "111736.352000", "111736.358000", "111736.360000", "111736.363000", "111736.365000", "111736.368000", "111736.370000", "111736.373000", "111736.375000", "111736.378000", "111736.380000", "111736.383000", "111736.385000", "111736.388000", "111736.390000", "111736.393000", "111736.395000", "111736.398000", "111736.400000", "111736.403000", "111736.405000", "111736.408000", "111736.410000", "111753.826000", "111753.830000", "111753.832000", "111753.835000", "111753.838000", "111753.840000", "111753.843000", "111753.846000", "111753.849000", "111753.852000", "111753.855000", "111753.857000"],
      "InstanceCreationTime": ["111416.322000", "111416.325000", "111416.327000", "111416.330000", "111416.332000", "111416.334000", "111416.337000", "111416.340000", "111416.342000", "111416.344000", "111416.347000", "111436.342000", "111436.345000", "111436.359000", "111436.361000", "111436.364000", "111436.367000", "111436.369000", "111436.372000", "111436.374000", "111436.377000", "111436.379000", "111436.385000", "111436.388000", "111436.390000", "111436.393000", "111436.395000", "111436.398000", "111436.408000", "111436.410000", "111436.413000", "111456.309000", "111456.311000", "111456.314000", "111456.316000", "111456.319000", "111456.321000", "111456.324000", "111456.326000", "111456.329000", "111456.331000", "111456.334000", "111456.336000", "111456.339000", "111456.341000", "111456.343000", "111456.346000", "111456.348000", "111456.351000", "111456.353000", "111456.356000", "111456.358000", "111516.319000", "111516.321000", "111516.324000", "111516.326000", "111516.329000", "111516.331000", "111516.334000", "111516.336000", "111516.339000", "111516.341000", "111516.344000", "111516.346000", "111516.349000", "111516.351000", "111516.353000", "111516.356000", "111516.358000", "111516.361000", "111516.363000", "111516.366000", "111536.301000", "111536.303000", "111536.306000", "111536.308000", "111536.311000", "111536.313000", "111536.316000", "111536.318000", "111536.321000", "111536.324000", "111536.326000", "111536.329000", "111536.331000", "111536.334000", "111536.336000", "111536.339000", "111536.341000", "111536.344000", "111536.347000", "111536.349000", "111616.378000", "111616.380000", "111616.383000", "111616.385000", "111616.388000", "111616.390000", "111616.393000", "111616.395000", "111616.398000", "111616.400000", "111616.403000", "111616.405000", "111616.408000", "111616.410000", "111616.413000", "111616.415000", "111616.421000", "111616.423000", "111616.426000", "111616.428000", "111616.431000", "111616.433000", "111616.436000", "111616.438000", "111616.441000", "111616.443000", "111616.446000", "111616.448000", "111616.451000", "111616.453000", "111616.456000", "111616.458000", "111656.339000", "111656.342000", "111656.344000", "111656.347000", "111656.349000", "111656.352000", "111656.354000", "111656.357000", "111656.359000", "111656.362000", "111656.364000", "111656.367000", "111656.369000", "111656.372000", "111656.374000", "111656.377000", "111656.379000", "111656.382000", "111656.384000", "111656.387000", "111656.389000", "111656.391000", "111656.394000", "111656.396000", "111656.399000", "111656.401000", "111656.404000", "111736.342000", "111736.345000", "111736.347000", "111736.350000", "111736.352000", "111736.358000", "111736.360000", "111736.363000", "111736.365000", "111736.368000", "111736.370000", "111736.373000", "111736.375000", "111736.378000", "111736.380000", "111736.383000", "111736.385000", "111736.388000", "111736.390000", "111736.393000", "111736.395000", "111736.398000", "111736.400000", "111736.403000", "111736.405000", "111736.408000", "111736.410000", "111753.826000", "111753.830000", "111753.832000", "111753.835000", "111753.838000", "111753.840000", "111753.843000", "111753.846000", "111753.849000", "111753.852000", "111753.855000", "111753.857000"],
      "InstanceNumber": [1, 2, 3, 4, 5, 6, 7, 8, 9, 10, 11, 12, 13, 14, 15, 16, 17, 18, 19, 20, 21, 22, 23, 24, 25, 26, 27, 28, 29, 30, 31, 32, 33, 34, 35, 36, 37, 38, 39, 40, 41, 42, 43, 44, 45, 46, 47, 48, 49, 50, 51, 52, 53, 54, 55, 56, 57, 58, 59, 60, 61, 62, 63, 64, 65, 66, 67, 68, 69, 70, 71, 72, 73, 74, 75, 76, 77, 78, 79, 80, 81, 82, 83, 84, 85, 86, 87, 88, 89, 90, 91, 92, 93, 94, 95, 96, 97, 98, 99, 100, 101, 102, 103, 104, 105, 106, 107, 108, 109, 110, 111, 112, 113, 114, 115, 116, 117, 118, 119, 120, 121, 122, 123, 124, 125, 126, 127, 128, 129, 130, 131, 132, 133, 134, 135, 136, 137, 138, 139, 140, 141, 142, 143, 144, 145, 146, 147, 148, 149, 150, 151, 152, 153, 154, 155, 156, 157, 158, 159, 160, 161, 162, 163, 164, 165, 166, 167, 168, 169, 170, 171, 172, 173, 174, 175, 176, 177, 178, 179, 180, 181, 182, 183, 184, 185, 186, 187, 188, 189, 190],
      "WindowCenter": [4768.0, 4792.0, 4804.0, 4788.0, 4740.0, 4794.0, 4850.0, 4788.0, 4762.0, 4758.0, 4744.0, 4774.0, 4776.0, 4780.0, 4796.0, 4792.0, 4744.0, 4758.0, 4792.0, 4734.0, 4736.0, 4754.0, 4762.0, 4768.0, 4772.0, 4772.0, 4766.0, 4762.0, 4762.0, 4760.0, 4740.0, 4762.0, 4792.0, 4786.0, 4750.0, 4740.0, 4786.0, 4764.0, 4734.0, 4760.0, 4760.0, 4768.0, 4768.0, 4778.0, 4774.0, 4766.0, 4768.0, 4766.0, 4736.0, 4760.0, 4768.0, 4772.0, 4744.0, 4736.0, 4758.0, 4742.0, 4756.0, 4736.0, 4736.0, 4760.0, 4762.0, 4780.0, 4792.0, 4780.0, 4738.0, 4742.0, 4738.0, 4784.0, 4736.0, 4756.0, 4760.0, 4770.0, 4746.0, 4768.0, 4764.0, 4764.0, 4760.0, 4770.0, 4766.0, 4764.0, 4772.0, 4742.0, 4768.0, 4758.0, 4742.0, 4760.0, 4736.0, 4736.0, 4760.0, 4758.0, 4762.0, 4762.0, 4776.0, 4770.0, 4770.0, 4764.0, 4764.0, 4764.0, 4746.0, 4762.0, 4766.0, 4772.0, 4760.0, 4770.0, 4744.0, 4736.0, 4770.0, 4756.0, 4740.0, 4758.0, 4736.0, 4760.0, 4762.0, 4744.0, 4764.0, 4766.0, 4772.0, 4762.0, 4764.0, 4762.0, 4766.0, 4768.0, 4780.0, 4774.0, 4766.0, 4780.0, 4746.0, 4756.0, 4762.0, 4786.0, 4758.0, 4764.0, 4744.0, 4768.0, 4774.0, 4742.0, 4770.0, 4768.0, 4762.0, 4758.0, 4762.0, 4756.0, 4738.0, 4760.0, 4762.0, 4784.0, 4790.0, 4770.0, 4776.0, 4746.0, 4732.0, 4786.0, 4736.0, 4756.0, 4738.0, 4742.0, 4770.0, 4768.0, 4784.0, 4776.0, 4738.0, 4758.0, 4770.0, 4754.0, 4742.0, 4758.0, 4736.0, 4734.0, 4734.0, 4762.0, 4760.0, 4762.0, 4792.0, 4796.0, 4780.0, 4756.0, 4764.0, 4760.0, 4762.0, 4736.0, 4736.0, 4764.0, 4796.0, 4802.0, 4790.0, 4746.0, 4732.0, 4816.0, 4850.0, 4818.0],
      "WindowWidth": [18582.0, 18584.0, 18570.0, 18588.0, 18542.0, 18612.0, 18688.0, 18604.0, 18572.0, 18572.0, 18542.0, 18582.0, 18590.0, 18594.0, 18590.0, 18590.0, 18548.0, 18570.0, 18610.0, 18534.0, 18540.0, 18566.0, 18572.0, 18578.0, 18582.0, 18582.0, 18574.0, 18576.0, 18576.0, 18572.0, 18542.0, 18572.0, 18588.0, 18582.0, 18544.0, 18538.0, 18606.0, 18572.0, 18540.0, 18572.0, 18570.0, 18582.0, 18576.0, 18590.0, 18586.0, 18576.0, 18584.0, 18574.0, 18544.0, 18576.0, 18576.0, 18582.0, 18546.0, 18536.0, 18570.0, 18544.0, 18572.0, 18536.0, 18538.0, 18570.0, 18572.0, 18588.0, 18592.0, 18590.0, 18544.0, 18546.0, 18540.0, 18602.0, 18540.0, 18572.0, 18572.0, 18584.0, 18552.0, 18574.0, 18572.0, 18576.0, 18572.0, 18578.0, 18582.0, 18576.0, 18582.0, 18550.0, 18580.0, 18558.0, 18544.0, 18572.0, 18538.0, 18542.0, 18572.0, 18570.0, 18576.0, 18574.0, 18584.0, 18588.0, 18582.0, 18572.0, 18574.0, 18576.0, 18550.0, 18580.0, 18578.0, 18586.0, 18576.0, 18582.0, 18546.0, 18542.0, 18576.0, 18550.0, 18548.0, 18572.0, 18542.0, 18572.0, 18576.0, 18548.0, 18578.0, 18578.0, 18582.0, 18576.0, 18576.0, 18572.0, 18578.0, 18582.0, 18588.0, 18582.0, 18578.0, 18588.0, 18548.0, 18570.0, 18572.0, 18604.0, 18570.0, 18578.0, 18550.0, 18582.0, 18592.0, 18546.0, 18582.0, 18582.0, 18572.0, 18570.0, 18570.0, 18572.0, 18536.0, 18572.0, 18578.0, 18590.0, 18596.0, 18582.0, 18590.0, 18550.0, 18536.0, 18606.0, 18538.0, 18570.0, 18538.0, 18540.0, 18584.0, 18578.0, 18592.0, 18586.0, 18540.0, 18568.0, 18580.0, 18554.0, 18544.0, 18568.0, 18536.0, 18540.0, 18538.0, 18572.0, 18574.0, 18574.0, 18586.0, 18588.0, 18588.0, 18570.0, 18572.0, 18568.0, 18572.0, 18538.0, 18542.0, 18574.0, 18590.0, 18580.0, 18584.0, 18542.0, 18534.0, 18644.0, 18688.0, 18642.0]
    },
    "slices": {}
  }
}