{
  "AcquisitionMatrixPE": 104,
  "AcquisitionNumber": 1,
  "AcquisitionTime": "11:00:48.707500",
  "BandwidthPerPixelPhaseEncode": 17.17,
  "BaseResolution": 104,
  "BodyPartExamined": "BRAIN",
  "CoilCombinationMethod": "Sum of Squares",
  "ConsistencyInfo": "N4_VE11C_LATEST_20160120",
  "ConversionSoftware": "dcm2niix",
  "ConversionSoftwareVersion": "v1.0.20211006",
  "DerivedVendorReportedEchoSpacing": 0.000560011,
  "DeviceSerialNumber": "167006",
  "DwellTime": 2.1e-06,
  "EchoTime": 0.037,
  "EchoTrainLength": 104,
  "EffectiveEchoSpacing": 0.000560011,
  "FlipAngle": 52,
  "HeudiconvVersion": "0.10.0",
  "ImageComments": "Unaliased MB4/PE3/LB",
  "ImageOrientationPatientDICOM": [0.999598, 0.0174431, 0.0223568, -0.00453607, 0.876628, -0.481147],
  "ImageOrientationText": "Tra>Cor(-28.8)>Sag(1.6)",
  "ImageType": [
    "ORIGINAL",
    "PRIMARY",
    "M",
    "MB",
    "ND",
    "MOSAIC"
],
  "ImagingFrequency": 123.259,
  "InPlanePhaseEncodingDirectionDICOM": "COL",
  "InstitutionAddress": "Chemin Queen-Mary 4565,Montreal,District,CA,H3W 1W5",
  "InstitutionName": "IUGM",
  "InstitutionalDepartmentName": "Department",
  "MRAcquisitionType": "2D",
  "MagneticFieldStrength": 3,
  "Manufacturer": "Siemens",
  "ManufacturersModelName": "Prisma_fit",
  "MatrixCoilMode": "SENSE",
  "Modality": "MR",
  "MultibandAccelerationFactor": 4,
  "PartialFourier": 1,
  "PatientPosition": "HFS",
  "PercentPhaseFOV": 100,
  "PercentSampling": 100,
  "PhaseEncodingDirection": "j",
  "PhaseEncodingSteps": 104,
  "PhaseResolution": 1,
  "PixelBandwidth": 2290,
  "ProcedureStepDescription": "memory^things",
  "ProtocolName": "func_task-things_run-2",
  "PulseSequenceDetails": "%CustomerSeq%\\cmrr_mbep2d_bold",
  "ReceiveCoilActiveElements": "HC1-7;NC1,2",
  "ReceiveCoilName": "HeadNeck_64",
  "ReconMatrixPE": 104,
  "RepetitionTime": 1.49,
  "SAR": 0.0495976,
  "ScanOptions": "FS",
  "ScanningSequence": "EP",
  "SequenceName": "epfid2d1_104",
  "SequenceVariant": "SK\\SS",
  "SeriesDescription": "func_task-things_run-2",
  "SeriesNumber": 19,
  "ShimSetting": [617, -7184, -8857, 309, 18, -122, -46, -12],
  "SliceThickness": 2,
  "SliceTiming": [0, 0.7825, 0.0975, 0.8825, 0.195, 0.98, 0.295, 1.0775, 0.3925, 1.175, 0.49, 1.2725, 0.5875, 1.3725, 0.685, 0, 0.7825, 0.0975, 0.8825, 0.195, 0.98, 0.295, 1.0775, 0.3925, 1.175, 0.49, 1.2725, 0.5875, 1.3725, 0.685, 0, 0.7825, 0.0975, 0.8825, 0.195, 0.98, 0.295, 1.0775, 0.3925, 1.175, 0.49, 1.2725, 0.5875, 1.3725, 0.685, 0, 0.7825, 0.0975, 0.8825, 0.195, 0.98, 0.295, 1.0775, 0.3925, 1.175, 0.49, 1.2725, 0.5875, 1.3725, 0.685],
  "SoftwareVersions": "syngo MR E11",
  "SpacingBetweenSlices": 2,
  "StationName": "MRC35049",
  "TaskName": "things",
  "TotalReadoutTime": 0.0576811,
  "TxRefAmp": 283.354,
  "WipMemBlock": "e93f0d95-b2f7-4a2d-89c1-0deb36a41211||Sequence: R016 ve11c/master r/e634e98; Dec 19 2017 11:00:25 by eja",
  "dcmmeta_affine": [
    [-1.9991956949234009, -0.009072137996554375, 0.055982556194067, 106.1611099243164],
    [-0.03488623723387718, 1.7532566785812378, -0.9617037773132324, -52.06081771850586],
    [0.04471353814005852, 0.9622935652732849, 1.7527098655700684, -93.40302276611328],
    [0.0, 0.0, 0.0, 1.0]
],
  "dcmmeta_reorient_transform": [
    [0.0, -1.0, 0.0, 103.0],
    [1.0, 0.0, 0.0, 0.0],
    [0.0, 0.0, 1.0, 0.0],
    [0.0, 0.0, 0.0, 1.0]
],
  "dcmmeta_shape": [104, 104, 60, 190],
  "dcmmeta_slice_dim": 2,
  "dcmmeta_version": 0.6,
  "global": {
    "const": {
      "AcquisitionMatrix": [104, 0, 0, 104],
      "AngioFlag": "N",
      "BitsAllocated": 16,
      "BitsStored": 16,
      "BodyPartExamined": "BRAIN",
      "Columns": 832,
      "EchoNumbers": 1,
      "EchoTime": 37.0,
      "EchoTrainLength": 104,
      "FlipAngle": 52.0,
      "HighBit": 15,
      "ImageOrientationPatient": [0.99959787538767, 0.01744311949612, 0.0223567686106, -0.0045360692124, 0.87662831268828, -0.4811467816264],
      "ImagePositionPatient": [-829.63167261001, -779.4086188638, 339.71234096949],
      "ImageType": [
        "ORIGINAL",
        "PRIMARY",
        "M",
        "MB",
        "ND",
        "MOSAIC"
],
      "ImagedNucleus": "1H",
      "ImagingFrequency": 123.258943,
      "InPlanePhaseEncodingDirection": "COL",
      "MRAcquisitionType": "2D",
      "MagneticFieldStrength": 3.0,
      "Manufacturer": "SIEMENS",
      "ManufacturerModelName": "Prisma_fit",
      "Modality": "MR",
      "NumberOfAverages": 1.0,
      "NumberOfPhaseEncodingSteps": 104,
      "PercentPhaseFieldOfView": 100.0,
      "PercentSampling": 100.0,
      "PerformedProcedureStepStartTime": "103931.407000",
      "PhotometricInterpretation": "MONOCHROME2",
      "PixelBandwidth": 2290.0,
      "PixelRepresentation": 0,
      "PixelSpacing": [2.0, 2.0],
      "ProtocolName": "func_task-things_run-2",
      "RepetitionTime": 1490.0,
      "Rows": 832,
      "SAR": 0.04959755085496,
      "SamplesPerPixel": 1,
      "ScanOptions": "FS",
      "ScanningSequence": "EP",
      "SequenceName": "epfid2d1_104",
      "SequenceVariant": [
        "SK",
        "SS"
],
      "SeriesDescription": "func_task-things_run-2",
      "SeriesNumber": 19,
      "SeriesTime": "110214.584000",
      "SliceLocation": -53.849074361735,
      "SliceThickness": 2.0,
      "SmallestImagePixelValue": 0,
      "SoftwareVersions": "syngo MR E11",
      "SpacingBetweenSlices": 2.000000023866,
      "SpecificCharacterSet": "ISO_IR 100",
      "StudyID": "1",
      "StudyTime": "103930.913000",
      "TransmitCoilName": "Body",
      "VariableFlipAngleFlag": "N",
      "WindowCenterWidthExplanation": "Algo1",
      "dBdt": 0.0},
    "slices": {}
  },
  "time": {
    "samples": {
      "AcquisitionNumber": [1, 2, 3, 4, 5, 6, 7, 8, 9, 10, 11, 12, 13, 14, 15, 16, 17, 18, 19, 20, 21, 22, 23, 24, 25, 26, 27, 28, 29, 30, 31, 32, 33, 34, 35, 36, 37, 38, 39, 40, 41, 42, 43, 44, 45, 46, 47, 48, 49, 50, 51, 52, 53, 54, 55, 56, 57, 58, 59, 60, 61, 62, 63, 64, 65, 66, 67, 68, 69, 70, 71, 72, 73, 74, 75, 76, 77, 78, 79, 80, 81, 82, 83, 84, 85, 86, 87, 88, 89, 90, 91, 92, 93, 94, 95, 96, 97, 98, 99, 100, 101, 102, 103, 104, 105, 106, 107, 108, 109, 110, 111, 112, 113, 114, 115, 116, 117, 118, 119, 120, 121, 122, 123, 124, 125, 126, 127, 128, 129, 130, 131, 132, 133, 134, 135, 136, 137, 138, 139, 140, 141, 142, 143, 144, 145, 146, 147, 148, 149, 150, 151, 152, 153, 154, 155, 156, 157, 158, 159, 160, 161, 162, 163, 164, 165, 166, 167, 168, 169, 170, 171, 172, 173, 174, 175, 176, 177, 178, 179, 180, 181, 182, 183, 184, 185, 186, 187, 188, 189, 190],
      "AcquisitionTime": ["110048.707500", "110050.197500", "110051.687500", "110053.177500", "110054.667500", "110056.157500", "110057.647500", "110059.137500", "110100.627500", "110102.117500", "110103.607500", "110105.097500", "110106.587500", "110108.077500", "110109.567500", "110111.057500", "110112.547500", "110114.037500", "110115.527500", "110117.017500", "110118.507500", "110119.997500", "110121.487500", "110122.977500", "110124.467500", "110125.957500", "110127.447500", "110128.937500", "110130.427500", "110131.917500", "110133.407500", "110134.897500", "110136.387500", "110137.877500", "110139.367500", "110140.857500", "110142.347500", "110143.837500", "110145.327500", "110146.817500", "110148.307500", "110149.797500", "110151.287500", "110152.777500", "110154.267500", "110155.757500", "110157.247500", "110158.737500", "110200.227500", "110201.717500", "110203.207500", "110204.697500", "110206.187500", "110207.677500", "110209.167500", "110210.657500", "110212.147500", "110213.637500", "110215.127500", "110216.617500", "110218.107500", "110219.597500", "110221.087500", "110222.577500", "110224.067500", "110225.557500", "110227.047500", "110228.537500", "110230.027500", "110231.517500", "110233.007500", "110234.497500", "110235.987500", "110237.477500", "110238.967500", "110240.457500", "110241.947500", "110243.437500", "110244.927500", "110246.417500", "110247.907500", "110249.397500", "110250.887500", "110252.377500", "110253.867500", "110255.357500", "110256.847500", "110258.337500", "110259.827500", "110301.317500", "110302.807500", "110304.297500", "110305.787500", "110307.277500", "110308.767500", "110310.257500", "110311.747500", "110313.237500", "110314.727500", "110316.217500", "110317.707500", "110319.197500", "110320.687500", "110322.177500", "110323.667500", "110325.157500", "110326.647500", "110328.137500", "110329.627500", "110331.117500", "110332.607500", "110334.097500", "110335.587500", "110337.077500", "110338.567500", "110340.057500", "110341.547500", "110343.037500", "110344.527500", "110346.017500", "110347.507500", "110348.997500", "110350.487500", "110351.977500", "110353.467500", "110354.957500", "110356.447500", "110357.937500", "110359.427500", "110400.917500", "110402.407500", "110403.897500", "110405.387500", "110406.877500", "110408.367500", "110409.857500", "110411.347500", "110412.837500", "110414.327500", "110415.817500", "110417.307500", "110418.797500", "110420.287500", "110421.777500", "110423.267500", "110424.757500", "110426.247500", "110427.737500", "110429.227500", "110430.717500", "110432.207500", "110433.697500", "110435.187500", "110436.677500", "110438.167500", "110439.657500", "110441.147500", "110442.637500", "110444.127500", "110445.617500", "110447.107500", "110448.597500", "110450.087500", "110451.577500", "110453.067500", "110454.557500", "110456.047500", "110457.537500", "110459.027500", "110500.517500", "110502.007500", "110503.497500", "110504.987500", "110506.477500", "110507.967500", "110509.457500", "110510.947500", "110512.437500", "110513.927500", "110515.417500", "110516.907500", "110518.397500", "110519.887500", "110521.377500", "110522.867500", "110524.357500", "110525.847500", "110527.337500", "110528.827500", "110530.317500"],
      "ContentTime": ["110214.588000", "110214.591000", "110214.595000", "110214.598000", "110214.601000", "110214.605000", "110214.616000", "110214.619000", "110214.622000", "110214.626000", "110214.629000", "110214.632000", "110214.635000", "110214.639000", "110214.642000", "110214.645000", "110214.649000", "110214.652000", "110214.655000", "110214.659000", "110214.662000", "110214.665000", "110214.668000", "110214.672000", "110214.675000", "110214.678000", "110214.681000", "110214.685000", "110214.688000", "110214.691000", "110214.695000", "110214.698000", "110214.702000", "110214.705000", "110234.550000", "110234.554000", "110234.557000", "110234.560000", "110234.564000", "110234.567000", "110234.570000", "110234.574000", "110234.577000", "110234.580000", "110234.583000", "110234.587000", "110234.591000", "110234.595000", "110234.598000", "110234.601000", "110234.604000", "110234.608000", "110234.611000", "110234.614000", "110254.550000", "110254.554000", "110254.557000", "110254.560000", "110254.564000", "110254.567000", "110254.570000", "110254.574000", "110254.577000", "110254.580000", "110254.583000", "110254.587000", "110254.590000", "110254.593000", "110254.596000", "110254.600000", "110254.603000", "110254.606000", "110254.610000", "110254.613000", "110314.550000", "110314.562000", "110314.565000", "110314.569000", "110314.572000", "110314.575000", "110314.579000", "110314.582000", "110314.585000", "110314.588000", "110314.592000", "110314.595000", "110314.598000", "110314.602000", "110314.605000", "110314.608000", "110314.611000", "110314.615000", "110314.618000", "110314.621000", "110314.624000", "110354.550000", "110354.554000", "110354.557000", "110354.560000", "110354.564000", "110354.567000", "110354.570000", "110354.573000", "110354.577000", "110354.580000", "110354.583000", "110354.587000", "110354.590000", "110354.593000", "110354.596000", "110354.600000", "110354.610000", "110354.614000", "110354.617000", "110354.620000", "110354.623000", "110354.627000", "110354.630000", "110354.633000", "110354.637000", "110354.640000", "110354.643000", "110354.646000", "110354.649000", "110434.550000", "110434.554000", "110434.557000", "110434.560000", "110434.563000", "110434.567000", "110434.570000", "110434.573000", "110434.577000", "110434.580000", "110434.583000", "110434.587000", "110434.590000", "110434.593000", "110434.597000", "110434.600000", "110434.603000", "110434.606000", "110434.610000", "110434.613000", "110434.616000", "110434.619000", "110434.623000", "110434.626000", "110434.629000", "110434.632000", "110434.636000", "110514.550000", "110514.554000", "110514.557000", "110514.560000", "110514.564000", "110514.567000", "110514.571000", "110514.574000", "110514.577000", "110514.581000", "110514.584000", "110514.587000", "110514.591000", "110514.594000", "110514.597000", "110514.600000", "110514.604000", "110514.607000", "110514.610000", "110514.614000", "110514.617000", "110514.620000", "110514.623000", "110514.627000", "110514.630000", "110514.633000", "110532.514000", "110532.517000", "110532.521000", "110532.524000", "110532.528000", "110532.531000", "110532.534000", "110532.538000", "110532.541000", "110532.544000", "110532.548000", "110532.551000", "110532.555000"],
      "InstanceCreationTime": ["110214.588000", "110214.591000", "110214.595000", "110214.598000", "110214.601000", "110214.605000", "110214.616000", "110214.619000", "110214.622000", "110214.626000", "110214.629000", "110214.632000", "110214.635000", "110214.639000", "110214.642000", "110214.645000", "110214.649000", "110214.652000", "110214.655000", "110214.659000", "110214.662000", "110214.665000", "110214.668000", "110214.672000", "110214.675000", "110214.678000", "110214.681000", "110214.685000", "110214.688000", "110214.691000", "110214.695000", "110214.698000", "110214.702000", "110214.705000", "110234.550000", "110234.554000", "110234.557000", "110234.560000", "110234.564000", "110234.567000", "110234.570000", "110234.574000", "110234.577000", "110234.580000", "110234.583000", "110234.587000", "110234.591000", "110234.595000", "110234.598000", "110234.601000", "110234.604000", "110234.608000", "110234.611000", "110234.614000", "110254.550000", "110254.554000", "110254.557000", "110254.560000", "110254.564000", "110254.567000", "110254.570000", "110254.574000", "110254.577000", "110254.580000", "110254.583000", "110254.587000", "110254.590000", "110254.593000", "110254.596000", "110254.600000", "110254.603000", "110254.606000", "110254.610000", "110254.613000", "110314.550000", "110314.562000", "110314.565000", "110314.569000", "110314.572000", "110314.575000", "110314.579000", "110314.582000", "110314.585000", "110314.588000", "110314.592000", "110314.595000", "110314.598000", "110314.602000", "110314.605000", "110314.608000", "110314.611000", "110314.615000", "110314.618000", "110314.621000", "110314.624000", "110354.550000", "110354.554000", "110354.557000", "110354.560000", "110354.564000", "110354.567000", "110354.570000", "110354.573000", "110354.577000", "110354.580000", "110354.583000", "110354.587000", "110354.590000", "110354.593000", "110354.596000", "110354.600000", "110354.610000", "110354.614000", "110354.617000", "110354.620000", "110354.623000", "110354.627000", "110354.630000", "110354.633000", "110354.637000", "110354.640000", "110354.643000", "110354.646000", "110354.649000", "110434.550000", "110434.554000", "110434.557000", "110434.560000", "110434.563000", "110434.567000", "110434.570000", "110434.573000", "110434.577000", "110434.580000", "110434.583000", "110434.587000", "110434.590000", "110434.593000", "110434.597000", "110434.600000", "110434.603000", "110434.606000", "110434.610000", "110434.613000", "110434.616000", "110434.619000", "110434.623000", "110434.626000", "110434.629000", "110434.632000", "110434.636000", "110514.550000", "110514.554000", "110514.557000", "110514.560000", "110514.564000", "110514.567000", "110514.571000", "110514.574000", "110514.577000", "110514.581000", "110514.584000", "110514.587000", "110514.591000", "110514.594000", "110514.597000", "110514.600000", "110514.604000", "110514.607000", "110514.610000", "110514.614000", "110514.617000", "110514.620000", "110514.623000", "110514.627000", "110514.630000", "110514.633000", "110532.514000", "110532.517000", "110532.521000", "110532.524000", "110532.528000", "110532.531000", "110532.534000", "110532.538000", "110532.541000", "110532.544000", "110532.548000", "110532.551000", "110532.555000"],
      "InstanceNumber": [1, 2, 3, 4, 5, 6, 7, 8, 9, 10, 11, 12, 13, 14, 15, 16, 17, 18, 19, 20, 21, 22, 23, 24, 25, 26, 27, 28, 29, 30, 31, 32, 33, 34, 35, 36, 37, 38, 39, 40, 41, 42, 43, 44, 45, 46, 47, 48, 49, 50, 51, 52, 53, 54, 55, 56, 57, 58, 59, 60, 61, 62, 63, 64, 65, 66, 67, 68, 69, 70, 71, 72, 73, 74, 75, 76, 77, 78, 79, 80, 81, 82, 83, 84, 85, 86, 87, 88, 89, 90, 91, 92, 93, 94, 95, 96, 97, 98, 99, 100, 101, 102, 103, 104, 105, 106, 107, 108, 109, 110, 111, 112, 113, 114, 115, 116, 117, 118, 119, 120, 121, 122, 123, 124, 125, 126, 127, 128, 129, 130, 131, 132, 133, 134, 135, 136, 137, 138, 139, 140, 141, 142, 143, 144, 145, 146, 147, 148, 149, 150, 151, 152, 153, 154, 155, 156, 157, 158, 159, 160, 161, 162, 163, 164, 165, 166, 167, 168, 169, 170, 171, 172, 173, 174, 175, 176, 177, 178, 179, 180, 181, 182, 183, 184, 185, 186, 187, 188, 189, 190],
      "LargestImagePixelValue": [45389, 44481, 43501, 41951, 42015, 42852, 42593, 42811, 43578, 43643, 42440, 43141, 43861, 43939, 43937, 43927, 43141, 43173, 44450, 44119, 43423, 43661, 44582, 44174, 44579, 44565, 44395, 44448, 44210, 43893, 44497, 44293, 44038, 44854, 44386, 44714, 43300, 43224, 43745, 41939, 42953, 42394, 43403, 43326, 41947, 43045, 42306, 42485, 42427, 42716, 42371, 42287, 42502, 42803, 43067, 41684, 43158, 42411, 42706, 42391, 42181, 42037, 42023, 42028, 42032, 41792, 42203, 41955, 42101, 41604, 41596, 42095, 42298, 42131, 42351, 42158, 42417, 41782, 42048, 41913, 41720, 41587, 41873, 41767, 42123, 42238, 41874, 41528, 41958, 41895, 41723, 41385, 42096, 41706, 41732, 41743, 41625, 41908, 41421, 42024, 42599, 42755, 42367, 42060, 41719, 42267, 40846, 41304, 42304, 42981, 42967, 42888, 41722, 41652, 41823, 40920, 41030, 41680, 42423, 42653, 42544, 42447, 41762, 41829, 41537, 41641, 41577, 41252, 41270, 41561, 41374, 41480, 41278, 41348, 41779, 42810, 41906, 42226, 41621, 41738, 41669, 41355, 41399, 41803, 41501, 41556, 41652, 41549, 41620, 41618, 41695, 42144, 41171, 41306, 41583, 41449, 41612, 41364, 41457, 41309, 41629, 41600, 41707, 41641, 41360, 41567, 41469, 41608, 41886, 41503, 41941, 41524, 41169, 41333, 40915, 41196, 40484, 40949, 41388, 41858, 40997, 41995, 41735, 41572, 41284, 41290, 41546, 41247, 41300, 41320],
      "WindowCenter": [11010.0, 10976.0, 10947.0, 10877.0, 10836.0, 10805.0, 10815.0, 10853.0, 10890.0, 10900.0, 10865.0, 10841.0, 10839.0, 10841.0, 10858.0, 10868.0, 10871.0, 10868.0, 10904.0, 10886.0, 10866.0, 10845.0, 10848.0, 10870.0, 10898.0, 10895.0, 10875.0, 10858.0, 10848.0, 10867.0, 10893.0, 10876.0, 10852.0, 10852.0, 10844.0, 10867.0, 10883.0, 10904.0, 10895.0, 10836.0, 10805.0, 10794.0, 10852.0, 10884.0, 10911.0, 10927.0, 10879.0, 10838.0, 10816.0, 10819.0, 10844.0, 10842.0, 10841.0, 10829.0, 10816.0, 10803.0, 10842.0, 10833.0, 10816.0, 10804.0, 10818.0, 10848.0, 10856.0, 10849.0, 10840.0, 10849.0, 10875.0, 10860.0, 10873.0, 10860.0, 10832.0, 10826.0, 10841.0, 10866.0, 10872.0, 10864.0, 10843.0, 10835.0, 10857.0, 10857.0, 10849.0, 10869.0, 10897.0, 10882.0, 10844.0, 10804.0, 10790.0, 10819.0, 10844.0, 10852.0, 10869.0, 10857.0, 10857.0, 10825.0, 10803.0, 10820.0, 10821.0, 10820.0, 10825.0, 10839.0, 10817.0, 10801.0, 10786.0, 10803.0, 10835.0, 10840.0, 10813.0, 10793.0, 10791.0, 10786.0, 10792.0, 10817.0, 10790.0, 10809.0, 10836.0, 10853.0, 10827.0, 10807.0, 10791.0, 10769.0, 10784.0, 10791.0, 10824.0, 10839.0, 10809.0, 10780.0, 10768.0, 10776.0, 10803.0, 10809.0, 10791.0, 10769.0, 10752.0, 10757.0, 10796.0, 10839.0, 10821.0, 10815.0, 10801.0, 10816.0, 10829.0, 10831.0, 10811.0, 10788.0, 10769.0, 10756.0, 10775.0, 10811.0, 10823.0, 10806.0, 10788.0, 10767.0, 10783.0, 10799.0, 10809.0, 10842.0, 10852.0, 10826.0, 10816.0, 10819.0, 10798.0, 10779.0, 10786.0, 10772.0, 10778.0, 10796.0, 10794.0, 10786.0, 10800.0, 10799.0, 10815.0, 10801.0, 10813.0, 10817.0, 10784.0, 10768.0, 10754.0, 10781.0, 10789.0, 10792.0, 10755.0, 10736.0, 10762.0, 10780.0, 10778.0, 10789.0, 10806.0, 10819.0, 10818.0, 10785.0],
      "WindowWidth": [23676.0, 23563.0, 23477.0, 23316.0, 23217.0, 23139.0, 23156.0, 23240.0, 23323.0, 23350.0, 23270.0, 23211.0, 23203.0, 23207.0, 23245.0, 23267.0, 23275.0, 23270.0, 23349.0, 23312.0, 23267.0, 23223.0, 23219.0, 23267.0, 23331.0, 23327.0, 23282.0, 23241.0, 23217.0, 23260.0, 23319.0, 23283.0, 23230.0, 23225.0, 23213.0, 23255.0, 23301.0, 23347.0, 23324.0, 23208.0, 23135.0, 23107.0, 23229.0, 23301.0, 23373.0, 23406.0, 23299.0, 23204.0, 23155.0, 23161.0, 23220.0, 23212.0, 23210.0, 23177.0, 23144.0, 23123.0, 23203.0, 23192.0, 23155.0, 23127.0, 23159.0, 23228.0, 23250.0, 23233.0, 23213.0, 23229.0, 23289.0, 23254.0, 23284.0, 23260.0, 23197.0, 23180.0, 23212.0, 23266.0, 23286.0, 23268.0, 23217.0, 23198.0, 23255.0, 23252.0, 23236.0, 23279.0, 23343.0, 23307.0, 23222.0, 23131.0, 23097.0, 23163.0, 23216.0, 23236.0, 23279.0, 23253.0, 23246.0, 23185.0, 23126.0, 23161.0, 23165.0, 23163.0, 23177.0, 23205.0, 23155.0, 23115.0, 23087.0, 23126.0, 23196.0, 23212.0, 23151.0, 23100.0, 23098.0, 23084.0, 23096.0, 23156.0, 23100.0, 23138.0, 23197.0, 23243.0, 23182.0, 23130.0, 23095.0, 23047.0, 23079.0, 23102.0, 23172.0, 23209.0, 23144.0, 23075.0, 23051.0, 23069.0, 23126.0, 23144.0, 23103.0, 23051.0, 23020.0, 23024.0, 23106.0, 23201.0, 23169.0, 23154.0, 23124.0, 23155.0, 23186.0, 23196.0, 23149.0, 23090.0, 23048.0, 23019.0, 23063.0, 23146.0, 23173.0, 23135.0, 23099.0, 23048.0, 23084.0, 23120.0, 23143.0, 23215.0, 23238.0, 23180.0, 23155.0, 23166.0, 23119.0, 23072.0, 23088.0, 23055.0, 23072.0, 23113.0, 23111.0, 23089.0, 23120.0, 23116.0, 23152.0, 23124.0, 23148.0, 23158.0, 23086.0, 23048.0, 23019.0, 23081.0, 23095.0, 23097.0, 23021.0, 22978.0, 23032.0, 23078.0, 23081.0, 23109.0, 23147.0, 23168.0, 23174.0, 23094.0]
    },
    "slices": {}
  }
}