{
  "AcquisitionMatrixPE": 104,
  "AcquisitionNumber": 1,
  "AcquisitionTime": "13:52:42.845000",
  "BandwidthPerPixelPhaseEncode": 17.17,
  "BaseResolution": 104,
  "BodyPartExamined": "BRAIN",
  "CoilCombinationMethod": "Sum of Squares",
  "ConsistencyInfo": "N4_VE11C_LATEST_20160120",
  "ConversionSoftware": "dcm2niix",
  "ConversionSoftwareVersion": "v1.0.20211006",
  "DerivedVendorReportedEchoSpacing": 0.000560011,
  "DeviceSerialNumber": "167006",
  "DwellTime": 2.1e-06,
  "EchoTime": 0.037,
  "EchoTime1": 0.037,
  "EchoTime2": 0.001,
  "EchoTrainLength": 104,
  "EffectiveEchoSpacing": 0.000560011,
  "FlipAngle": 52,
  "HeudiconvVersion": "0.10.0",
  "ImageComments": "Unaliased MB4/PE3/LB",
  "ImageOrientationPatientDICOM": [0.99902, 0.0258759, 0.0358962, -0.0165658, 0.970916, -0.238846],
  "ImageOrientationText": "Tra>Cor(-13.8)>Sag(2.4)",
  "ImageType": [
    "ORIGINAL",
    "PRIMARY",
    "P",
    "MB",
    "ND",
    "MOSAIC",
    "PHASE"
],
  "ImagingFrequency": 123.259,
  "InPlanePhaseEncodingDirectionDICOM": "COL",
  "InstitutionAddress": "Chemin Queen-Mary 4565,Montreal,District,CA,H3W 1W5",
  "InstitutionName": "IUGM",
  "InstitutionalDepartmentName": "Department",
  "MRAcquisitionType": "2D",
  "MagneticFieldStrength": 3,
  "Manufacturer": "Siemens",
  "ManufacturersModelName": "Prisma_fit",
  "MatrixCoilMode": "SENSE",
  "Modality": "MR",
  "MultibandAccelerationFactor": 4,
  "PartialFourier": 1,
  "PatientPosition": "HFS",
  "PercentPhaseFOV": 100,
  "PercentSampling": 100,
  "PhaseEncodingDirection": "j",
  "PhaseEncodingSteps": 104,
  "PhaseResolution": 1,
  "PixelBandwidth": 2290,
  "ProcedureStepDescription": "memory^things",
  "ProtocolName": "func_task-things_run-4",
  "PulseSequenceDetails": "%CustomerSeq%\\cmrr_mbep2d_bold",
  "ReceiveCoilActiveElements": "HC1-7;NC1,2",
  "ReceiveCoilName": "HeadNeck_64",
  "ReconMatrixPE": 104,
  "RepetitionTime": 1.49,
  "SAR": 0.0546721,
  "ScanOptions": "FS",
  "ScanningSequence": "EP",
  "SequenceName": "epfid2d1_104",
  "SequenceVariant": "SK\\SS",
  "SeriesDescription": "func_task-things_run-4",
  "SeriesNumber": 20,
  "ShimSetting": [644, -7201, -8755, 715, 47, 18, 55, -14],
  "SliceThickness": 2,
  "SliceTiming": [0, 0.785, 0.0975, 0.8825, 0.195, 0.98, 0.295, 1.0775, 0.3925, 1.175, 0.49, 1.275, 0.5875, 1.3725, 0.685, 0, 0.785, 0.0975, 0.8825, 0.195, 0.98, 0.295, 1.0775, 0.3925, 1.175, 0.49, 1.275, 0.5875, 1.3725, 0.685, 0, 0.785, 0.0975, 0.8825, 0.195, 0.98, 0.295, 1.0775, 0.3925, 1.175, 0.49, 1.275, 0.5875, 1.3725, 0.685, 0, 0.785, 0.0975, 0.8825, 0.195, 0.98, 0.295, 1.0775, 0.3925, 1.175, 0.49, 1.275, 0.5875, 1.3725, 0.685],
  "SoftwareVersions": "syngo MR E11",
  "SpacingBetweenSlices": 2,
  "StationName": "MRC35049",
  "TaskName": "things",
  "TotalReadoutTime": 0.0576811,
  "TxRefAmp": 247.989,
  "WipMemBlock": "b091c39a-6dde-4e50-8f25-d74deb19da11||Sequence: R016 ve11c/master r/e634e98; Dec 19 2017 11:00:25 by eja",
  "dcmmeta_affine": [
    [-1.9980409145355225, -0.03313169255852699, 0.08206510543823242, 108.16019439697266],
    [-0.05175172537565231, 1.941832184791565, -0.4760352075099945, -72.44805908203125],
    [0.07179240137338638, 0.4776924252510071, 1.940787434577942, -54.73879623413086],
    [0.0, 0.0, 0.0, 1.0]
],
  "dcmmeta_reorient_transform": [
    [0.0, -1.0, 0.0, 103.0],
    [1.0, 0.0, 0.0, 0.0],
    [0.0, 0.0, 1.0, 0.0],
    [0.0, 0.0, 0.0, 1.0]
],
  "dcmmeta_shape": [104, 104, 60, 190],
  "dcmmeta_slice_dim": 2,
  "dcmmeta_version": 0.6,
  "global": {
    "const": {
      "AcquisitionMatrix": [104, 0, 0, 104],
      "AngioFlag": "N",
      "BitsAllocated": 16,
      "BitsStored": 16,
      "BodyPartExamined": "BRAIN",
      "Columns": 832,
      "EchoNumbers": 1,
      "EchoTime": 37.0,
      "EchoTrainLength": 104,
      "FlipAngle": 52.0,
      "HighBit": 15,
      "ImageOrientationPatient": [0.99902047148327, 0.025875862054, 0.0358962020319, -0.0165658458543, 0.97091609379609, -0.2388462090109],
      "ImagePositionPatient": [-819.97459807166, -853.22519819134, 142.21112959191],
      "ImageType": [
        "ORIGINAL",
        "PRIMARY",
        "P",
        "MB",
        "ND",
        "MOSAIC"
],
      "ImagedNucleus": "1H",
      "ImagingFrequency": 123.258857,
      "InPlanePhaseEncodingDirection": "COL",
      "LargestImagePixelValue": 4095,
      "MRAcquisitionType": "2D",
      "MagneticFieldStrength": 3.0,
      "Manufacturer": "SIEMENS",
      "ManufacturerModelName": "Prisma_fit",
      "Modality": "MR",
      "NumberOfAverages": 1.0,
      "NumberOfPhaseEncodingSteps": 104,
      "PercentPhaseFieldOfView": 100.0,
      "PercentSampling": 100.0,
      "PerformedProcedureStepStartTime": "130451.768000",
      "PhotometricInterpretation": "MONOCHROME2",
      "PixelBandwidth": 2290.0,
      "PixelRepresentation": 0,
      "PixelSpacing": [2.0, 2.0],
      "ProtocolName": "func_task-things_run-4",
      "RepetitionTime": 1490.0,
      "RescaleIntercept": -4096.0,
      "RescaleSlope": 2.0,
      "RescaleType": "US",
      "Rows": 832,
      "SAR": 0.05467206218221,
      "SamplesPerPixel": 1,
      "ScanOptions": "FS",
      "ScanningSequence": "EP",
      "SequenceName": "epfid2d1_104",
      "SequenceVariant": [
        "SK",
        "SS"
],
      "SeriesDescription": "func_task-things_run-4",
      "SeriesNumber": 20,
      "SeriesTime": "135353.237000",
      "SliceLocation": -31.436179381271,
      "SliceThickness": 2.0,
      "SmallestImagePixelValue": 0,
      "SoftwareVersions": "syngo MR E11",
      "SpacingBetweenSlices": 2.0000000097028,
      "SpecificCharacterSet": "ISO_IR 100",
      "StudyID": "1",
      "StudyTime": "130451.640000",
      "TransmitCoilName": "Body",
      "VariableFlipAngleFlag": "N",
      "WindowCenterWidthExplanation": "Algo1",
      "dBdt": 0.0},
    "slices": {}
  },
  "time": {
    "samples": {
      "AcquisitionNumber": [1, 2, 3, 4, 5, 6, 7, 8, 9, 10, 11, 12, 13, 14, 15, 16, 17, 18, 19, 20, 21, 22, 23, 24, 25, 26, 27, 28, 29, 30, 31, 32, 33, 34, 35, 36, 37, 38, 39, 40, 41, 42, 43, 44, 45, 46, 47, 48, 49, 50, 51, 52, 53, 54, 55, 56, 57, 58, 59, 60, 61, 62, 63, 64, 65, 66, 67, 68, 69, 70, 71, 72, 73, 74, 75, 76, 77, 78, 79, 80, 81, 82, 83, 84, 85, 86, 87, 88, 89, 90, 91, 92, 93, 94, 95, 96, 97, 98, 99, 100, 101, 102, 103, 104, 105, 106, 107, 108, 109, 110, 111, 112, 113, 114, 115, 116, 117, 118, 119, 120, 121, 122, 123, 124, 125, 126, 127, 128, 129, 130, 131, 132, 133, 134, 135, 136, 137, 138, 139, 140, 141, 142, 143, 144, 145, 146, 147, 148, 149, 150, 151, 152, 153, 154, 155, 156, 157, 158, 159, 160, 161, 162, 163, 164, 165, 166, 167, 168, 169, 170, 171, 172, 173, 174, 175, 176, 177, 178, 179, 180, 181, 182, 183, 184, 185, 186, 187, 188, 189, 190],
      "AcquisitionTime": ["135242.845000", "135244.335000", "135245.825000", "135247.315000", "135248.805000", "135250.295000", "135251.785000", "135253.275000", "135254.765000", "135256.255000", "135257.745000", "135259.235000", "135300.725000", "135302.215000", "135303.705000", "135305.195000", "135306.685000", "135308.175000", "135309.665000", "135311.155000", "135312.645000", "135314.135000", "135315.625000", "135317.115000", "135318.605000", "135320.095000", "135321.585000", "135323.075000", "135324.565000", "135326.055000", "135327.545000", "135329.035000", "135330.525000", "135332.015000", "135333.505000", "135334.995000", "135336.485000", "135337.975000", "135339.465000", "135340.955000", "135342.445000", "135343.935000", "135345.425000", "135346.915000", "135348.405000", "135349.895000", "135351.385000", "135352.875000", "135354.365000", "135355.855000", "135357.345000", "135358.835000", "135400.325000", "135401.815000", "135403.305000", "135404.795000", "135406.285000", "135407.775000", "135409.265000", "135410.755000", "135412.245000", "135413.735000", "135415.225000", "135416.715000", "135418.205000", "135419.695000", "135421.185000", "135422.675000", "135424.165000", "135425.655000", "135427.145000", "135428.635000", "135430.125000", "135431.615000", "135433.105000", "135434.595000", "135436.085000", "135437.575000", "135439.065000", "135440.555000", "135442.045000", "135443.535000", "135445.025000", "135446.515000", "135448.005000", "135449.495000", "135450.985000", "135452.475000", "135453.965000", "135455.455000", "135456.945000", "135458.435000", "135459.925000", "135501.415000", "135502.905000", "135504.395000", "135505.885000", "135507.375000", "135508.865000", "135510.355000", "135511.845000", "135513.335000", "135514.825000", "135516.315000", "135517.805000", "135519.295000", "135520.785000", "135522.275000", "135523.765000", "135525.255000", "135526.745000", "135528.235000", "135529.725000", "135531.215000", "135532.705000", "135534.195000", "135535.685000", "135537.175000", "135538.665000", "135540.155000", "135541.645000", "135543.135000", "135544.625000", "135546.115000", "135547.605000", "135549.095000", "135550.585000", "135552.075000", "135553.565000", "135555.055000", "135556.545000", "135558.035000", "135559.525000", "135601.015000", "135602.505000", "135603.995000", "135605.485000", "135606.975000", "135608.465000", "135609.955000", "135611.445000", "135612.935000", "135614.425000", "135615.915000", "135617.405000", "135618.895000", "135620.385000", "135621.875000", "135623.365000", "135624.855000", "135626.345000", "135627.835000", "135629.325000", "135630.815000", "135632.305000", "135633.795000", "135635.285000", "135636.775000", "135638.265000", "135639.755000", "135641.245000", "135642.735000", "135644.225000", "135645.715000", "135647.205000", "135648.695000", "135650.185000", "135651.675000", "135653.165000", "135654.655000", "135656.145000", "135657.635000", "135659.125000", "135700.615000", "135702.105000", "135703.595000", "135705.085000", "135706.575000", "135708.065000", "135709.555000", "135711.045000", "135712.535000", "135714.025000", "135715.515000", "135717.005000", "135718.495000", "135719.985000", "135721.475000", "135722.965000", "135724.455000"],
      "ContentTime": ["135353.239000", "135353.242000", "135353.244000", "135353.247000", "135353.253000", "135353.255000", "135353.258000", "135353.260000", "135353.263000", "135353.265000", "135353.267000", "135353.270000", "135353.272000", "135353.275000", "135353.277000", "135413.230000", "135413.233000", "135413.236000", "135413.238000", "135413.240000", "135413.243000", "135413.245000", "135413.248000", "135413.250000", "135413.253000", "135413.262000", "135413.265000", "135413.267000", "135413.270000", "135413.272000", "135413.274000", "135413.277000", "135413.279000", "135413.282000", "135413.284000", "135433.208000", "135433.211000", "135433.214000", "135433.216000", "135433.219000", "135433.222000", "135433.225000", "135433.227000", "135433.230000", "135433.232000", "135433.235000", "135433.237000", "135433.240000", "135433.242000", "135433.244000", "135433.247000", "135433.249000", "135433.252000", "135433.254000", "135433.257000", "135453.207000", "135453.209000", "135453.212000", "135453.214000", "135453.217000", "135453.219000", "135453.222000", "135453.224000", "135453.227000", "135453.229000", "135453.232000", "135453.234000", "135453.236000", "135453.239000", "135453.241000", "135453.244000", "135453.246000", "135453.249000", "135453.251000", "135453.254000", "135453.256000", "135513.211000", "135513.214000", "135513.217000", "135513.219000", "135513.222000", "135513.224000", "135513.226000", "135513.229000", "135513.231000", "135513.234000", "135513.236000", "135513.239000", "135513.241000", "135513.244000", "135513.246000", "135513.249000", "135513.251000", "135513.254000", "135513.256000", "135513.258000", "135553.254000", "135553.256000", "135553.259000", "135553.261000", "135553.264000", "135553.266000", "135553.269000", "135553.271000", "135553.274000", "135553.276000", "135553.279000", "135553.281000", "135553.284000", "135553.286000", "135553.289000", "135553.291000", "135553.294000", "135553.296000", "135553.299000", "135553.301000", "135553.320000", "135553.322000", "135553.325000", "135553.327000", "135553.330000", "135553.332000", "135553.335000", "135553.337000", "135553.340000", "135553.342000", "135553.345000", "135633.244000", "135633.247000", "135633.249000", "135633.252000", "135633.254000", "135633.257000", "135633.259000", "135633.262000", "135633.264000", "135633.267000", "135633.269000", "135633.271000", "135633.274000", "135633.276000", "135633.279000", "135633.281000", "135633.284000", "135633.286000", "135633.289000", "135633.291000", "135633.294000", "135633.296000", "135633.299000", "135633.301000", "135633.304000", "135633.306000", "135633.309000", "135713.241000", "135713.244000", "135713.246000", "135713.249000", "135713.251000", "135713.254000", "135713.256000", "135713.259000", "135713.261000", "135713.264000", "135713.266000", "135713.269000", "135713.271000", "135713.274000", "135713.276000", "135713.279000", "135713.281000", "135713.284000", "135713.286000", "135713.289000", "135713.291000", "135713.294000", "135713.296000", "135713.298000", "135713.301000", "135713.304000", "135713.306000", "135726.787000", "135726.790000", "135726.792000", "135726.795000", "135726.797000", "135726.800000", "135726.802000", "135726.805000", "135726.807000"],
      "InstanceCreationTime": ["135353.239000", "135353.242000", "135353.244000", "135353.247000", "135353.253000", "135353.255000", "135353.258000", "135353.260000", "135353.263000", "135353.265000", "135353.267000", "135353.270000", "135353.272000", "135353.275000", "135353.277000", "135413.230000", "135413.233000", "135413.236000", "135413.238000", "135413.240000", "135413.243000", "135413.245000", "135413.248000", "135413.250000", "135413.253000", "135413.262000", "135413.265000", "135413.267000", "135413.270000", "135413.272000", "135413.274000", "135413.277000", "135413.279000", "135413.282000", "135413.284000", "135433.208000", "135433.211000", "135433.214000", "135433.216000", "135433.219000", "135433.222000", "135433.225000", "135433.227000", "135433.230000", "135433.232000", "135433.235000", "135433.237000", "135433.240000", "135433.242000", "135433.244000", "135433.247000", "135433.249000", "135433.252000", "135433.254000", "135433.257000", "135453.207000", "135453.209000", "135453.212000", "135453.214000", "135453.217000", "135453.219000", "135453.222000", "135453.224000", "135453.227000", "135453.229000", "135453.232000", "135453.234000", "135453.236000", "135453.239000", "135453.241000", "135453.244000", "135453.246000", "135453.249000", "135453.251000", "135453.254000", "135453.256000", "135513.211000", "135513.214000", "135513.217000", "135513.219000", "135513.222000", "135513.224000", "135513.226000", "135513.229000", "135513.231000", "135513.234000", "135513.236000", "135513.239000", "135513.241000", "135513.244000", "135513.246000", "135513.249000", "135513.251000", "135513.254000", "135513.256000", "135513.258000", "135553.254000", "135553.256000", "135553.259000", "135553.261000", "135553.264000", "135553.266000", "135553.269000", "135553.271000", "135553.274000", "135553.276000", "135553.279000", "135553.281000", "135553.284000", "135553.286000", "135553.289000", "135553.291000", "135553.294000", "135553.296000", "135553.299000", "135553.301000", "135553.320000", "135553.322000", "135553.325000", "135553.327000", "135553.330000", "135553.332000", "135553.335000", "135553.337000", "135553.340000", "135553.342000", "135553.345000", "135633.244000", "135633.247000", "135633.249000", "135633.252000", "135633.254000", "135633.257000", "135633.259000", "135633.262000", "135633.264000", "135633.267000", "135633.269000", "135633.271000", "135633.274000", "135633.276000", "135633.279000", "135633.281000", "135633.284000", "135633.286000", "135633.289000", "135633.291000", "135633.294000", "135633.296000", "135633.299000", "135633.301000", "135633.304000", "135633.306000", "135633.309000", "135713.241000", "135713.244000", "135713.246000", "135713.249000", "135713.251000", "135713.254000", "135713.256000", "135713.259000", "135713.261000", "135713.264000", "135713.266000", "135713.269000", "135713.271000", "135713.274000", "135713.276000", "135713.279000", "135713.281000", "135713.284000", "135713.286000", "135713.289000", "135713.291000", "135713.294000", "135713.296000", "135713.298000", "135713.301000", "135713.304000", "135713.306000", "135726.787000", "135726.790000", "135726.792000", "135726.795000", "135726.797000", "135726.800000", "135726.802000", "135726.805000", "135726.807000"],
      "InstanceNumber": [1, 2, 3, 4, 5, 6, 7, 8, 9, 10, 11, 12, 13, 14, 15, 16, 17, 18, 19, 20, 21, 22, 23, 24, 25, 26, 27, 28, 29, 30, 31, 32, 33, 34, 35, 36, 37, 38, 39, 40, 41, 42, 43, 44, 45, 46, 47, 48, 49, 50, 51, 52, 53, 54, 55, 56, 57, 58, 59, 60, 61, 62, 63, 64, 65, 66, 67, 68, 69, 70, 71, 72, 73, 74, 75, 76, 77, 78, 79, 80, 81, 82, 83, 84, 85, 86, 87, 88, 89, 90, 91, 92, 93, 94, 95, 96, 97, 98, 99, 100, 101, 102, 103, 104, 105, 106, 107, 108, 109, 110, 111, 112, 113, 114, 115, 116, 117, 118, 119, 120, 121, 122, 123, 124, 125, 126, 127, 128, 129, 130, 131, 132, 133, 134, 135, 136, 137, 138, 139, 140, 141, 142, 143, 144, 145, 146, 147, 148, 149, 150, 151, 152, 153, 154, 155, 156, 157, 158, 159, 160, 161, 162, 163, 164, 165, 166, 167, 168, 169, 170, 171, 172, 173, 174, 175, 176, 177, 178, 179, 180, 181, 182, 183, 184, 185, 186, 187, 188, 189, 190],
      "WindowCenter": [4748.0, 4752.0, 4750.0, 4750.0, 4750.0, 4746.0, 4750.0, 4750.0, 4750.0, 4746.0, 4750.0, 4752.0, 4750.0, 4748.0, 4750.0, 4744.0, 4752.0, 4746.0, 4746.0, 4750.0, 4748.0, 4754.0, 4750.0, 4750.0, 4750.0, 4750.0, 4748.0, 4750.0, 4748.0, 4748.0, 4748.0, 4746.0, 4748.0, 4748.0, 4750.0, 4748.0, 4752.0, 4748.0, 4748.0, 4746.0, 4750.0, 4750.0, 4748.0, 4748.0, 4752.0, 4750.0, 4752.0, 4750.0, 4754.0, 4752.0, 4748.0, 4750.0, 4750.0, 4748.0, 4752.0, 4748.0, 4752.0, 4752.0, 4750.0, 4750.0, 4750.0, 4750.0, 4746.0, 4750.0, 4746.0, 4754.0, 4750.0, 4750.0, 4752.0, 4750.0, 4748.0, 4748.0, 4750.0, 4750.0, 4752.0, 4748.0, 4748.0, 4724.0, 4746.0, 4750.0, 4748.0, 4750.0, 4750.0, 4750.0, 4746.0, 4750.0, 4752.0, 4748.0, 4748.0, 4754.0, 4752.0, 4750.0, 4750.0, 4746.0, 4726.0, 4748.0, 4748.0, 4752.0, 4748.0, 4750.0, 4748.0, 4750.0, 4748.0, 4750.0, 4746.0, 4746.0, 4750.0, 4752.0, 4754.0, 4752.0, 4752.0, 4724.0, 4752.0, 4746.0, 4748.0, 4748.0, 4746.0, 4750.0, 4748.0, 4750.0, 4754.0, 4750.0, 4750.0, 4752.0, 4750.0, 4752.0, 4746.0, 4750.0, 4752.0, 4752.0, 4748.0, 4752.0, 4746.0, 4748.0, 4754.0, 4750.0, 4746.0, 4750.0, 4750.0, 4750.0, 4746.0, 4752.0, 4754.0, 4752.0, 4750.0, 4750.0, 4748.0, 4750.0, 4750.0, 4752.0, 4748.0, 4748.0, 4754.0, 4750.0, 4752.0, 4752.0, 4728.0, 4744.0, 4750.0, 4750.0, 4752.0, 4748.0, 4750.0, 4750.0, 4754.0, 4750.0, 4750.0, 4752.0, 4752.0, 4750.0, 4752.0, 4750.0, 4752.0, 4746.0, 4754.0, 4746.0, 4750.0, 4750.0, 4750.0, 4752.0, 4748.0, 4750.0, 4748.0, 4750.0, 4750.0, 4754.0, 4750.0, 4752.0, 4752.0, 4750.0],
      "WindowWidth": [18536.0, 18540.0, 18538.0, 18534.0, 18536.0, 18532.0, 18538.0, 18542.0, 18536.0, 18536.0, 18534.0, 18536.0, 18536.0, 18536.0, 18538.0, 18536.0, 18542.0, 18530.0, 18536.0, 18538.0, 18536.0, 18534.0, 18540.0, 18538.0, 18540.0, 18532.0, 18536.0, 18538.0, 18536.0, 18536.0, 18538.0, 18536.0, 18534.0, 18534.0, 18542.0, 18534.0, 18538.0, 18536.0, 18534.0, 18532.0, 18536.0, 18540.0, 18534.0, 18540.0, 18538.0, 18540.0, 18538.0, 18536.0, 18540.0, 18538.0, 18536.0, 18542.0, 18532.0, 18540.0, 18538.0, 18536.0, 18530.0, 18538.0, 18534.0, 18532.0, 18532.0, 18536.0, 18534.0, 18538.0, 18532.0, 18544.0, 18536.0, 18536.0, 18536.0, 18542.0, 18530.0, 18534.0, 18530.0, 18540.0, 18544.0, 18536.0, 18534.0, 18502.0, 18536.0, 18536.0, 18538.0, 18532.0, 18538.0, 18536.0, 18528.0, 18530.0, 18540.0, 18536.0, 18532.0, 18542.0, 18536.0, 18540.0, 18542.0, 18536.0, 18504.0, 18540.0, 18532.0, 18538.0, 18534.0, 18534.0, 18530.0, 18538.0, 18534.0, 18536.0, 18534.0, 18534.0, 18538.0, 18536.0, 18536.0, 18538.0, 18536.0, 18500.0, 18534.0, 18538.0, 18534.0, 18536.0, 18532.0, 18534.0, 18536.0, 18534.0, 18538.0, 18536.0, 18532.0, 18536.0, 18536.0, 18536.0, 18536.0, 18536.0, 18542.0, 18534.0, 18538.0, 18532.0, 18534.0, 18532.0, 18540.0, 18536.0, 18536.0, 18538.0, 18540.0, 18538.0, 18532.0, 18540.0, 18538.0, 18532.0, 18538.0, 18536.0, 18536.0, 18530.0, 18536.0, 18534.0, 18532.0, 18536.0, 18548.0, 18536.0, 18536.0, 18536.0, 18506.0, 18532.0, 18532.0, 18532.0, 18536.0, 18536.0, 18538.0, 18536.0, 18536.0, 18544.0, 18532.0, 18538.0, 18536.0, 18540.0, 18534.0, 18536.0, 18540.0, 18534.0, 18540.0, 18530.0, 18536.0, 18532.0, 18534.0, 18536.0, 18532.0, 18536.0, 18530.0, 18528.0, 18534.0, 18538.0, 18536.0, 18534.0, 18536.0, 18534.0]
    },
    "slices": {}
  }
}