{
  "AcquisitionMatrixPE": 104,
  "AcquisitionNumber": 1,
  "AcquisitionTime": "13:34:34.007500",
  "BandwidthPerPixelPhaseEncode": 17.17,
  "BaseResolution": 104,
  "BodyPartExamined": "BRAIN",
  "CoilCombinationMethod": "Sum of Squares",
  "ConsistencyInfo": "N4_VE11C_LATEST_20160120",
  "ConversionSoftware": "dcm2niix",
  "ConversionSoftwareVersion": "v1.0.20211006",
  "DerivedVendorReportedEchoSpacing": 0.000560011,
  "DeviceSerialNumber": "167006",
  "DwellTime": 2.1e-06,
  "EchoTime": 0.037,
  "EchoTime1": 0.037,
  "EchoTime2": 0.001,
  "EchoTrainLength": 104,
  "EffectiveEchoSpacing": 0.000560011,
  "FlipAngle": 52,
  "HeudiconvVersion": "0.10.0",
  "ImageComments": "Unaliased MB4/PE3/LB",
  "ImageOrientationPatientDICOM": [0.99902, 0.0258759, 0.0358962, -0.0165658, 0.970916, -0.238846],
  "ImageOrientationText": "Tra>Cor(-13.8)>Sag(2.4)",
  "ImageType": [
    "ORIGINAL",
    "PRIMARY",
    "P",
    "MB",
    "ND",
    "MOSAIC",
    "PHASE"
],
  "ImagingFrequency": 123.259,
  "InPlanePhaseEncodingDirectionDICOM": "COL",
  "InstitutionAddress": "Chemin Queen-Mary 4565,Montreal,District,CA,H3W 1W5",
  "InstitutionName": "IUGM",
  "InstitutionalDepartmentName": "Department",
  "MRAcquisitionType": "2D",
  "MagneticFieldStrength": 3,
  "Manufacturer": "Siemens",
  "ManufacturersModelName": "Prisma_fit",
  "MatrixCoilMode": "SENSE",
  "Modality": "MR",
  "MultibandAccelerationFactor": 4,
  "PartialFourier": 1,
  "PatientPosition": "HFS",
  "PercentPhaseFOV": 100,
  "PercentSampling": 100,
  "PhaseEncodingDirection": "j",
  "PhaseEncodingSteps": 104,
  "PhaseResolution": 1,
  "PixelBandwidth": 2290,
  "ProcedureStepDescription": "memory^things",
  "ProtocolName": "func_task-things_run-1",
  "PulseSequenceDetails": "%CustomerSeq%\\cmrr_mbep2d_bold",
  "ReceiveCoilActiveElements": "HC1-7;NC1,2",
  "ReceiveCoilName": "HeadNeck_64",
  "ReconMatrixPE": 104,
  "RepetitionTime": 1.49,
  "SAR": 0.0546721,
  "ScanOptions": "FS",
  "ScanningSequence": "EP",
  "SequenceName": "epfid2d1_104",
  "SequenceVariant": "SK\\SS",
  "SeriesDescription": "func_task-things_run-1",
  "SeriesNumber": 11,
  "ShimSetting": [644, -7201, -8755, 715, 47, 18, 55, -14],
  "SliceThickness": 2,
  "SliceTiming": [0, 0.785, 0.0975, 0.8825, 0.195, 0.98, 0.295, 1.0775, 0.3925, 1.175, 0.49, 1.275, 0.5875, 1.3725, 0.685, 0, 0.785, 0.0975, 0.8825, 0.195, 0.98, 0.295, 1.0775, 0.3925, 1.175, 0.49, 1.275, 0.5875, 1.3725, 0.685, 0, 0.785, 0.0975, 0.8825, 0.195, 0.98, 0.295, 1.0775, 0.3925, 1.175, 0.49, 1.275, 0.5875, 1.3725, 0.685, 0, 0.785, 0.0975, 0.8825, 0.195, 0.98, 0.295, 1.0775, 0.3925, 1.175, 0.49, 1.275, 0.5875, 1.3725, 0.685],
  "SoftwareVersions": "syngo MR E11",
  "SpacingBetweenSlices": 2,
  "StationName": "MRC35049",
  "TaskName": "things",
  "TotalReadoutTime": 0.0576811,
  "TxRefAmp": 247.989,
  "WipMemBlock": "d47fba2b-723a-42ba-8d1c-ed948b21cb60||Sequence: R016 ve11c/master r/e634e98; Dec 19 2017 11:00:25 by eja",
  "dcmmeta_affine": [
    [-1.9980409145355225, -0.03313169255852699, 0.08206510543823242, 108.16019439697266],
    [-0.05175172537565231, 1.941832184791565, -0.4760352075099945, -72.44805908203125],
    [0.07179240137338638, 0.4776924252510071, 1.940787434577942, -54.73879623413086],
    [0.0, 0.0, 0.0, 1.0]
],
  "dcmmeta_reorient_transform": [
    [0.0, -1.0, 0.0, 103.0],
    [1.0, 0.0, 0.0, 0.0],
    [0.0, 0.0, 1.0, 0.0],
    [0.0, 0.0, 0.0, 1.0]
],
  "dcmmeta_shape": [104, 104, 60, 190],
  "dcmmeta_slice_dim": 2,
  "dcmmeta_version": 0.6,
  "global": {
    "const": {
      "AcquisitionMatrix": [104, 0, 0, 104],
      "AngioFlag": "N",
      "BitsAllocated": 16,
      "BitsStored": 16,
      "BodyPartExamined": "BRAIN",
      "Columns": 832,
      "EchoNumbers": 1,
      "EchoTime": 37.0,
      "EchoTrainLength": 104,
      "FlipAngle": 52.0,
      "HighBit": 15,
      "ImageOrientationPatient": [0.99902047148327, 0.025875862054, 0.0358962020319, -0.0165658458543, 0.97091609379609, -0.2388462090109],
      "ImagePositionPatient": [-819.97459807166, -853.22519819134, 142.21112959191],
      "ImageType": [
        "ORIGINAL",
        "PRIMARY",
        "P",
        "MB",
        "ND",
        "MOSAIC"
],
      "ImagedNucleus": "1H",
      "ImagingFrequency": 123.258845,
      "InPlanePhaseEncodingDirection": "COL",
      "LargestImagePixelValue": 4095,
      "MRAcquisitionType": "2D",
      "MagneticFieldStrength": 3.0,
      "Manufacturer": "SIEMENS",
      "ManufacturerModelName": "Prisma_fit",
      "Modality": "MR",
      "NumberOfAverages": 1.0,
      "NumberOfPhaseEncodingSteps": 104,
      "PercentPhaseFieldOfView": 100.0,
      "PercentSampling": 100.0,
      "PerformedProcedureStepStartTime": "130451.768000",
      "PhotometricInterpretation": "MONOCHROME2",
      "PixelBandwidth": 2290.0,
      "PixelRepresentation": 0,
      "PixelSpacing": [2.0, 2.0],
      "ProtocolName": "func_task-things_run-1",
      "RepetitionTime": 1490.0,
      "RescaleIntercept": -4096.0,
      "RescaleSlope": 2.0,
      "RescaleType": "US",
      "Rows": 832,
      "SAR": 0.05467206218221,
      "SamplesPerPixel": 1,
      "ScanOptions": "FS",
      "ScanningSequence": "EP",
      "SequenceName": "epfid2d1_104",
      "SequenceVariant": [
        "SK",
        "SS"
],
      "SeriesDescription": "func_task-things_run-1",
      "SeriesNumber": 11,
      "SeriesTime": "133533.206000",
      "SliceLocation": -31.436179381271,
      "SliceThickness": 2.0,
      "SmallestImagePixelValue": 0,
      "SoftwareVersions": "syngo MR E11",
      "SpacingBetweenSlices": 2.0000000097028,
      "SpecificCharacterSet": "ISO_IR 100",
      "StudyID": "1",
      "StudyTime": "130451.640000",
      "TransmitCoilName": "Body",
      "VariableFlipAngleFlag": "N",
      "WindowCenterWidthExplanation": "Algo1",
      "dBdt": 0.0},
    "slices": {}
  },
  "time": {
    "samples": {
      "AcquisitionNumber": [1, 2, 3, 4, 5, 6, 7, 8, 9, 10, 11, 12, 13, 14, 15, 16, 17, 18, 19, 20, 21, 22, 23, 24, 25, 26, 27, 28, 29, 30, 31, 32, 33, 34, 35, 36, 37, 38, 39, 40, 41, 42, 43, 44, 45, 46, 47, 48, 49, 50, 51, 52, 53, 54, 55, 56, 57, 58, 59, 60, 61, 62, 63, 64, 65, 66, 67, 68, 69, 70, 71, 72, 73, 74, 75, 76, 77, 78, 79, 80, 81, 82, 83, 84, 85, 86, 87, 88, 89, 90, 91, 92, 93, 94, 95, 96, 97, 98, 99, 100, 101, 102, 103, 104, 105, 106, 107, 108, 109, 110, 111, 112, 113, 114, 115, 116, 117, 118, 119, 120, 121, 122, 123, 124, 125, 126, 127, 128, 129, 130, 131, 132, 133, 134, 135, 136, 137, 138, 139, 140, 141, 142, 143, 144, 145, 146, 147, 148, 149, 150, 151, 152, 153, 154, 155, 156, 157, 158, 159, 160, 161, 162, 163, 164, 165, 166, 167, 168, 169, 170, 171, 172, 173, 174, 175, 176, 177, 178, 179, 180, 181, 182, 183, 184, 185, 186, 187, 188, 189, 190],
      "AcquisitionTime": ["133434.007500", "133435.497500", "133436.987500", "133438.477500", "133439.967500", "133441.457500", "133442.947500", "133444.437500", "133445.927500", "133447.417500", "133448.907500", "133450.397500", "133451.887500", "133453.377500", "133454.867500", "133456.357500", "133457.847500", "133459.337500", "133500.827500", "133502.317500", "133503.807500", "133505.297500", "133506.787500", "133508.277500", "133509.767500", "133511.257500", "133512.747500", "133514.237500", "133515.727500", "133517.217500", "133518.707500", "133520.197500", "133521.687500", "133523.177500", "133524.667500", "133526.157500", "133527.647500", "133529.137500", "133530.627500", "133532.117500", "133533.607500", "133535.097500", "133536.587500", "133538.077500", "133539.567500", "133541.057500", "133542.547500", "133544.037500", "133545.527500", "133547.017500", "133548.507500", "133549.997500", "133551.487500", "133552.977500", "133554.467500", "133555.957500", "133557.447500", "133558.937500", "133600.427500", "133601.917500", "133603.407500", "133604.897500", "133606.387500", "133607.877500", "133609.367500", "133610.857500", "133612.347500", "133613.837500", "133615.327500", "133616.817500", "133618.307500", "133619.797500", "133621.287500", "133622.777500", "133624.267500", "133625.757500", "133627.247500", "133628.737500", "133630.227500", "133631.717500", "133633.207500", "133634.697500", "133636.187500", "133637.677500", "133639.167500", "133640.657500", "133642.147500", "133643.637500", "133645.127500", "133646.617500", "133648.107500", "133649.597500", "133651.087500", "133652.577500", "133654.067500", "133655.557500", "133657.047500", "133658.537500", "133700.027500", "133701.517500", "133703.007500", "133704.497500", "133705.987500", "133707.477500", "133708.967500", "133710.457500", "133711.947500", "133713.437500", "133714.927500", "133716.417500", "133717.907500", "133719.397500", "133720.887500", "133722.377500", "133723.867500", "133725.357500", "133726.847500", "133728.337500", "133729.827500", "133731.317500", "133732.807500", "133734.297500", "133735.787500", "133737.277500", "133738.767500", "133740.257500", "133741.747500", "133743.237500", "133744.727500", "133746.217500", "133747.707500", "133749.197500", "133750.687500", "133752.177500", "133753.667500", "133755.157500", "133756.647500", "133758.137500", "133759.627500", "133801.117500", "133802.607500", "133804.097500", "133805.587500", "133807.077500", "133808.567500", "133810.057500", "133811.547500", "133813.037500", "133814.527500", "133816.017500", "133817.507500", "133818.997500", "133820.487500", "133821.977500", "133823.467500", "133824.957500", "133826.447500", "133827.937500", "133829.427500", "133830.917500", "133832.407500", "133833.897500", "133835.387500", "133836.877500", "133838.367500", "133839.857500", "133841.347500", "133842.837500", "133844.327500", "133845.817500", "133847.307500", "133848.797500", "133850.287500", "133851.777500", "133853.267500", "133854.757500", "133856.247500", "133857.737500", "133859.227500", "133900.717500", "133902.207500", "133903.697500", "133905.187500", "133906.677500", "133908.167500", "133909.657500", "133911.147500", "133912.637500", "133914.127500", "133915.617500"],
      "ContentTime": ["133533.208000", "133533.211000", "133533.213000", "133533.216000", "133553.240000", "133553.243000", "133553.245000", "133553.248000", "133553.250000", "133553.253000", "133553.255000", "133553.258000", "133553.260000", "133553.263000", "133553.265000", "133553.267000", "133553.270000", "133553.273000", "133553.276000", "133553.278000", "133553.281000", "133553.283000", "133553.286000", "133553.288000", "133553.291000", "133613.224000", "133613.227000", "133613.229000", "133613.231000", "133613.234000", "133613.236000", "133613.239000", "133613.241000", "133613.244000", "133613.246000", "133613.249000", "133613.251000", "133613.254000", "133613.256000", "133613.258000", "133613.261000", "133613.263000", "133613.266000", "133613.268000", "133613.271000", "133633.210000", "133633.213000", "133633.215000", "133633.218000", "133633.220000", "133633.223000", "133633.226000", "133633.228000", "133633.231000", "133633.233000", "133633.236000", "133633.238000", "133633.241000", "133633.243000", "133633.246000", "133633.249000", "133633.252000", "133633.255000", "133633.257000", "133633.260000", "133653.227000", "133653.230000", "133653.233000", "133653.235000", "133653.238000", "133653.240000", "133653.247000", "133653.249000", "133653.252000", "133653.254000", "133653.257000", "133653.259000", "133653.262000", "133653.264000", "133653.267000", "133653.269000", "133653.272000", "133653.274000", "133653.277000", "133653.279000", "133653.282000", "133713.220000", "133713.223000", "133713.225000", "133713.228000", "133713.230000", "133713.233000", "133713.235000", "133713.238000", "133713.240000", "133713.243000", "133713.245000", "133713.247000", "133713.250000", "133713.252000", "133713.255000", "133713.257000", "133713.260000", "133713.262000", "133713.265000", "133713.267000", "133753.273000", "133753.276000", "133753.278000", "133753.281000", "133753.292000", "133753.294000", "133753.297000", "133753.299000", "133753.302000", "133753.304000", "133753.307000", "133753.309000", "133753.312000", "133753.314000", "133753.317000", "133753.319000", "133753.322000", "133753.324000", "133753.326000", "133753.329000", "133753.331000", "133753.334000", "133753.336000", "133753.339000", "133753.341000", "133753.344000", "133753.346000", "133833.242000", "133833.244000", "133833.247000", "133833.249000", "133833.252000", "133833.254000", "133833.257000", "133833.259000", "133833.262000", "133833.264000", "133833.267000", "133833.269000", "133833.272000", "133833.274000", "133833.277000", "133833.279000", "133833.282000", "133833.284000", "133833.287000", "133833.289000", "133833.292000", "133833.294000", "133833.297000", "133833.299000", "133833.302000", "133833.304000", "133833.307000", "133913.243000", "133913.246000", "133913.248000", "133913.251000", "133913.254000", "133913.256000", "133913.259000", "133913.261000", "133913.263000", "133913.266000", "133913.268000", "133913.271000", "133913.273000", "133913.276000", "133913.278000", "133913.281000", "133913.283000", "133913.286000", "133913.288000", "133913.291000", "133913.293000", "133913.296000", "133913.298000", "133913.301000", "133913.303000", "133913.306000", "133913.308000", "133917.651000", "133917.654000", "133917.656000"],
      "InstanceCreationTime": ["133533.208000", "133533.211000", "133533.213000", "133533.216000", "133553.240000", "133553.243000", "133553.245000", "133553.248000", "133553.250000", "133553.253000", "133553.255000", "133553.258000", "133553.260000", "133553.263000", "133553.265000", "133553.267000", "133553.270000", "133553.273000", "133553.276000", "133553.278000", "133553.281000", "133553.283000", "133553.286000", "133553.288000", "133553.291000", "133613.224000", "133613.227000", "133613.229000", "133613.231000", "133613.234000", "133613.236000", "133613.239000", "133613.241000", "133613.244000", "133613.246000", "133613.249000", "133613.251000", "133613.254000", "133613.256000", "133613.258000", "133613.261000", "133613.263000", "133613.266000", "133613.268000", "133613.271000", "133633.210000", "133633.213000", "133633.215000", "133633.218000", "133633.220000", "133633.223000", "133633.226000", "133633.228000", "133633.231000", "133633.233000", "133633.236000", "133633.238000", "133633.241000", "133633.243000", "133633.246000", "133633.249000", "133633.252000", "133633.255000", "133633.257000", "133633.260000", "133653.227000", "133653.230000", "133653.233000", "133653.235000", "133653.238000", "133653.240000", "133653.247000", "133653.249000", "133653.252000", "133653.254000", "133653.257000", "133653.259000", "133653.262000", "133653.264000", "133653.267000", "133653.269000", "133653.272000", "133653.274000", "133653.277000", "133653.279000", "133653.282000", "133713.220000", "133713.223000", "133713.225000", "133713.228000", "133713.230000", "133713.233000", "133713.235000", "133713.238000", "133713.240000", "133713.243000", "133713.245000", "133713.247000", "133713.250000", "133713.252000", "133713.255000", "133713.257000", "133713.260000", "133713.262000", "133713.265000", "133713.267000", "133753.273000", "133753.276000", "133753.278000", "133753.281000", "133753.292000", "133753.294000", "133753.297000", "133753.299000", "133753.302000", "133753.304000", "133753.307000", "133753.309000", "133753.312000", "133753.314000", "133753.317000", "133753.319000", "133753.322000", "133753.324000", "133753.326000", "133753.329000", "133753.331000", "133753.334000", "133753.336000", "133753.339000", "133753.341000", "133753.344000", "133753.346000", "133833.242000", "133833.244000", "133833.247000", "133833.249000", "133833.252000", "133833.254000", "133833.257000", "133833.259000", "133833.262000", "133833.264000", "133833.267000", "133833.269000", "133833.272000", "133833.274000", "133833.277000", "133833.279000", "133833.282000", "133833.284000", "133833.287000", "133833.289000", "133833.292000", "133833.294000", "133833.297000", "133833.299000", "133833.302000", "133833.304000", "133833.307000", "133913.243000", "133913.246000", "133913.248000", "133913.251000", "133913.254000", "133913.256000", "133913.259000", "133913.261000", "133913.263000", "133913.266000", "133913.268000", "133913.271000", "133913.273000", "133913.276000", "133913.278000", "133913.281000", "133913.283000", "133913.286000", "133913.288000", "133913.291000", "133913.293000", "133913.296000", "133913.298000", "133913.301000", "133913.303000", "133913.306000", "133913.308000", "133917.651000", "133917.654000", "133917.656000"],
      "InstanceNumber": [1, 2, 3, 4, 5, 6, 7, 8, 9, 10, 11, 12, 13, 14, 15, 16, 17, 18, 19, 20, 21, 22, 23, 24, 25, 26, 27, 28, 29, 30, 31, 32, 33, 34, 35, 36, 37, 38, 39, 40, 41, 42, 43, 44, 45, 46, 47, 48, 49, 50, 51, 52, 53, 54, 55, 56, 57, 58, 59, 60, 61, 62, 63, 64, 65, 66, 67, 68, 69, 70, 71, 72, 73, 74, 75, 76, 77, 78, 79, 80, 81, 82, 83, 84, 85, 86, 87, 88, 89, 90, 91, 92, 93, 94, 95, 96, 97, 98, 99, 100, 101, 102, 103, 104, 105, 106, 107, 108, 109, 110, 111, 112, 113, 114, 115, 116, 117, 118, 119, 120, 121, 122, 123, 124, 125, 126, 127, 128, 129, 130, 131, 132, 133, 134, 135, 136, 137, 138, 139, 140, 141, 142, 143, 144, 145, 146, 147, 148, 149, 150, 151, 152, 153, 154, 155, 156, 157, 158, 159, 160, 161, 162, 163, 164, 165, 166, 167, 168, 169, 170, 171, 172, 173, 174, 175, 176, 177, 178, 179, 180, 181, 182, 183, 184, 185, 186, 187, 188, 189, 190],
      "WindowCenter": [4754.0, 4756.0, 4756.0, 4758.0, 4762.0, 4754.0, 4756.0, 4754.0, 4758.0, 4758.0, 4754.0, 4752.0, 4758.0, 4754.0, 4758.0, 4758.0, 4758.0, 4754.0, 4758.0, 4754.0, 4756.0, 4754.0, 4756.0, 4756.0, 4754.0, 4758.0, 4754.0, 4760.0, 4758.0, 4756.0, 4758.0, 4758.0, 4758.0, 4756.0, 4758.0, 4758.0, 4756.0, 4758.0, 4758.0, 4756.0, 4760.0, 4756.0, 4756.0, 4756.0, 4760.0, 4758.0, 4760.0, 4754.0, 4754.0, 4758.0, 4754.0, 4756.0, 4760.0, 4756.0, 4762.0, 4756.0, 4760.0, 4758.0, 4756.0, 4756.0, 4758.0, 4758.0, 4758.0, 4758.0, 4758.0, 4760.0, 4760.0, 4756.0, 4756.0, 4758.0, 4756.0, 4760.0, 4764.0, 4758.0, 4756.0, 4758.0, 4756.0, 4760.0, 4758.0, 4758.0, 4756.0, 4760.0, 4758.0, 4760.0, 4760.0, 4760.0, 4758.0, 4758.0, 4758.0, 4758.0, 4758.0, 4760.0, 4764.0, 4760.0, 4758.0, 4760.0, 4756.0, 4758.0, 4758.0, 4762.0, 4758.0, 4760.0, 4758.0, 4762.0, 4760.0, 4756.0, 4758.0, 4762.0, 4758.0, 4762.0, 4758.0, 4760.0, 4760.0, 4756.0, 4758.0, 4760.0, 4762.0, 4758.0, 4756.0, 4760.0, 4760.0, 4762.0, 4762.0, 4760.0, 4758.0, 4758.0, 4760.0, 4760.0, 4760.0, 4764.0, 4764.0, 4766.0, 4758.0, 4760.0, 4760.0, 4758.0, 4758.0, 4758.0, 4758.0, 4762.0, 4758.0, 4764.0, 4764.0, 4758.0, 4762.0, 4762.0, 4758.0, 4764.0, 4760.0, 4764.0, 4762.0, 4762.0, 4762.0, 4760.0, 4764.0, 4762.0, 4762.0, 4760.0, 4758.0, 4760.0, 4760.0, 4760.0, 4760.0, 4762.0, 4762.0, 4758.0, 4760.0, 4762.0, 4764.0, 4764.0, 4762.0, 4762.0, 4762.0, 4758.0, 4758.0, 4756.0, 4760.0, 4758.0, 4762.0, 4762.0, 4758.0, 4762.0, 4760.0, 4762.0, 4758.0, 4760.0, 4764.0, 4762.0, 4760.0, 4762.0],
      "WindowWidth": [18530.0, 18528.0, 18530.0, 18528.0, 18534.0, 18524.0, 18528.0, 18530.0, 18526.0, 18528.0, 18530.0, 18526.0, 18532.0, 18530.0, 18526.0, 18530.0, 18534.0, 18532.0, 18528.0, 18526.0, 18528.0, 18526.0, 18534.0, 18536.0, 18526.0, 18532.0, 18528.0, 18528.0, 18530.0, 18522.0, 18528.0, 18530.0, 18530.0, 18524.0, 18530.0, 18526.0, 18526.0, 18524.0, 18534.0, 18524.0, 18528.0, 18528.0, 18526.0, 18528.0, 18526.0, 18530.0, 18528.0, 18526.0, 18524.0, 18530.0, 18528.0, 18528.0, 18528.0, 18522.0, 18526.0, 18526.0, 18528.0, 18526.0, 18518.0, 18524.0, 18528.0, 18532.0, 18524.0, 18530.0, 18526.0, 18526.0, 18530.0, 18528.0, 18528.0, 18524.0, 18520.0, 18524.0, 18528.0, 18524.0, 18524.0, 18526.0, 18524.0, 18530.0, 18530.0, 18532.0, 18524.0, 18524.0, 18526.0, 18526.0, 18524.0, 18526.0, 18524.0, 18526.0, 18522.0, 18522.0, 18526.0, 18526.0, 18530.0, 18522.0, 18522.0, 18522.0, 18528.0, 18520.0, 18524.0, 18530.0, 18524.0, 18530.0, 18524.0, 18526.0, 18526.0, 18520.0, 18528.0, 18524.0, 18532.0, 18526.0, 18522.0, 18528.0, 18524.0, 18522.0, 18524.0, 18524.0, 18526.0, 18522.0, 18522.0, 18526.0, 18528.0, 18526.0, 18522.0, 18530.0, 18532.0, 18522.0, 18524.0, 18528.0, 18518.0, 18532.0, 18528.0, 18524.0, 18524.0, 18524.0, 18526.0, 18528.0, 18524.0, 18530.0, 18524.0, 18528.0, 18528.0, 18532.0, 18528.0, 18522.0, 18526.0, 18520.0, 18524.0, 18532.0, 18528.0, 18534.0, 18526.0, 18528.0, 18526.0, 18530.0, 18530.0, 18530.0, 18524.0, 18524.0, 18522.0, 18520.0, 18526.0, 18526.0, 18524.0, 18524.0, 18528.0, 18522.0, 18526.0, 18530.0, 18524.0, 18524.0, 18524.0, 18526.0, 18524.0, 18524.0, 18522.0, 18524.0, 18526.0, 18528.0, 18526.0, 18526.0, 18522.0, 18524.0, 18524.0, 18522.0, 18524.0, 18528.0, 18528.0, 18530.0, 18524.0, 18524.0]
    },
    "slices": {}
  }
}