{
  "AcquisitionMatrixPE": 104,
  "AcquisitionNumber": 1,
  "AcquisitionTime": "13:46:36.350000",
  "BandwidthPerPixelPhaseEncode": 17.17,
  "BaseResolution": 104,
  "BodyPartExamined": "BRAIN",
  "CoilCombinationMethod": "Sum of Squares",
  "ConsistencyInfo": "N4_VE11C_LATEST_20160120",
  "ConversionSoftware": "dcm2niix",
  "ConversionSoftwareVersion": "v1.0.20211006",
  "DerivedVendorReportedEchoSpacing": 0.000560011,
  "DeviceSerialNumber": "167006",
  "DwellTime": 2.1e-06,
  "EchoTime": 0.037,
  "EchoTime1": 0.037,
  "EchoTime2": 0.001,
  "EchoTrainLength": 104,
  "EffectiveEchoSpacing": 0.000560011,
  "FlipAngle": 52,
  "HeudiconvVersion": "0.10.0",
  "ImageComments": "Unaliased MB4/PE3/LB",
  "ImageOrientationPatientDICOM": [0.99902, 0.0258759, 0.0358962, -0.0165658, 0.970916, -0.238846],
  "ImageOrientationText": "Tra>Cor(-13.8)>Sag(2.4)",
  "ImageType": [
    "ORIGINAL",
    "PRIMARY",
    "P",
    "MB",
    "ND",
    "MOSAIC",
    "PHASE"
],
  "ImagingFrequency": 123.259,
  "InPlanePhaseEncodingDirectionDICOM": "COL",
  "InstitutionAddress": "Chemin Queen-Mary 4565,Montreal,District,CA,H3W 1W5",
  "InstitutionName": "IUGM",
  "InstitutionalDepartmentName": "Department",
  "MRAcquisitionType": "2D",
  "MagneticFieldStrength": 3,
  "Manufacturer": "Siemens",
  "ManufacturersModelName": "Prisma_fit",
  "MatrixCoilMode": "SENSE",
  "Modality": "MR",
  "MultibandAccelerationFactor": 4,
  "PartialFourier": 1,
  "PatientPosition": "HFS",
  "PercentPhaseFOV": 100,
  "PercentSampling": 100,
  "PhaseEncodingDirection": "j",
  "PhaseEncodingSteps": 104,
  "PhaseResolution": 1,
  "PixelBandwidth": 2290,
  "ProcedureStepDescription": "memory^things",
  "ProtocolName": "func_task-things_run-3",
  "PulseSequenceDetails": "%CustomerSeq%\\cmrr_mbep2d_bold",
  "ReceiveCoilActiveElements": "HC1-7;NC1,2",
  "ReceiveCoilName": "HeadNeck_64",
  "ReconMatrixPE": 104,
  "RepetitionTime": 1.49,
  "SAR": 0.0546721,
  "ScanOptions": "FS",
  "ScanningSequence": "EP",
  "SequenceName": "epfid2d1_104",
  "SequenceVariant": "SK\\SS",
  "SeriesDescription": "func_task-things_run-3",
  "SeriesNumber": 17,
  "ShimSetting": [644, -7201, -8755, 715, 47, 18, 55, -14],
  "SliceThickness": 2,
  "SliceTiming": [0, 0.7825, 0.0975, 0.88, 0.195, 0.98, 0.2925, 1.0775, 0.39, 1.175, 0.49, 1.2725, 0.5875, 1.37, 0.685, 0, 0.7825, 0.0975, 0.88, 0.195, 0.98, 0.2925, 1.0775, 0.39, 1.175, 0.49, 1.2725, 0.5875, 1.37, 0.685, 0, 0.7825, 0.0975, 0.88, 0.195, 0.98, 0.2925, 1.0775, 0.39, 1.175, 0.49, 1.2725, 0.5875, 1.37, 0.685, 0, 0.7825, 0.0975, 0.88, 0.195, 0.98, 0.2925, 1.0775, 0.39, 1.175, 0.49, 1.2725, 0.5875, 1.37, 0.685],
  "SoftwareVersions": "syngo MR E11",
  "SpacingBetweenSlices": 2,
  "StationName": "MRC35049",
  "TaskName": "things",
  "TotalReadoutTime": 0.0576811,
  "TxRefAmp": 247.989,
  "WipMemBlock": "1920a8e5-7658-4491-ac28-b78632c78f91||Sequence: R016 ve11c/master r/e634e98; Dec 19 2017 11:00:25 by eja",
  "dcmmeta_affine": [
    [-1.9980409145355225, -0.03313169255852699, 0.08206510543823242, 108.16019439697266],
    [-0.05175172537565231, 1.941832184791565, -0.4760352075099945, -72.44805908203125],
    [0.07179240137338638, 0.4776924252510071, 1.940787434577942, -54.73879623413086],
    [0.0, 0.0, 0.0, 1.0]
],
  "dcmmeta_reorient_transform": [
    [0.0, -1.0, 0.0, 103.0],
    [1.0, 0.0, 0.0, 0.0],
    [0.0, 0.0, 1.0, 0.0],
    [0.0, 0.0, 0.0, 1.0]
],
  "dcmmeta_shape": [104, 104, 60, 190],
  "dcmmeta_slice_dim": 2,
  "dcmmeta_version": 0.6,
  "global": {
    "const": {
      "AcquisitionMatrix": [104, 0, 0, 104],
      "AngioFlag": "N",
      "BitsAllocated": 16,
      "BitsStored": 16,
      "BodyPartExamined": "BRAIN",
      "Columns": 832,
      "EchoNumbers": 1,
      "EchoTime": 37.0,
      "EchoTrainLength": 104,
      "FlipAngle": 52.0,
      "HighBit": 15,
      "ImageOrientationPatient": [0.99902047148327, 0.025875862054, 0.0358962020319, -0.0165658458543, 0.97091609379609, -0.2388462090109],
      "ImagePositionPatient": [-819.97459807166, -853.22519819134, 142.21112959191],
      "ImageType": [
        "ORIGINAL",
        "PRIMARY",
        "P",
        "MB",
        "ND",
        "MOSAIC"
],
      "ImagedNucleus": "1H",
      "ImagingFrequency": 123.258854,
      "InPlanePhaseEncodingDirection": "COL",
      "LargestImagePixelValue": 4095,
      "MRAcquisitionType": "2D",
      "MagneticFieldStrength": 3.0,
      "Manufacturer": "SIEMENS",
      "ManufacturerModelName": "Prisma_fit",
      "Modality": "MR",
      "NumberOfAverages": 1.0,
      "NumberOfPhaseEncodingSteps": 104,
      "PercentPhaseFieldOfView": 100.0,
      "PercentSampling": 100.0,
      "PerformedProcedureStepStartTime": "130451.768000",
      "PhotometricInterpretation": "MONOCHROME2",
      "PixelBandwidth": 2290.0,
      "PixelRepresentation": 0,
      "PixelSpacing": [2.0, 2.0],
      "ProtocolName": "func_task-things_run-3",
      "RepetitionTime": 1490.0,
      "RescaleIntercept": -4096.0,
      "RescaleSlope": 2.0,
      "RescaleType": "US",
      "Rows": 832,
      "SAR": 0.05467206218221,
      "SamplesPerPixel": 1,
      "ScanOptions": "FS",
      "ScanningSequence": "EP",
      "SequenceName": "epfid2d1_104",
      "SequenceVariant": [
        "SK",
        "SS"
],
      "SeriesDescription": "func_task-things_run-3",
      "SeriesNumber": 17,
      "SeriesTime": "134754.970000",
      "SliceLocation": -31.436179381271,
      "SliceThickness": 2.0,
      "SmallestImagePixelValue": 0,
      "SoftwareVersions": "syngo MR E11",
      "SpacingBetweenSlices": 2.0000000097028,
      "SpecificCharacterSet": "ISO_IR 100",
      "StudyID": "1",
      "StudyTime": "130451.640000",
      "TransmitCoilName": "Body",
      "VariableFlipAngleFlag": "N",
      "WindowCenterWidthExplanation": "Algo1",
      "dBdt": 0.0},
    "slices": {}
  },
  "time": {
    "samples": {
      "AcquisitionNumber": [1, 2, 3, 4, 5, 6, 7, 8, 9, 10, 11, 12, 13, 14, 15, 16, 17, 18, 19, 20, 21, 22, 23, 24, 25, 26, 27, 28, 29, 30, 31, 32, 33, 34, 35, 36, 37, 38, 39, 40, 41, 42, 43, 44, 45, 46, 47, 48, 49, 50, 51, 52, 53, 54, 55, 56, 57, 58, 59, 60, 61, 62, 63, 64, 65, 66, 67, 68, 69, 70, 71, 72, 73, 74, 75, 76, 77, 78, 79, 80, 81, 82, 83, 84, 85, 86, 87, 88, 89, 90, 91, 92, 93, 94, 95, 96, 97, 98, 99, 100, 101, 102, 103, 104, 105, 106, 107, 108, 109, 110, 111, 112, 113, 114, 115, 116, 117, 118, 119, 120, 121, 122, 123, 124, 125, 126, 127, 128, 129, 130, 131, 132, 133, 134, 135, 136, 137, 138, 139, 140, 141, 142, 143, 144, 145, 146, 147, 148, 149, 150, 151, 152, 153, 154, 155, 156, 157, 158, 159, 160, 161, 162, 163, 164, 165, 166, 167, 168, 169, 170, 171, 172, 173, 174, 175, 176, 177, 178, 179, 180, 181, 182, 183, 184, 185, 186, 187, 188, 189, 190],
      "AcquisitionTime": ["134636.350000", "134637.840000", "134639.330000", "134640.820000", "134642.310000", "134643.800000", "134645.290000", "134646.780000", "134648.270000", "134649.760000", "134651.250000", "134652.740000", "134654.230000", "134655.720000", "134657.210000", "134658.700000", "134700.190000", "134701.680000", "134703.170000", "134704.660000", "134706.150000", "134707.640000", "134709.130000", "134710.620000", "134712.110000", "134713.600000", "134715.090000", "134716.580000", "134718.070000", "134719.560000", "134721.050000", "134722.540000", "134724.030000", "134725.520000", "134727.010000", "134728.500000", "134729.990000", "134731.480000", "134732.970000", "134734.460000", "134735.950000", "134737.440000", "134738.930000", "134740.420000", "134741.910000", "134743.400000", "134744.890000", "134746.380000", "134747.870000", "134749.360000", "134750.850000", "134752.340000", "134753.830000", "134755.320000", "134756.810000", "134758.300000", "134759.790000", "134801.280000", "134802.770000", "134804.260000", "134805.750000", "134807.240000", "134808.730000", "134810.220000", "134811.710000", "134813.200000", "134814.690000", "134816.180000", "134817.670000", "134819.160000", "134820.650000", "134822.140000", "134823.630000", "134825.120000", "134826.610000", "134828.100000", "134829.590000", "134831.080000", "134832.570000", "134834.060000", "134835.550000", "134837.040000", "134838.530000", "134840.020000", "134841.510000", "134843.000000", "134844.490000", "134845.980000", "134847.470000", "134848.960000", "134850.450000", "134851.940000", "134853.430000", "134854.920000", "134856.410000", "134857.900000", "134859.390000", "134900.880000", "134902.370000", "134903.860000", "134905.350000", "134906.840000", "134908.330000", "134909.820000", "134911.310000", "134912.800000", "134914.290000", "134915.780000", "134917.270000", "134918.760000", "134920.250000", "134921.740000", "134923.230000", "134924.720000", "134926.210000", "134927.700000", "134929.190000", "134930.680000", "134932.170000", "134933.660000", "134935.150000", "134936.640000", "134938.130000", "134939.620000", "134941.110000", "134942.600000", "134944.090000", "134945.580000", "134947.070000", "134948.560000", "134950.050000", "134951.540000", "134953.030000", "134954.520000", "134956.010000", "134957.500000", "134958.990000", "135000.480000", "135001.970000", "135003.460000", "135004.950000", "135006.440000", "135007.930000", "135009.420000", "135010.910000", "135012.400000", "135013.890000", "135015.380000", "135016.870000", "135018.360000", "135019.850000", "135021.340000", "135022.830000", "135024.320000", "135025.810000", "135027.300000", "135028.790000", "135030.280000", "135031.770000", "135033.260000", "135034.750000", "135036.240000", "135037.730000", "135039.220000", "135040.710000", "135042.200000", "135043.690000", "135045.180000", "135046.670000", "135048.160000", "135049.650000", "135051.140000", "135052.630000", "135054.120000", "135055.610000", "135057.100000", "135058.590000", "135100.080000", "135101.570000", "135103.060000", "135104.550000", "135106.040000", "135107.530000", "135109.020000", "135110.510000", "135112.000000", "135113.490000", "135114.980000", "135116.470000", "135117.960000"],
      "ContentTime": ["134754.972000", "134754.975000", "134754.978000", "134754.980000", "134754.982000", "134754.985000", "134754.987000", "134754.990000", "134754.992000", "134754.995000", "134755.001000", "134755.004000", "134755.006000", "134755.009000", "134755.011000", "134755.014000", "134755.016000", "134755.019000", "134755.021000", "134755.024000", "134755.026000", "134755.029000", "134755.031000", "134755.034000", "134755.036000", "134814.928000", "134814.931000", "134814.933000", "134814.936000", "134814.938000", "134814.941000", "134814.946000", "134814.948000", "134814.951000", "134814.953000", "134814.956000", "134814.958000", "134814.961000", "134814.963000", "134814.966000", "134814.968000", "134814.970000", "134814.973000", "134814.975000", "134814.978000", "134834.922000", "134834.925000", "134834.927000", "134834.930000", "134834.932000", "134834.943000", "134834.946000", "134834.948000", "134834.950000", "134834.953000", "134834.955000", "134834.958000", "134834.960000", "134834.963000", "134834.965000", "134834.968000", "134834.970000", "134834.973000", "134834.975000", "134834.978000", "134854.915000", "134854.917000", "134854.920000", "134854.922000", "134854.925000", "134854.927000", "134854.930000", "134854.932000", "134854.947000", "134854.949000", "134854.952000", "134854.954000", "134854.957000", "134854.959000", "134854.962000", "134854.964000", "134854.967000", "134854.969000", "134854.972000", "134854.974000", "134854.977000", "134914.920000", "134914.922000", "134914.925000", "134914.928000", "134914.930000", "134914.932000", "134914.935000", "134914.938000", "134914.940000", "134914.943000", "134914.945000", "134914.948000", "134914.950000", "134914.952000", "134914.955000", "134914.958000", "134914.960000", "134914.963000", "134914.965000", "134914.968000", "134954.968000", "134954.971000", "134954.973000", "134954.976000", "134954.987000", "134954.989000", "134954.991000", "134954.994000", "134954.997000", "134955.000000", "134955.003000", "134955.005000", "134955.008000", "134955.010000", "134955.013000", "134955.015000", "134955.018000", "134955.020000", "134955.023000", "134955.025000", "134955.028000", "134955.030000", "134955.033000", "134955.035000", "134955.038000", "134955.041000", "135034.935000", "135034.938000", "135034.941000", "135034.943000", "135034.946000", "135034.948000", "135034.951000", "135034.953000", "135034.956000", "135034.959000", "135034.961000", "135034.964000", "135034.966000", "135034.969000", "135034.971000", "135034.974000", "135034.976000", "135034.979000", "135034.981000", "135034.984000", "135034.986000", "135034.989000", "135034.991000", "135034.994000", "135034.996000", "135035.000000", "135035.002000", "135114.943000", "135114.946000", "135114.948000", "135114.951000", "135114.953000", "135114.956000", "135114.958000", "135114.961000", "135114.963000", "135114.966000", "135114.968000", "135114.970000", "135114.973000", "135114.975000", "135114.978000", "135114.980000", "135114.983000", "135114.985000", "135114.988000", "135114.990000", "135114.993000", "135114.995000", "135114.997000", "135115.001000", "135115.003000", "135115.006000", "135115.008000", "135119.808000", "135119.810000", "135119.813000", "135119.815000"],
      "InstanceCreationTime": ["134754.972000", "134754.975000", "134754.978000", "134754.980000", "134754.982000", "134754.985000", "134754.987000", "134754.990000", "134754.992000", "134754.995000", "134755.001000", "134755.004000", "134755.006000", "134755.009000", "134755.011000", "134755.014000", "134755.016000", "134755.019000", "134755.021000", "134755.024000", "134755.026000", "134755.029000", "134755.031000", "134755.034000", "134755.036000", "134814.928000", "134814.931000", "134814.933000", "134814.936000", "134814.938000", "134814.941000", "134814.946000", "134814.948000", "134814.951000", "134814.953000", "134814.956000", "134814.958000", "134814.961000", "134814.963000", "134814.966000", "134814.968000", "134814.970000", "134814.973000", "134814.975000", "134814.978000", "134834.922000", "134834.925000", "134834.927000", "134834.930000", "134834.932000", "134834.943000", "134834.946000", "134834.948000", "134834.950000", "134834.953000", "134834.955000", "134834.958000", "134834.960000", "134834.963000", "134834.965000", "134834.968000", "134834.970000", "134834.973000", "134834.975000", "134834.978000", "134854.915000", "134854.917000", "134854.920000", "134854.922000", "134854.925000", "134854.927000", "134854.930000", "134854.932000", "134854.947000", "134854.949000", "134854.952000", "134854.954000", "134854.957000", "134854.959000", "134854.962000", "134854.964000", "134854.967000", "134854.969000", "134854.972000", "134854.974000", "134854.977000", "134914.920000", "134914.922000", "134914.925000", "134914.928000", "134914.930000", "134914.932000", "134914.935000", "134914.938000", "134914.940000", "134914.943000", "134914.945000", "134914.948000", "134914.950000", "134914.952000", "134914.955000", "134914.958000", "134914.960000", "134914.963000", "134914.965000", "134914.968000", "134954.968000", "134954.971000", "134954.973000", "134954.976000", "134954.987000", "134954.989000", "134954.991000", "134954.994000", "134954.997000", "134955.000000", "134955.003000", "134955.005000", "134955.008000", "134955.010000", "134955.013000", "134955.015000", "134955.018000", "134955.020000", "134955.023000", "134955.025000", "134955.028000", "134955.030000", "134955.033000", "134955.035000", "134955.038000", "134955.041000", "135034.935000", "135034.938000", "135034.941000", "135034.943000", "135034.946000", "135034.948000", "135034.951000", "135034.953000", "135034.956000", "135034.959000", "135034.961000", "135034.964000", "135034.966000", "135034.969000", "135034.971000", "135034.974000", "135034.976000", "135034.979000", "135034.981000", "135034.984000", "135034.986000", "135034.989000", "135034.991000", "135034.994000", "135034.996000", "135035.000000", "135035.002000", "135114.943000", "135114.946000", "135114.948000", "135114.951000", "135114.953000", "135114.956000", "135114.958000", "135114.961000", "135114.963000", "135114.966000", "135114.968000", "135114.970000", "135114.973000", "135114.975000", "135114.978000", "135114.980000", "135114.983000", "135114.985000", "135114.988000", "135114.990000", "135114.993000", "135114.995000", "135114.997000", "135115.001000", "135115.003000", "135115.006000", "135115.008000", "135119.808000", "135119.810000", "135119.813000", "135119.815000"],
      "InstanceNumber": [1, 2, 3, 4, 5, 6, 7, 8, 9, 10, 11, 12, 13, 14, 15, 16, 17, 18, 19, 20, 21, 22, 23, 24, 25, 26, 27, 28, 29, 30, 31, 32, 33, 34, 35, 36, 37, 38, 39, 40, 41, 42, 43, 44, 45, 46, 47, 48, 49, 50, 51, 52, 53, 54, 55, 56, 57, 58, 59, 60, 61, 62, 63, 64, 65, 66, 67, 68, 69, 70, 71, 72, 73, 74, 75, 76, 77, 78, 79, 80, 81, 82, 83, 84, 85, 86, 87, 88, 89, 90, 91, 92, 93, 94, 95, 96, 97, 98, 99, 100, 101, 102, 103, 104, 105, 106, 107, 108, 109, 110, 111, 112, 113, 114, 115, 116, 117, 118, 119, 120, 121, 122, 123, 124, 125, 126, 127, 128, 129, 130, 131, 132, 133, 134, 135, 136, 137, 138, 139, 140, 141, 142, 143, 144, 145, 146, 147, 148, 149, 150, 151, 152, 153, 154, 155, 156, 157, 158, 159, 160, 161, 162, 163, 164, 165, 166, 167, 168, 169, 170, 171, 172, 173, 174, 175, 176, 177, 178, 179, 180, 181, 182, 183, 184, 185, 186, 187, 188, 189, 190],
      "WindowCenter": [4750.0, 4754.0, 4750.0, 4752.0, 4748.0, 4754.0, 4750.0, 4752.0, 4754.0, 4750.0, 4752.0, 4748.0, 4758.0, 4750.0, 4750.0, 4750.0, 4750.0, 4752.0, 4748.0, 4754.0, 4752.0, 4750.0, 4752.0, 4752.0, 4750.0, 4752.0, 4754.0, 4752.0, 4746.0, 4752.0, 4750.0, 4748.0, 4752.0, 4750.0, 4752.0, 4752.0, 4750.0, 4748.0, 4748.0, 4750.0, 4750.0, 4750.0, 4752.0, 4752.0, 4752.0, 4752.0, 4752.0, 4752.0, 4756.0, 4752.0, 4750.0, 4754.0, 4750.0, 4754.0, 4748.0, 4754.0, 4750.0, 4752.0, 4752.0, 4754.0, 4754.0, 4752.0, 4754.0, 4754.0, 4754.0, 4752.0, 4752.0, 4752.0, 4752.0, 4750.0, 4750.0, 4754.0, 4754.0, 4752.0, 4750.0, 4754.0, 4750.0, 4750.0, 4748.0, 4750.0, 4754.0, 4752.0, 4754.0, 4752.0, 4752.0, 4750.0, 4750.0, 4754.0, 4752.0, 4750.0, 4754.0, 4754.0, 4756.0, 4752.0, 4752.0, 4750.0, 4752.0, 4750.0, 4754.0, 4754.0, 4750.0, 4752.0, 4752.0, 4754.0, 4752.0, 4750.0, 4754.0, 4752.0, 4754.0, 4752.0, 4754.0, 4752.0, 4752.0, 4754.0, 4752.0, 4754.0, 4750.0, 4750.0, 4750.0, 4754.0, 4750.0, 4752.0, 4754.0, 4752.0, 4750.0, 4754.0, 4750.0, 4754.0, 4748.0, 4754.0, 4750.0, 4756.0, 4752.0, 4752.0, 4752.0, 4752.0, 4754.0, 4754.0, 4750.0, 4752.0, 4750.0, 4756.0, 4748.0, 4750.0, 4750.0, 4754.0, 4752.0, 4750.0, 4748.0, 4750.0, 4754.0, 4752.0, 4748.0, 4752.0, 4754.0, 4728.0, 4756.0, 4754.0, 4754.0, 4748.0, 4756.0, 4752.0, 4750.0, 4754.0, 4752.0, 4750.0, 4750.0, 4754.0, 4752.0, 4752.0, 4752.0, 4752.0, 4752.0, 4752.0, 4730.0, 4754.0, 4750.0, 4750.0, 4754.0, 4754.0, 4752.0, 4750.0, 4750.0, 4752.0, 4750.0, 4756.0, 4756.0, 4750.0, 4756.0, 4756.0],
      "WindowWidth": [18536.0, 18536.0, 18536.0, 18538.0, 18536.0, 18540.0, 18538.0, 18536.0, 18534.0, 18530.0, 18538.0, 18534.0, 18536.0, 18538.0, 18538.0, 18538.0, 18536.0, 18534.0, 18528.0, 18532.0, 18534.0, 18536.0, 18538.0, 18538.0, 18540.0, 18538.0, 18540.0, 18538.0, 18540.0, 18536.0, 18532.0, 18530.0, 18538.0, 18532.0, 18540.0, 18538.0, 18532.0, 18534.0, 18534.0, 18534.0, 18534.0, 18540.0, 18536.0, 18538.0, 18534.0, 18538.0, 18534.0, 18538.0, 18540.0, 18532.0, 18534.0, 18536.0, 18528.0, 18536.0, 18532.0, 18540.0, 18534.0, 18538.0, 18536.0, 18536.0, 18536.0, 18536.0, 18536.0, 18536.0, 18538.0, 18536.0, 18540.0, 18534.0, 18534.0, 18538.0, 18532.0, 18534.0, 18540.0, 18538.0, 18534.0, 18538.0, 18540.0, 18536.0, 18532.0, 18532.0, 18536.0, 18530.0, 18538.0, 18528.0, 18538.0, 18534.0, 18536.0, 18538.0, 18536.0, 18534.0, 18534.0, 18538.0, 18534.0, 18532.0, 18532.0, 18536.0, 18534.0, 18536.0, 18534.0, 18536.0, 18526.0, 18534.0, 18534.0, 18536.0, 18534.0, 18532.0, 18538.0, 18536.0, 18536.0, 18536.0, 18534.0, 18532.0, 18534.0, 18538.0, 18538.0, 18536.0, 18534.0, 18534.0, 18536.0, 18534.0, 18534.0, 18530.0, 18536.0, 18532.0, 18534.0, 18532.0, 18534.0, 18534.0, 18532.0, 18540.0, 18528.0, 18538.0, 18534.0, 18532.0, 18534.0, 18534.0, 18540.0, 18538.0, 18538.0, 18532.0, 18534.0, 18538.0, 18532.0, 18532.0, 18532.0, 18532.0, 18534.0, 18528.0, 18532.0, 18530.0, 18536.0, 18534.0, 18538.0, 18536.0, 18536.0, 18500.0, 18536.0, 18532.0, 18538.0, 18528.0, 18530.0, 18534.0, 18530.0, 18538.0, 18532.0, 18528.0, 18528.0, 18538.0, 18532.0, 18536.0, 18530.0, 18534.0, 18534.0, 18532.0, 18504.0, 18536.0, 18532.0, 18534.0, 18532.0, 18536.0, 18534.0, 18532.0, 18532.0, 18534.0, 18534.0, 18532.0, 18540.0, 18534.0, 18534.0, 18534.0]
    },
    "slices": {}
  }
}