{
  "AcquisitionMatrixPE": 104,
  "AcquisitionNumber": 1,
  "AcquisitionTime": "13:58:59.880000",
  "BandwidthPerPixelPhaseEncode": 17.17,
  "BaseResolution": 104,
  "BodyPartExamined": "BRAIN",
  "CoilCombinationMethod": "Sum of Squares",
  "ConsistencyInfo": "N4_VE11C_LATEST_20160120",
  "ConversionSoftware": "dcm2niix",
  "ConversionSoftwareVersion": "v1.0.20211006",
  "DerivedVendorReportedEchoSpacing": 0.000560011,
  "DeviceSerialNumber": "167006",
  "DwellTime": 2.1e-06,
  "EchoTime": 0.037,
  "EchoTime1": 0.037,
  "EchoTime2": 0.001,
  "EchoTrainLength": 104,
  "EffectiveEchoSpacing": 0.000560011,
  "FlipAngle": 52,
  "HeudiconvVersion": "0.10.0",
  "ImageComments": "Unaliased MB4/PE3/LB",
  "ImageOrientationPatientDICOM": [0.99902, 0.0258759, 0.0358962, -0.0165658, 0.970916, -0.238846],
  "ImageOrientationText": "Tra>Cor(-13.8)>Sag(2.4)",
  "ImageType": [
    "ORIGINAL",
    "PRIMARY",
    "P",
    "MB",
    "ND",
    "MOSAIC",
    "PHASE"
],
  "ImagingFrequency": 123.259,
  "InPlanePhaseEncodingDirectionDICOM": "COL",
  "InstitutionAddress": "Chemin Queen-Mary 4565,Montreal,District,CA,H3W 1W5",
  "InstitutionName": "IUGM",
  "InstitutionalDepartmentName": "Department",
  "MRAcquisitionType": "2D",
  "MagneticFieldStrength": 3,
  "Manufacturer": "Siemens",
  "ManufacturersModelName": "Prisma_fit",
  "MatrixCoilMode": "SENSE",
  "Modality": "MR",
  "MultibandAccelerationFactor": 4,
  "PartialFourier": 1,
  "PatientPosition": "HFS",
  "PercentPhaseFOV": 100,
  "PercentSampling": 100,
  "PhaseEncodingDirection": "j",
  "PhaseEncodingSteps": 104,
  "PhaseResolution": 1,
  "PixelBandwidth": 2290,
  "ProcedureStepDescription": "memory^things",
  "ProtocolName": "func_task-things_run-5",
  "PulseSequenceDetails": "%CustomerSeq%\\cmrr_mbep2d_bold",
  "ReceiveCoilActiveElements": "HC1-7;NC1,2",
  "ReceiveCoilName": "HeadNeck_64",
  "ReconMatrixPE": 104,
  "RepetitionTime": 1.49,
  "SAR": 0.0546721,
  "ScanOptions": "FS",
  "ScanningSequence": "EP",
  "SequenceName": "epfid2d1_104",
  "SequenceVariant": "SK\\SS",
  "SeriesDescription": "func_task-things_run-5",
  "SeriesNumber": 23,
  "ShimSetting": [644, -7201, -8755, 715, 47, 18, 55, -14],
  "SliceThickness": 2,
  "SliceTiming": [0, 0.785, 0.1, 0.8825, 0.1975, 0.98, 0.295, 1.0775, 0.3925, 1.1775, 0.49, 1.275, 0.5875, 1.3725, 0.6875, 0, 0.785, 0.1, 0.8825, 0.1975, 0.98, 0.295, 1.0775, 0.3925, 1.1775, 0.49, 1.275, 0.5875, 1.3725, 0.6875, 0, 0.785, 0.1, 0.8825, 0.1975, 0.98, 0.295, 1.0775, 0.3925, 1.1775, 0.49, 1.275, 0.5875, 1.3725, 0.6875, 0, 0.785, 0.1, 0.8825, 0.1975, 0.98, 0.295, 1.0775, 0.3925, 1.1775, 0.49, 1.275, 0.5875, 1.3725, 0.6875],
  "SoftwareVersions": "syngo MR E11",
  "SpacingBetweenSlices": 2,
  "StationName": "MRC35049",
  "TaskName": "things",
  "TotalReadoutTime": 0.0576811,
  "TxRefAmp": 247.989,
  "WipMemBlock": "5256cd9d-6d75-4ffd-8a6f-03ef8f17e256||Sequence: R016 ve11c/master r/e634e98; Dec 19 2017 11:00:25 by eja",
  "dcmmeta_affine": [
    [-1.9980409145355225, -0.03313169255852699, 0.08206510543823242, 108.16019439697266],
    [-0.05175172537565231, 1.941832184791565, -0.4760352075099945, -72.44805908203125],
    [0.07179240137338638, 0.4776924252510071, 1.940787434577942, -54.73879623413086],
    [0.0, 0.0, 0.0, 1.0]
],
  "dcmmeta_reorient_transform": [
    [0.0, -1.0, 0.0, 103.0],
    [1.0, 0.0, 0.0, 0.0],
    [0.0, 0.0, 1.0, 0.0],
    [0.0, 0.0, 0.0, 1.0]
],
  "dcmmeta_shape": [104, 104, 60, 190],
  "dcmmeta_slice_dim": 2,
  "dcmmeta_version": 0.6,
  "global": {
    "const": {
      "AcquisitionMatrix": [104, 0, 0, 104],
      "AngioFlag": "N",
      "BitsAllocated": 16,
      "BitsStored": 16,
      "BodyPartExamined": "BRAIN",
      "Columns": 832,
      "EchoNumbers": 1,
      "EchoTime": 37.0,
      "EchoTrainLength": 104,
      "FlipAngle": 52.0,
      "HighBit": 15,
      "ImageOrientationPatient": [0.99902047148327, 0.025875862054, 0.0358962020319, -0.0165658458543, 0.97091609379609, -0.2388462090109],
      "ImagePositionPatient": [-819.97459807166, -853.22519819134, 142.21112959191],
      "ImageType": [
        "ORIGINAL",
        "PRIMARY",
        "P",
        "MB",
        "ND",
        "MOSAIC"
],
      "ImagedNucleus": "1H",
      "ImagingFrequency": 123.258859,
      "InPlanePhaseEncodingDirection": "COL",
      "LargestImagePixelValue": 4095,
      "MRAcquisitionType": "2D",
      "MagneticFieldStrength": 3.0,
      "Manufacturer": "SIEMENS",
      "ManufacturerModelName": "Prisma_fit",
      "Modality": "MR",
      "NumberOfAverages": 1.0,
      "NumberOfPhaseEncodingSteps": 104,
      "PercentPhaseFieldOfView": 100.0,
      "PercentSampling": 100.0,
      "PerformedProcedureStepStartTime": "130451.768000",
      "PhotometricInterpretation": "MONOCHROME2",
      "PixelBandwidth": 2290.0,
      "PixelRepresentation": 0,
      "PixelSpacing": [2.0, 2.0],
      "ProtocolName": "func_task-things_run-5",
      "RepetitionTime": 1490.0,
      "RescaleIntercept": -4096.0,
      "RescaleSlope": 2.0,
      "RescaleType": "US",
      "Rows": 832,
      "SAR": 0.05467206218221,
      "SamplesPerPixel": 1,
      "ScanOptions": "FS",
      "ScanningSequence": "EP",
      "SequenceName": "epfid2d1_104",
      "SequenceVariant": [
        "SK",
        "SS"
],
      "SeriesDescription": "func_task-things_run-5",
      "SeriesNumber": 23,
      "SeriesTime": "140024.760000",
      "SliceLocation": -31.436179381271,
      "SliceThickness": 2.0,
      "SmallestImagePixelValue": 0,
      "SoftwareVersions": "syngo MR E11",
      "SpacingBetweenSlices": 2.0000000097028,
      "SpecificCharacterSet": "ISO_IR 100",
      "StudyID": "1",
      "StudyTime": "130451.640000",
      "TransmitCoilName": "Body",
      "VariableFlipAngleFlag": "N",
      "WindowCenterWidthExplanation": "Algo1",
      "dBdt": 0.0},
    "slices": {}
  },
  "time": {
    "samples": {
      "AcquisitionNumber": [1, 2, 3, 4, 5, 6, 7, 8, 9, 10, 11, 12, 13, 14, 15, 16, 17, 18, 19, 20, 21, 22, 23, 24, 25, 26, 27, 28, 29, 30, 31, 32, 33, 34, 35, 36, 37, 38, 39, 40, 41, 42, 43, 44, 45, 46, 47, 48, 49, 50, 51, 52, 53, 54, 55, 56, 57, 58, 59, 60, 61, 62, 63, 64, 65, 66, 67, 68, 69, 70, 71, 72, 73, 74, 75, 76, 77, 78, 79, 80, 81, 82, 83, 84, 85, 86, 87, 88, 89, 90, 91, 92, 93, 94, 95, 96, 97, 98, 99, 100, 101, 102, 103, 104, 105, 106, 107, 108, 109, 110, 111, 112, 113, 114, 115, 116, 117, 118, 119, 120, 121, 122, 123, 124, 125, 126, 127, 128, 129, 130, 131, 132, 133, 134, 135, 136, 137, 138, 139, 140, 141, 142, 143, 144, 145, 146, 147, 148, 149, 150, 151, 152, 153, 154, 155, 156, 157, 158, 159, 160, 161, 162, 163, 164, 165, 166, 167, 168, 169, 170, 171, 172, 173, 174, 175, 176, 177, 178, 179, 180, 181, 182, 183, 184, 185, 186, 187, 188, 189, 190],
      "AcquisitionTime": ["135859.880000", "135901.370000", "135902.860000", "135904.350000", "135905.840000", "135907.330000", "135908.820000", "135910.310000", "135911.800000", "135913.290000", "135914.780000", "135916.270000", "135917.760000", "135919.250000", "135920.740000", "135922.230000", "135923.720000", "135925.210000", "135926.700000", "135928.190000", "135929.680000", "135931.170000", "135932.660000", "135934.150000", "135935.640000", "135937.130000", "135938.620000", "135940.110000", "135941.600000", "135943.090000", "135944.580000", "135946.070000", "135947.560000", "135949.050000", "135950.540000", "135952.030000", "135953.520000", "135955.010000", "135956.500000", "135957.990000", "135959.480000", "140000.970000", "140002.460000", "140003.950000", "140005.440000", "140006.930000", "140008.420000", "140009.910000", "140011.400000", "140012.890000", "140014.380000", "140015.870000", "140017.360000", "140018.850000", "140020.340000", "140021.830000", "140023.320000", "140024.810000", "140026.300000", "140027.790000", "140029.280000", "140030.770000", "140032.260000", "140033.750000", "140035.240000", "140036.730000", "140038.220000", "140039.710000", "140041.200000", "140042.690000", "140044.180000", "140045.670000", "140047.160000", "140048.650000", "140050.140000", "140051.630000", "140053.120000", "140054.610000", "140056.100000", "140057.590000", "140059.080000", "140100.570000", "140102.060000", "140103.550000", "140105.040000", "140106.530000", "140108.020000", "140109.510000", "140111.000000", "140112.490000", "140113.980000", "140115.470000", "140116.960000", "140118.450000", "140119.940000", "140121.430000", "140122.920000", "140124.410000", "140125.900000", "140127.390000", "140128.880000", "140130.370000", "140131.860000", "140133.350000", "140134.840000", "140136.330000", "140137.820000", "140139.310000", "140140.800000", "140142.290000", "140143.780000", "140145.270000", "140146.760000", "140148.250000", "140149.740000", "140151.230000", "140152.720000", "140154.210000", "140155.700000", "140157.190000", "140158.680000", "140200.170000", "140201.660000", "140203.150000", "140204.640000", "140206.130000", "140207.620000", "140209.110000", "140210.600000", "140212.090000", "140213.580000", "140215.070000", "140216.560000", "140218.050000", "140219.540000", "140221.030000", "140222.520000", "140224.010000", "140225.500000", "140226.990000", "140228.480000", "140229.970000", "140231.460000", "140232.950000", "140234.440000", "140235.930000", "140237.420000", "140238.910000", "140240.400000", "140241.890000", "140243.380000", "140244.870000", "140246.360000", "140247.850000", "140249.340000", "140250.830000", "140252.320000", "140253.810000", "140255.300000", "140256.790000", "140258.280000", "140259.770000", "140301.260000", "140302.750000", "140304.240000", "140305.730000", "140307.220000", "140308.710000", "140310.200000", "140311.690000", "140313.180000", "140314.670000", "140316.160000", "140317.650000", "140319.140000", "140320.630000", "140322.120000", "140323.610000", "140325.100000", "140326.590000", "140328.080000", "140329.570000", "140331.060000", "140332.550000", "140334.040000", "140335.530000", "140337.020000", "140338.510000", "140340.000000", "140341.490000"],
      "ContentTime": ["140024.762000", "140024.765000", "140024.768000", "140024.770000", "140024.773000", "140024.775000", "140024.778000", "140024.780000", "140024.783000", "140024.785000", "140024.787000", "140024.790000", "140024.792000", "140024.795000", "140024.797000", "140024.800000", "140024.802000", "140024.805000", "140024.807000", "140024.809000", "140024.812000", "140024.814000", "140024.817000", "140024.819000", "140024.822000", "140024.824000", "140024.827000", "140024.829000", "140024.832000", "140024.834000", "140024.837000", "140044.691000", "140044.694000", "140044.696000", "140044.698000", "140044.701000", "140044.703000", "140044.706000", "140044.708000", "140044.711000", "140044.713000", "140044.716000", "140044.718000", "140044.721000", "140044.723000", "140044.725000", "140044.728000", "140044.730000", "140044.733000", "140044.735000", "140044.738000", "140104.678000", "140104.681000", "140104.684000", "140104.686000", "140104.689000", "140104.691000", "140104.693000", "140104.696000", "140104.698000", "140104.701000", "140104.703000", "140104.706000", "140104.708000", "140104.711000", "140104.713000", "140104.716000", "140104.718000", "140104.721000", "140104.723000", "140104.726000", "140124.677000", "140124.680000", "140124.683000", "140124.685000", "140124.688000", "140124.690000", "140124.693000", "140124.695000", "140124.698000", "140124.701000", "140124.704000", "140124.706000", "140124.709000", "140124.711000", "140124.714000", "140124.716000", "140124.719000", "140124.721000", "140124.724000", "140124.726000", "140204.731000", "140204.734000", "140204.737000", "140204.739000", "140204.742000", "140204.744000", "140204.747000", "140204.749000", "140204.752000", "140204.754000", "140204.757000", "140204.759000", "140204.762000", "140204.764000", "140204.767000", "140204.769000", "140204.772000", "140204.774000", "140204.776000", "140204.779000", "140204.781000", "140204.784000", "140204.786000", "140204.789000", "140204.791000", "140204.794000", "140204.796000", "140204.799000", "140204.801000", "140204.804000", "140204.815000", "140204.817000", "140244.710000", "140244.713000", "140244.715000", "140244.718000", "140244.720000", "140244.723000", "140244.726000", "140244.728000", "140244.731000", "140244.733000", "140244.736000", "140244.738000", "140244.741000", "140244.743000", "140244.746000", "140244.749000", "140244.751000", "140244.754000", "140244.756000", "140244.758000", "140244.761000", "140244.763000", "140244.766000", "140244.768000", "140244.771000", "140244.773000", "140244.776000", "140324.700000", "140324.703000", "140324.705000", "140324.708000", "140324.711000", "140324.713000", "140324.716000", "140324.718000", "140324.721000", "140324.723000", "140324.726000", "140324.728000", "140324.731000", "140324.733000", "140324.736000", "140324.738000", "140324.741000", "140324.743000", "140324.746000", "140324.748000", "140324.751000", "140324.753000", "140324.756000", "140324.758000", "140324.761000", "140324.763000", "140324.766000", "140343.563000", "140343.566000", "140343.569000", "140343.571000", "140343.574000", "140343.576000", "140343.579000", "140343.582000", "140343.584000", "140343.586000", "140343.589000", "140343.591000", "140343.594000"],
      "InstanceCreationTime": ["140024.762000", "140024.765000", "140024.768000", "140024.770000", "140024.773000", "140024.775000", "140024.778000", "140024.780000", "140024.783000", "140024.785000", "140024.787000", "140024.790000", "140024.792000", "140024.795000", "140024.797000", "140024.800000", "140024.802000", "140024.805000", "140024.807000", "140024.809000", "140024.812000", "140024.814000", "140024.817000", "140024.819000", "140024.822000", "140024.824000", "140024.827000", "140024.829000", "140024.832000", "140024.834000", "140024.837000", "140044.691000", "140044.694000", "140044.696000", "140044.698000", "140044.701000", "140044.703000", "140044.706000", "140044.708000", "140044.711000", "140044.713000", "140044.716000", "140044.718000", "140044.721000", "140044.723000", "140044.725000", "140044.728000", "140044.730000", "140044.733000", "140044.735000", "140044.738000", "140104.678000", "140104.681000", "140104.684000", "140104.686000", "140104.689000", "140104.691000", "140104.693000", "140104.696000", "140104.698000", "140104.701000", "140104.703000", "140104.706000", "140104.708000", "140104.711000", "140104.713000", "140104.716000", "140104.718000", "140104.721000", "140104.723000", "140104.726000", "140124.677000", "140124.680000", "140124.683000", "140124.685000", "140124.688000", "140124.690000", "140124.693000", "140124.695000", "140124.698000", "140124.701000", "140124.704000", "140124.706000", "140124.709000", "140124.711000", "140124.714000", "140124.716000", "140124.719000", "140124.721000", "140124.724000", "140124.726000", "140204.731000", "140204.734000", "140204.737000", "140204.739000", "140204.742000", "140204.744000", "140204.747000", "140204.749000", "140204.752000", "140204.754000", "140204.757000", "140204.759000", "140204.762000", "140204.764000", "140204.767000", "140204.769000", "140204.772000", "140204.774000", "140204.776000", "140204.779000", "140204.781000", "140204.784000", "140204.786000", "140204.789000", "140204.791000", "140204.794000", "140204.796000", "140204.799000", "140204.801000", "140204.804000", "140204.815000", "140204.817000", "140244.710000", "140244.713000", "140244.715000", "140244.718000", "140244.720000", "140244.723000", "140244.726000", "140244.728000", "140244.731000", "140244.733000", "140244.736000", "140244.738000", "140244.741000", "140244.743000", "140244.746000", "140244.749000", "140244.751000", "140244.754000", "140244.756000", "140244.758000", "140244.761000", "140244.763000", "140244.766000", "140244.768000", "140244.771000", "140244.773000", "140244.776000", "140324.700000", "140324.703000", "140324.705000", "140324.708000", "140324.711000", "140324.713000", "140324.716000", "140324.718000", "140324.721000", "140324.723000", "140324.726000", "140324.728000", "140324.731000", "140324.733000", "140324.736000", "140324.738000", "140324.741000", "140324.743000", "140324.746000", "140324.748000", "140324.751000", "140324.753000", "140324.756000", "140324.758000", "140324.761000", "140324.763000", "140324.766000", "140343.563000", "140343.566000", "140343.569000", "140343.571000", "140343.574000", "140343.576000", "140343.579000", "140343.582000", "140343.584000", "140343.586000", "140343.589000", "140343.591000", "140343.594000"],
      "InstanceNumber": [1, 2, 3, 4, 5, 6, 7, 8, 9, 10, 11, 12, 13, 14, 15, 16, 17, 18, 19, 20, 21, 22, 23, 24, 25, 26, 27, 28, 29, 30, 31, 32, 33, 34, 35, 36, 37, 38, 39, 40, 41, 42, 43, 44, 45, 46, 47, 48, 49, 50, 51, 52, 53, 54, 55, 56, 57, 58, 59, 60, 61, 62, 63, 64, 65, 66, 67, 68, 69, 70, 71, 72, 73, 74, 75, 76, 77, 78, 79, 80, 81, 82, 83, 84, 85, 86, 87, 88, 89, 90, 91, 92, 93, 94, 95, 96, 97, 98, 99, 100, 101, 102, 103, 104, 105, 106, 107, 108, 109, 110, 111, 112, 113, 114, 115, 116, 117, 118, 119, 120, 121, 122, 123, 124, 125, 126, 127, 128, 129, 130, 131, 132, 133, 134, 135, 136, 137, 138, 139, 140, 141, 142, 143, 144, 145, 146, 147, 148, 149, 150, 151, 152, 153, 154, 155, 156, 157, 158, 159, 160, 161, 162, 163, 164, 165, 166, 167, 168, 169, 170, 171, 172, 173, 174, 175, 176, 177, 178, 179, 180, 181, 182, 183, 184, 185, 186, 187, 188, 189, 190],
      "WindowCenter": [4744.0, 4744.0, 4748.0, 4744.0, 4746.0, 4744.0, 4746.0, 4750.0, 4750.0, 4748.0, 4748.0, 4746.0, 4748.0, 4746.0, 4748.0, 4746.0, 4746.0, 4744.0, 4748.0, 4746.0, 4752.0, 4746.0, 4748.0, 4750.0, 4752.0, 4750.0, 4748.0, 4744.0, 4750.0, 4742.0, 4748.0, 4748.0, 4748.0, 4750.0, 4752.0, 4750.0, 4746.0, 4748.0, 4746.0, 4744.0, 4748.0, 4746.0, 4746.0, 4746.0, 4748.0, 4746.0, 4746.0, 4750.0, 4748.0, 4746.0, 4746.0, 4748.0, 4748.0, 4746.0, 4744.0, 4746.0, 4748.0, 4748.0, 4746.0, 4748.0, 4748.0, 4744.0, 4752.0, 4746.0, 4748.0, 4746.0, 4748.0, 4744.0, 4748.0, 4746.0, 4750.0, 4748.0, 4752.0, 4744.0, 4746.0, 4748.0, 4750.0, 4750.0, 4752.0, 4752.0, 4748.0, 4748.0, 4750.0, 4746.0, 4748.0, 4750.0, 4748.0, 4744.0, 4748.0, 4750.0, 4748.0, 4748.0, 4746.0, 4744.0, 4748.0, 4748.0, 4748.0, 4750.0, 4748.0, 4746.0, 4744.0, 4748.0, 4748.0, 4748.0, 4748.0, 4750.0, 4748.0, 4748.0, 4748.0, 4746.0, 4746.0, 4746.0, 4748.0, 4748.0, 4748.0, 4750.0, 4748.0, 4750.0, 4746.0, 4746.0, 4748.0, 4748.0, 4746.0, 4748.0, 4746.0, 4748.0, 4750.0, 4750.0, 4750.0, 4724.0, 4746.0, 4752.0, 4746.0, 4750.0, 4748.0, 4750.0, 4746.0, 4748.0, 4750.0, 4752.0, 4752.0, 4752.0, 4748.0, 4744.0, 4746.0, 4750.0, 4750.0, 4748.0, 4750.0, 4750.0, 4748.0, 4752.0, 4746.0, 4748.0, 4744.0, 4750.0, 4746.0, 4750.0, 4748.0, 4722.0, 4750.0, 4748.0, 4750.0, 4750.0, 4748.0, 4748.0, 4750.0, 4748.0, 4746.0, 4744.0, 4748.0, 4748.0, 4750.0, 4748.0, 4748.0, 4750.0, 4752.0, 4750.0, 4746.0, 4748.0, 4746.0, 4748.0, 4746.0, 4748.0, 4748.0, 4746.0, 4748.0, 4748.0, 4748.0, 4748.0],
      "WindowWidth": [18536.0, 18536.0, 18538.0, 18538.0, 18536.0, 18536.0, 18540.0, 18542.0, 18542.0, 18536.0, 18538.0, 18532.0, 18542.0, 18534.0, 18538.0, 18538.0, 18536.0, 18538.0, 18542.0, 18538.0, 18538.0, 18534.0, 18536.0, 18538.0, 18538.0, 18542.0, 18536.0, 18536.0, 18542.0, 18536.0, 18536.0, 18538.0, 18538.0, 18544.0, 18540.0, 18540.0, 18536.0, 18536.0, 18538.0, 18534.0, 18536.0, 18540.0, 18536.0, 18536.0, 18538.0, 18536.0, 18538.0, 18540.0, 18534.0, 18532.0, 18538.0, 18534.0, 18538.0, 18532.0, 18538.0, 18536.0, 18538.0, 18534.0, 18536.0, 18536.0, 18536.0, 18534.0, 18542.0, 18538.0, 18536.0, 18538.0, 18534.0, 18532.0, 18534.0, 18538.0, 18538.0, 18540.0, 18538.0, 18530.0, 18534.0, 18538.0, 18540.0, 18540.0, 18540.0, 18536.0, 18536.0, 18538.0, 18538.0, 18532.0, 18538.0, 18542.0, 18536.0, 18532.0, 18536.0, 18536.0, 18538.0, 18534.0, 18536.0, 18530.0, 18534.0, 18538.0, 18540.0, 18532.0, 18540.0, 18532.0, 18532.0, 18536.0, 18534.0, 18540.0, 18532.0, 18540.0, 18538.0, 18538.0, 18538.0, 18532.0, 18536.0, 18536.0, 18534.0, 18532.0, 18538.0, 18536.0, 18536.0, 18542.0, 18538.0, 18534.0, 18532.0, 18540.0, 18538.0, 18542.0, 18536.0, 18536.0, 18540.0, 18536.0, 18540.0, 18502.0, 18538.0, 18540.0, 18538.0, 18540.0, 18532.0, 18540.0, 18536.0, 18532.0, 18538.0, 18536.0, 18538.0, 18542.0, 18538.0, 18538.0, 18536.0, 18540.0, 18534.0, 18536.0, 18534.0, 18542.0, 18536.0, 18540.0, 18534.0, 18538.0, 18536.0, 18538.0, 18536.0, 18536.0, 18538.0, 18502.0, 18540.0, 18534.0, 18534.0, 18534.0, 18536.0, 18536.0, 18538.0, 18536.0, 18534.0, 18536.0, 18536.0, 18536.0, 18536.0, 18534.0, 18538.0, 18538.0, 18536.0, 18536.0, 18532.0, 18536.0, 18534.0, 18532.0, 18530.0, 18536.0, 18536.0, 18530.0, 18534.0, 18538.0, 18534.0, 18534.0]
    },
    "slices": {}
  }
}