{
  "AcquisitionMatrixPE": 104,
  "AcquisitionNumber": 1,
  "AcquisitionTime": "13:40:36.255000",
  "BandwidthPerPixelPhaseEncode": 17.17,
  "BaseResolution": 104,
  "BodyPartExamined": "BRAIN",
  "CoilCombinationMethod": "Sum of Squares",
  "ConsistencyInfo": "N4_VE11C_LATEST_20160120",
  "ConversionSoftware": "dcm2niix",
  "ConversionSoftwareVersion": "v1.0.20211006",
  "DerivedVendorReportedEchoSpacing": 0.000560011,
  "DeviceSerialNumber": "167006",
  "DwellTime": 2.1e-06,
  "EchoTime": 0.037,
  "EchoTime1": 0.037,
  "EchoTime2": 0.001,
  "EchoTrainLength": 104,
  "EffectiveEchoSpacing": 0.000560011,
  "FlipAngle": 52,
  "HeudiconvVersion": "0.10.0",
  "ImageComments": "Unaliased MB4/PE3/LB",
  "ImageOrientationPatientDICOM": [0.99902, 0.0258759, 0.0358962, -0.0165658, 0.970916, -0.238846],
  "ImageOrientationText": "Tra>Cor(-13.8)>Sag(2.4)",
  "ImageType": [
    "ORIGINAL",
    "PRIMARY",
    "P",
    "MB",
    "ND",
    "MOSAIC",
    "PHASE"
],
  "ImagingFrequency": 123.259,
  "InPlanePhaseEncodingDirectionDICOM": "COL",
  "InstitutionAddress": "Chemin Queen-Mary 4565,Montreal,District,CA,H3W 1W5",
  "InstitutionName": "IUGM",
  "InstitutionalDepartmentName": "Department",
  "MRAcquisitionType": "2D",
  "MagneticFieldStrength": 3,
  "Manufacturer": "Siemens",
  "ManufacturersModelName": "Prisma_fit",
  "MatrixCoilMode": "SENSE",
  "Modality": "MR",
  "MultibandAccelerationFactor": 4,
  "PartialFourier": 1,
  "PatientPosition": "HFS",
  "PercentPhaseFOV": 100,
  "PercentSampling": 100,
  "PhaseEncodingDirection": "j",
  "PhaseEncodingSteps": 104,
  "PhaseResolution": 1,
  "PixelBandwidth": 2290,
  "ProcedureStepDescription": "memory^things",
  "ProtocolName": "func_task-things_run-2",
  "PulseSequenceDetails": "%CustomerSeq%\\cmrr_mbep2d_bold",
  "ReceiveCoilActiveElements": "HC1-7;NC1,2",
  "ReceiveCoilName": "HeadNeck_64",
  "ReconMatrixPE": 104,
  "RepetitionTime": 1.49,
  "SAR": 0.0546721,
  "ScanOptions": "FS",
  "ScanningSequence": "EP",
  "SequenceName": "epfid2d1_104",
  "SequenceVariant": "SK\\SS",
  "SeriesDescription": "func_task-things_run-2",
  "SeriesNumber": 14,
  "ShimSetting": [644, -7201, -8755, 715, 47, 18, 55, -14],
  "SliceThickness": 2,
  "SliceTiming": [0, 0.7825, 0.0975, 0.88, 0.195, 0.9775, 0.2925, 1.0775, 0.39, 1.175, 0.4875, 1.2725, 0.5875, 1.37, 0.685, 0, 0.7825, 0.0975, 0.88, 0.195, 0.9775, 0.2925, 1.0775, 0.39, 1.175, 0.4875, 1.2725, 0.5875, 1.37, 0.685, 0, 0.7825, 0.0975, 0.88, 0.195, 0.9775, 0.2925, 1.0775, 0.39, 1.175, 0.4875, 1.2725, 0.5875, 1.37, 0.685, 0, 0.7825, 0.0975, 0.88, 0.195, 0.9775, 0.2925, 1.0775, 0.39, 1.175, 0.4875, 1.2725, 0.5875, 1.37, 0.685],
  "SoftwareVersions": "syngo MR E11",
  "SpacingBetweenSlices": 2,
  "StationName": "MRC35049",
  "TaskName": "things",
  "TotalReadoutTime": 0.0576811,
  "TxRefAmp": 247.989,
  "WipMemBlock": "a3fd611b-9141-4e3b-a4e3-74b23b439c48||Sequence: R016 ve11c/master r/e634e98; Dec 19 2017 11:00:25 by eja",
  "dcmmeta_affine": [
    [-1.9980409145355225, -0.03313169255852699, 0.08206510543823242, 108.16019439697266],
    [-0.05175172537565231, 1.941832184791565, -0.4760352075099945, -72.44805908203125],
    [0.07179240137338638, 0.4776924252510071, 1.940787434577942, -54.73879623413086],
    [0.0, 0.0, 0.0, 1.0]
],
  "dcmmeta_reorient_transform": [
    [0.0, -1.0, 0.0, 103.0],
    [1.0, 0.0, 0.0, 0.0],
    [0.0, 0.0, 1.0, 0.0],
    [0.0, 0.0, 0.0, 1.0]
],
  "dcmmeta_shape": [104, 104, 60, 190],
  "dcmmeta_slice_dim": 2,
  "dcmmeta_version": 0.6,
  "global": {
    "const": {
      "AcquisitionMatrix": [104, 0, 0, 104],
      "AngioFlag": "N",
      "BitsAllocated": 16,
      "BitsStored": 16,
      "BodyPartExamined": "BRAIN",
      "Columns": 832,
      "EchoNumbers": 1,
      "EchoTime": 37.0,
      "EchoTrainLength": 104,
      "FlipAngle": 52.0,
      "HighBit": 15,
      "ImageOrientationPatient": [0.99902047148327, 0.025875862054, 0.0358962020319, -0.0165658458543, 0.97091609379609, -0.2388462090109],
      "ImagePositionPatient": [-819.97459807166, -853.22519819134, 142.21112959191],
      "ImageType": [
        "ORIGINAL",
        "PRIMARY",
        "P",
        "MB",
        "ND",
        "MOSAIC"
],
      "ImagedNucleus": "1H",
      "ImagingFrequency": 123.25885,
      "InPlanePhaseEncodingDirection": "COL",
      "LargestImagePixelValue": 4095,
      "MRAcquisitionType": "2D",
      "MagneticFieldStrength": 3.0,
      "Manufacturer": "SIEMENS",
      "ManufacturerModelName": "Prisma_fit",
      "Modality": "MR",
      "NumberOfAverages": 1.0,
      "NumberOfPhaseEncodingSteps": 104,
      "PercentPhaseFieldOfView": 100.0,
      "PercentSampling": 100.0,
      "PerformedProcedureStepStartTime": "130451.768000",
      "PhotometricInterpretation": "MONOCHROME2",
      "PixelBandwidth": 2290.0,
      "PixelRepresentation": 0,
      "PixelSpacing": [2.0, 2.0],
      "ProtocolName": "func_task-things_run-2",
      "RepetitionTime": 1490.0,
      "RescaleIntercept": -4096.0,
      "RescaleSlope": 2.0,
      "RescaleType": "US",
      "Rows": 832,
      "SAR": 0.05467206218221,
      "SamplesPerPixel": 1,
      "ScanOptions": "FS",
      "ScanningSequence": "EP",
      "SequenceName": "epfid2d1_104",
      "SequenceVariant": [
        "SK",
        "SS"
],
      "SeriesDescription": "func_task-things_run-2",
      "SeriesNumber": 14,
      "SeriesTime": "134204.749000",
      "SliceLocation": -31.436179381271,
      "SliceThickness": 2.0,
      "SmallestImagePixelValue": 0,
      "SoftwareVersions": "syngo MR E11",
      "SpacingBetweenSlices": 2.0000000097028,
      "SpecificCharacterSet": "ISO_IR 100",
      "StudyID": "1",
      "StudyTime": "130451.640000",
      "TransmitCoilName": "Body",
      "VariableFlipAngleFlag": "N",
      "WindowCenterWidthExplanation": "Algo1",
      "dBdt": 0.0},
    "slices": {}
  },
  "time": {
    "samples": {
      "AcquisitionNumber": [1, 2, 3, 4, 5, 6, 7, 8, 9, 10, 11, 12, 13, 14, 15, 16, 17, 18, 19, 20, 21, 22, 23, 24, 25, 26, 27, 28, 29, 30, 31, 32, 33, 34, 35, 36, 37, 38, 39, 40, 41, 42, 43, 44, 45, 46, 47, 48, 49, 50, 51, 52, 53, 54, 55, 56, 57, 58, 59, 60, 61, 62, 63, 64, 65, 66, 67, 68, 69, 70, 71, 72, 73, 74, 75, 76, 77, 78, 79, 80, 81, 82, 83, 84, 85, 86, 87, 88, 89, 90, 91, 92, 93, 94, 95, 96, 97, 98, 99, 100, 101, 102, 103, 104, 105, 106, 107, 108, 109, 110, 111, 112, 113, 114, 115, 116, 117, 118, 119, 120, 121, 122, 123, 124, 125, 126, 127, 128, 129, 130, 131, 132, 133, 134, 135, 136, 137, 138, 139, 140, 141, 142, 143, 144, 145, 146, 147, 148, 149, 150, 151, 152, 153, 154, 155, 156, 157, 158, 159, 160, 161, 162, 163, 164, 165, 166, 167, 168, 169, 170, 171, 172, 173, 174, 175, 176, 177, 178, 179, 180, 181, 182, 183, 184, 185, 186, 187, 188, 189, 190],
      "AcquisitionTime": ["134036.255000", "134037.745000", "134039.235000", "134040.725000", "134042.215000", "134043.705000", "134045.195000", "134046.685000", "134048.175000", "134049.665000", "134051.155000", "134052.645000", "134054.135000", "134055.625000", "134057.115000", "134058.605000", "134100.095000", "134101.585000", "134103.075000", "134104.565000", "134106.055000", "134107.545000", "134109.035000", "134110.525000", "134112.015000", "134113.505000", "134114.995000", "134116.485000", "134117.975000", "134119.465000", "134120.955000", "134122.445000", "134123.935000", "134125.425000", "134126.915000", "134128.405000", "134129.895000", "134131.385000", "134132.875000", "134134.365000", "134135.855000", "134137.345000", "134138.835000", "134140.325000", "134141.815000", "134143.305000", "134144.795000", "134146.285000", "134147.775000", "134149.265000", "134150.755000", "134152.245000", "134153.735000", "134155.225000", "134156.715000", "134158.205000", "134159.695000", "134201.185000", "134202.675000", "134204.165000", "134205.655000", "134207.145000", "134208.635000", "134210.125000", "134211.615000", "134213.105000", "134214.595000", "134216.085000", "134217.575000", "134219.065000", "134220.555000", "134222.045000", "134223.535000", "134225.025000", "134226.515000", "134228.005000", "134229.495000", "134230.985000", "134232.475000", "134233.965000", "134235.455000", "134236.945000", "134238.435000", "134239.925000", "134241.415000", "134242.905000", "134244.395000", "134245.885000", "134247.375000", "134248.865000", "134250.355000", "134251.845000", "134253.335000", "134254.825000", "134256.315000", "134257.805000", "134259.295000", "134300.785000", "134302.275000", "134303.765000", "134305.255000", "134306.745000", "134308.235000", "134309.725000", "134311.215000", "134312.705000", "134314.195000", "134315.685000", "134317.175000", "134318.665000", "134320.155000", "134321.645000", "134323.135000", "134324.625000", "134326.115000", "134327.605000", "134329.095000", "134330.585000", "134332.075000", "134333.565000", "134335.055000", "134336.545000", "134338.035000", "134339.525000", "134341.015000", "134342.505000", "134343.995000", "134345.485000", "134346.975000", "134348.465000", "134349.955000", "134351.445000", "134352.935000", "134354.425000", "134355.915000", "134357.405000", "134358.895000", "134400.385000", "134401.875000", "134403.365000", "134404.855000", "134406.345000", "134407.835000", "134409.325000", "134410.815000", "134412.305000", "134413.795000", "134415.285000", "134416.775000", "134418.265000", "134419.755000", "134421.245000", "134422.735000", "134424.225000", "134425.715000", "134427.205000", "134428.695000", "134430.185000", "134431.675000", "134433.165000", "134434.655000", "134436.145000", "134437.635000", "134439.125000", "134440.615000", "134442.105000", "134443.595000", "134445.085000", "134446.575000", "134448.065000", "134449.555000", "134451.045000", "134452.535000", "134454.025000", "134455.515000", "134457.005000", "134458.495000", "134459.985000", "134501.475000", "134502.965000", "134504.455000", "134505.945000", "134507.435000", "134508.925000", "134510.415000", "134511.905000", "134513.395000", "134514.885000", "134516.375000", "134517.865000"],
      "ContentTime": ["134204.751000", "134204.754000", "134204.756000", "134204.758000", "134204.761000", "134204.763000", "134204.766000", "134204.768000", "134204.771000", "134204.773000", "134204.776000", "134204.778000", "134204.781000", "134204.789000", "134204.791000", "134204.794000", "134204.796000", "134204.807000", "134204.810000", "134204.812000", "134204.814000", "134204.817000", "134204.819000", "134204.822000", "134204.824000", "134204.827000", "134204.829000", "134204.832000", "134204.834000", "134204.836000", "134224.668000", "134224.671000", "134224.673000", "134224.676000", "134224.678000", "134224.681000", "134224.683000", "134224.686000", "134224.688000", "134224.691000", "134224.693000", "134224.696000", "134224.698000", "134224.701000", "134224.703000", "134224.706000", "134224.708000", "134224.711000", "134224.713000", "134224.716000", "134244.673000", "134244.676000", "134244.678000", "134244.681000", "134244.694000", "134244.697000", "134244.699000", "134244.702000", "134244.704000", "134244.707000", "134244.709000", "134244.712000", "134244.714000", "134244.717000", "134244.719000", "134244.722000", "134244.724000", "134244.727000", "134244.729000", "134244.732000", "134244.734000", "134304.678000", "134304.681000", "134304.683000", "134304.686000", "134304.688000", "134304.691000", "134304.693000", "134304.696000", "134304.699000", "134304.701000", "134304.704000", "134304.706000", "134304.709000", "134304.712000", "134304.714000", "134304.717000", "134304.719000", "134304.722000", "134304.724000", "134304.727000", "134325.201000", "134325.204000", "134325.207000", "134325.209000", "134325.211000", "134325.214000", "134325.216000", "134325.219000", "134325.221000", "134325.224000", "134325.226000", "134325.229000", "134325.231000", "134325.234000", "134325.236000", "134325.239000", "134325.241000", "134325.244000", "134325.246000", "134325.249000", "134404.731000", "134404.734000", "134404.736000", "134404.739000", "134404.741000", "134404.743000", "134404.746000", "134404.748000", "134404.751000", "134404.753000", "134404.756000", "134404.758000", "134404.761000", "134404.763000", "134404.765000", "134404.768000", "134404.770000", "134404.773000", "134404.775000", "134404.778000", "134404.780000", "134404.783000", "134404.785000", "134404.788000", "134404.790000", "134404.793000", "134404.795000", "134404.798000", "134444.693000", "134444.695000", "134444.698000", "134444.700000", "134444.703000", "134444.705000", "134444.708000", "134444.710000", "134444.713000", "134444.715000", "134444.718000", "134444.720000", "134444.723000", "134444.725000", "134444.728000", "134444.730000", "134444.733000", "134444.735000", "134444.737000", "134444.740000", "134444.742000", "134444.745000", "134444.747000", "134444.750000", "134444.752000", "134444.755000", "134444.757000", "134520.269000", "134520.272000", "134520.275000", "134520.277000", "134520.280000", "134520.282000", "134520.285000", "134520.287000", "134520.290000", "134520.292000", "134520.295000", "134520.297000", "134520.300000", "134520.302000", "134520.305000", "134520.308000", "134520.310000", "134520.313000", "134520.315000", "134520.318000", "134520.320000", "134520.323000", "134520.325000", "134520.328000"],
      "InstanceCreationTime": ["134204.751000", "134204.754000", "134204.756000", "134204.758000", "134204.761000", "134204.763000", "134204.766000", "134204.768000", "134204.771000", "134204.773000", "134204.776000", "134204.778000", "134204.781000", "134204.789000", "134204.791000", "134204.794000", "134204.796000", "134204.807000", "134204.810000", "134204.812000", "134204.814000", "134204.817000", "134204.819000", "134204.822000", "134204.824000", "134204.827000", "134204.829000", "134204.832000", "134204.834000", "134204.836000", "134224.668000", "134224.671000", "134224.673000", "134224.676000", "134224.678000", "134224.681000", "134224.683000", "134224.686000", "134224.688000", "134224.691000", "134224.693000", "134224.696000", "134224.698000", "134224.701000", "134224.703000", "134224.706000", "134224.708000", "134224.711000", "134224.713000", "134224.716000", "134244.673000", "134244.676000", "134244.678000", "134244.681000", "134244.694000", "134244.697000", "134244.699000", "134244.702000", "134244.704000", "134244.707000", "134244.709000", "134244.712000", "134244.714000", "134244.717000", "134244.719000", "134244.722000", "134244.724000", "134244.727000", "134244.729000", "134244.732000", "134244.734000", "134304.678000", "134304.681000", "134304.683000", "134304.686000", "134304.688000", "134304.691000", "134304.693000", "134304.696000", "134304.699000", "134304.701000", "134304.704000", "134304.706000", "134304.709000", "134304.712000", "134304.714000", "134304.717000", "134304.719000", "134304.722000", "134304.724000", "134304.727000", "134325.201000", "134325.204000", "134325.207000", "134325.209000", "134325.211000", "134325.214000", "134325.216000", "134325.219000", "134325.221000", "134325.224000", "134325.226000", "134325.229000", "134325.231000", "134325.234000", "134325.236000", "134325.239000", "134325.241000", "134325.244000", "134325.246000", "134325.249000", "134404.731000", "134404.734000", "134404.736000", "134404.739000", "134404.741000", "134404.743000", "134404.746000", "134404.748000", "134404.751000", "134404.753000", "134404.756000", "134404.758000", "134404.761000", "134404.763000", "134404.765000", "134404.768000", "134404.770000", "134404.773000", "134404.775000", "134404.778000", "134404.780000", "134404.783000", "134404.785000", "134404.788000", "134404.790000", "134404.793000", "134404.795000", "134404.798000", "134444.693000", "134444.695000", "134444.698000", "134444.700000", "134444.703000", "134444.705000", "134444.708000", "134444.710000", "134444.713000", "134444.715000", "134444.718000", "134444.720000", "134444.723000", "134444.725000", "134444.728000", "134444.730000", "134444.733000", "134444.735000", "134444.737000", "134444.740000", "134444.742000", "134444.745000", "134444.747000", "134444.750000", "134444.752000", "134444.755000", "134444.757000", "134520.269000", "134520.272000", "134520.275000", "134520.277000", "134520.280000", "134520.282000", "134520.285000", "134520.287000", "134520.290000", "134520.292000", "134520.295000", "134520.297000", "134520.300000", "134520.302000", "134520.305000", "134520.308000", "134520.310000", "134520.313000", "134520.315000", "134520.318000", "134520.320000", "134520.323000", "134520.325000", "134520.328000"],
      "InstanceNumber": [1, 2, 3, 4, 5, 6, 7, 8, 9, 10, 11, 12, 13, 14, 15, 16, 17, 18, 19, 20, 21, 22, 23, 24, 25, 26, 27, 28, 29, 30, 31, 32, 33, 34, 35, 36, 37, 38, 39, 40, 41, 42, 43, 44, 45, 46, 47, 48, 49, 50, 51, 52, 53, 54, 55, 56, 57, 58, 59, 60, 61, 62, 63, 64, 65, 66, 67, 68, 69, 70, 71, 72, 73, 74, 75, 76, 77, 78, 79, 80, 81, 82, 83, 84, 85, 86, 87, 88, 89, 90, 91, 92, 93, 94, 95, 96, 97, 98, 99, 100, 101, 102, 103, 104, 105, 106, 107, 108, 109, 110, 111, 112, 113, 114, 115, 116, 117, 118, 119, 120, 121, 122, 123, 124, 125, 126, 127, 128, 129, 130, 131, 132, 133, 134, 135, 136, 137, 138, 139, 140, 141, 142, 143, 144, 145, 146, 147, 148, 149, 150, 151, 152, 153, 154, 155, 156, 157, 158, 159, 160, 161, 162, 163, 164, 165, 166, 167, 168, 169, 170, 171, 172, 173, 174, 175, 176, 177, 178, 179, 180, 181, 182, 183, 184, 185, 186, 187, 188, 189, 190],
      "WindowCenter": [4754.0, 4756.0, 4756.0, 4754.0, 4752.0, 4758.0, 4756.0, 4754.0, 4754.0, 4754.0, 4758.0, 4756.0, 4752.0, 4752.0, 4756.0, 4754.0, 4754.0, 4752.0, 4752.0, 4754.0, 4754.0, 4756.0, 4754.0, 4754.0, 4754.0, 4758.0, 4756.0, 4756.0, 4754.0, 4756.0, 4754.0, 4758.0, 4754.0, 4754.0, 4754.0, 4756.0, 4756.0, 4758.0, 4748.0, 4758.0, 4754.0, 4754.0, 4752.0, 4756.0, 4756.0, 4754.0, 4754.0, 4754.0, 4754.0, 4752.0, 4756.0, 4754.0, 4754.0, 4758.0, 4756.0, 4756.0, 4756.0, 4756.0, 4754.0, 4756.0, 4756.0, 4754.0, 4752.0, 4756.0, 4754.0, 4758.0, 4756.0, 4756.0, 4758.0, 4758.0, 4756.0, 4756.0, 4760.0, 4756.0, 4754.0, 4754.0, 4754.0, 4752.0, 4758.0, 4756.0, 4752.0, 4754.0, 4752.0, 4754.0, 4754.0, 4754.0, 4754.0, 4756.0, 4754.0, 4756.0, 4760.0, 4756.0, 4758.0, 4756.0, 4756.0, 4756.0, 4758.0, 4754.0, 4756.0, 4756.0, 4756.0, 4756.0, 4754.0, 4754.0, 4754.0, 4754.0, 4754.0, 4758.0, 4756.0, 4754.0, 4754.0, 4754.0, 4756.0, 4756.0, 4756.0, 4758.0, 4756.0, 4754.0, 4758.0, 4756.0, 4758.0, 4754.0, 4758.0, 4754.0, 4754.0, 4756.0, 4758.0, 4756.0, 4762.0, 4754.0, 4762.0, 4756.0, 4758.0, 4758.0, 4756.0, 4756.0, 4758.0, 4756.0, 4754.0, 4754.0, 4756.0, 4754.0, 4756.0, 4752.0, 4758.0, 4758.0, 4730.0, 4754.0, 4756.0, 4756.0, 4758.0, 4754.0, 4758.0, 4756.0, 4756.0, 4752.0, 4756.0, 4760.0, 4756.0, 4758.0, 4754.0, 4756.0, 4754.0, 4756.0, 4756.0, 4756.0, 4754.0, 4756.0, 4756.0, 4758.0, 4752.0, 4760.0, 4754.0, 4756.0, 4758.0, 4732.0, 4756.0, 4756.0, 4756.0, 4758.0, 4754.0, 4758.0, 4762.0, 4754.0, 4758.0, 4732.0, 4754.0, 4730.0, 4754.0, 4754.0],
      "WindowWidth": [18528.0, 18534.0, 18528.0, 18534.0, 18528.0, 18536.0, 18532.0, 18530.0, 18534.0, 18536.0, 18538.0, 18530.0, 18532.0, 18530.0, 18534.0, 18530.0, 18532.0, 18532.0, 18530.0, 18532.0, 18530.0, 18534.0, 18528.0, 18530.0, 18526.0, 18534.0, 18528.0, 18532.0, 18532.0, 18530.0, 18530.0, 18526.0, 18532.0, 18528.0, 18532.0, 18530.0, 18532.0, 18528.0, 18528.0, 18532.0, 18534.0, 18528.0, 18528.0, 18532.0, 18530.0, 18528.0, 18532.0, 18532.0, 18532.0, 18530.0, 18530.0, 18532.0, 18530.0, 18534.0, 18530.0, 18528.0, 18530.0, 18534.0, 18532.0, 18530.0, 18534.0, 18528.0, 18528.0, 18534.0, 18526.0, 18530.0, 18528.0, 18528.0, 18536.0, 18534.0, 18528.0, 18532.0, 18536.0, 18534.0, 18528.0, 18534.0, 18526.0, 18532.0, 18528.0, 18532.0, 18520.0, 18528.0, 18524.0, 18528.0, 18526.0, 18526.0, 18526.0, 18530.0, 18526.0, 18532.0, 18534.0, 18526.0, 18532.0, 18522.0, 18530.0, 18528.0, 18532.0, 18526.0, 18528.0, 18532.0, 18534.0, 18530.0, 18528.0, 18530.0, 18532.0, 18528.0, 18530.0, 18528.0, 18530.0, 18526.0, 18532.0, 18532.0, 18528.0, 18526.0, 18528.0, 18530.0, 18530.0, 18532.0, 18530.0, 18530.0, 18528.0, 18526.0, 18530.0, 18530.0, 18530.0, 18530.0, 18534.0, 18530.0, 18532.0, 18528.0, 18538.0, 18524.0, 18534.0, 18534.0, 18530.0, 18532.0, 18534.0, 18532.0, 18528.0, 18526.0, 18524.0, 18528.0, 18530.0, 18526.0, 18532.0, 18534.0, 18492.0, 18528.0, 18526.0, 18530.0, 18532.0, 18526.0, 18530.0, 18530.0, 18528.0, 18530.0, 18528.0, 18534.0, 18532.0, 18532.0, 18530.0, 18528.0, 18528.0, 18530.0, 18530.0, 18528.0, 18528.0, 18522.0, 18534.0, 18530.0, 18530.0, 18530.0, 18528.0, 18534.0, 18530.0, 18494.0, 18532.0, 18530.0, 18528.0, 18528.0, 18526.0, 18526.0, 18536.0, 18528.0, 18530.0, 18500.0, 18526.0, 18502.0, 18532.0, 18534.0]
    },
    "slices": {}
  }
}