{
  "AcquisitionMatrixPE": 104,
  "AcquisitionNumber": 1,
  "AcquisitionTime": "13:52:42.845000",
  "BandwidthPerPixelPhaseEncode": 17.17,
  "BaseResolution": 104,
  "BodyPartExamined": "BRAIN",
  "CoilCombinationMethod": "Sum of Squares",
  "ConsistencyInfo": "N4_VE11C_LATEST_20160120",
  "ConversionSoftware": "dcm2niix",
  "ConversionSoftwareVersion": "v1.0.20211006",
  "DerivedVendorReportedEchoSpacing": 0.000560011,
  "DeviceSerialNumber": "167006",
  "DwellTime": 2.1e-06,
  "EchoTime": 0.037,
  "EchoTrainLength": 104,
  "EffectiveEchoSpacing": 0.000560011,
  "FlipAngle": 52,
  "HeudiconvVersion": "0.10.0",
  "ImageComments": "Unaliased MB4/PE3/LB",
  "ImageOrientationPatientDICOM": [0.99902, 0.0258759, 0.0358962, -0.0165658, 0.970916, -0.238846],
  "ImageOrientationText": "Tra>Cor(-13.8)>Sag(2.4)",
  "ImageType": [
    "ORIGINAL",
    "PRIMARY",
    "M",
    "MB",
    "ND",
    "MOSAIC"
],
  "ImagingFrequency": 123.259,
  "InPlanePhaseEncodingDirectionDICOM": "COL",
  "InstitutionAddress": "Chemin Queen-Mary 4565,Montreal,District,CA,H3W 1W5",
  "InstitutionName": "IUGM",
  "InstitutionalDepartmentName": "Department",
  "MRAcquisitionType": "2D",
  "MagneticFieldStrength": 3,
  "Manufacturer": "Siemens",
  "ManufacturersModelName": "Prisma_fit",
  "MatrixCoilMode": "SENSE",
  "Modality": "MR",
  "MultibandAccelerationFactor": 4,
  "PartialFourier": 1,
  "PatientPosition": "HFS",
  "PercentPhaseFOV": 100,
  "PercentSampling": 100,
  "PhaseEncodingDirection": "j",
  "PhaseEncodingSteps": 104,
  "PhaseResolution": 1,
  "PixelBandwidth": 2290,
  "ProcedureStepDescription": "memory^things",
  "ProtocolName": "func_task-things_run-4",
  "PulseSequenceDetails": "%CustomerSeq%\\cmrr_mbep2d_bold",
  "ReceiveCoilActiveElements": "HC1-7;NC1,2",
  "ReceiveCoilName": "HeadNeck_64",
  "ReconMatrixPE": 104,
  "RepetitionTime": 1.49,
  "SAR": 0.0546721,
  "ScanOptions": "FS",
  "ScanningSequence": "EP",
  "SequenceName": "epfid2d1_104",
  "SequenceVariant": "SK\\SS",
  "SeriesDescription": "func_task-things_run-4",
  "SeriesNumber": 19,
  "ShimSetting": [644, -7201, -8755, 715, 47, 18, 55, -14],
  "SliceThickness": 2,
  "SliceTiming": [0, 0.785, 0.0975, 0.8825, 0.195, 0.98, 0.295, 1.0775, 0.3925, 1.175, 0.49, 1.275, 0.5875, 1.3725, 0.685, 0, 0.785, 0.0975, 0.8825, 0.195, 0.98, 0.295, 1.0775, 0.3925, 1.175, 0.49, 1.275, 0.5875, 1.3725, 0.685, 0, 0.785, 0.0975, 0.8825, 0.195, 0.98, 0.295, 1.0775, 0.3925, 1.175, 0.49, 1.275, 0.5875, 1.3725, 0.685, 0, 0.785, 0.0975, 0.8825, 0.195, 0.98, 0.295, 1.0775, 0.3925, 1.175, 0.49, 1.275, 0.5875, 1.3725, 0.685],
  "SoftwareVersions": "syngo MR E11",
  "SpacingBetweenSlices": 2,
  "StationName": "MRC35049",
  "TaskName": "things",
  "TotalReadoutTime": 0.0576811,
  "TxRefAmp": 247.989,
  "WipMemBlock": "b091c39a-6dde-4e50-8f25-d74deb19da11||Sequence: R016 ve11c/master r/e634e98; Dec 19 2017 11:00:25 by eja",
  "dcmmeta_affine": [
    [-1.9980409145355225, -0.03313169255852699, 0.08206510543823242, 108.16019439697266],
    [-0.05175172537565231, 1.941832184791565, -0.4760352075099945, -72.44805908203125],
    [0.07179240137338638, 0.4776924252510071, 1.940787434577942, -54.73879623413086],
    [0.0, 0.0, 0.0, 1.0]
],
  "dcmmeta_reorient_transform": [
    [0.0, -1.0, 0.0, 103.0],
    [1.0, 0.0, 0.0, 0.0],
    [0.0, 0.0, 1.0, 0.0],
    [0.0, 0.0, 0.0, 1.0]
],
  "dcmmeta_shape": [104, 104, 60, 190],
  "dcmmeta_slice_dim": 2,
  "dcmmeta_version": 0.6,
  "global": {
    "const": {
      "AcquisitionMatrix": [104, 0, 0, 104],
      "AngioFlag": "N",
      "BitsAllocated": 16,
      "BitsStored": 16,
      "BodyPartExamined": "BRAIN",
      "Columns": 832,
      "EchoNumbers": 1,
      "EchoTime": 37.0,
      "EchoTrainLength": 104,
      "FlipAngle": 52.0,
      "HighBit": 15,
      "ImageOrientationPatient": [0.99902047148327, 0.025875862054, 0.0358962020319, -0.0165658458543, 0.97091609379609, -0.2388462090109],
      "ImagePositionPatient": [-819.97459807166, -853.22519819134, 142.21112959191],
      "ImageType": [
        "ORIGINAL",
        "PRIMARY",
        "M",
        "MB",
        "ND",
        "MOSAIC"
],
      "ImagedNucleus": "1H",
      "ImagingFrequency": 123.258857,
      "InPlanePhaseEncodingDirection": "COL",
      "MRAcquisitionType": "2D",
      "MagneticFieldStrength": 3.0,
      "Manufacturer": "SIEMENS",
      "ManufacturerModelName": "Prisma_fit",
      "Modality": "MR",
      "NumberOfAverages": 1.0,
      "NumberOfPhaseEncodingSteps": 104,
      "PercentPhaseFieldOfView": 100.0,
      "PercentSampling": 100.0,
      "PerformedProcedureStepStartTime": "130451.768000",
      "PhotometricInterpretation": "MONOCHROME2",
      "PixelBandwidth": 2290.0,
      "PixelRepresentation": 0,
      "PixelSpacing": [2.0, 2.0],
      "ProtocolName": "func_task-things_run-4",
      "RepetitionTime": 1490.0,
      "Rows": 832,
      "SAR": 0.05467206218221,
      "SamplesPerPixel": 1,
      "ScanOptions": "FS",
      "ScanningSequence": "EP",
      "SequenceName": "epfid2d1_104",
      "SequenceVariant": [
        "SK",
        "SS"
],
      "SeriesDescription": "func_task-things_run-4",
      "SeriesNumber": 19,
      "SeriesTime": "135353.138000",
      "SliceLocation": -31.436179381271,
      "SliceThickness": 2.0,
      "SmallestImagePixelValue": 0,
      "SoftwareVersions": "syngo MR E11",
      "SpacingBetweenSlices": 2.0000000097028,
      "SpecificCharacterSet": "ISO_IR 100",
      "StudyID": "1",
      "StudyTime": "130451.640000",
      "TransmitCoilName": "Body",
      "VariableFlipAngleFlag": "N",
      "WindowCenterWidthExplanation": "Algo1",
      "dBdt": 0.0},
    "slices": {}
  },
  "time": {
    "samples": {
      "AcquisitionNumber": [1, 2, 3, 4, 5, 6, 7, 8, 9, 10, 11, 12, 13, 14, 15, 16, 17, 18, 19, 20, 21, 22, 23, 24, 25, 26, 27, 28, 29, 30, 31, 32, 33, 34, 35, 36, 37, 38, 39, 40, 41, 42, 43, 44, 45, 46, 47, 48, 49, 50, 51, 52, 53, 54, 55, 56, 57, 58, 59, 60, 61, 62, 63, 64, 65, 66, 67, 68, 69, 70, 71, 72, 73, 74, 75, 76, 77, 78, 79, 80, 81, 82, 83, 84, 85, 86, 87, 88, 89, 90, 91, 92, 93, 94, 95, 96, 97, 98, 99, 100, 101, 102, 103, 104, 105, 106, 107, 108, 109, 110, 111, 112, 113, 114, 115, 116, 117, 118, 119, 120, 121, 122, 123, 124, 125, 126, 127, 128, 129, 130, 131, 132, 133, 134, 135, 136, 137, 138, 139, 140, 141, 142, 143, 144, 145, 146, 147, 148, 149, 150, 151, 152, 153, 154, 155, 156, 157, 158, 159, 160, 161, 162, 163, 164, 165, 166, 167, 168, 169, 170, 171, 172, 173, 174, 175, 176, 177, 178, 179, 180, 181, 182, 183, 184, 185, 186, 187, 188, 189, 190],
      "AcquisitionTime": ["135242.845000", "135244.335000", "135245.825000", "135247.315000", "135248.805000", "135250.295000", "135251.785000", "135253.275000", "135254.765000", "135256.255000", "135257.745000", "135259.235000", "135300.725000", "135302.215000", "135303.705000", "135305.195000", "135306.685000", "135308.175000", "135309.665000", "135311.155000", "135312.645000", "135314.135000", "135315.625000", "135317.115000", "135318.605000", "135320.095000", "135321.585000", "135323.075000", "135324.565000", "135326.055000", "135327.545000", "135329.035000", "135330.525000", "135332.015000", "135333.505000", "135334.995000", "135336.485000", "135337.975000", "135339.465000", "135340.955000", "135342.445000", "135343.935000", "135345.425000", "135346.915000", "135348.405000", "135349.895000", "135351.385000", "135352.875000", "135354.365000", "135355.855000", "135357.345000", "135358.835000", "135400.325000", "135401.815000", "135403.305000", "135404.795000", "135406.285000", "135407.775000", "135409.265000", "135410.755000", "135412.245000", "135413.735000", "135415.225000", "135416.715000", "135418.205000", "135419.695000", "135421.185000", "135422.675000", "135424.165000", "135425.655000", "135427.145000", "135428.635000", "135430.125000", "135431.615000", "135433.105000", "135434.595000", "135436.085000", "135437.575000", "135439.065000", "135440.555000", "135442.045000", "135443.535000", "135445.025000", "135446.515000", "135448.005000", "135449.495000", "135450.985000", "135452.475000", "135453.965000", "135455.455000", "135456.945000", "135458.435000", "135459.925000", "135501.415000", "135502.905000", "135504.395000", "135505.885000", "135507.375000", "135508.865000", "135510.355000", "135511.845000", "135513.335000", "135514.825000", "135516.315000", "135517.805000", "135519.295000", "135520.785000", "135522.275000", "135523.765000", "135525.255000", "135526.745000", "135528.235000", "135529.725000", "135531.215000", "135532.705000", "135534.195000", "135535.685000", "135537.175000", "135538.665000", "135540.155000", "135541.645000", "135543.135000", "135544.625000", "135546.115000", "135547.605000", "135549.095000", "135550.585000", "135552.075000", "135553.565000", "135555.055000", "135556.545000", "135558.035000", "135559.525000", "135601.015000", "135602.505000", "135603.995000", "135605.485000", "135606.975000", "135608.465000", "135609.955000", "135611.445000", "135612.935000", "135614.425000", "135615.915000", "135617.405000", "135618.895000", "135620.385000", "135621.875000", "135623.365000", "135624.855000", "135626.345000", "135627.835000", "135629.325000", "135630.815000", "135632.305000", "135633.795000", "135635.285000", "135636.775000", "135638.265000", "135639.755000", "135641.245000", "135642.735000", "135644.225000", "135645.715000", "135647.205000", "135648.695000", "135650.185000", "135651.675000", "135653.165000", "135654.655000", "135656.145000", "135657.635000", "135659.125000", "135700.615000", "135702.105000", "135703.595000", "135705.085000", "135706.575000", "135708.065000", "135709.555000", "135711.045000", "135712.535000", "135714.025000", "135715.515000", "135717.005000", "135718.495000", "135719.985000", "135721.475000", "135722.965000", "135724.455000"],
      "ContentTime": ["135353.141000", "135353.145000", "135353.148000", "135353.151000", "135353.154000", "135353.158000", "135353.161000", "135353.164000", "135353.167000", "135353.171000", "135353.174000", "135353.177000", "135353.180000", "135353.183000", "135353.187000", "135413.100000", "135413.104000", "135413.107000", "135413.110000", "135413.113000", "135413.117000", "135413.120000", "135413.134000", "135413.137000", "135413.140000", "135413.144000", "135413.162000", "135413.165000", "135413.168000", "135413.171000", "135413.174000", "135413.178000", "135413.181000", "135413.184000", "135413.187000", "135433.101000", "135433.105000", "135433.108000", "135433.111000", "135433.114000", "135433.118000", "135433.121000", "135433.124000", "135433.127000", "135433.130000", "135433.134000", "135433.137000", "135433.140000", "135433.143000", "135433.147000", "135433.150000", "135433.153000", "135433.156000", "135433.159000", "135433.163000", "135453.100000", "135453.104000", "135453.107000", "135453.110000", "135453.113000", "135453.117000", "135453.120000", "135453.123000", "135453.126000", "135453.130000", "135453.133000", "135453.136000", "135453.139000", "135453.143000", "135453.146000", "135453.149000", "135453.152000", "135453.156000", "135453.159000", "135453.162000", "135453.165000", "135513.100000", "135513.104000", "135513.107000", "135513.110000", "135513.113000", "135513.117000", "135513.120000", "135513.123000", "135513.126000", "135513.130000", "135513.133000", "135513.136000", "135513.139000", "135513.143000", "135513.146000", "135513.149000", "135513.153000", "135513.156000", "135513.159000", "135513.163000", "135553.100000", "135553.104000", "135553.107000", "135553.110000", "135553.114000", "135553.117000", "135553.120000", "135553.124000", "135553.127000", "135553.130000", "135553.133000", "135553.137000", "135553.140000", "135553.143000", "135553.146000", "135553.150000", "135553.153000", "135553.156000", "135553.160000", "135553.163000", "135553.166000", "135553.169000", "135553.173000", "135553.176000", "135553.179000", "135553.182000", "135553.186000", "135553.189000", "135553.192000", "135553.195000", "135553.199000", "135633.100000", "135633.104000", "135633.107000", "135633.110000", "135633.114000", "135633.117000", "135633.120000", "135633.124000", "135633.127000", "135633.130000", "135633.134000", "135633.137000", "135633.140000", "135633.143000", "135633.147000", "135633.150000", "135633.153000", "135633.156000", "135633.160000", "135633.163000", "135633.166000", "135633.169000", "135633.173000", "135633.176000", "135633.179000", "135633.183000", "135633.187000", "135713.100000", "135713.104000", "135713.107000", "135713.110000", "135713.114000", "135713.117000", "135713.120000", "135713.124000", "135713.127000", "135713.130000", "135713.133000", "135713.137000", "135713.140000", "135713.143000", "135713.146000", "135713.150000", "135713.153000", "135713.156000", "135713.159000", "135713.163000", "135713.166000", "135713.169000", "135713.172000", "135713.176000", "135713.179000", "135713.182000", "135713.185000", "135726.318000", "135726.322000", "135726.325000", "135726.328000", "135726.332000", "135726.335000", "135726.338000", "135726.342000", "135726.345000"],
      "InstanceCreationTime": ["135353.141000", "135353.145000", "135353.148000", "135353.151000", "135353.154000", "135353.158000", "135353.161000", "135353.164000", "135353.167000", "135353.171000", "135353.174000", "135353.177000", "135353.180000", "135353.183000", "135353.187000", "135413.100000", "135413.104000", "135413.107000", "135413.110000", "135413.113000", "135413.117000", "135413.120000", "135413.134000", "135413.137000", "135413.140000", "135413.144000", "135413.162000", "135413.165000", "135413.168000", "135413.171000", "135413.174000", "135413.178000", "135413.181000", "135413.184000", "135413.187000", "135433.101000", "135433.105000", "135433.108000", "135433.111000", "135433.114000", "135433.118000", "135433.121000", "135433.124000", "135433.127000", "135433.130000", "135433.134000", "135433.137000", "135433.140000", "135433.143000", "135433.147000", "135433.150000", "135433.153000", "135433.156000", "135433.159000", "135433.163000", "135453.100000", "135453.104000", "135453.107000", "135453.110000", "135453.113000", "135453.117000", "135453.120000", "135453.123000", "135453.126000", "135453.130000", "135453.133000", "135453.136000", "135453.139000", "135453.143000", "135453.146000", "135453.149000", "135453.152000", "135453.156000", "135453.159000", "135453.162000", "135453.165000", "135513.100000", "135513.104000", "135513.107000", "135513.110000", "135513.113000", "135513.117000", "135513.120000", "135513.123000", "135513.126000", "135513.130000", "135513.133000", "135513.136000", "135513.139000", "135513.143000", "135513.146000", "135513.149000", "135513.153000", "135513.156000", "135513.159000", "135513.163000", "135553.100000", "135553.104000", "135553.107000", "135553.110000", "135553.114000", "135553.117000", "135553.120000", "135553.124000", "135553.127000", "135553.130000", "135553.133000", "135553.137000", "135553.140000", "135553.143000", "135553.146000", "135553.150000", "135553.153000", "135553.156000", "135553.160000", "135553.163000", "135553.166000", "135553.169000", "135553.173000", "135553.176000", "135553.179000", "135553.182000", "135553.186000", "135553.189000", "135553.192000", "135553.195000", "135553.199000", "135633.100000", "135633.104000", "135633.107000", "135633.110000", "135633.114000", "135633.117000", "135633.120000", "135633.124000", "135633.127000", "135633.130000", "135633.134000", "135633.137000", "135633.140000", "135633.143000", "135633.147000", "135633.150000", "135633.153000", "135633.156000", "135633.160000", "135633.163000", "135633.166000", "135633.169000", "135633.173000", "135633.176000", "135633.179000", "135633.183000", "135633.187000", "135713.100000", "135713.104000", "135713.107000", "135713.110000", "135713.114000", "135713.117000", "135713.120000", "135713.124000", "135713.127000", "135713.130000", "135713.133000", "135713.137000", "135713.140000", "135713.143000", "135713.146000", "135713.150000", "135713.153000", "135713.156000", "135713.159000", "135713.163000", "135713.166000", "135713.169000", "135713.172000", "135713.176000", "135713.179000", "135713.182000", "135713.185000", "135726.318000", "135726.322000", "135726.325000", "135726.328000", "135726.332000", "135726.335000", "135726.338000", "135726.342000", "135726.345000"],
      "InstanceNumber": [1, 2, 3, 4, 5, 6, 7, 8, 9, 10, 11, 12, 13, 14, 15, 16, 17, 18, 19, 20, 21, 22, 23, 24, 25, 26, 27, 28, 29, 30, 31, 32, 33, 34, 35, 36, 37, 38, 39, 40, 41, 42, 43, 44, 45, 46, 47, 48, 49, 50, 51, 52, 53, 54, 55, 56, 57, 58, 59, 60, 61, 62, 63, 64, 65, 66, 67, 68, 69, 70, 71, 72, 73, 74, 75, 76, 77, 78, 79, 80, 81, 82, 83, 84, 85, 86, 87, 88, 89, 90, 91, 92, 93, 94, 95, 96, 97, 98, 99, 100, 101, 102, 103, 104, 105, 106, 107, 108, 109, 110, 111, 112, 113, 114, 115, 116, 117, 118, 119, 120, 121, 122, 123, 124, 125, 126, 127, 128, 129, 130, 131, 132, 133, 134, 135, 136, 137, 138, 139, 140, 141, 142, 143, 144, 145, 146, 147, 148, 149, 150, 151, 152, 153, 154, 155, 156, 157, 158, 159, 160, 161, 162, 163, 164, 165, 166, 167, 168, 169, 170, 171, 172, 173, 174, 175, 176, 177, 178, 179, 180, 181, 182, 183, 184, 185, 186, 187, 188, 189, 190],
      "LargestImagePixelValue": [42103, 40973, 39970, 40085, 39734, 39159, 39169, 39494, 39790, 39199, 39282, 39802, 39416, 39714, 38991, 39455, 39416, 39482, 39773, 39809, 39561, 39781, 39235, 39262, 39456, 39981, 39668, 39504, 39553, 39235, 39385, 39345, 39249, 39221, 39029, 39210, 39095, 39373, 39172, 39277, 39785, 39177, 39263, 39624, 38948, 39493, 39528, 39100, 39552, 39721, 39597, 39552, 39608, 39715, 39021, 39545, 39365, 39498, 39446, 39478, 39374, 39277, 38950, 39416, 39519, 39248, 39408, 39084, 39266, 39547, 39164, 39011, 39316, 39512, 39256, 39249, 39062, 39032, 39311, 39129, 39258, 39124, 39124, 38909, 39186, 38715, 39353, 39024, 39815, 39016, 39016, 38964, 39664, 38887, 39236, 39071, 39399, 38826, 38773, 38883, 38884, 39585, 39466, 38877, 38870, 38540, 38536, 39047, 38855, 38920, 38971, 39212, 39441, 38863, 39301, 39051, 39110, 39643, 38651, 39167, 38616, 38887, 38947, 39417, 38682, 39399, 38777, 38804, 38790, 39627, 38921, 38958, 39272, 39086, 38636, 38741, 38767, 38948, 39350, 38612, 39006, 39236, 38887, 38476, 39309, 38798, 39148, 39024, 39251, 38969, 38839, 38627, 38952, 38699, 39138, 38977, 39074, 39072, 39070, 38946, 38886, 38868, 39110, 38658, 39279, 38491, 38720, 38477, 38575, 38634, 38564, 38979, 38791, 39197, 38420, 38838, 38596, 38879, 38653, 38825, 39036, 38458, 38600, 38731, 39660, 38941, 39018, 39549, 39354, 39482],
      "WindowCenter": [10147.0, 10109.0, 10090.0, 10080.0, 10064.0, 10062.0, 10079.0, 10089.0, 10081.0, 10063.0, 10053.0, 10050.0, 10050.0, 10050.0, 10045.0, 10050.0, 10051.0, 10060.0, 10061.0, 10061.0, 10066.0, 10066.0, 10069.0, 10078.0, 10076.0, 10075.0, 10068.0, 10061.0, 10060.0, 10061.0, 10052.0, 10051.0, 10051.0, 10051.0, 10046.0, 10058.0, 10054.0, 10061.0, 10052.0, 10045.0, 10058.0, 10062.0, 10061.0, 10060.0, 10061.0, 10053.0, 10059.0, 10055.0, 10077.0, 10085.0, 10071.0, 10052.0, 10036.0, 10033.0, 10037.0, 10051.0, 10053.0, 10046.0, 10045.0, 10051.0, 10054.0, 10055.0, 10048.0, 10051.0, 10061.0, 10071.0, 10072.0, 10071.0, 10065.0, 10061.0, 10047.0, 10046.0, 10062.0, 10072.0, 10067.0, 10050.0, 10047.0, 10048.0, 10069.0, 10080.0, 10081.0, 10068.0, 10058.0, 10057.0, 10056.0, 10057.0, 10062.0, 10064.0, 10077.0, 10075.0, 10068.0, 10059.0, 10062.0, 10079.0, 10100.0, 10092.0, 10083.0, 10060.0, 10042.0, 10023.0, 10014.0, 10033.0, 10059.0, 10066.0, 10056.0, 10033.0, 10015.0, 10025.0, 10027.0, 10038.0, 10051.0, 10046.0, 10052.0, 10053.0, 10054.0, 10040.0, 10045.0, 10059.0, 10064.0, 10059.0, 10048.0, 10033.0, 10038.0, 10052.0, 10058.0, 10057.0, 10041.0, 10041.0, 10046.0, 10043.0, 10029.0, 10037.0, 10044.0, 10055.0, 10058.0, 10051.0, 10034.0, 10037.0, 10046.0, 10050.0, 10056.0, 10055.0, 10047.0, 10048.0, 10057.0, 10056.0, 10050.0, 10047.0, 10038.0, 10039.0, 10047.0, 10055.0, 10055.0, 10041.0, 10045.0, 10040.0, 10038.0, 10045.0, 10054.0, 10055.0, 10040.0, 10023.0, 10019.0, 10026.0, 10052.0, 10050.0, 10049.0, 10033.0, 10029.0, 10021.0, 10023.0, 10029.0, 10032.0, 10047.0, 10048.0, 10056.0, 10064.0, 10067.0, 10073.0, 10067.0, 10049.0, 10033.0, 10024.0, 10045.0, 10068.0, 10066.0, 10056.0, 10047.0, 10048.0, 10040.0],
      "WindowWidth": [21614.0, 21506.0, 21453.0, 21422.0, 21381.0, 21372.0, 21408.0, 21433.0, 21417.0, 21371.0, 21346.0, 21339.0, 21339.0, 21341.0, 21332.0, 21340.0, 21346.0, 21367.0, 21368.0, 21368.0, 21376.0, 21375.0, 21384.0, 21406.0, 21400.0, 21396.0, 21380.0, 21365.0, 21363.0, 21367.0, 21346.0, 21343.0, 21343.0, 21343.0, 21334.0, 21356.0, 21351.0, 21365.0, 21346.0, 21329.0, 21358.0, 21370.0, 21366.0, 21363.0, 21367.0, 21349.0, 21358.0, 21354.0, 21400.0, 21418.0, 21390.0, 21342.0, 21308.0, 21302.0, 21313.0, 21344.0, 21349.0, 21330.0, 21331.0, 21343.0, 21352.0, 21355.0, 21341.0, 21342.0, 21367.0, 21390.0, 21391.0, 21388.0, 21378.0, 21364.0, 21336.0, 21333.0, 21368.0, 21392.0, 21382.0, 21345.0, 21337.0, 21341.0, 21385.0, 21413.0, 21415.0, 21386.0, 21363.0, 21360.0, 21357.0, 21361.0, 21369.0, 21374.0, 21402.0, 21402.0, 21385.0, 21364.0, 21370.0, 21408.0, 21456.0, 21440.0, 21415.0, 21364.0, 21323.0, 21280.0, 21262.0, 21301.0, 21361.0, 21381.0, 21355.0, 21304.0, 21264.0, 21283.0, 21289.0, 21317.0, 21343.0, 21332.0, 21343.0, 21348.0, 21350.0, 21320.0, 21328.0, 21357.0, 21374.0, 21363.0, 21337.0, 21304.0, 21312.0, 21346.0, 21363.0, 21359.0, 21324.0, 21323.0, 21331.0, 21322.0, 21294.0, 21310.0, 21327.0, 21354.0, 21362.0, 21345.0, 21306.0, 21312.0, 21333.0, 21347.0, 21358.0, 21353.0, 21334.0, 21337.0, 21357.0, 21356.0, 21342.0, 21332.0, 21313.0, 21318.0, 21337.0, 21356.0, 21353.0, 21323.0, 21327.0, 21320.0, 21315.0, 21327.0, 21349.0, 21352.0, 21319.0, 21282.0, 21270.0, 21287.0, 21345.0, 21348.0, 21344.0, 21307.0, 21292.0, 21275.0, 21283.0, 21296.0, 21303.0, 21334.0, 21339.0, 21357.0, 21373.0, 21380.0, 21393.0, 21381.0, 21340.0, 21303.0, 21284.0, 21327.0, 21377.0, 21376.0, 21351.0, 21330.0, 21333.0, 21314.0]
    },
    "slices": {}
  }
}