{
  "AcquisitionMatrixPE": 104,
  "AcquisitionNumber": 1,
  "AcquisitionTime": "13:58:59.880000",
  "BandwidthPerPixelPhaseEncode": 17.17,
  "BaseResolution": 104,
  "BodyPartExamined": "BRAIN",
  "CoilCombinationMethod": "Sum of Squares",
  "ConsistencyInfo": "N4_VE11C_LATEST_20160120",
  "ConversionSoftware": "dcm2niix",
  "ConversionSoftwareVersion": "v1.0.20211006",
  "DerivedVendorReportedEchoSpacing": 0.000560011,
  "DeviceSerialNumber": "167006",
  "DwellTime": 2.1e-06,
  "EchoTime": 0.037,
  "EchoTrainLength": 104,
  "EffectiveEchoSpacing": 0.000560011,
  "FlipAngle": 52,
  "HeudiconvVersion": "0.10.0",
  "ImageComments": "Unaliased MB4/PE3/LB",
  "ImageOrientationPatientDICOM": [0.99902, 0.0258759, 0.0358962, -0.0165658, 0.970916, -0.238846],
  "ImageOrientationText": "Tra>Cor(-13.8)>Sag(2.4)",
  "ImageType": [
    "ORIGINAL",
    "PRIMARY",
    "M",
    "MB",
    "ND",
    "MOSAIC"
],
  "ImagingFrequency": 123.259,
  "InPlanePhaseEncodingDirectionDICOM": "COL",
  "InstitutionAddress": "Chemin Queen-Mary 4565,Montreal,District,CA,H3W 1W5",
  "InstitutionName": "IUGM",
  "InstitutionalDepartmentName": "Department",
  "MRAcquisitionType": "2D",
  "MagneticFieldStrength": 3,
  "Manufacturer": "Siemens",
  "ManufacturersModelName": "Prisma_fit",
  "MatrixCoilMode": "SENSE",
  "Modality": "MR",
  "MultibandAccelerationFactor": 4,
  "PartialFourier": 1,
  "PatientPosition": "HFS",
  "PercentPhaseFOV": 100,
  "PercentSampling": 100,
  "PhaseEncodingDirection": "j",
  "PhaseEncodingSteps": 104,
  "PhaseResolution": 1,
  "PixelBandwidth": 2290,
  "ProcedureStepDescription": "memory^things",
  "ProtocolName": "func_task-things_run-5",
  "PulseSequenceDetails": "%CustomerSeq%\\cmrr_mbep2d_bold",
  "ReceiveCoilActiveElements": "HC1-7;NC1,2",
  "ReceiveCoilName": "HeadNeck_64",
  "ReconMatrixPE": 104,
  "RepetitionTime": 1.49,
  "SAR": 0.0546721,
  "ScanOptions": "FS",
  "ScanningSequence": "EP",
  "SequenceName": "epfid2d1_104",
  "SequenceVariant": "SK\\SS",
  "SeriesDescription": "func_task-things_run-5",
  "SeriesNumber": 22,
  "ShimSetting": [644, -7201, -8755, 715, 47, 18, 55, -14],
  "SliceThickness": 2,
  "SliceTiming": [0, 0.785, 0.1, 0.8825, 0.1975, 0.98, 0.295, 1.0775, 0.3925, 1.1775, 0.49, 1.275, 0.5875, 1.3725, 0.6875, 0, 0.785, 0.1, 0.8825, 0.1975, 0.98, 0.295, 1.0775, 0.3925, 1.1775, 0.49, 1.275, 0.5875, 1.3725, 0.6875, 0, 0.785, 0.1, 0.8825, 0.1975, 0.98, 0.295, 1.0775, 0.3925, 1.1775, 0.49, 1.275, 0.5875, 1.3725, 0.6875, 0, 0.785, 0.1, 0.8825, 0.1975, 0.98, 0.295, 1.0775, 0.3925, 1.1775, 0.49, 1.275, 0.5875, 1.3725, 0.6875],
  "SoftwareVersions": "syngo MR E11",
  "SpacingBetweenSlices": 2,
  "StationName": "MRC35049",
  "TaskName": "things",
  "TotalReadoutTime": 0.0576811,
  "TxRefAmp": 247.989,
  "WipMemBlock": "5256cd9d-6d75-4ffd-8a6f-03ef8f17e256||Sequence: R016 ve11c/master r/e634e98; Dec 19 2017 11:00:25 by eja",
  "dcmmeta_affine": [
    [-1.9980409145355225, -0.03313169255852699, 0.08206510543823242, 108.16019439697266],
    [-0.05175172537565231, 1.941832184791565, -0.4760352075099945, -72.44805908203125],
    [0.07179240137338638, 0.4776924252510071, 1.940787434577942, -54.73879623413086],
    [0.0, 0.0, 0.0, 1.0]
],
  "dcmmeta_reorient_transform": [
    [0.0, -1.0, 0.0, 103.0],
    [1.0, 0.0, 0.0, 0.0],
    [0.0, 0.0, 1.0, 0.0],
    [0.0, 0.0, 0.0, 1.0]
],
  "dcmmeta_shape": [104, 104, 60, 190],
  "dcmmeta_slice_dim": 2,
  "dcmmeta_version": 0.6,
  "global": {
    "const": {
      "AcquisitionMatrix": [104, 0, 0, 104],
      "AngioFlag": "N",
      "BitsAllocated": 16,
      "BitsStored": 16,
      "BodyPartExamined": "BRAIN",
      "Columns": 832,
      "EchoNumbers": 1,
      "EchoTime": 37.0,
      "EchoTrainLength": 104,
      "FlipAngle": 52.0,
      "HighBit": 15,
      "ImageOrientationPatient": [0.99902047148327, 0.025875862054, 0.0358962020319, -0.0165658458543, 0.97091609379609, -0.2388462090109],
      "ImagePositionPatient": [-819.97459807166, -853.22519819134, 142.21112959191],
      "ImageType": [
        "ORIGINAL",
        "PRIMARY",
        "M",
        "MB",
        "ND",
        "MOSAIC"
],
      "ImagedNucleus": "1H",
      "ImagingFrequency": 123.258859,
      "InPlanePhaseEncodingDirection": "COL",
      "MRAcquisitionType": "2D",
      "MagneticFieldStrength": 3.0,
      "Manufacturer": "SIEMENS",
      "ManufacturerModelName": "Prisma_fit",
      "Modality": "MR",
      "NumberOfAverages": 1.0,
      "NumberOfPhaseEncodingSteps": 104,
      "PercentPhaseFieldOfView": 100.0,
      "PercentSampling": 100.0,
      "PerformedProcedureStepStartTime": "130451.768000",
      "PhotometricInterpretation": "MONOCHROME2",
      "PixelBandwidth": 2290.0,
      "PixelRepresentation": 0,
      "PixelSpacing": [2.0, 2.0],
      "ProtocolName": "func_task-things_run-5",
      "RepetitionTime": 1490.0,
      "Rows": 832,
      "SAR": 0.05467206218221,
      "SamplesPerPixel": 1,
      "ScanOptions": "FS",
      "ScanningSequence": "EP",
      "SequenceName": "epfid2d1_104",
      "SequenceVariant": [
        "SK",
        "SS"
],
      "SeriesDescription": "func_task-things_run-5",
      "SeriesNumber": 22,
      "SeriesTime": "140024.596000",
      "SliceLocation": -31.436179381271,
      "SliceThickness": 2.0,
      "SmallestImagePixelValue": 0,
      "SoftwareVersions": "syngo MR E11",
      "SpacingBetweenSlices": 2.0000000097028,
      "SpecificCharacterSet": "ISO_IR 100",
      "StudyID": "1",
      "StudyTime": "130451.640000",
      "TransmitCoilName": "Body",
      "VariableFlipAngleFlag": "N",
      "WindowCenterWidthExplanation": "Algo1",
      "dBdt": 0.0},
    "slices": {}
  },
  "time": {
    "samples": {
      "AcquisitionNumber": [1, 2, 3, 4, 5, 6, 7, 8, 9, 10, 11, 12, 13, 14, 15, 16, 17, 18, 19, 20, 21, 22, 23, 24, 25, 26, 27, 28, 29, 30, 31, 32, 33, 34, 35, 36, 37, 38, 39, 40, 41, 42, 43, 44, 45, 46, 47, 48, 49, 50, 51, 52, 53, 54, 55, 56, 57, 58, 59, 60, 61, 62, 63, 64, 65, 66, 67, 68, 69, 70, 71, 72, 73, 74, 75, 76, 77, 78, 79, 80, 81, 82, 83, 84, 85, 86, 87, 88, 89, 90, 91, 92, 93, 94, 95, 96, 97, 98, 99, 100, 101, 102, 103, 104, 105, 106, 107, 108, 109, 110, 111, 112, 113, 114, 115, 116, 117, 118, 119, 120, 121, 122, 123, 124, 125, 126, 127, 128, 129, 130, 131, 132, 133, 134, 135, 136, 137, 138, 139, 140, 141, 142, 143, 144, 145, 146, 147, 148, 149, 150, 151, 152, 153, 154, 155, 156, 157, 158, 159, 160, 161, 162, 163, 164, 165, 166, 167, 168, 169, 170, 171, 172, 173, 174, 175, 176, 177, 178, 179, 180, 181, 182, 183, 184, 185, 186, 187, 188, 189, 190],
      "AcquisitionTime": ["135859.880000", "135901.370000", "135902.860000", "135904.350000", "135905.840000", "135907.330000", "135908.820000", "135910.310000", "135911.800000", "135913.290000", "135914.780000", "135916.270000", "135917.760000", "135919.250000", "135920.740000", "135922.230000", "135923.720000", "135925.210000", "135926.700000", "135928.190000", "135929.680000", "135931.170000", "135932.660000", "135934.150000", "135935.640000", "135937.130000", "135938.620000", "135940.110000", "135941.600000", "135943.090000", "135944.580000", "135946.070000", "135947.560000", "135949.050000", "135950.540000", "135952.030000", "135953.520000", "135955.010000", "135956.500000", "135957.990000", "135959.480000", "140000.970000", "140002.460000", "140003.950000", "140005.440000", "140006.930000", "140008.420000", "140009.910000", "140011.400000", "140012.890000", "140014.380000", "140015.870000", "140017.360000", "140018.850000", "140020.340000", "140021.830000", "140023.320000", "140024.810000", "140026.300000", "140027.790000", "140029.280000", "140030.770000", "140032.260000", "140033.750000", "140035.240000", "140036.730000", "140038.220000", "140039.710000", "140041.200000", "140042.690000", "140044.180000", "140045.670000", "140047.160000", "140048.650000", "140050.140000", "140051.630000", "140053.120000", "140054.610000", "140056.100000", "140057.590000", "140059.080000", "140100.570000", "140102.060000", "140103.550000", "140105.040000", "140106.530000", "140108.020000", "140109.510000", "140111.000000", "140112.490000", "140113.980000", "140115.470000", "140116.960000", "140118.450000", "140119.940000", "140121.430000", "140122.920000", "140124.410000", "140125.900000", "140127.390000", "140128.880000", "140130.370000", "140131.860000", "140133.350000", "140134.840000", "140136.330000", "140137.820000", "140139.310000", "140140.800000", "140142.290000", "140143.780000", "140145.270000", "140146.760000", "140148.250000", "140149.740000", "140151.230000", "140152.720000", "140154.210000", "140155.700000", "140157.190000", "140158.680000", "140200.170000", "140201.660000", "140203.150000", "140204.640000", "140206.130000", "140207.620000", "140209.110000", "140210.600000", "140212.090000", "140213.580000", "140215.070000", "140216.560000", "140218.050000", "140219.540000", "140221.030000", "140222.520000", "140224.010000", "140225.500000", "140226.990000", "140228.480000", "140229.970000", "140231.460000", "140232.950000", "140234.440000", "140235.930000", "140237.420000", "140238.910000", "140240.400000", "140241.890000", "140243.380000", "140244.870000", "140246.360000", "140247.850000", "140249.340000", "140250.830000", "140252.320000", "140253.810000", "140255.300000", "140256.790000", "140258.280000", "140259.770000", "140301.260000", "140302.750000", "140304.240000", "140305.730000", "140307.220000", "140308.710000", "140310.200000", "140311.690000", "140313.180000", "140314.670000", "140316.160000", "140317.650000", "140319.140000", "140320.630000", "140322.120000", "140323.610000", "140325.100000", "140326.590000", "140328.080000", "140329.570000", "140331.060000", "140332.550000", "140334.040000", "140335.530000", "140337.020000", "140338.510000", "140340.000000", "140341.490000"],
      "ContentTime": ["140024.600000", "140024.603000", "140024.607000", "140024.610000", "140024.613000", "140024.617000", "140024.627000", "140024.630000", "140024.634000", "140024.637000", "140024.640000", "140024.643000", "140024.647000", "140024.650000", "140024.653000", "140024.657000", "140024.660000", "140024.663000", "140024.666000", "140024.670000", "140024.673000", "140024.676000", "140024.680000", "140024.683000", "140024.686000", "140024.689000", "140024.693000", "140024.696000", "140024.699000", "140024.709000", "140024.713000", "140044.563000", "140044.567000", "140044.570000", "140044.573000", "140044.577000", "140044.580000", "140044.583000", "140044.586000", "140044.605000", "140044.608000", "140044.611000", "140044.615000", "140044.618000", "140044.621000", "140044.624000", "140044.628000", "140044.631000", "140044.634000", "140044.638000", "140044.641000", "140104.563000", "140104.567000", "140104.570000", "140104.573000", "140104.577000", "140104.580000", "140104.583000", "140104.594000", "140104.598000", "140104.601000", "140104.604000", "140104.607000", "140104.611000", "140104.614000", "140104.617000", "140104.620000", "140104.624000", "140104.627000", "140104.630000", "140104.633000", "140124.563000", "140124.567000", "140124.570000", "140124.573000", "140124.576000", "140124.580000", "140124.583000", "140124.586000", "140124.589000", "140124.593000", "140124.596000", "140124.599000", "140124.603000", "140124.606000", "140124.609000", "140124.612000", "140124.616000", "140124.622000", "140124.626000", "140124.629000", "140204.563000", "140204.567000", "140204.570000", "140204.573000", "140204.577000", "140204.580000", "140204.583000", "140204.587000", "140204.590000", "140204.593000", "140204.596000", "140204.600000", "140204.603000", "140204.606000", "140204.609000", "140204.613000", "140204.616000", "140204.619000", "140204.622000", "140204.626000", "140204.629000", "140204.632000", "140204.635000", "140204.639000", "140204.642000", "140204.650000", "140204.653000", "140204.657000", "140204.660000", "140204.663000", "140204.666000", "140204.670000", "140244.563000", "140244.567000", "140244.570000", "140244.574000", "140244.577000", "140244.580000", "140244.583000", "140244.587000", "140244.590000", "140244.593000", "140244.597000", "140244.600000", "140244.603000", "140244.606000", "140244.610000", "140244.613000", "140244.616000", "140244.619000", "140244.635000", "140244.639000", "140244.642000", "140244.645000", "140244.649000", "140244.652000", "140244.655000", "140244.658000", "140244.662000", "140324.563000", "140324.567000", "140324.570000", "140324.574000", "140324.577000", "140324.580000", "140324.583000", "140324.587000", "140324.590000", "140324.593000", "140324.597000", "140324.600000", "140324.603000", "140324.606000", "140324.610000", "140324.613000", "140324.616000", "140324.620000", "140324.623000", "140324.626000", "140324.629000", "140324.633000", "140324.636000", "140324.639000", "140324.642000", "140324.646000", "140324.649000", "140343.476000", "140343.480000", "140343.483000", "140343.486000", "140343.489000", "140343.493000", "140343.496000", "140343.500000", "140343.503000", "140343.507000", "140343.511000", "140343.514000", "140343.518000"],
      "InstanceCreationTime": ["140024.600000", "140024.603000", "140024.607000", "140024.610000", "140024.613000", "140024.617000", "140024.627000", "140024.630000", "140024.634000", "140024.637000", "140024.640000", "140024.643000", "140024.647000", "140024.650000", "140024.653000", "140024.657000", "140024.660000", "140024.663000", "140024.666000", "140024.670000", "140024.673000", "140024.676000", "140024.680000", "140024.683000", "140024.686000", "140024.689000", "140024.693000", "140024.696000", "140024.699000", "140024.709000", "140024.713000", "140044.563000", "140044.567000", "140044.570000", "140044.573000", "140044.577000", "140044.580000", "140044.583000", "140044.586000", "140044.605000", "140044.608000", "140044.611000", "140044.615000", "140044.618000", "140044.621000", "140044.624000", "140044.628000", "140044.631000", "140044.634000", "140044.638000", "140044.641000", "140104.563000", "140104.567000", "140104.570000", "140104.573000", "140104.577000", "140104.580000", "140104.583000", "140104.594000", "140104.598000", "140104.601000", "140104.604000", "140104.607000", "140104.611000", "140104.614000", "140104.617000", "140104.620000", "140104.624000", "140104.627000", "140104.630000", "140104.633000", "140124.563000", "140124.567000", "140124.570000", "140124.573000", "140124.576000", "140124.580000", "140124.583000", "140124.586000", "140124.589000", "140124.593000", "140124.596000", "140124.599000", "140124.603000", "140124.606000", "140124.609000", "140124.612000", "140124.616000", "140124.622000", "140124.626000", "140124.629000", "140204.563000", "140204.567000", "140204.570000", "140204.573000", "140204.577000", "140204.580000", "140204.583000", "140204.587000", "140204.590000", "140204.593000", "140204.596000", "140204.600000", "140204.603000", "140204.606000", "140204.609000", "140204.613000", "140204.616000", "140204.619000", "140204.622000", "140204.626000", "140204.629000", "140204.632000", "140204.635000", "140204.639000", "140204.642000", "140204.650000", "140204.653000", "140204.657000", "140204.660000", "140204.663000", "140204.666000", "140204.670000", "140244.563000", "140244.567000", "140244.570000", "140244.574000", "140244.577000", "140244.580000", "140244.583000", "140244.587000", "140244.590000", "140244.593000", "140244.597000", "140244.600000", "140244.603000", "140244.606000", "140244.610000", "140244.613000", "140244.616000", "140244.619000", "140244.635000", "140244.639000", "140244.642000", "140244.645000", "140244.649000", "140244.652000", "140244.655000", "140244.658000", "140244.662000", "140324.563000", "140324.567000", "140324.570000", "140324.574000", "140324.577000", "140324.580000", "140324.583000", "140324.587000", "140324.590000", "140324.593000", "140324.597000", "140324.600000", "140324.603000", "140324.606000", "140324.610000", "140324.613000", "140324.616000", "140324.620000", "140324.623000", "140324.626000", "140324.629000", "140324.633000", "140324.636000", "140324.639000", "140324.642000", "140324.646000", "140324.649000", "140343.476000", "140343.480000", "140343.483000", "140343.486000", "140343.489000", "140343.493000", "140343.496000", "140343.500000", "140343.503000", "140343.507000", "140343.511000", "140343.514000", "140343.518000"],
      "InstanceNumber": [1, 2, 3, 4, 5, 6, 7, 8, 9, 10, 11, 12, 13, 14, 15, 16, 17, 18, 19, 20, 21, 22, 23, 24, 25, 26, 27, 28, 29, 30, 31, 32, 33, 34, 35, 36, 37, 38, 39, 40, 41, 42, 43, 44, 45, 46, 47, 48, 49, 50, 51, 52, 53, 54, 55, 56, 57, 58, 59, 60, 61, 62, 63, 64, 65, 66, 67, 68, 69, 70, 71, 72, 73, 74, 75, 76, 77, 78, 79, 80, 81, 82, 83, 84, 85, 86, 87, 88, 89, 90, 91, 92, 93, 94, 95, 96, 97, 98, 99, 100, 101, 102, 103, 104, 105, 106, 107, 108, 109, 110, 111, 112, 113, 114, 115, 116, 117, 118, 119, 120, 121, 122, 123, 124, 125, 126, 127, 128, 129, 130, 131, 132, 133, 134, 135, 136, 137, 138, 139, 140, 141, 142, 143, 144, 145, 146, 147, 148, 149, 150, 151, 152, 153, 154, 155, 156, 157, 158, 159, 160, 161, 162, 163, 164, 165, 166, 167, 168, 169, 170, 171, 172, 173, 174, 175, 176, 177, 178, 179, 180, 181, 182, 183, 184, 185, 186, 187, 188, 189, 190],
      "LargestImagePixelValue": [41358, 40009, 39285, 38823, 38805, 38651, 38489, 39076, 39130, 38857, 38391, 39498, 39012, 38864, 39008, 39448, 39365, 39376, 39249, 39227, 38818, 39038, 39381, 39082, 39125, 38819, 39703, 39204, 38960, 38945, 39426, 39203, 39038, 39011, 39082, 39137, 39264, 39571, 39318, 38880, 39584, 39375, 38919, 39504, 39082, 39259, 39036, 39327, 39187, 39216, 39175, 39345, 39114, 39216, 38775, 39236, 38641, 38946, 39246, 38971, 39084, 38879, 39114, 39501, 39364, 38864, 39295, 38958, 39488, 39071, 39286, 38877, 39264, 39448, 39555, 38557, 38998, 39127, 39368, 39008, 39357, 39413, 39143, 39643, 38895, 39166, 38832, 38677, 39292, 39525, 39360, 39189, 39344, 39243, 39634, 39410, 39481, 39034, 39326, 39749, 39259, 39666, 39391, 39272, 39392, 39301, 39313, 39158, 38998, 38764, 38851, 38943, 39234, 38907, 39485, 39518, 39179, 39020, 38839, 38793, 39298, 39035, 38780, 38681, 38706, 39075, 38893, 38812, 39497, 38763, 38884, 39485, 39024, 39554, 39200, 39372, 39356, 39542, 38928, 38508, 39210, 39047, 39251, 38996, 38835, 39017, 38973, 39371, 38438, 39110, 38988, 39038, 39158, 38737, 38765, 38924, 39038, 39004, 38921, 39114, 38808, 38890, 38769, 39285, 38917, 39089, 38827, 38354, 38897, 38728, 38914, 38720, 38804, 38682, 38253, 38569, 37682, 38747, 38262, 38527, 38483, 38592, 38571, 38504, 38452, 38367, 38394, 38445, 38326, 38455],
      "WindowCenter": [10144.0, 10107.0, 10097.0, 10082.0, 10073.0, 10063.0, 10055.0, 10057.0, 10058.0, 10070.0, 10069.0, 10059.0, 10044.0, 10035.0, 10033.0, 10046.0, 10049.0, 10063.0, 10074.0, 10068.0, 10046.0, 10043.0, 10057.0, 10068.0, 10070.0, 10061.0, 10057.0, 10048.0, 10049.0, 10052.0, 10066.0, 10065.0, 10052.0, 10049.0, 10050.0, 10050.0, 10055.0, 10071.0, 10060.0, 10042.0, 10036.0, 10030.0, 10039.0, 10049.0, 10064.0, 10059.0, 10058.0, 10056.0, 10048.0, 10047.0, 10041.0, 10054.0, 10064.0, 10068.0, 10053.0, 10051.0, 10050.0, 10059.0, 10075.0, 10080.0, 10078.0, 10063.0, 10054.0, 10056.0, 10058.0, 10063.0, 10074.0, 10069.0, 10069.0, 10066.0, 10066.0, 10061.0, 10067.0, 10075.0, 10082.0, 10063.0, 10061.0, 10059.0, 10053.0, 10053.0, 10057.0, 10042.0, 10042.0, 10071.0, 10078.0, 10073.0, 10064.0, 10056.0, 10060.0, 10052.0, 10048.0, 10043.0, 10043.0, 10042.0, 10052.0, 10055.0, 10064.0, 10068.0, 10068.0, 10065.0, 10057.0, 10048.0, 10042.0, 10055.0, 10074.0, 10077.0, 10077.0, 10063.0, 10054.0, 10054.0, 10062.0, 10053.0, 10042.0, 10033.0, 10033.0, 10048.0, 10068.0, 10078.0, 10079.0, 10075.0, 10078.0, 10062.0, 10044.0, 10035.0, 10042.0, 10051.0, 10060.0, 10070.0, 10077.0, 10072.0, 10062.0, 10059.0, 10053.0, 10058.0, 10050.0, 10049.0, 10057.0, 10066.0, 10077.0, 10066.0, 10061.0, 10037.0, 10024.0, 10015.0, 10039.0, 10066.0, 10077.0, 10061.0, 10038.0, 10034.0, 10039.0, 10041.0, 10049.0, 10045.0, 10044.0, 10050.0, 10058.0, 10060.0, 10059.0, 10049.0, 10043.0, 10059.0, 10061.0, 10075.0, 10069.0, 10060.0, 10061.0, 10064.0, 10062.0, 10053.0, 10057.0, 10061.0, 10092.0, 10106.0, 10092.0, 10074.0, 10044.0, 10029.0, 10019.0, 10019.0, 10026.0, 10052.0, 10080.0, 10085.0, 10069.0, 10051.0, 10039.0, 10038.0, 10029.0, 10034.0],
      "WindowWidth": [21607.0, 21504.0, 21469.0, 21434.0, 21407.0, 21382.0, 21361.0, 21359.0, 21364.0, 21392.0, 21391.0, 21365.0, 21330.0, 21311.0, 21307.0, 21334.0, 21344.0, 21372.0, 21399.0, 21389.0, 21340.0, 21331.0, 21360.0, 21391.0, 21395.0, 21371.0, 21357.0, 21336.0, 21343.0, 21352.0, 21382.0, 21377.0, 21351.0, 21342.0, 21345.0, 21345.0, 21352.0, 21388.0, 21367.0, 21322.0, 21305.0, 21296.0, 21318.0, 21342.0, 21373.0, 21365.0, 21361.0, 21356.0, 21337.0, 21331.0, 21319.0, 21348.0, 21373.0, 21382.0, 21351.0, 21343.0, 21343.0, 21366.0, 21401.0, 21416.0, 21409.0, 21376.0, 21354.0, 21356.0, 21361.0, 21377.0, 21397.0, 21388.0, 21386.0, 21377.0, 21377.0, 21370.0, 21383.0, 21400.0, 21412.0, 21375.0, 21368.0, 21362.0, 21350.0, 21350.0, 21355.0, 21324.0, 21326.0, 21388.0, 21407.0, 21398.0, 21377.0, 21359.0, 21363.0, 21346.0, 21334.0, 21326.0, 21329.0, 21325.0, 21342.0, 21350.0, 21372.0, 21384.0, 21383.0, 21372.0, 21357.0, 21335.0, 21323.0, 21352.0, 21398.0, 21403.0, 21402.0, 21373.0, 21350.0, 21352.0, 21368.0, 21347.0, 21322.0, 21304.0, 21304.0, 21338.0, 21385.0, 21409.0, 21411.0, 21405.0, 21403.0, 21368.0, 21327.0, 21309.0, 21324.0, 21345.0, 21367.0, 21388.0, 21403.0, 21394.0, 21370.0, 21362.0, 21351.0, 21359.0, 21340.0, 21336.0, 21355.0, 21377.0, 21402.0, 21383.0, 21366.0, 21310.0, 21278.0, 21260.0, 21315.0, 21381.0, 21406.0, 21367.0, 21318.0, 21305.0, 21312.0, 21319.0, 21339.0, 21332.0, 21327.0, 21340.0, 21361.0, 21365.0, 21359.0, 21337.0, 21328.0, 21364.0, 21371.0, 21398.0, 21384.0, 21364.0, 21367.0, 21376.0, 21370.0, 21349.0, 21354.0, 21370.0, 21437.0, 21470.0, 21440.0, 21396.0, 21330.0, 21294.0, 21271.0, 21271.0, 21286.0, 21346.0, 21411.0, 21425.0, 21388.0, 21346.0, 21319.0, 21314.0, 21297.0, 21306.0]
    },
    "slices": {}
  }
}