{
  "AcquisitionMatrixPE": 104,
  "AcquisitionNumber": 1,
  "AcquisitionTime": "13:36:29.935000",
  "BandwidthPerPixelPhaseEncode": 17.17,
  "BaseResolution": 104,
  "BodyPartExamined": "BRAIN",
  "CoilString": "HC1-7;NC1_2",
  "ConsistencyInfo": "N4_VE11C_LATEST_20160120",
  "ConversionSoftware": "dcm2niix",
  "ConversionSoftwareVersion": "v1.0.20190902",
  "DerivedVendorReportedEchoSpacing": 0.000560011,
  "DeviceSerialNumber": "167006",
  "DwellTime": 2.1e-06,
  "EchoTime": 0.037,
  "EchoTrainLength": 104,
  "EffectiveEchoSpacing": 0.000560011,
  "FlipAngle": 52,
  "ImageComments": "Unaliased_MB4_PE3_LB",
  "ImageOrientationPatientDICOM": [0.998891, 0.0273447, 0.0383392, -0.0186565, 0.977314, -0.210973],
  "ImageType": [
    "ORIGINAL",
    "PRIMARY",
    "M",
    "MB",
    "ND",
    "MOSAIC"
],
  "ImagingFrequency": 123.259,
  "InPlanePhaseEncodingDirectionDICOM": "COL",
  "InstitutionAddress": "Chemin_Queen-Mary_4565_Montreal_District_CA_H3W_1W5",
  "InstitutionName": "IUGM",
  "InstitutionalDepartmentName": "Department",
  "MRAcquisitionType": "2D",
  "MagneticFieldStrength": 3,
  "Manufacturer": "Siemens",
  "ManufacturersModelName": "Prisma_fit",
  "Modality": "MR",
  "MultibandAccelerationFactor": 4,
  "PartialFourier": 1,
  "PatientPosition": "HFS",
  "PercentPhaseFOV": 100,
  "PhaseEncodingDirection": "j",
  "PhaseEncodingSteps": 104,
  "PhaseResolution": 1,
  "PixelBandwidth": 2290,
  "ProcedureStepDescription": "memory_things",
  "ProtocolName": "func_task-things_run-3",
  "PulseSequenceDetails": "%CustomerSeq%_cmrr_mbep2d_bold",
  "ReceiveCoilActiveElements": "HC1-7;NC1,2",
  "ReceiveCoilName": "HeadNeck_64",
  "ReconMatrixPE": 104,
  "RepetitionTime": 1.49,
  "SAR": 0.0428478,
  "ScanOptions": "FS",
  "ScanningSequence": "EP",
  "SequenceName": "epfid2d1_104",
  "SequenceVariant": "SK_SS",
  "SeriesDescription": "func_task-things_run-3",
  "SeriesNumber": 16,
  "ShimSetting": [637, -7228, -8789, 728, 52, -46, 131, -18],
  "SliceThickness": 2,
  "SliceTiming": [0, 0.785, 0.0975, 0.8825, 0.195, 0.98, 0.295, 1.0775, 0.3925, 1.175, 0.49, 1.275, 0.5875, 1.3725, 0.685, 0, 0.785, 0.0975, 0.8825, 0.195, 0.98, 0.295, 1.0775, 0.3925, 1.175, 0.49, 1.275, 0.5875, 1.3725, 0.685, 0, 0.785, 0.0975, 0.8825, 0.195, 0.98, 0.295, 1.0775, 0.3925, 1.175, 0.49, 1.275, 0.5875, 1.3725, 0.685, 0, 0.785, 0.0975, 0.8825, 0.195, 0.98, 0.295, 1.0775, 0.3925, 1.175, 0.49, 1.275, 0.5875, 1.3725, 0.685],
  "SoftwareVersions": "syngo_MR_E11",
  "SpacingBetweenSlices": 2,
  "StationName": "MRC35049",
  "TaskName": "things",
  "TotalReadoutTime": 0.0576811,
  "TxRefAmp": 222.055,
  "WipMemBlock": "886c496f-3d4e-4b36-8619-a9ae0c75485c||Sequence: R016 ve11c/master r/e634e98; Dec 19 2017 11:00:25 by eja",
  "dcmmeta_affine": [
    [-1.9977811574935913, -0.03731302544474602, 0.08647678047418594, 108.52408599853516],
    [-0.054689403623342514, 1.954627513885498, -0.42004796862602234, -74.64002227783203],
    [0.0766783133149147, 0.42194664478302, 1.953479290008545, -61.08070755004883],
    [0.0, 0.0, 0.0, 1.0]
],
  "dcmmeta_reorient_transform": [
    [0.0, -1.0, 0.0, 103.0],
    [1.0, 0.0, 0.0, 0.0],
    [0.0, 0.0, 1.0, 0.0],
    [0.0, 0.0, 0.0, 1.0]
],
  "dcmmeta_shape": [104, 104, 60, 190],
  "dcmmeta_slice_dim": 2,
  "dcmmeta_version": 0.6,
  "global": {
    "const": {
      "AcquisitionMatrix": [104, 0, 0, 104],
      "AngioFlag": "N",
      "BitsAllocated": 16,
      "BitsStored": 16,
      "BodyPartExamined": "BRAIN",
      "Columns": 832,
      "EchoNumbers": 1,
      "EchoTime": 37.0,
      "EchoTrainLength": 104,
      "FlipAngle": 52.0,
      "HighBit": 15,
      "ImageOrientationPatient": [0.99889057268662, 0.02734470232172, 0.03833915821629, -0.0186565123597, 0.97731376308514, -0.2109733230315],
      "ImagePositionPatient": [-818.29124417722, -858.07797258252, 108.05746741137],
      "ImageType": [
        "ORIGINAL",
        "PRIMARY",
        "M",
        "MB",
        "ND",
        "MOSAIC"
],
      "ImagedNucleus": "1H",
      "ImagingFrequency": 123.258916,
      "InPlanePhaseEncodingDirection": "COL",
      "MRAcquisitionType": "2D",
      "MagneticFieldStrength": 3.0,
      "Manufacturer": "SIEMENS",
      "ManufacturerModelName": "Prisma_fit",
      "Modality": "MR",
      "NumberOfAverages": 1.0,
      "NumberOfPhaseEncodingSteps": 104,
      "PercentPhaseFieldOfView": 100.0,
      "PercentSampling": 100.0,
      "PerformedProcedureStepStartTime": "130501.984000",
      "PhotometricInterpretation": "MONOCHROME2",
      "PixelBandwidth": 2290.0,
      "PixelRepresentation": 0,
      "PixelSpacing": [2.0, 2.0],
      "ProtocolName": "func_task-things_run-3",
      "RepetitionTime": 1490.0,
      "Rows": 832,
      "SAR": 0.04284777714031,
      "SamplesPerPixel": 1,
      "ScanOptions": "FS",
      "ScanningSequence": "EP",
      "SequenceName": "epfid2d1_104",
      "SequenceVariant": [
        "SK",
        "SS"
],
      "SeriesDescription": "func_task-things_run-3",
      "SeriesNumber": 16,
      "SeriesTime": "133753.251000",
      "SliceLocation": -39.291348406374,
      "SliceThickness": 2.0,
      "SmallestImagePixelValue": 0,
      "SoftwareVersions": "syngo MR E11",
      "SpacingBetweenSlices": 1.9999999922656,
      "SpecificCharacterSet": "ISO_IR 100",
      "StudyID": "1",
      "StudyTime": "130501.836000",
      "TransmitCoilName": "Body",
      "VariableFlipAngleFlag": "N",
      "WindowCenterWidthExplanation": "Algo1",
      "dBdt": 0.0},
    "slices": {}
  },
  "time": {
    "samples": {
      "AcquisitionNumber": [1, 2, 3, 4, 5, 6, 7, 8, 9, 10, 11, 12, 13, 14, 15, 16, 17, 18, 19, 20, 21, 22, 23, 24, 25, 26, 27, 28, 29, 30, 31, 32, 33, 34, 35, 36, 37, 38, 39, 40, 41, 42, 43, 44, 45, 46, 47, 48, 49, 50, 51, 52, 53, 54, 55, 56, 57, 58, 59, 60, 61, 62, 63, 64, 65, 66, 67, 68, 69, 70, 71, 72, 73, 74, 75, 76, 77, 78, 79, 80, 81, 82, 83, 84, 85, 86, 87, 88, 89, 90, 91, 92, 93, 94, 95, 96, 97, 98, 99, 100, 101, 102, 103, 104, 105, 106, 107, 108, 109, 110, 111, 112, 113, 114, 115, 116, 117, 118, 119, 120, 121, 122, 123, 124, 125, 126, 127, 128, 129, 130, 131, 132, 133, 134, 135, 136, 137, 138, 139, 140, 141, 142, 143, 144, 145, 146, 147, 148, 149, 150, 151, 152, 153, 154, 155, 156, 157, 158, 159, 160, 161, 162, 163, 164, 165, 166, 167, 168, 169, 170, 171, 172, 173, 174, 175, 176, 177, 178, 179, 180, 181, 182, 183, 184, 185, 186, 187, 188, 189, 190],
      "AcquisitionTime": ["133629.935000", "133631.425000", "133632.915000", "133634.405000", "133635.895000", "133637.385000", "133638.875000", "133640.365000", "133641.855000", "133643.345000", "133644.835000", "133646.325000", "133647.815000", "133649.305000", "133650.795000", "133652.285000", "133653.775000", "133655.265000", "133656.755000", "133658.245000", "133659.735000", "133701.225000", "133702.715000", "133704.205000", "133705.695000", "133707.185000", "133708.675000", "133710.165000", "133711.655000", "133713.145000", "133714.635000", "133716.125000", "133717.615000", "133719.105000", "133720.595000", "133722.085000", "133723.575000", "133725.065000", "133726.555000", "133728.045000", "133729.535000", "133731.025000", "133732.515000", "133734.005000", "133735.495000", "133736.985000", "133738.475000", "133739.965000", "133741.455000", "133742.945000", "133744.435000", "133745.925000", "133747.415000", "133748.905000", "133750.395000", "133751.885000", "133753.375000", "133754.865000", "133756.355000", "133757.845000", "133759.335000", "133800.825000", "133802.315000", "133803.805000", "133805.295000", "133806.785000", "133808.275000", "133809.765000", "133811.255000", "133812.745000", "133814.235000", "133815.725000", "133817.215000", "133818.705000", "133820.195000", "133821.685000", "133823.175000", "133824.665000", "133826.155000", "133827.645000", "133829.135000", "133830.625000", "133832.115000", "133833.605000", "133835.095000", "133836.585000", "133838.075000", "133839.565000", "133841.055000", "133842.545000", "133844.035000", "133845.525000", "133847.015000", "133848.505000", "133849.995000", "133851.485000", "133852.975000", "133854.465000", "133855.955000", "133857.445000", "133858.935000", "133900.425000", "133901.915000", "133903.405000", "133904.895000", "133906.385000", "133907.875000", "133909.365000", "133910.855000", "133912.345000", "133913.835000", "133915.325000", "133916.815000", "133918.305000", "133919.795000", "133921.285000", "133922.775000", "133924.265000", "133925.755000", "133927.245000", "133928.735000", "133930.225000", "133931.715000", "133933.205000", "133934.695000", "133936.185000", "133937.675000", "133939.165000", "133940.655000", "133942.145000", "133943.635000", "133945.125000", "133946.615000", "133948.105000", "133949.595000", "133951.085000", "133952.575000", "133954.065000", "133955.555000", "133957.045000", "133958.535000", "134000.025000", "134001.515000", "134003.005000", "134004.495000", "134005.985000", "134007.475000", "134008.965000", "134010.455000", "134011.945000", "134013.435000", "134014.925000", "134016.415000", "134017.905000", "134019.395000", "134020.885000", "134022.375000", "134023.865000", "134025.355000", "134026.845000", "134028.335000", "134029.825000", "134031.315000", "134032.805000", "134034.295000", "134035.785000", "134037.275000", "134038.765000", "134040.255000", "134041.745000", "134043.235000", "134044.725000", "134046.215000", "134047.705000", "134049.195000", "134050.685000", "134052.175000", "134053.665000", "134055.155000", "134056.645000", "134058.135000", "134059.625000", "134101.115000", "134102.605000", "134104.095000", "134105.585000", "134107.075000", "134108.565000", "134110.055000", "134111.545000"],
      "ContentTime": ["133753.254000", "133753.258000", "133753.261000", "133753.265000", "133753.268000", "133753.271000", "133753.275000", "133753.278000", "133753.281000", "133753.285000", "133753.288000", "133753.291000", "133753.295000", "133753.298000", "133753.301000", "133753.305000", "133753.308000", "133753.311000", "133753.316000", "133753.319000", "133753.322000", "133753.326000", "133753.346000", "133753.350000", "133753.353000", "133753.356000", "133753.360000", "133753.363000", "133753.366000", "133813.186000", "133813.190000", "133813.193000", "133813.197000", "133813.209000", "133813.213000", "133813.216000", "133813.219000", "133813.222000", "133813.226000", "133813.229000", "133813.232000", "133813.236000", "133813.239000", "133813.242000", "133813.246000", "133813.249000", "133813.252000", "133813.256000", "133813.259000", "133833.186000", "133833.190000", "133833.193000", "133833.197000", "133833.200000", "133833.203000", "133833.207000", "133833.210000", "133833.213000", "133833.217000", "133833.220000", "133833.223000", "133833.227000", "133833.230000", "133833.233000", "133833.237000", "133833.240000", "133833.243000", "133833.247000", "133833.250000", "133853.186000", "133853.190000", "133853.194000", "133853.198000", "133853.201000", "133853.205000", "133853.209000", "133853.213000", "133853.217000", "133853.221000", "133853.225000", "133853.228000", "133853.232000", "133853.235000", "133853.238000", "133853.242000", "133853.245000", "133853.249000", "133853.252000", "133853.255000", "133913.186000", "133913.190000", "133913.193000", "133913.197000", "133913.200000", "133913.203000", "133913.207000", "133913.210000", "133913.223000", "133913.226000", "133913.229000", "133913.233000", "133913.236000", "133913.239000", "133913.242000", "133913.246000", "133913.249000", "133913.252000", "133913.256000", "133913.259000", "133953.185000", "133953.189000", "133953.192000", "133953.196000", "133953.199000", "133953.202000", "133953.206000", "133953.209000", "133953.213000", "133953.217000", "133953.220000", "133953.224000", "133953.227000", "133953.230000", "133953.234000", "133953.237000", "133953.241000", "133953.244000", "133953.248000", "133953.252000", "133953.255000", "133953.259000", "133953.262000", "133953.265000", "133953.269000", "133953.272000", "134033.186000", "134033.190000", "134033.193000", "134033.197000", "134033.200000", "134033.203000", "134033.207000", "134033.210000", "134033.213000", "134033.217000", "134033.220000", "134033.223000", "134033.226000", "134033.230000", "134033.233000", "134033.236000", "134033.240000", "134033.243000", "134033.246000", "134033.250000", "134033.253000", "134033.256000", "134033.260000", "134033.263000", "134033.266000", "134033.270000", "134033.273000", "134113.186000", "134113.190000", "134113.193000", "134113.197000", "134113.200000", "134113.203000", "134113.207000", "134113.210000", "134113.213000", "134113.217000", "134113.220000", "134113.223000", "134113.227000", "134113.230000", "134113.242000", "134113.246000", "134113.249000", "134113.252000", "134113.256000", "134113.259000", "134113.263000", "134113.266000", "134113.270000", "134113.273000", "134113.276000", "134113.279000", "134113.283000", "134113.872000"],
      "InstanceCreationTime": ["133753.254000", "133753.258000", "133753.261000", "133753.265000", "133753.268000", "133753.271000", "133753.275000", "133753.278000", "133753.281000", "133753.285000", "133753.288000", "133753.291000", "133753.295000", "133753.298000", "133753.301000", "133753.305000", "133753.308000", "133753.311000", "133753.316000", "133753.319000", "133753.322000", "133753.326000", "133753.346000", "133753.350000", "133753.353000", "133753.356000", "133753.360000", "133753.363000", "133753.366000", "133813.186000", "133813.190000", "133813.193000", "133813.197000", "133813.209000", "133813.213000", "133813.216000", "133813.219000", "133813.222000", "133813.226000", "133813.229000", "133813.232000", "133813.236000", "133813.239000", "133813.242000", "133813.246000", "133813.249000", "133813.252000", "133813.256000", "133813.259000", "133833.186000", "133833.190000", "133833.193000", "133833.197000", "133833.200000", "133833.203000", "133833.207000", "133833.210000", "133833.213000", "133833.217000", "133833.220000", "133833.223000", "133833.227000", "133833.230000", "133833.233000", "133833.237000", "133833.240000", "133833.243000", "133833.247000", "133833.250000", "133853.186000", "133853.190000", "133853.194000", "133853.198000", "133853.201000", "133853.205000", "133853.209000", "133853.213000", "133853.217000", "133853.221000", "133853.225000", "133853.228000", "133853.232000", "133853.235000", "133853.238000", "133853.242000", "133853.245000", "133853.249000", "133853.252000", "133853.255000", "133913.186000", "133913.190000", "133913.193000", "133913.197000", "133913.200000", "133913.203000", "133913.207000", "133913.210000", "133913.223000", "133913.226000", "133913.229000", "133913.233000", "133913.236000", "133913.239000", "133913.242000", "133913.246000", "133913.249000", "133913.252000", "133913.256000", "133913.259000", "133953.185000", "133953.189000", "133953.192000", "133953.196000", "133953.199000", "133953.202000", "133953.206000", "133953.209000", "133953.213000", "133953.217000", "133953.220000", "133953.224000", "133953.227000", "133953.230000", "133953.234000", "133953.237000", "133953.241000", "133953.244000", "133953.248000", "133953.252000", "133953.255000", "133953.259000", "133953.262000", "133953.265000", "133953.269000", "133953.272000", "134033.186000", "134033.190000", "134033.193000", "134033.197000", "134033.200000", "134033.203000", "134033.207000", "134033.210000", "134033.213000", "134033.217000", "134033.220000", "134033.223000", "134033.226000", "134033.230000", "134033.233000", "134033.236000", "134033.240000", "134033.243000", "134033.246000", "134033.250000", "134033.253000", "134033.256000", "134033.260000", "134033.263000", "134033.266000", "134033.270000", "134033.273000", "134113.186000", "134113.190000", "134113.193000", "134113.197000", "134113.200000", "134113.203000", "134113.207000", "134113.210000", "134113.213000", "134113.217000", "134113.220000", "134113.223000", "134113.227000", "134113.230000", "134113.242000", "134113.246000", "134113.249000", "134113.252000", "134113.256000", "134113.259000", "134113.263000", "134113.266000", "134113.270000", "134113.273000", "134113.276000", "134113.279000", "134113.283000", "134113.872000"],
      "InstanceNumber": [1, 2, 3, 4, 5, 6, 7, 8, 9, 10, 11, 12, 13, 14, 15, 16, 17, 18, 19, 20, 21, 22, 23, 24, 25, 26, 27, 28, 29, 30, 31, 32, 33, 34, 35, 36, 37, 38, 39, 40, 41, 42, 43, 44, 45, 46, 47, 48, 49, 50, 51, 52, 53, 54, 55, 56, 57, 58, 59, 60, 61, 62, 63, 64, 65, 66, 67, 68, 69, 70, 71, 72, 73, 74, 75, 76, 77, 78, 79, 80, 81, 82, 83, 84, 85, 86, 87, 88, 89, 90, 91, 92, 93, 94, 95, 96, 97, 98, 99, 100, 101, 102, 103, 104, 105, 106, 107, 108, 109, 110, 111, 112, 113, 114, 115, 116, 117, 118, 119, 120, 121, 122, 123, 124, 125, 126, 127, 128, 129, 130, 131, 132, 133, 134, 135, 136, 137, 138, 139, 140, 141, 142, 143, 144, 145, 146, 147, 148, 149, 150, 151, 152, 153, 154, 155, 156, 157, 158, 159, 160, 161, 162, 163, 164, 165, 166, 167, 168, 169, 170, 171, 172, 173, 174, 175, 176, 177, 178, 179, 180, 181, 182, 183, 184, 185, 186, 187, 188, 189, 190],
      "LargestImagePixelValue": [39741, 38570, 38204, 37929, 37675, 37736, 37345, 37818, 37525, 37296, 37461, 37299, 37313, 37148, 37628, 37557, 37489, 37421, 37751, 38160, 37492, 37317, 37486, 37415, 37471, 37667, 37681, 37523, 37087, 37634, 37444, 37643, 37121, 37242, 37547, 37448, 37466, 37121, 37609, 37287, 37270, 37281, 37508, 37033, 37247, 37144, 37521, 37500, 37246, 37148, 37234, 37395, 37504, 37534, 37496, 37796, 37583, 37595, 37466, 37672, 37390, 37117, 37744, 37489, 37469, 37529, 37667, 37870, 37448, 37276, 37268, 37476, 37446, 37142, 37344, 36865, 37481, 37326, 37303, 37502, 37582, 37332, 37196, 36988, 37199, 37430, 37358, 37604, 36957, 37117, 36777, 37227, 37089, 37298, 37193, 37522, 37554, 37292, 37406, 37581, 37242, 37088, 37566, 37595, 37134, 37481, 37477, 37472, 37207, 37231, 37271, 37348, 37236, 36832, 37340, 37223, 37423, 36865, 37176, 37169, 36862, 37294, 37317, 37329, 37260, 37037, 37398, 37016, 37255, 37135, 37601, 37756, 37283, 37149, 37555, 37638, 37425, 37332, 37360, 37553, 37410, 37210, 37154, 37067, 37640, 37172, 37164, 36867, 37529, 37062, 37070, 36959, 37390, 37171, 37191, 37340, 37564, 37311, 37250, 37604, 37214, 37765, 37094, 37058, 37170, 37790, 37324, 37206, 37150, 37268, 37905, 37537, 37463, 36811, 37280, 37087, 37717, 37066, 37084, 37018, 36895, 37056, 37221, 37037, 37472, 37239, 37218, 36739, 37348, 36961],
      "WindowCenter": [10099.0, 10054.0, 10034.0, 10014.0, 9988.0, 9971.0, 9981.0, 10003.0, 10022.0, 10029.0, 10024.0, 10012.0, 9995.0, 9987.0, 9993.0, 9994.0, 9987.0, 9992.0, 9993.0, 10008.0, 10005.0, 10003.0, 9996.0, 10002.0, 10012.0, 10034.0, 10036.0, 10023.0, 10022.0, 10020.0, 10020.0, 10020.0, 10007.0, 9997.0, 10003.0, 10012.0, 10021.0, 10016.0, 10020.0, 10015.0, 10022.0, 10030.0, 10031.0, 10026.0, 10011.0, 9989.0, 9996.0, 9994.0, 9988.0, 9995.0, 9982.0, 9985.0, 9986.0, 9987.0, 9979.0, 9978.0, 9970.0, 9968.0, 9977.0, 9994.0, 10005.0, 10016.0, 10020.0, 9997.0, 9979.0, 9978.0, 9985.0, 10001.0, 10011.0, 10008.0, 10005.0, 10003.0, 10012.0, 10021.0, 10016.0, 10000.0, 9999.0, 9989.0, 9980.0, 9986.0, 10003.0, 10021.0, 10026.0, 10010.0, 9992.0, 9993.0, 9995.0, 10004.0, 10001.0, 10002.0, 9992.0, 9981.0, 9979.0, 9987.0, 9996.0, 10011.0, 10006.0, 9997.0, 9995.0, 9997.0, 9996.0, 9997.0, 9997.0, 9998.0, 10005.0, 10013.0, 10008.0, 10007.0, 10000.0, 10007.0, 10023.0, 10019.0, 10002.0, 9984.0, 9981.0, 9989.0, 10012.0, 10011.0, 10017.0, 10008.0, 9999.0, 9995.0, 10002.0, 10013.0, 10008.0, 9991.0, 9978.0, 9971.0, 9985.0, 10002.0, 10013.0, 10014.0, 10007.0, 10000.0, 10004.0, 10019.0, 10014.0, 10006.0, 10003.0, 10013.0, 10017.0, 10009.0, 9991.0, 9980.0, 9993.0, 10006.0, 10008.0, 9984.0, 9980.0, 9980.0, 9987.0, 9988.0, 9994.0, 9974.0, 9979.0, 9978.0, 9994.0, 9997.0, 9998.0, 9987.0, 9986.0, 10000.0, 10006.0, 10024.0, 10017.0, 10007.0, 9997.0, 9998.0, 10005.0, 10014.0, 10013.0, 10006.0, 9991.0, 9984.0, 9996.0, 9999.0, 10012.0, 10001.0, 10001.0, 10009.0, 10004.0, 10001.0, 9992.0, 9990.0, 9990.0, 9991.0, 9982.0, 9974.0, 9978.0, 9981.0],
      "WindowWidth": [21510.0, 21391.0, 21331.0, 21275.0, 21213.0, 21173.0, 21191.0, 21245.0, 21289.0, 21305.0, 21293.0, 21263.0, 21224.0, 21208.0, 21220.0, 21222.0, 21207.0, 21217.0, 21218.0, 21250.0, 21249.0, 21241.0, 21226.0, 21239.0, 21266.0, 21311.0, 21316.0, 21291.0, 21284.0, 21280.0, 21279.0, 21281.0, 21255.0, 21232.0, 21241.0, 21264.0, 21284.0, 21275.0, 21278.0, 21270.0, 21287.0, 21305.0, 21307.0, 21299.0, 21262.0, 21209.0, 21227.0, 21221.0, 21210.0, 21223.0, 21196.0, 21198.0, 21200.0, 21205.0, 21189.0, 21184.0, 21166.0, 21163.0, 21182.0, 21221.0, 21249.0, 21274.0, 21277.0, 21226.0, 21183.0, 21183.0, 21200.0, 21236.0, 21261.0, 21258.0, 21246.0, 21242.0, 21261.0, 21283.0, 21272.0, 21237.0, 21232.0, 21208.0, 21188.0, 21201.0, 21240.0, 21282.0, 21295.0, 21258.0, 21216.0, 21213.0, 21221.0, 21243.0, 21243.0, 21245.0, 21219.0, 21190.0, 21184.0, 21201.0, 21224.0, 21256.0, 21249.0, 21228.0, 21223.0, 21227.0, 21226.0, 21229.0, 21227.0, 21229.0, 21246.0, 21263.0, 21253.0, 21250.0, 21235.0, 21249.0, 21284.0, 21278.0, 21241.0, 21198.0, 21191.0, 21211.0, 21261.0, 21265.0, 21274.0, 21255.0, 21233.0, 21220.0, 21237.0, 21263.0, 21257.0, 21217.0, 21183.0, 21167.0, 21198.0, 21239.0, 21265.0, 21268.0, 21251.0, 21234.0, 21240.0, 21274.0, 21266.0, 21248.0, 21237.0, 21260.0, 21273.0, 21257.0, 21215.0, 21188.0, 21216.0, 21251.0, 21257.0, 21205.0, 21190.0, 21189.0, 21204.0, 21208.0, 21216.0, 21178.0, 21185.0, 21184.0, 21216.0, 21226.0, 21228.0, 21204.0, 21202.0, 21233.0, 21252.0, 21291.0, 21274.0, 21247.0, 21226.0, 21230.0, 21245.0, 21264.0, 21261.0, 21245.0, 21212.0, 21200.0, 21223.0, 21235.0, 21261.0, 21238.0, 21238.0, 21253.0, 21245.0, 21237.0, 21215.0, 21211.0, 21210.0, 21213.0, 21191.0, 21172.0, 21181.0, 21191.0]
    },
    "slices": {}
  }
}