{
  "AcquisitionMatrixPE": 104,
  "AcquisitionNumber": 1,
  "AcquisitionTime": "13:42:30.600000",
  "BandwidthPerPixelPhaseEncode": 17.17,
  "BaseResolution": 104,
  "BodyPartExamined": "BRAIN",
  "CoilString": "HC1-7;NC1_2",
  "ConsistencyInfo": "N4_VE11C_LATEST_20160120",
  "ConversionSoftware": "dcm2niix",
  "ConversionSoftwareVersion": "v1.0.20190902",
  "DerivedVendorReportedEchoSpacing": 0.000560011,
  "DeviceSerialNumber": "167006",
  "DwellTime": 2.1e-06,
  "EchoTime": 0.037,
  "EchoTrainLength": 104,
  "EffectiveEchoSpacing": 0.000560011,
  "FlipAngle": 52,
  "ImageComments": "Unaliased_MB4_PE3_LB",
  "ImageOrientationPatientDICOM": [0.998891, 0.0273447, 0.0383392, -0.0186565, 0.977314, -0.210973],
  "ImageType": [
    "ORIGINAL",
    "PRIMARY",
    "P",
    "MB",
    "ND",
    "MOSAIC"
],
  "ImagingFrequency": 123.259,
  "InPlanePhaseEncodingDirectionDICOM": "COL",
  "InstitutionAddress": "Chemin_Queen-Mary_4565_Montreal_District_CA_H3W_1W5",
  "InstitutionName": "IUGM",
  "InstitutionalDepartmentName": "Department",
  "MRAcquisitionType": "2D",
  "MagneticFieldStrength": 3,
  "Manufacturer": "Siemens",
  "ManufacturersModelName": "Prisma_fit",
  "Modality": "MR",
  "MultibandAccelerationFactor": 4,
  "PartialFourier": 1,
  "PatientPosition": "HFS",
  "PercentPhaseFOV": 100,
  "PhaseEncodingDirection": "j",
  "PhaseEncodingSteps": 104,
  "PhaseResolution": 1,
  "PixelBandwidth": 2290,
  "ProcedureStepDescription": "memory_things",
  "ProtocolName": "func_task-things_run-4",
  "PulseSequenceDetails": "%CustomerSeq%_cmrr_mbep2d_bold",
  "ReceiveCoilActiveElements": "HC1-7;NC1,2",
  "ReceiveCoilName": "HeadNeck_64",
  "ReconMatrixPE": 104,
  "RepetitionTime": 1.49,
  "SAR": 0.0428478,
  "ScanOptions": "FS",
  "ScanningSequence": "EP",
  "SequenceName": "epfid2d1_104",
  "SequenceVariant": "SK_SS",
  "SeriesDescription": "func_task-things_run-4",
  "SeriesNumber": 20,
  "ShimSetting": [637, -7228, -8789, 728, 52, -46, 131, -18],
  "SliceThickness": 2,
  "SliceTiming": [0, 0.7825, 0.0975, 0.88, 0.195, 0.98, 0.2925, 1.0775, 0.39, 1.175, 0.49, 1.2725, 0.5875, 1.37, 0.685, 0, 0.7825, 0.0975, 0.88, 0.195, 0.98, 0.2925, 1.0775, 0.39, 1.175, 0.49, 1.2725, 0.5875, 1.37, 0.685, 0, 0.7825, 0.0975, 0.88, 0.195, 0.98, 0.2925, 1.0775, 0.39, 1.175, 0.49, 1.2725, 0.5875, 1.37, 0.685, 0, 0.7825, 0.0975, 0.88, 0.195, 0.98, 0.2925, 1.0775, 0.39, 1.175, 0.49, 1.2725, 0.5875, 1.37, 0.685],
  "SoftwareVersions": "syngo_MR_E11",
  "SpacingBetweenSlices": 2,
  "StationName": "MRC35049",
  "TaskName": "things",
  "TotalReadoutTime": 0.0576811,
  "TxRefAmp": 222.055,
  "WipMemBlock": "fc40d317-0563-4a2c-84f1-4da4163848eb||Sequence: R016 ve11c/master r/e634e98; Dec 19 2017 11:00:25 by eja",
  "dcmmeta_affine": [
    [-1.9977811574935913, -0.03731302544474602, 0.08647678047418594, 108.52408599853516],
    [-0.054689403623342514, 1.954627513885498, -0.42004796862602234, -74.64002227783203],
    [0.0766783133149147, 0.42194664478302, 1.953479290008545, -61.08070755004883],
    [0.0, 0.0, 0.0, 1.0]
],
  "dcmmeta_reorient_transform": [
    [0.0, -1.0, 0.0, 103.0],
    [1.0, 0.0, 0.0, 0.0],
    [0.0, 0.0, 1.0, 0.0],
    [0.0, 0.0, 0.0, 1.0]
],
  "dcmmeta_shape": [104, 104, 60, 190],
  "dcmmeta_slice_dim": 2,
  "dcmmeta_version": 0.6,
  "global": {
    "const": {
      "AcquisitionMatrix": [104, 0, 0, 104],
      "AngioFlag": "N",
      "BitsAllocated": 16,
      "BitsStored": 16,
      "BodyPartExamined": "BRAIN",
      "Columns": 832,
      "EchoNumbers": 1,
      "EchoTime": 37.0,
      "EchoTrainLength": 104,
      "FlipAngle": 52.0,
      "HighBit": 15,
      "ImageOrientationPatient": [0.99889057268662, 0.02734470232172, 0.03833915821629, -0.0186565123597, 0.97731376308514, -0.2109733230315],
      "ImagePositionPatient": [-818.29124417722, -858.07797258252, 108.05746741137],
      "ImageType": [
        "ORIGINAL",
        "PRIMARY",
        "P",
        "MB",
        "ND",
        "MOSAIC"
],
      "ImagedNucleus": "1H",
      "ImagingFrequency": 123.258919,
      "InPlanePhaseEncodingDirection": "COL",
      "LargestImagePixelValue": 4095,
      "MRAcquisitionType": "2D",
      "MagneticFieldStrength": 3.0,
      "Manufacturer": "SIEMENS",
      "ManufacturerModelName": "Prisma_fit",
      "Modality": "MR",
      "NumberOfAverages": 1.0,
      "NumberOfPhaseEncodingSteps": 104,
      "PercentPhaseFieldOfView": 100.0,
      "PercentSampling": 100.0,
      "PerformedProcedureStepStartTime": "130501.984000",
      "PhotometricInterpretation": "MONOCHROME2",
      "PixelBandwidth": 2290.0,
      "PixelRepresentation": 0,
      "PixelSpacing": [2.0, 2.0],
      "ProtocolName": "func_task-things_run-4",
      "RepetitionTime": 1490.0,
      "RescaleIntercept": -4096.0,
      "RescaleSlope": 2.0,
      "RescaleType": "US",
      "Rows": 832,
      "SAR": 0.04284777714031,
      "SamplesPerPixel": 1,
      "ScanOptions": "FS",
      "ScanningSequence": "EP",
      "SequenceName": "epfid2d1_104",
      "SequenceVariant": [
        "SK",
        "SS"
],
      "SeriesDescription": "func_task-things_run-4",
      "SeriesNumber": 20,
      "SeriesTime": "134354.911000",
      "SliceLocation": -39.291348406374,
      "SliceThickness": 2.0,
      "SmallestImagePixelValue": 0,
      "SoftwareVersions": "syngo MR E11",
      "SpacingBetweenSlices": 1.9999999922656,
      "SpecificCharacterSet": "ISO_IR 100",
      "StudyID": "1",
      "StudyTime": "130501.836000",
      "TransmitCoilName": "Body",
      "VariableFlipAngleFlag": "N",
      "WindowCenterWidthExplanation": "Algo1",
      "dBdt": 0.0},
    "slices": {}
  },
  "time": {
    "samples": {
      "AcquisitionNumber": [1, 2, 3, 4, 5, 6, 7, 8, 9, 10, 11, 12, 13, 14, 15, 16, 17, 18, 19, 20, 21, 22, 23, 24, 25, 26, 27, 28, 29, 30, 31, 32, 33, 34, 35, 36, 37, 38, 39, 40, 41, 42, 43, 44, 45, 46, 47, 48, 49, 50, 51, 52, 53, 54, 55, 56, 57, 58, 59, 60, 61, 62, 63, 64, 65, 66, 67, 68, 69, 70, 71, 72, 73, 74, 75, 76, 77, 78, 79, 80, 81, 82, 83, 84, 85, 86, 87, 88, 89, 90, 91, 92, 93, 94, 95, 96, 97, 98, 99, 100, 101, 102, 103, 104, 105, 106, 107, 108, 109, 110, 111, 112, 113, 114, 115, 116, 117, 118, 119, 120, 121, 122, 123, 124, 125, 126, 127, 128, 129, 130, 131, 132, 133, 134, 135, 136, 137, 138, 139, 140, 141, 142, 143, 144, 145, 146, 147, 148, 149, 150, 151, 152, 153, 154, 155, 156, 157, 158, 159, 160, 161, 162, 163, 164, 165, 166, 167, 168, 169, 170, 171, 172, 173, 174, 175, 176, 177, 178, 179, 180, 181, 182, 183, 184, 185, 186, 187, 188, 189, 190],
      "AcquisitionTime": ["134230.600000", "134232.090000", "134233.580000", "134235.070000", "134236.560000", "134238.050000", "134239.540000", "134241.030000", "134242.520000", "134244.010000", "134245.500000", "134246.990000", "134248.480000", "134249.970000", "134251.460000", "134252.950000", "134254.440000", "134255.930000", "134257.420000", "134258.910000", "134300.400000", "134301.890000", "134303.380000", "134304.870000", "134306.360000", "134307.850000", "134309.340000", "134310.830000", "134312.320000", "134313.810000", "134315.300000", "134316.790000", "134318.280000", "134319.770000", "134321.260000", "134322.750000", "134324.240000", "134325.730000", "134327.220000", "134328.710000", "134330.200000", "134331.690000", "134333.180000", "134334.670000", "134336.160000", "134337.650000", "134339.140000", "134340.630000", "134342.120000", "134343.610000", "134345.100000", "134346.590000", "134348.080000", "134349.570000", "134351.060000", "134352.550000", "134354.040000", "134355.530000", "134357.020000", "134358.510000", "134400.000000", "134401.490000", "134402.980000", "134404.470000", "134405.960000", "134407.450000", "134408.940000", "134410.430000", "134411.920000", "134413.410000", "134414.900000", "134416.390000", "134417.880000", "134419.370000", "134420.860000", "134422.350000", "134423.840000", "134425.330000", "134426.820000", "134428.310000", "134429.800000", "134431.290000", "134432.780000", "134434.270000", "134435.760000", "134437.250000", "134438.740000", "134440.230000", "134441.720000", "134443.210000", "134444.700000", "134446.190000", "134447.680000", "134449.170000", "134450.660000", "134452.150000", "134453.640000", "134455.130000", "134456.620000", "134458.110000", "134459.600000", "134501.090000", "134502.580000", "134504.070000", "134505.560000", "134507.050000", "134508.540000", "134510.030000", "134511.520000", "134513.010000", "134514.500000", "134515.990000", "134517.480000", "134518.970000", "134520.460000", "134521.950000", "134523.440000", "134524.930000", "134526.420000", "134527.910000", "134529.400000", "134530.890000", "134532.380000", "134533.870000", "134535.360000", "134536.850000", "134538.340000", "134539.830000", "134541.320000", "134542.810000", "134544.300000", "134545.790000", "134547.280000", "134548.770000", "134550.260000", "134551.750000", "134553.240000", "134554.730000", "134556.220000", "134557.710000", "134559.200000", "134600.690000", "134602.180000", "134603.670000", "134605.160000", "134606.650000", "134608.140000", "134609.630000", "134611.120000", "134612.610000", "134614.100000", "134615.590000", "134617.080000", "134618.570000", "134620.060000", "134621.550000", "134623.040000", "134624.530000", "134626.020000", "134627.510000", "134629.000000", "134630.490000", "134631.980000", "134633.470000", "134634.960000", "134636.450000", "134637.940000", "134639.430000", "134640.920000", "134642.410000", "134643.900000", "134645.390000", "134646.880000", "134648.370000", "134649.860000", "134651.350000", "134652.840000", "134654.330000", "134655.820000", "134657.310000", "134658.800000", "134700.290000", "134701.780000", "134703.270000", "134704.760000", "134706.250000", "134707.740000", "134709.230000", "134710.720000", "134712.210000"],
      "ContentTime": ["134354.913000", "134354.916000", "134354.919000", "134354.921000", "134354.924000", "134354.926000", "134354.929000", "134354.931000", "134354.934000", "134354.936000", "134354.939000", "134354.941000", "134354.944000", "134354.946000", "134354.949000", "134354.951000", "134354.954000", "134354.956000", "134354.959000", "134354.961000", "134354.964000", "134354.972000", "134354.975000", "134354.977000", "134354.980000", "134354.983000", "134354.985000", "134354.988000", "134354.990000", "134414.871000", "134414.873000", "134414.876000", "134414.878000", "134414.881000", "134414.883000", "134414.886000", "134414.888000", "134414.891000", "134414.893000", "134414.896000", "134414.898000", "134414.901000", "134414.903000", "134414.906000", "134414.908000", "134414.911000", "134414.913000", "134414.916000", "134414.918000", "134434.865000", "134434.868000", "134434.870000", "134434.873000", "134434.875000", "134434.878000", "134434.880000", "134434.883000", "134434.885000", "134434.899000", "134434.902000", "134434.904000", "134434.907000", "134434.909000", "134434.912000", "134434.915000", "134434.918000", "134434.921000", "134434.923000", "134434.926000", "134434.928000", "134454.858000", "134454.861000", "134454.863000", "134454.866000", "134454.868000", "134454.871000", "134454.874000", "134454.876000", "134454.879000", "134454.881000", "134454.884000", "134454.886000", "134454.889000", "134454.891000", "134454.894000", "134454.896000", "134454.899000", "134454.901000", "134454.904000", "134454.918000", "134534.895000", "134534.898000", "134534.900000", "134534.903000", "134534.915000", "134534.917000", "134534.920000", "134534.923000", "134534.925000", "134534.928000", "134534.931000", "134534.934000", "134534.936000", "134534.939000", "134534.941000", "134534.944000", "134534.946000", "134534.949000", "134534.951000", "134534.954000", "134534.956000", "134534.959000", "134534.961000", "134534.964000", "134534.966000", "134534.969000", "134534.972000", "134534.974000", "134534.977000", "134534.979000", "134534.982000", "134534.984000", "134614.886000", "134614.889000", "134614.891000", "134614.894000", "134614.896000", "134614.899000", "134614.902000", "134614.904000", "134614.907000", "134614.909000", "134614.912000", "134614.915000", "134614.917000", "134614.920000", "134614.922000", "134614.925000", "134614.927000", "134614.930000", "134614.933000", "134614.935000", "134614.938000", "134614.940000", "134614.943000", "134614.945000", "134614.948000", "134614.951000", "134614.953000", "134654.871000", "134654.874000", "134654.876000", "134654.879000", "134654.882000", "134654.884000", "134654.887000", "134654.889000", "134654.892000", "134654.894000", "134654.897000", "134654.899000", "134654.902000", "134654.905000", "134654.907000", "134654.910000", "134654.912000", "134654.915000", "134654.917000", "134654.920000", "134654.923000", "134654.925000", "134654.928000", "134654.930000", "134654.933000", "134654.935000", "134654.938000", "134714.744000", "134714.747000", "134714.750000", "134714.752000", "134714.755000", "134714.757000", "134714.760000", "134714.763000", "134714.765000", "134714.768000", "134714.869000", "134714.872000", "134714.874000", "134714.877000"],
      "InstanceCreationTime": ["134354.913000", "134354.916000", "134354.919000", "134354.921000", "134354.924000", "134354.926000", "134354.929000", "134354.931000", "134354.934000", "134354.936000", "134354.939000", "134354.941000", "134354.944000", "134354.946000", "134354.949000", "134354.951000", "134354.954000", "134354.956000", "134354.959000", "134354.961000", "134354.964000", "134354.972000", "134354.975000", "134354.977000", "134354.980000", "134354.983000", "134354.985000", "134354.988000", "134354.990000", "134414.871000", "134414.873000", "134414.876000", "134414.878000", "134414.881000", "134414.883000", "134414.886000", "134414.888000", "134414.891000", "134414.893000", "134414.896000", "134414.898000", "134414.901000", "134414.903000", "134414.906000", "134414.908000", "134414.911000", "134414.913000", "134414.916000", "134414.918000", "134434.865000", "134434.868000", "134434.870000", "134434.873000", "134434.875000", "134434.878000", "134434.880000", "134434.883000", "134434.885000", "134434.899000", "134434.902000", "134434.904000", "134434.907000", "134434.909000", "134434.912000", "134434.915000", "134434.918000", "134434.921000", "134434.923000", "134434.926000", "134434.928000", "134454.858000", "134454.861000", "134454.863000", "134454.866000", "134454.868000", "134454.871000", "134454.874000", "134454.876000", "134454.879000", "134454.881000", "134454.884000", "134454.886000", "134454.889000", "134454.891000", "134454.894000", "134454.896000", "134454.899000", "134454.901000", "134454.904000", "134454.918000", "134534.895000", "134534.898000", "134534.900000", "134534.903000", "134534.915000", "134534.917000", "134534.920000", "134534.923000", "134534.925000", "134534.928000", "134534.931000", "134534.934000", "134534.936000", "134534.939000", "134534.941000", "134534.944000", "134534.946000", "134534.949000", "134534.951000", "134534.954000", "134534.956000", "134534.959000", "134534.961000", "134534.964000", "134534.966000", "134534.969000", "134534.972000", "134534.974000", "134534.977000", "134534.979000", "134534.982000", "134534.984000", "134614.886000", "134614.889000", "134614.891000", "134614.894000", "134614.896000", "134614.899000", "134614.902000", "134614.904000", "134614.907000", "134614.909000", "134614.912000", "134614.915000", "134614.917000", "134614.920000", "134614.922000", "134614.925000", "134614.927000", "134614.930000", "134614.933000", "134614.935000", "134614.938000", "134614.940000", "134614.943000", "134614.945000", "134614.948000", "134614.951000", "134614.953000", "134654.871000", "134654.874000", "134654.876000", "134654.879000", "134654.882000", "134654.884000", "134654.887000", "134654.889000", "134654.892000", "134654.894000", "134654.897000", "134654.899000", "134654.902000", "134654.905000", "134654.907000", "134654.910000", "134654.912000", "134654.915000", "134654.917000", "134654.920000", "134654.923000", "134654.925000", "134654.928000", "134654.930000", "134654.933000", "134654.935000", "134654.938000", "134714.744000", "134714.747000", "134714.750000", "134714.752000", "134714.755000", "134714.757000", "134714.760000", "134714.763000", "134714.765000", "134714.768000", "134714.869000", "134714.872000", "134714.874000", "134714.877000"],
      "InstanceNumber": [1, 2, 3, 4, 5, 6, 7, 8, 9, 10, 11, 12, 13, 14, 15, 16, 17, 18, 19, 20, 21, 22, 23, 24, 25, 26, 27, 28, 29, 30, 31, 32, 33, 34, 35, 36, 37, 38, 39, 40, 41, 42, 43, 44, 45, 46, 47, 48, 49, 50, 51, 52, 53, 54, 55, 56, 57, 58, 59, 60, 61, 62, 63, 64, 65, 66, 67, 68, 69, 70, 71, 72, 73, 74, 75, 76, 77, 78, 79, 80, 81, 82, 83, 84, 85, 86, 87, 88, 89, 90, 91, 92, 93, 94, 95, 96, 97, 98, 99, 100, 101, 102, 103, 104, 105, 106, 107, 108, 109, 110, 111, 112, 113, 114, 115, 116, 117, 118, 119, 120, 121, 122, 123, 124, 125, 126, 127, 128, 129, 130, 131, 132, 133, 134, 135, 136, 137, 138, 139, 140, 141, 142, 143, 144, 145, 146, 147, 148, 149, 150, 151, 152, 153, 154, 155, 156, 157, 158, 159, 160, 161, 162, 163, 164, 165, 166, 167, 168, 169, 170, 171, 172, 173, 174, 175, 176, 177, 178, 179, 180, 181, 182, 183, 184, 185, 186, 187, 188, 189, 190],
      "WindowCenter": [4866.0, 4870.0, 4866.0, 4864.0, 4864.0, 4864.0, 4864.0, 4866.0, 4870.0, 4866.0, 4868.0, 4866.0, 4868.0, 4872.0, 4868.0, 4864.0, 4870.0, 4868.0, 4868.0, 4866.0, 4866.0, 4868.0, 4866.0, 4866.0, 4868.0, 4864.0, 4868.0, 4862.0, 4864.0, 4864.0, 4870.0, 4870.0, 4866.0, 4866.0, 4868.0, 4866.0, 4868.0, 4870.0, 4868.0, 4866.0, 4868.0, 4864.0, 4868.0, 4866.0, 4868.0, 4868.0, 4866.0, 4866.0, 4868.0, 4866.0, 4868.0, 4868.0, 4862.0, 4866.0, 4870.0, 4864.0, 4866.0, 4864.0, 4868.0, 4868.0, 4864.0, 4866.0, 4866.0, 4866.0, 4866.0, 4864.0, 4864.0, 4864.0, 4868.0, 4868.0, 4862.0, 4864.0, 4868.0, 4866.0, 4868.0, 4864.0, 4870.0, 4864.0, 4866.0, 4864.0, 4866.0, 4860.0, 4864.0, 4866.0, 4868.0, 4866.0, 4868.0, 4862.0, 4868.0, 4864.0, 4866.0, 4864.0, 4866.0, 4862.0, 4862.0, 4866.0, 4864.0, 4866.0, 4860.0, 4868.0, 4866.0, 4866.0, 4866.0, 4862.0, 4868.0, 4862.0, 4864.0, 4866.0, 4866.0, 4866.0, 4864.0, 4862.0, 4864.0, 4866.0, 4862.0, 4868.0, 4860.0, 4866.0, 4862.0, 4866.0, 4866.0, 4866.0, 4868.0, 4862.0, 4860.0, 4862.0, 4860.0, 4860.0, 4860.0, 4864.0, 4864.0, 4866.0, 4866.0, 4866.0, 4860.0, 4864.0, 4862.0, 4860.0, 4858.0, 4866.0, 4864.0, 4868.0, 4864.0, 4866.0, 4866.0, 4860.0, 4860.0, 4868.0, 4868.0, 4862.0, 4864.0, 4864.0, 4864.0, 4866.0, 4864.0, 4864.0, 4862.0, 4862.0, 4864.0, 4862.0, 4864.0, 4862.0, 4866.0, 4860.0, 4864.0, 4860.0, 4866.0, 4862.0, 4862.0, 4866.0, 4864.0, 4864.0, 4864.0, 4864.0, 4860.0, 4864.0, 4864.0, 4860.0, 4862.0, 4862.0, 4864.0, 4864.0, 4862.0, 4862.0, 4868.0, 4864.0, 4864.0, 4864.0, 4864.0, 4862.0],
      "WindowWidth": [18700.0, 18702.0, 18700.0, 18696.0, 18692.0, 18694.0, 18698.0, 18700.0, 18702.0, 18696.0, 18702.0, 18696.0, 18700.0, 18706.0, 18700.0, 18694.0, 18700.0, 18700.0, 18702.0, 18700.0, 18700.0, 18700.0, 18700.0, 18696.0, 18700.0, 18700.0, 18698.0, 18692.0, 18700.0, 18702.0, 18704.0, 18704.0, 18698.0, 18700.0, 18702.0, 18698.0, 18700.0, 18704.0, 18704.0, 18698.0, 18700.0, 18698.0, 18698.0, 18700.0, 18700.0, 18702.0, 18700.0, 18702.0, 18702.0, 18700.0, 18698.0, 18702.0, 18698.0, 18698.0, 18706.0, 18694.0, 18700.0, 18696.0, 18698.0, 18706.0, 18702.0, 18702.0, 18698.0, 18698.0, 18696.0, 18702.0, 18702.0, 18700.0, 18700.0, 18698.0, 18698.0, 18698.0, 18704.0, 18704.0, 18702.0, 18698.0, 18704.0, 18694.0, 18698.0, 18702.0, 18698.0, 18698.0, 18696.0, 18700.0, 18702.0, 18698.0, 18702.0, 18698.0, 18702.0, 18696.0, 18700.0, 18698.0, 18700.0, 18700.0, 18694.0, 18700.0, 18698.0, 18700.0, 18696.0, 18702.0, 18698.0, 18700.0, 18696.0, 18702.0, 18700.0, 18704.0, 18696.0, 18696.0, 18702.0, 18702.0, 18700.0, 18700.0, 18700.0, 18704.0, 18694.0, 18702.0, 18698.0, 18700.0, 18698.0, 18704.0, 18702.0, 18698.0, 18698.0, 18702.0, 18692.0, 18700.0, 18700.0, 18696.0, 18692.0, 18700.0, 18702.0, 18700.0, 18700.0, 18702.0, 18700.0, 18700.0, 18692.0, 18694.0, 18696.0, 18698.0, 18700.0, 18702.0, 18696.0, 18702.0, 18696.0, 18698.0, 18694.0, 18702.0, 18704.0, 18700.0, 18698.0, 18696.0, 18704.0, 18696.0, 18702.0, 18700.0, 18696.0, 18694.0, 18700.0, 18696.0, 18696.0, 18696.0, 18700.0, 18694.0, 18700.0, 18700.0, 18700.0, 18696.0, 18698.0, 18700.0, 18700.0, 18700.0, 18704.0, 18700.0, 18698.0, 18694.0, 18696.0, 18692.0, 18700.0, 18696.0, 18698.0, 18698.0, 18692.0, 18700.0, 18698.0, 18700.0, 18698.0, 18696.0, 18698.0, 18698.0]
    },
    "slices": {}
  }
}