{
  "AcquisitionMatrixPE": 104,
  "AcquisitionNumber": 1,
  "AcquisitionTime": "13:23:59.390000",
  "BandwidthPerPixelPhaseEncode": 17.17,
  "BaseResolution": 104,
  "BodyPartExamined": "BRAIN",
  "CoilString": "HC1-7;NC1_2",
  "ConsistencyInfo": "N4_VE11C_LATEST_20160120",
  "ConversionSoftware": "dcm2niix",
  "ConversionSoftwareVersion": "v1.0.20190902",
  "DerivedVendorReportedEchoSpacing": 0.000560011,
  "DeviceSerialNumber": "167006",
  "DwellTime": 2.1e-06,
  "EchoTime": 0.037,
  "EchoTrainLength": 104,
  "EffectiveEchoSpacing": 0.000560011,
  "FlipAngle": 52,
  "ImageComments": "Unaliased_MB4_PE3_LB",
  "ImageOrientationPatientDICOM": [0.998891, 0.0273447, 0.0383392, -0.0186565, 0.977314, -0.210973],
  "ImageType": [
    "ORIGINAL",
    "PRIMARY",
    "P",
    "MB",
    "ND",
    "MOSAIC"
],
  "ImagingFrequency": 123.259,
  "InPlanePhaseEncodingDirectionDICOM": "COL",
  "InstitutionAddress": "Chemin_Queen-Mary_4565_Montreal_District_CA_H3W_1W5",
  "InstitutionName": "IUGM",
  "InstitutionalDepartmentName": "Department",
  "MRAcquisitionType": "2D",
  "MagneticFieldStrength": 3,
  "Manufacturer": "Siemens",
  "ManufacturersModelName": "Prisma_fit",
  "Modality": "MR",
  "MultibandAccelerationFactor": 4,
  "PartialFourier": 1,
  "PatientPosition": "HFS",
  "PercentPhaseFOV": 100,
  "PhaseEncodingDirection": "j",
  "PhaseEncodingSteps": 104,
  "PhaseResolution": 1,
  "PixelBandwidth": 2290,
  "ProcedureStepDescription": "memory_things",
  "ProtocolName": "func_task-things_run-1",
  "PulseSequenceDetails": "%CustomerSeq%_cmrr_mbep2d_bold",
  "ReceiveCoilActiveElements": "HC1-7;NC1,2",
  "ReceiveCoilName": "HeadNeck_64",
  "ReconMatrixPE": 104,
  "RepetitionTime": 1.49,
  "SAR": 0.0428478,
  "ScanOptions": "FS",
  "ScanningSequence": "EP",
  "SequenceName": "epfid2d1_104",
  "SequenceVariant": "SK_SS",
  "SeriesDescription": "func_task-things_run-1",
  "SeriesNumber": 11,
  "ShimSetting": [637, -7228, -8789, 728, 52, -46, 131, -18],
  "SliceThickness": 2,
  "SliceTiming": [0, 0.7825, 0.0975, 0.88, 0.195, 0.98, 0.2925, 1.0775, 0.39, 1.175, 0.49, 1.2725, 0.5875, 1.37, 0.685, 0, 0.7825, 0.0975, 0.88, 0.195, 0.98, 0.2925, 1.0775, 0.39, 1.175, 0.49, 1.2725, 0.5875, 1.37, 0.685, 0, 0.7825, 0.0975, 0.88, 0.195, 0.98, 0.2925, 1.0775, 0.39, 1.175, 0.49, 1.2725, 0.5875, 1.37, 0.685, 0, 0.7825, 0.0975, 0.88, 0.195, 0.98, 0.2925, 1.0775, 0.39, 1.175, 0.49, 1.2725, 0.5875, 1.37, 0.685],
  "SoftwareVersions": "syngo_MR_E11",
  "SpacingBetweenSlices": 2,
  "StationName": "MRC35049",
  "TaskName": "things",
  "TotalReadoutTime": 0.0576811,
  "TxRefAmp": 222.055,
  "WipMemBlock": "bc39668e-51ac-4f05-8e37-d122e16b22d1||Sequence: R016 ve11c/master r/e634e98; Dec 19 2017 11:00:25 by eja",
  "dcmmeta_affine": [
    [-1.9977811574935913, -0.03731302544474602, 0.08647678047418594, 108.52408599853516],
    [-0.054689403623342514, 1.954627513885498, -0.42004796862602234, -74.64002227783203],
    [0.0766783133149147, 0.42194664478302, 1.953479290008545, -61.08070755004883],
    [0.0, 0.0, 0.0, 1.0]
],
  "dcmmeta_reorient_transform": [
    [0.0, -1.0, 0.0, 103.0],
    [1.0, 0.0, 0.0, 0.0],
    [0.0, 0.0, 1.0, 0.0],
    [0.0, 0.0, 0.0, 1.0]
],
  "dcmmeta_shape": [104, 104, 60, 190],
  "dcmmeta_slice_dim": 2,
  "dcmmeta_version": 0.6,
  "global": {
    "const": {
      "AcquisitionMatrix": [104, 0, 0, 104],
      "AngioFlag": "N",
      "BitsAllocated": 16,
      "BitsStored": 16,
      "BodyPartExamined": "BRAIN",
      "Columns": 832,
      "EchoNumbers": 1,
      "EchoTime": 37.0,
      "EchoTrainLength": 104,
      "FlipAngle": 52.0,
      "HighBit": 15,
      "ImageOrientationPatient": [0.99889057268662, 0.02734470232172, 0.03833915821629, -0.0186565123597, 0.97731376308514, -0.2109733230315],
      "ImagePositionPatient": [-818.29124417722, -858.07797258252, 108.05746741137],
      "ImageType": [
        "ORIGINAL",
        "PRIMARY",
        "P",
        "MB",
        "ND",
        "MOSAIC"
],
      "ImagedNucleus": "1H",
      "ImagingFrequency": 123.258909,
      "InPlanePhaseEncodingDirection": "COL",
      "LargestImagePixelValue": 4095,
      "MRAcquisitionType": "2D",
      "MagneticFieldStrength": 3.0,
      "Manufacturer": "SIEMENS",
      "ManufacturerModelName": "Prisma_fit",
      "Modality": "MR",
      "NumberOfAverages": 1.0,
      "NumberOfPhaseEncodingSteps": 104,
      "PercentPhaseFieldOfView": 100.0,
      "PercentSampling": 100.0,
      "PerformedProcedureStepStartTime": "130501.984000",
      "PhotometricInterpretation": "MONOCHROME2",
      "PixelBandwidth": 2290.0,
      "PixelRepresentation": 0,
      "PixelSpacing": [2.0, 2.0],
      "ProtocolName": "func_task-things_run-1",
      "RepetitionTime": 1490.0,
      "RescaleIntercept": -4096.0,
      "RescaleSlope": 2.0,
      "RescaleType": "US",
      "Rows": 832,
      "SAR": 0.04284777714031,
      "SamplesPerPixel": 1,
      "ScanOptions": "FS",
      "ScanningSequence": "EP",
      "SequenceName": "epfid2d1_104",
      "SequenceVariant": [
        "SK",
        "SS"
],
      "SeriesDescription": "func_task-things_run-1",
      "SeriesNumber": 11,
      "SeriesTime": "132454.817000",
      "SliceLocation": -39.291348406374,
      "SliceThickness": 2.0,
      "SmallestImagePixelValue": 0,
      "SoftwareVersions": "syngo MR E11",
      "SpacingBetweenSlices": 1.9999999922656,
      "SpecificCharacterSet": "ISO_IR 100",
      "StudyID": "1",
      "StudyTime": "130501.836000",
      "TransmitCoilName": "Body",
      "VariableFlipAngleFlag": "N",
      "WindowCenterWidthExplanation": "Algo1",
      "dBdt": 0.0},
    "slices": {}
  },
  "time": {
    "samples": {
      "AcquisitionNumber": [1, 2, 3, 4, 5, 6, 7, 8, 9, 10, 11, 12, 13, 14, 15, 16, 17, 18, 19, 20, 21, 22, 23, 24, 25, 26, 27, 28, 29, 30, 31, 32, 33, 34, 35, 36, 37, 38, 39, 40, 41, 42, 43, 44, 45, 46, 47, 48, 49, 50, 51, 52, 53, 54, 55, 56, 57, 58, 59, 60, 61, 62, 63, 64, 65, 66, 67, 68, 69, 70, 71, 72, 73, 74, 75, 76, 77, 78, 79, 80, 81, 82, 83, 84, 85, 86, 87, 88, 89, 90, 91, 92, 93, 94, 95, 96, 97, 98, 99, 100, 101, 102, 103, 104, 105, 106, 107, 108, 109, 110, 111, 112, 113, 114, 115, 116, 117, 118, 119, 120, 121, 122, 123, 124, 125, 126, 127, 128, 129, 130, 131, 132, 133, 134, 135, 136, 137, 138, 139, 140, 141, 142, 143, 144, 145, 146, 147, 148, 149, 150, 151, 152, 153, 154, 155, 156, 157, 158, 159, 160, 161, 162, 163, 164, 165, 166, 167, 168, 169, 170, 171, 172, 173, 174, 175, 176, 177, 178, 179, 180, 181, 182, 183, 184, 185, 186, 187, 188, 189, 190],
      "AcquisitionTime": ["132359.390000", "132400.880000", "132402.370000", "132403.860000", "132405.350000", "132406.840000", "132408.330000", "132409.820000", "132411.310000", "132412.800000", "132414.290000", "132415.780000", "132417.270000", "132418.760000", "132420.250000", "132421.740000", "132423.230000", "132424.720000", "132426.210000", "132427.700000", "132429.190000", "132430.680000", "132432.170000", "132433.660000", "132435.150000", "132436.640000", "132438.130000", "132439.620000", "132441.110000", "132442.600000", "132444.090000", "132445.580000", "132447.070000", "132448.560000", "132450.050000", "132451.540000", "132453.030000", "132454.520000", "132456.010000", "132457.500000", "132458.990000", "132500.480000", "132501.970000", "132503.460000", "132504.950000", "132506.440000", "132507.930000", "132509.420000", "132510.910000", "132512.400000", "132513.890000", "132515.380000", "132516.870000", "132518.360000", "132519.850000", "132521.340000", "132522.830000", "132524.320000", "132525.810000", "132527.300000", "132528.790000", "132530.280000", "132531.770000", "132533.260000", "132534.750000", "132536.240000", "132537.730000", "132539.220000", "132540.710000", "132542.200000", "132543.690000", "132545.180000", "132546.670000", "132548.160000", "132549.650000", "132551.140000", "132552.630000", "132554.120000", "132555.610000", "132557.100000", "132558.590000", "132600.080000", "132601.570000", "132603.060000", "132604.550000", "132606.040000", "132607.530000", "132609.020000", "132610.510000", "132612.000000", "132613.490000", "132614.980000", "132616.470000", "132617.960000", "132619.450000", "132620.940000", "132622.430000", "132623.920000", "132625.410000", "132626.900000", "132628.390000", "132629.880000", "132631.370000", "132632.860000", "132634.350000", "132635.840000", "132637.330000", "132638.820000", "132640.310000", "132641.800000", "132643.290000", "132644.780000", "132646.270000", "132647.760000", "132649.250000", "132650.740000", "132652.230000", "132653.720000", "132655.210000", "132656.700000", "132658.190000", "132659.680000", "132701.170000", "132702.660000", "132704.150000", "132705.640000", "132707.130000", "132708.620000", "132710.110000", "132711.600000", "132713.090000", "132714.580000", "132716.070000", "132717.560000", "132719.050000", "132720.540000", "132722.030000", "132723.520000", "132725.010000", "132726.500000", "132727.990000", "132729.480000", "132730.970000", "132732.460000", "132733.950000", "132735.440000", "132736.930000", "132738.420000", "132739.910000", "132741.400000", "132742.890000", "132744.380000", "132745.870000", "132747.360000", "132748.850000", "132750.340000", "132751.830000", "132753.320000", "132754.810000", "132756.300000", "132757.790000", "132759.280000", "132800.770000", "132802.260000", "132803.750000", "132805.240000", "132806.730000", "132808.220000", "132809.710000", "132811.200000", "132812.690000", "132814.180000", "132815.670000", "132817.160000", "132818.650000", "132820.140000", "132821.630000", "132823.120000", "132824.610000", "132826.100000", "132827.590000", "132829.080000", "132830.570000", "132832.060000", "132833.550000", "132835.040000", "132836.530000", "132838.020000", "132839.510000", "132841.000000"],
      "ContentTime": ["132454.819000", "132454.822000", "132454.825000", "132514.869000", "132514.871000", "132514.874000", "132514.876000", "132514.879000", "132514.881000", "132514.888000", "132514.891000", "132514.893000", "132514.896000", "132514.898000", "132514.901000", "132514.903000", "132514.906000", "132514.908000", "132514.911000", "132514.913000", "132514.916000", "132514.918000", "132514.921000", "132534.846000", "132534.850000", "132534.853000", "132534.856000", "132534.859000", "132534.861000", "132534.864000", "132534.867000", "132534.869000", "132534.872000", "132534.875000", "132534.877000", "132534.879000", "132534.882000", "132534.884000", "132534.887000", "132534.889000", "132534.892000", "132534.894000", "132534.897000", "132554.901000", "132554.904000", "132554.906000", "132554.909000", "132554.911000", "132554.914000", "132554.916000", "132554.919000", "132554.921000", "132554.924000", "132554.926000", "132554.929000", "132554.931000", "132554.934000", "132554.936000", "132554.939000", "132554.941000", "132554.944000", "132554.946000", "132554.949000", "132554.951000", "132614.905000", "132614.908000", "132614.911000", "132614.913000", "132614.916000", "132614.918000", "132614.921000", "132614.923000", "132614.926000", "132614.928000", "132614.931000", "132614.933000", "132614.936000", "132614.938000", "132614.941000", "132614.943000", "132614.946000", "132614.948000", "132614.951000", "132614.953000", "132634.864000", "132634.867000", "132634.870000", "132634.872000", "132634.875000", "132634.877000", "132634.880000", "132634.882000", "132634.885000", "132634.887000", "132634.890000", "132634.892000", "132634.895000", "132634.897000", "132634.900000", "132634.902000", "132634.905000", "132634.907000", "132634.910000", "132634.912000", "132714.883000", "132714.886000", "132714.888000", "132714.891000", "132714.894000", "132714.896000", "132714.899000", "132714.901000", "132714.904000", "132714.906000", "132714.909000", "132714.911000", "132714.914000", "132714.916000", "132714.919000", "132714.922000", "132714.925000", "132714.928000", "132714.931000", "132714.933000", "132714.936000", "132714.939000", "132714.942000", "132714.945000", "132714.947000", "132714.950000", "132754.879000", "132754.882000", "132754.885000", "132754.887000", "132754.890000", "132754.892000", "132754.895000", "132754.897000", "132754.900000", "132754.902000", "132754.905000", "132754.907000", "132754.910000", "132754.912000", "132754.915000", "132754.917000", "132754.920000", "132754.922000", "132754.925000", "132754.927000", "132754.930000", "132754.932000", "132754.935000", "132754.937000", "132754.940000", "132754.942000", "132754.945000", "132834.882000", "132834.885000", "132834.887000", "132834.890000", "132834.893000", "132834.895000", "132834.898000", "132834.900000", "132834.903000", "132834.905000", "132834.908000", "132834.910000", "132834.913000", "132834.915000", "132834.918000", "132834.920000", "132834.923000", "132834.925000", "132834.928000", "132834.930000", "132834.933000", "132834.935000", "132834.938000", "132834.940000", "132834.943000", "132834.945000", "132834.948000", "132842.970000", "132842.973000", "132842.975000", "132842.978000", "132842.980000", "132842.983000"],
      "InstanceCreationTime": ["132454.819000", "132454.822000", "132454.825000", "132514.869000", "132514.871000", "132514.874000", "132514.876000", "132514.879000", "132514.881000", "132514.888000", "132514.891000", "132514.893000", "132514.896000", "132514.898000", "132514.901000", "132514.903000", "132514.906000", "132514.908000", "132514.911000", "132514.913000", "132514.916000", "132514.918000", "132514.921000", "132534.846000", "132534.850000", "132534.853000", "132534.856000", "132534.859000", "132534.861000", "132534.864000", "132534.867000", "132534.869000", "132534.872000", "132534.875000", "132534.877000", "132534.879000", "132534.882000", "132534.884000", "132534.887000", "132534.889000", "132534.892000", "132534.894000", "132534.897000", "132554.901000", "132554.904000", "132554.906000", "132554.909000", "132554.911000", "132554.914000", "132554.916000", "132554.919000", "132554.921000", "132554.924000", "132554.926000", "132554.929000", "132554.931000", "132554.934000", "132554.936000", "132554.939000", "132554.941000", "132554.944000", "132554.946000", "132554.949000", "132554.951000", "132614.905000", "132614.908000", "132614.911000", "132614.913000", "132614.916000", "132614.918000", "132614.921000", "132614.923000", "132614.926000", "132614.928000", "132614.931000", "132614.933000", "132614.936000", "132614.938000", "132614.941000", "132614.943000", "132614.946000", "132614.948000", "132614.951000", "132614.953000", "132634.864000", "132634.867000", "132634.870000", "132634.872000", "132634.875000", "132634.877000", "132634.880000", "132634.882000", "132634.885000", "132634.887000", "132634.890000", "132634.892000", "132634.895000", "132634.897000", "132634.900000", "132634.902000", "132634.905000", "132634.907000", "132634.910000", "132634.912000", "132714.883000", "132714.886000", "132714.888000", "132714.891000", "132714.894000", "132714.896000", "132714.899000", "132714.901000", "132714.904000", "132714.906000", "132714.909000", "132714.911000", "132714.914000", "132714.916000", "132714.919000", "132714.922000", "132714.925000", "132714.928000", "132714.931000", "132714.933000", "132714.936000", "132714.939000", "132714.942000", "132714.945000", "132714.947000", "132714.950000", "132754.879000", "132754.882000", "132754.885000", "132754.887000", "132754.890000", "132754.892000", "132754.895000", "132754.897000", "132754.900000", "132754.902000", "132754.905000", "132754.907000", "132754.910000", "132754.912000", "132754.915000", "132754.917000", "132754.920000", "132754.922000", "132754.925000", "132754.927000", "132754.930000", "132754.932000", "132754.935000", "132754.937000", "132754.940000", "132754.942000", "132754.945000", "132834.882000", "132834.885000", "132834.887000", "132834.890000", "132834.893000", "132834.895000", "132834.898000", "132834.900000", "132834.903000", "132834.905000", "132834.908000", "132834.910000", "132834.913000", "132834.915000", "132834.918000", "132834.920000", "132834.923000", "132834.925000", "132834.928000", "132834.930000", "132834.933000", "132834.935000", "132834.938000", "132834.940000", "132834.943000", "132834.945000", "132834.948000", "132842.970000", "132842.973000", "132842.975000", "132842.978000", "132842.980000", "132842.983000"],
      "InstanceNumber": [1, 2, 3, 4, 5, 6, 7, 8, 9, 10, 11, 12, 13, 14, 15, 16, 17, 18, 19, 20, 21, 22, 23, 24, 25, 26, 27, 28, 29, 30, 31, 32, 33, 34, 35, 36, 37, 38, 39, 40, 41, 42, 43, 44, 45, 46, 47, 48, 49, 50, 51, 52, 53, 54, 55, 56, 57, 58, 59, 60, 61, 62, 63, 64, 65, 66, 67, 68, 69, 70, 71, 72, 73, 74, 75, 76, 77, 78, 79, 80, 81, 82, 83, 84, 85, 86, 87, 88, 89, 90, 91, 92, 93, 94, 95, 96, 97, 98, 99, 100, 101, 102, 103, 104, 105, 106, 107, 108, 109, 110, 111, 112, 113, 114, 115, 116, 117, 118, 119, 120, 121, 122, 123, 124, 125, 126, 127, 128, 129, 130, 131, 132, 133, 134, 135, 136, 137, 138, 139, 140, 141, 142, 143, 144, 145, 146, 147, 148, 149, 150, 151, 152, 153, 154, 155, 156, 157, 158, 159, 160, 161, 162, 163, 164, 165, 166, 167, 168, 169, 170, 171, 172, 173, 174, 175, 176, 177, 178, 179, 180, 181, 182, 183, 184, 185, 186, 187, 188, 189, 190],
      "WindowCenter": [4866.0, 4862.0, 4864.0, 4862.0, 4860.0, 4864.0, 4862.0, 4866.0, 4862.0, 4864.0, 4862.0, 4864.0, 4864.0, 4866.0, 4864.0, 4864.0, 4864.0, 4862.0, 4864.0, 4862.0, 4868.0, 4862.0, 4862.0, 4862.0, 4866.0, 4862.0, 4862.0, 4862.0, 4860.0, 4866.0, 4862.0, 4864.0, 4860.0, 4864.0, 4860.0, 4866.0, 4866.0, 4864.0, 4862.0, 4864.0, 4866.0, 4860.0, 4862.0, 4862.0, 4860.0, 4864.0, 4860.0, 4864.0, 4864.0, 4862.0, 4862.0, 4864.0, 4862.0, 4864.0, 4862.0, 4864.0, 4864.0, 4862.0, 4860.0, 4864.0, 4864.0, 4864.0, 4860.0, 4862.0, 4862.0, 4860.0, 4858.0, 4866.0, 4864.0, 4864.0, 4862.0, 4862.0, 4864.0, 4862.0, 4860.0, 4862.0, 4862.0, 4834.0, 4862.0, 4862.0, 4862.0, 4860.0, 4864.0, 4862.0, 4866.0, 4860.0, 4862.0, 4860.0, 4862.0, 4862.0, 4860.0, 4860.0, 4862.0, 4862.0, 4862.0, 4864.0, 4860.0, 4860.0, 4834.0, 4862.0, 4860.0, 4836.0, 4862.0, 4860.0, 4866.0, 4836.0, 4858.0, 4858.0, 4860.0, 4862.0, 4858.0, 4864.0, 4860.0, 4864.0, 4860.0, 4862.0, 4858.0, 4864.0, 4858.0, 4860.0, 4856.0, 4860.0, 4856.0, 4862.0, 4864.0, 4862.0, 4862.0, 4836.0, 4860.0, 4862.0, 4862.0, 4864.0, 4836.0, 4862.0, 4858.0, 4862.0, 4836.0, 4836.0, 4860.0, 4860.0, 4860.0, 4858.0, 4862.0, 4836.0, 4862.0, 4860.0, 4860.0, 4858.0, 4856.0, 4858.0, 4832.0, 4858.0, 4862.0, 4860.0, 4860.0, 4860.0, 4858.0, 4860.0, 4858.0, 4860.0, 4836.0, 4862.0, 4860.0, 4860.0, 4860.0, 4860.0, 4858.0, 4864.0, 4836.0, 4836.0, 4858.0, 4838.0, 4860.0, 4862.0, 4858.0, 4862.0, 4858.0, 4860.0, 4860.0, 4858.0, 4860.0, 4858.0, 4860.0, 4858.0, 4858.0, 4860.0, 4864.0, 4862.0, 4862.0, 4858.0],
      "WindowWidth": [18700.0, 18692.0, 18696.0, 18698.0, 18692.0, 18694.0, 18696.0, 18698.0, 18696.0, 18700.0, 18696.0, 18692.0, 18696.0, 18698.0, 18696.0, 18702.0, 18696.0, 18694.0, 18694.0, 18692.0, 18702.0, 18694.0, 18692.0, 18692.0, 18698.0, 18696.0, 18694.0, 18694.0, 18694.0, 18702.0, 18696.0, 18696.0, 18688.0, 18698.0, 18692.0, 18702.0, 18698.0, 18694.0, 18694.0, 18702.0, 18700.0, 18696.0, 18696.0, 18698.0, 18698.0, 18698.0, 18696.0, 18698.0, 18700.0, 18694.0, 18696.0, 18698.0, 18692.0, 18696.0, 18696.0, 18700.0, 18696.0, 18698.0, 18698.0, 18696.0, 18698.0, 18696.0, 18694.0, 18696.0, 18690.0, 18694.0, 18690.0, 18700.0, 18700.0, 18700.0, 18694.0, 18696.0, 18696.0, 18696.0, 18692.0, 18696.0, 18692.0, 18662.0, 18690.0, 18694.0, 18698.0, 18692.0, 18694.0, 18700.0, 18698.0, 18696.0, 18700.0, 18694.0, 18696.0, 18694.0, 18692.0, 18694.0, 18698.0, 18698.0, 18698.0, 18700.0, 18696.0, 18696.0, 18666.0, 18696.0, 18696.0, 18662.0, 18700.0, 18696.0, 18696.0, 18666.0, 18694.0, 18694.0, 18698.0, 18700.0, 18692.0, 18700.0, 18694.0, 18696.0, 18694.0, 18694.0, 18694.0, 18694.0, 18692.0, 18696.0, 18698.0, 18692.0, 18694.0, 18698.0, 18700.0, 18696.0, 18696.0, 18666.0, 18696.0, 18696.0, 18696.0, 18696.0, 18664.0, 18692.0, 18694.0, 18694.0, 18662.0, 18664.0, 18694.0, 18698.0, 18694.0, 18690.0, 18696.0, 18666.0, 18700.0, 18696.0, 18694.0, 18696.0, 18694.0, 18692.0, 18666.0, 18694.0, 18700.0, 18696.0, 18698.0, 18694.0, 18698.0, 18696.0, 18696.0, 18692.0, 18664.0, 18692.0, 18692.0, 18698.0, 18694.0, 18696.0, 18696.0, 18694.0, 18658.0, 18662.0, 18698.0, 18664.0, 18694.0, 18698.0, 18696.0, 18700.0, 18690.0, 18696.0, 18698.0, 18694.0, 18696.0, 18692.0, 18696.0, 18692.0, 18694.0, 18696.0, 18698.0, 18692.0, 18696.0, 18692.0]
    },
    "slices": {}
  }
}