{
  "AcquisitionMatrixPE": 104,
  "AcquisitionNumber": 1,
  "AcquisitionTime": "13:48:32.547500",
  "BandwidthPerPixelPhaseEncode": 17.17,
  "BaseResolution": 104,
  "BodyPartExamined": "BRAIN",
  "CoilString": "HC1-7;NC1_2",
  "ConsistencyInfo": "N4_VE11C_LATEST_20160120",
  "ConversionSoftware": "dcm2niix",
  "ConversionSoftwareVersion": "v1.0.20190902",
  "DerivedVendorReportedEchoSpacing": 0.000560011,
  "DeviceSerialNumber": "167006",
  "DwellTime": 2.1e-06,
  "EchoTime": 0.037,
  "EchoTrainLength": 104,
  "EffectiveEchoSpacing": 0.000560011,
  "FlipAngle": 52,
  "ImageComments": "Unaliased_MB4_PE3_LB",
  "ImageOrientationPatientDICOM": [0.998891, 0.0273447, 0.0383392, -0.0186565, 0.977314, -0.210973],
  "ImageType": [
    "ORIGINAL",
    "PRIMARY",
    "P",
    "MB",
    "ND",
    "MOSAIC"
],
  "ImagingFrequency": 123.259,
  "InPlanePhaseEncodingDirectionDICOM": "COL",
  "InstitutionAddress": "Chemin_Queen-Mary_4565_Montreal_District_CA_H3W_1W5",
  "InstitutionName": "IUGM",
  "InstitutionalDepartmentName": "Department",
  "MRAcquisitionType": "2D",
  "MagneticFieldStrength": 3,
  "Manufacturer": "Siemens",
  "ManufacturersModelName": "Prisma_fit",
  "Modality": "MR",
  "MultibandAccelerationFactor": 4,
  "PartialFourier": 1,
  "PatientPosition": "HFS",
  "PercentPhaseFOV": 100,
  "PhaseEncodingDirection": "j",
  "PhaseEncodingSteps": 104,
  "PhaseResolution": 1,
  "PixelBandwidth": 2290,
  "ProcedureStepDescription": "memory_things",
  "ProtocolName": "func_task-things_run-5",
  "PulseSequenceDetails": "%CustomerSeq%_cmrr_mbep2d_bold",
  "ReceiveCoilActiveElements": "HC1-7;NC1,2",
  "ReceiveCoilName": "HeadNeck_64",
  "ReconMatrixPE": 104,
  "RepetitionTime": 1.49,
  "SAR": 0.0428478,
  "ScanOptions": "FS",
  "ScanningSequence": "EP",
  "SequenceName": "epfid2d1_104",
  "SequenceVariant": "SK_SS",
  "SeriesDescription": "func_task-things_run-5",
  "SeriesNumber": 23,
  "ShimSetting": [637, -7228, -8789, 728, 52, -46, 131, -18],
  "SliceThickness": 2,
  "SliceTiming": [0, 0.785, 0.0975, 0.8825, 0.195, 0.98, 0.295, 1.0775, 0.3925, 1.175, 0.49, 1.275, 0.5875, 1.3725, 0.685, 0, 0.785, 0.0975, 0.8825, 0.195, 0.98, 0.295, 1.0775, 0.3925, 1.175, 0.49, 1.275, 0.5875, 1.3725, 0.685, 0, 0.785, 0.0975, 0.8825, 0.195, 0.98, 0.295, 1.0775, 0.3925, 1.175, 0.49, 1.275, 0.5875, 1.3725, 0.685, 0, 0.785, 0.0975, 0.8825, 0.195, 0.98, 0.295, 1.0775, 0.3925, 1.175, 0.49, 1.275, 0.5875, 1.3725, 0.685],
  "SoftwareVersions": "syngo_MR_E11",
  "SpacingBetweenSlices": 2,
  "StationName": "MRC35049",
  "TaskName": "things",
  "TotalReadoutTime": 0.0576811,
  "TxRefAmp": 222.055,
  "WipMemBlock": "6e500d31-32ab-4ec2-a663-3ce21993c87f||Sequence: R016 ve11c/master r/e634e98; Dec 19 2017 11:00:25 by eja",
  "dcmmeta_affine": [
    [-1.9977811574935913, -0.03731302544474602, 0.08647678047418594, 108.52408599853516],
    [-0.054689403623342514, 1.954627513885498, -0.42004796862602234, -74.64002227783203],
    [0.0766783133149147, 0.42194664478302, 1.953479290008545, -61.08070755004883],
    [0.0, 0.0, 0.0, 1.0]
],
  "dcmmeta_reorient_transform": [
    [0.0, -1.0, 0.0, 103.0],
    [1.0, 0.0, 0.0, 0.0],
    [0.0, 0.0, 1.0, 0.0],
    [0.0, 0.0, 0.0, 1.0]
],
  "dcmmeta_shape": [104, 104, 60, 190],
  "dcmmeta_slice_dim": 2,
  "dcmmeta_version": 0.6,
  "global": {
    "const": {
      "AcquisitionMatrix": [104, 0, 0, 104],
      "AngioFlag": "N",
      "BitsAllocated": 16,
      "BitsStored": 16,
      "BodyPartExamined": "BRAIN",
      "Columns": 832,
      "EchoNumbers": 1,
      "EchoTime": 37.0,
      "EchoTrainLength": 104,
      "FlipAngle": 52.0,
      "HighBit": 15,
      "ImageOrientationPatient": [0.99889057268662, 0.02734470232172, 0.03833915821629, -0.0186565123597, 0.97731376308514, -0.2109733230315],
      "ImagePositionPatient": [-818.29124417722, -858.07797258252, 108.05746741137],
      "ImageType": [
        "ORIGINAL",
        "PRIMARY",
        "P",
        "MB",
        "ND",
        "MOSAIC"
],
      "ImagedNucleus": "1H",
      "ImagingFrequency": 123.258922,
      "InPlanePhaseEncodingDirection": "COL",
      "LargestImagePixelValue": 4095,
      "MRAcquisitionType": "2D",
      "MagneticFieldStrength": 3.0,
      "Manufacturer": "SIEMENS",
      "ManufacturerModelName": "Prisma_fit",
      "Modality": "MR",
      "NumberOfAverages": 1.0,
      "NumberOfPhaseEncodingSteps": 104,
      "PercentPhaseFieldOfView": 100.0,
      "PercentSampling": 100.0,
      "PerformedProcedureStepStartTime": "130501.984000",
      "PhotometricInterpretation": "MONOCHROME2",
      "PixelBandwidth": 2290.0,
      "PixelRepresentation": 0,
      "PixelSpacing": [2.0, 2.0],
      "ProtocolName": "func_task-things_run-5",
      "RepetitionTime": 1490.0,
      "RescaleIntercept": -4096.0,
      "RescaleSlope": 2.0,
      "RescaleType": "US",
      "Rows": 832,
      "SAR": 0.04284777714031,
      "SamplesPerPixel": 1,
      "ScanOptions": "FS",
      "ScanningSequence": "EP",
      "SequenceName": "epfid2d1_104",
      "SequenceVariant": [
        "SK",
        "SS"
],
      "SeriesDescription": "func_task-things_run-5",
      "SeriesNumber": 23,
      "SeriesTime": "135001.481000",
      "SliceLocation": -39.291348406374,
      "SliceThickness": 2.0,
      "SmallestImagePixelValue": 0,
      "SoftwareVersions": "syngo MR E11",
      "SpacingBetweenSlices": 1.9999999922656,
      "SpecificCharacterSet": "ISO_IR 100",
      "StudyID": "1",
      "StudyTime": "130501.836000",
      "TransmitCoilName": "Body",
      "VariableFlipAngleFlag": "N",
      "WindowCenterWidthExplanation": "Algo1",
      "dBdt": 0.0},
    "slices": {}
  },
  "time": {
    "samples": {
      "AcquisitionNumber": [1, 2, 3, 4, 5, 6, 7, 8, 9, 10, 11, 12, 13, 14, 15, 16, 17, 18, 19, 20, 21, 22, 23, 24, 25, 26, 27, 28, 29, 30, 31, 32, 33, 34, 35, 36, 37, 38, 39, 40, 41, 42, 43, 44, 45, 46, 47, 48, 49, 50, 51, 52, 53, 54, 55, 56, 57, 58, 59, 60, 61, 62, 63, 64, 65, 66, 67, 68, 69, 70, 71, 72, 73, 74, 75, 76, 77, 78, 79, 80, 81, 82, 83, 84, 85, 86, 87, 88, 89, 90, 91, 92, 93, 94, 95, 96, 97, 98, 99, 100, 101, 102, 103, 104, 105, 106, 107, 108, 109, 110, 111, 112, 113, 114, 115, 116, 117, 118, 119, 120, 121, 122, 123, 124, 125, 126, 127, 128, 129, 130, 131, 132, 133, 134, 135, 136, 137, 138, 139, 140, 141, 142, 143, 144, 145, 146, 147, 148, 149, 150, 151, 152, 153, 154, 155, 156, 157, 158, 159, 160, 161, 162, 163, 164, 165, 166, 167, 168, 169, 170, 171, 172, 173, 174, 175, 176, 177, 178, 179, 180, 181, 182, 183, 184, 185, 186, 187, 188, 189, 190],
      "AcquisitionTime": ["134832.547500", "134834.037500", "134835.527500", "134837.017500", "134838.507500", "134839.997500", "134841.487500", "134842.977500", "134844.467500", "134845.957500", "134847.447500", "134848.937500", "134850.427500", "134851.917500", "134853.407500", "134854.897500", "134856.387500", "134857.877500", "134859.367500", "134900.857500", "134902.347500", "134903.837500", "134905.327500", "134906.817500", "134908.307500", "134909.797500", "134911.287500", "134912.777500", "134914.267500", "134915.757500", "134917.247500", "134918.737500", "134920.227500", "134921.717500", "134923.207500", "134924.697500", "134926.187500", "134927.677500", "134929.167500", "134930.657500", "134932.147500", "134933.637500", "134935.127500", "134936.617500", "134938.107500", "134939.597500", "134941.087500", "134942.577500", "134944.067500", "134945.557500", "134947.047500", "134948.537500", "134950.027500", "134951.517500", "134953.007500", "134954.497500", "134955.987500", "134957.477500", "134958.967500", "135000.457500", "135001.947500", "135003.437500", "135004.927500", "135006.417500", "135007.907500", "135009.397500", "135010.887500", "135012.377500", "135013.867500", "135015.357500", "135016.847500", "135018.337500", "135019.827500", "135021.317500", "135022.807500", "135024.297500", "135025.787500", "135027.277500", "135028.767500", "135030.257500", "135031.747500", "135033.237500", "135034.727500", "135036.217500", "135037.707500", "135039.197500", "135040.687500", "135042.177500", "135043.667500", "135045.157500", "135046.647500", "135048.137500", "135049.627500", "135051.117500", "135052.607500", "135054.097500", "135055.587500", "135057.077500", "135058.567500", "135100.057500", "135101.547500", "135103.037500", "135104.527500", "135106.017500", "135107.507500", "135108.997500", "135110.487500", "135111.977500", "135113.467500", "135114.957500", "135116.447500", "135117.937500", "135119.427500", "135120.917500", "135122.407500", "135123.897500", "135125.387500", "135126.877500", "135128.367500", "135129.857500", "135131.347500", "135132.837500", "135134.327500", "135135.817500", "135137.307500", "135138.797500", "135140.287500", "135141.777500", "135143.267500", "135144.757500", "135146.247500", "135147.737500", "135149.227500", "135150.717500", "135152.207500", "135153.697500", "135155.187500", "135156.677500", "135158.167500", "135159.657500", "135201.147500", "135202.637500", "135204.127500", "135205.617500", "135207.107500", "135208.597500", "135210.087500", "135211.577500", "135213.067500", "135214.557500", "135216.047500", "135217.537500", "135219.027500", "135220.517500", "135222.007500", "135223.497500", "135224.987500", "135226.477500", "135227.967500", "135229.457500", "135230.947500", "135232.437500", "135233.927500", "135235.417500", "135236.907500", "135238.397500", "135239.887500", "135241.377500", "135242.867500", "135244.357500", "135245.847500", "135247.337500", "135248.827500", "135250.317500", "135251.807500", "135253.297500", "135254.787500", "135256.277500", "135257.767500", "135259.257500", "135300.747500", "135302.237500", "135303.727500", "135305.217500", "135306.707500", "135308.197500", "135309.687500", "135311.177500", "135312.667500", "135314.157500"],
      "ContentTime": ["135001.483000", "135001.486000", "135001.489000", "135001.491000", "135001.500000", "135001.503000", "135001.505000", "135001.508000", "135001.510000", "135001.513000", "135001.515000", "135001.518000", "135001.520000", "135001.523000", "135001.526000", "135001.528000", "135001.531000", "135001.533000", "135001.536000", "135001.538000", "135001.541000", "135001.543000", "135001.546000", "135001.548000", "135001.551000", "135001.560000", "135001.563000", "135001.565000", "135001.568000", "135001.570000", "135001.573000", "135001.575000", "135001.578000", "135001.580000", "135001.583000", "135021.817000", "135021.820000", "135021.822000", "135021.825000", "135021.827000", "135021.830000", "135021.832000", "135021.835000", "135021.837000", "135021.840000", "135021.842000", "135021.845000", "135021.847000", "135021.850000", "135021.852000", "135021.858000", "135021.861000", "135021.863000", "135021.866000", "135021.868000", "135041.388000", "135041.391000", "135041.393000", "135041.396000", "135041.398000", "135041.401000", "135041.403000", "135041.406000", "135041.408000", "135041.411000", "135041.413000", "135041.416000", "135041.418000", "135041.421000", "135041.423000", "135041.426000", "135041.428000", "135041.431000", "135041.433000", "135041.436000", "135041.438000", "135101.388000", "135101.391000", "135101.393000", "135101.396000", "135101.398000", "135101.401000", "135101.403000", "135101.406000", "135101.408000", "135101.411000", "135101.414000", "135101.416000", "135101.419000", "135101.421000", "135101.424000", "135101.426000", "135101.429000", "135101.431000", "135101.434000", "135101.436000", "135141.425000", "135141.428000", "135141.430000", "135141.433000", "135141.435000", "135141.438000", "135141.440000", "135141.443000", "135141.445000", "135141.448000", "135141.450000", "135141.453000", "135141.455000", "135141.458000", "135141.460000", "135141.463000", "135141.466000", "135141.468000", "135141.471000", "135141.473000", "135141.476000", "135141.478000", "135141.481000", "135141.483000", "135141.486000", "135141.488000", "135141.491000", "135141.493000", "135141.496000", "135141.498000", "135221.409000", "135221.412000", "135221.414000", "135221.417000", "135221.419000", "135221.422000", "135221.425000", "135221.427000", "135221.429000", "135221.432000", "135221.435000", "135221.437000", "135221.440000", "135221.442000", "135221.445000", "135221.447000", "135221.450000", "135221.452000", "135221.455000", "135221.457000", "135221.460000", "135221.462000", "135221.465000", "135221.467000", "135221.470000", "135221.473000", "135221.475000", "135301.411000", "135301.414000", "135301.416000", "135301.419000", "135301.421000", "135301.424000", "135301.426000", "135301.429000", "135301.431000", "135301.434000", "135301.436000", "135301.439000", "135301.442000", "135301.444000", "135301.447000", "135301.449000", "135301.452000", "135301.454000", "135301.457000", "135301.459000", "135301.462000", "135301.464000", "135301.467000", "135301.469000", "135301.472000", "135301.474000", "135316.361000", "135316.364000", "135316.367000", "135316.369000", "135316.372000", "135316.374000", "135316.377000", "135316.380000", "135316.383000", "135316.385000", "135316.388000"],
      "InstanceCreationTime": ["135001.483000", "135001.486000", "135001.489000", "135001.491000", "135001.500000", "135001.503000", "135001.505000", "135001.508000", "135001.510000", "135001.513000", "135001.515000", "135001.518000", "135001.520000", "135001.523000", "135001.526000", "135001.528000", "135001.531000", "135001.533000", "135001.536000", "135001.538000", "135001.541000", "135001.543000", "135001.546000", "135001.548000", "135001.551000", "135001.560000", "135001.563000", "135001.565000", "135001.568000", "135001.570000", "135001.573000", "135001.575000", "135001.578000", "135001.580000", "135001.583000", "135021.817000", "135021.820000", "135021.822000", "135021.825000", "135021.827000", "135021.830000", "135021.832000", "135021.835000", "135021.837000", "135021.840000", "135021.842000", "135021.845000", "135021.847000", "135021.850000", "135021.852000", "135021.858000", "135021.861000", "135021.863000", "135021.866000", "135021.868000", "135041.388000", "135041.391000", "135041.393000", "135041.396000", "135041.398000", "135041.401000", "135041.403000", "135041.406000", "135041.408000", "135041.411000", "135041.413000", "135041.416000", "135041.418000", "135041.421000", "135041.423000", "135041.426000", "135041.428000", "135041.431000", "135041.433000", "135041.436000", "135041.438000", "135101.388000", "135101.391000", "135101.393000", "135101.396000", "135101.398000", "135101.401000", "135101.403000", "135101.406000", "135101.408000", "135101.411000", "135101.414000", "135101.416000", "135101.419000", "135101.421000", "135101.424000", "135101.426000", "135101.429000", "135101.431000", "135101.434000", "135101.436000", "135141.425000", "135141.428000", "135141.430000", "135141.433000", "135141.435000", "135141.438000", "135141.440000", "135141.443000", "135141.445000", "135141.448000", "135141.450000", "135141.453000", "135141.455000", "135141.458000", "135141.460000", "135141.463000", "135141.466000", "135141.468000", "135141.471000", "135141.473000", "135141.476000", "135141.478000", "135141.481000", "135141.483000", "135141.486000", "135141.488000", "135141.491000", "135141.493000", "135141.496000", "135141.498000", "135221.409000", "135221.412000", "135221.414000", "135221.417000", "135221.419000", "135221.422000", "135221.425000", "135221.427000", "135221.429000", "135221.432000", "135221.435000", "135221.437000", "135221.440000", "135221.442000", "135221.445000", "135221.447000", "135221.450000", "135221.452000", "135221.455000", "135221.457000", "135221.460000", "135221.462000", "135221.465000", "135221.467000", "135221.470000", "135221.473000", "135221.475000", "135301.411000", "135301.414000", "135301.416000", "135301.419000", "135301.421000", "135301.424000", "135301.426000", "135301.429000", "135301.431000", "135301.434000", "135301.436000", "135301.439000", "135301.442000", "135301.444000", "135301.447000", "135301.449000", "135301.452000", "135301.454000", "135301.457000", "135301.459000", "135301.462000", "135301.464000", "135301.467000", "135301.469000", "135301.472000", "135301.474000", "135316.361000", "135316.364000", "135316.367000", "135316.369000", "135316.372000", "135316.374000", "135316.377000", "135316.380000", "135316.383000", "135316.385000", "135316.388000"],
      "InstanceNumber": [1, 2, 3, 4, 5, 6, 7, 8, 9, 10, 11, 12, 13, 14, 15, 16, 17, 18, 19, 20, 21, 22, 23, 24, 25, 26, 27, 28, 29, 30, 31, 32, 33, 34, 35, 36, 37, 38, 39, 40, 41, 42, 43, 44, 45, 46, 47, 48, 49, 50, 51, 52, 53, 54, 55, 56, 57, 58, 59, 60, 61, 62, 63, 64, 65, 66, 67, 68, 69, 70, 71, 72, 73, 74, 75, 76, 77, 78, 79, 80, 81, 82, 83, 84, 85, 86, 87, 88, 89, 90, 91, 92, 93, 94, 95, 96, 97, 98, 99, 100, 101, 102, 103, 104, 105, 106, 107, 108, 109, 110, 111, 112, 113, 114, 115, 116, 117, 118, 119, 120, 121, 122, 123, 124, 125, 126, 127, 128, 129, 130, 131, 132, 133, 134, 135, 136, 137, 138, 139, 140, 141, 142, 143, 144, 145, 146, 147, 148, 149, 150, 151, 152, 153, 154, 155, 156, 157, 158, 159, 160, 161, 162, 163, 164, 165, 166, 167, 168, 169, 170, 171, 172, 173, 174, 175, 176, 177, 178, 179, 180, 181, 182, 183, 184, 185, 186, 187, 188, 189, 190],
      "WindowCenter": [4870.0, 4866.0, 4864.0, 4868.0, 4866.0, 4870.0, 4894.0, 4868.0, 4892.0, 4868.0, 4868.0, 4866.0, 4872.0, 4866.0, 4872.0, 4870.0, 4868.0, 4870.0, 4868.0, 4892.0, 4870.0, 4870.0, 4870.0, 4870.0, 4864.0, 4868.0, 4868.0, 4872.0, 4866.0, 4866.0, 4870.0, 4870.0, 4868.0, 4868.0, 4868.0, 4870.0, 4866.0, 4870.0, 4868.0, 4870.0, 4870.0, 4868.0, 4868.0, 4870.0, 4870.0, 4892.0, 4872.0, 4866.0, 4872.0, 4872.0, 4870.0, 4870.0, 4868.0, 4870.0, 4892.0, 4870.0, 4872.0, 4870.0, 4872.0, 4894.0, 4868.0, 4868.0, 4892.0, 4868.0, 4868.0, 4868.0, 4892.0, 4870.0, 4872.0, 4868.0, 4872.0, 4870.0, 4874.0, 4864.0, 4892.0, 4870.0, 4868.0, 4866.0, 4870.0, 4866.0, 4870.0, 4874.0, 4872.0, 4868.0, 4872.0, 4868.0, 4868.0, 4892.0, 4870.0, 4868.0, 4892.0, 4868.0, 4870.0, 4870.0, 4868.0, 4868.0, 4894.0, 4892.0, 4868.0, 4868.0, 4866.0, 4866.0, 4866.0, 4868.0, 4872.0, 4866.0, 4866.0, 4866.0, 4870.0, 4870.0, 4866.0, 4892.0, 4866.0, 4870.0, 4870.0, 4868.0, 4868.0, 4870.0, 4868.0, 4896.0, 4866.0, 4872.0, 4864.0, 4894.0, 4866.0, 4872.0, 4868.0, 4868.0, 4868.0, 4870.0, 4868.0, 4870.0, 4868.0, 4870.0, 4890.0, 4868.0, 4890.0, 4870.0, 4868.0, 4870.0, 4890.0, 4868.0, 4868.0, 4892.0, 4864.0, 4872.0, 4868.0, 4868.0, 4868.0, 4870.0, 4872.0, 4866.0, 4868.0, 4870.0, 4868.0, 4870.0, 4894.0, 4870.0, 4868.0, 4868.0, 4868.0, 4866.0, 4870.0, 4868.0, 4870.0, 4868.0, 4870.0, 4870.0, 4874.0, 4864.0, 4868.0, 4866.0, 4866.0, 4870.0, 4870.0, 4868.0, 4868.0, 4872.0, 4870.0, 4870.0, 4870.0, 4866.0, 4868.0, 4864.0, 4892.0, 4870.0, 4892.0, 4866.0, 4870.0, 4868.0],
      "WindowWidth": [18696.0, 18704.0, 18698.0, 18704.0, 18700.0, 18702.0, 18726.0, 18698.0, 18730.0, 18702.0, 18700.0, 18700.0, 18702.0, 18698.0, 18704.0, 18704.0, 18708.0, 18702.0, 18698.0, 18730.0, 18702.0, 18700.0, 18704.0, 18704.0, 18700.0, 18704.0, 18704.0, 18700.0, 18700.0, 18696.0, 18704.0, 18700.0, 18704.0, 18700.0, 18700.0, 18700.0, 18696.0, 18704.0, 18700.0, 18708.0, 18696.0, 18706.0, 18700.0, 18706.0, 18702.0, 18726.0, 18698.0, 18704.0, 18702.0, 18704.0, 18702.0, 18706.0, 18702.0, 18702.0, 18732.0, 18704.0, 18704.0, 18706.0, 18700.0, 18734.0, 18704.0, 18702.0, 18732.0, 18702.0, 18700.0, 18706.0, 18732.0, 18700.0, 18706.0, 18698.0, 18702.0, 18700.0, 18704.0, 18696.0, 18730.0, 18700.0, 18702.0, 18696.0, 18700.0, 18698.0, 18700.0, 18700.0, 18700.0, 18708.0, 18702.0, 18704.0, 18696.0, 18738.0, 18696.0, 18702.0, 18734.0, 18706.0, 18704.0, 18702.0, 18704.0, 18702.0, 18732.0, 18734.0, 18700.0, 18700.0, 18698.0, 18698.0, 18698.0, 18706.0, 18704.0, 18698.0, 18700.0, 18702.0, 18704.0, 18702.0, 18696.0, 18736.0, 18696.0, 18706.0, 18702.0, 18698.0, 18700.0, 18704.0, 18704.0, 18730.0, 18704.0, 18702.0, 18702.0, 18730.0, 18698.0, 18702.0, 18706.0, 18700.0, 18706.0, 18704.0, 18702.0, 18698.0, 18702.0, 18704.0, 18730.0, 18696.0, 18732.0, 18706.0, 18702.0, 18702.0, 18728.0, 18700.0, 18704.0, 18734.0, 18700.0, 18708.0, 18704.0, 18702.0, 18702.0, 18700.0, 18704.0, 18698.0, 18702.0, 18704.0, 18702.0, 18708.0, 18736.0, 18704.0, 18698.0, 18702.0, 18700.0, 18698.0, 18700.0, 18702.0, 18702.0, 18702.0, 18704.0, 18710.0, 18704.0, 18702.0, 18702.0, 18700.0, 18698.0, 18704.0, 18704.0, 18702.0, 18700.0, 18704.0, 18706.0, 18702.0, 18698.0, 18702.0, 18700.0, 18700.0, 18734.0, 18704.0, 18734.0, 18698.0, 18700.0, 18698.0]
    },
    "slices": {}
  }
}