{
  "AcquisitionMatrixPE": 104,
  "AcquisitionNumber": 1,
  "AcquisitionTime": "13:36:29.935000",
  "BandwidthPerPixelPhaseEncode": 17.17,
  "BaseResolution": 104,
  "BodyPartExamined": "BRAIN",
  "CoilString": "HC1-7;NC1_2",
  "ConsistencyInfo": "N4_VE11C_LATEST_20160120",
  "ConversionSoftware": "dcm2niix",
  "ConversionSoftwareVersion": "v1.0.20190902",
  "DerivedVendorReportedEchoSpacing": 0.000560011,
  "DeviceSerialNumber": "167006",
  "DwellTime": 2.1e-06,
  "EchoTime": 0.037,
  "EchoTrainLength": 104,
  "EffectiveEchoSpacing": 0.000560011,
  "FlipAngle": 52,
  "ImageComments": "Unaliased_MB4_PE3_LB",
  "ImageOrientationPatientDICOM": [0.998891, 0.0273447, 0.0383392, -0.0186565, 0.977314, -0.210973],
  "ImageType": [
    "ORIGINAL",
    "PRIMARY",
    "P",
    "MB",
    "ND",
    "MOSAIC"
],
  "ImagingFrequency": 123.259,
  "InPlanePhaseEncodingDirectionDICOM": "COL",
  "InstitutionAddress": "Chemin_Queen-Mary_4565_Montreal_District_CA_H3W_1W5",
  "InstitutionName": "IUGM",
  "InstitutionalDepartmentName": "Department",
  "MRAcquisitionType": "2D",
  "MagneticFieldStrength": 3,
  "Manufacturer": "Siemens",
  "ManufacturersModelName": "Prisma_fit",
  "Modality": "MR",
  "MultibandAccelerationFactor": 4,
  "PartialFourier": 1,
  "PatientPosition": "HFS",
  "PercentPhaseFOV": 100,
  "PhaseEncodingDirection": "j",
  "PhaseEncodingSteps": 104,
  "PhaseResolution": 1,
  "PixelBandwidth": 2290,
  "ProcedureStepDescription": "memory_things",
  "ProtocolName": "func_task-things_run-3",
  "PulseSequenceDetails": "%CustomerSeq%_cmrr_mbep2d_bold",
  "ReceiveCoilActiveElements": "HC1-7;NC1,2",
  "ReceiveCoilName": "HeadNeck_64",
  "ReconMatrixPE": 104,
  "RepetitionTime": 1.49,
  "SAR": 0.0428478,
  "ScanOptions": "FS",
  "ScanningSequence": "EP",
  "SequenceName": "epfid2d1_104",
  "SequenceVariant": "SK_SS",
  "SeriesDescription": "func_task-things_run-3",
  "SeriesNumber": 17,
  "ShimSetting": [637, -7228, -8789, 728, 52, -46, 131, -18],
  "SliceThickness": 2,
  "SliceTiming": [0, 0.785, 0.0975, 0.8825, 0.195, 0.98, 0.295, 1.0775, 0.3925, 1.175, 0.49, 1.275, 0.5875, 1.3725, 0.685, 0, 0.785, 0.0975, 0.8825, 0.195, 0.98, 0.295, 1.0775, 0.3925, 1.175, 0.49, 1.275, 0.5875, 1.3725, 0.685, 0, 0.785, 0.0975, 0.8825, 0.195, 0.98, 0.295, 1.0775, 0.3925, 1.175, 0.49, 1.275, 0.5875, 1.3725, 0.685, 0, 0.785, 0.0975, 0.8825, 0.195, 0.98, 0.295, 1.0775, 0.3925, 1.175, 0.49, 1.275, 0.5875, 1.3725, 0.685],
  "SoftwareVersions": "syngo_MR_E11",
  "SpacingBetweenSlices": 2,
  "StationName": "MRC35049",
  "TaskName": "things",
  "TotalReadoutTime": 0.0576811,
  "TxRefAmp": 222.055,
  "WipMemBlock": "886c496f-3d4e-4b36-8619-a9ae0c75485c||Sequence: R016 ve11c/master r/e634e98; Dec 19 2017 11:00:25 by eja",
  "dcmmeta_affine": [
    [-1.9977811574935913, -0.03731302544474602, 0.08647678047418594, 108.52408599853516],
    [-0.054689403623342514, 1.954627513885498, -0.42004796862602234, -74.64002227783203],
    [0.0766783133149147, 0.42194664478302, 1.953479290008545, -61.08070755004883],
    [0.0, 0.0, 0.0, 1.0]
],
  "dcmmeta_reorient_transform": [
    [0.0, -1.0, 0.0, 103.0],
    [1.0, 0.0, 0.0, 0.0],
    [0.0, 0.0, 1.0, 0.0],
    [0.0, 0.0, 0.0, 1.0]
],
  "dcmmeta_shape": [104, 104, 60, 190],
  "dcmmeta_slice_dim": 2,
  "dcmmeta_version": 0.6,
  "global": {
    "const": {
      "AcquisitionMatrix": [104, 0, 0, 104],
      "AngioFlag": "N",
      "BitsAllocated": 16,
      "BitsStored": 16,
      "BodyPartExamined": "BRAIN",
      "Columns": 832,
      "EchoNumbers": 1,
      "EchoTime": 37.0,
      "EchoTrainLength": 104,
      "FlipAngle": 52.0,
      "HighBit": 15,
      "ImageOrientationPatient": [0.99889057268662, 0.02734470232172, 0.03833915821629, -0.0186565123597, 0.97731376308514, -0.2109733230315],
      "ImagePositionPatient": [-818.29124417722, -858.07797258252, 108.05746741137],
      "ImageType": [
        "ORIGINAL",
        "PRIMARY",
        "P",
        "MB",
        "ND",
        "MOSAIC"
],
      "ImagedNucleus": "1H",
      "ImagingFrequency": 123.258916,
      "InPlanePhaseEncodingDirection": "COL",
      "LargestImagePixelValue": 4095,
      "MRAcquisitionType": "2D",
      "MagneticFieldStrength": 3.0,
      "Manufacturer": "SIEMENS",
      "ManufacturerModelName": "Prisma_fit",
      "Modality": "MR",
      "NumberOfAverages": 1.0,
      "NumberOfPhaseEncodingSteps": 104,
      "PercentPhaseFieldOfView": 100.0,
      "PercentSampling": 100.0,
      "PerformedProcedureStepStartTime": "130501.984000",
      "PhotometricInterpretation": "MONOCHROME2",
      "PixelBandwidth": 2290.0,
      "PixelRepresentation": 0,
      "PixelSpacing": [2.0, 2.0],
      "ProtocolName": "func_task-things_run-3",
      "RepetitionTime": 1490.0,
      "RescaleIntercept": -4096.0,
      "RescaleSlope": 2.0,
      "RescaleType": "US",
      "Rows": 832,
      "SAR": 0.04284777714031,
      "SamplesPerPixel": 1,
      "ScanOptions": "FS",
      "ScanningSequence": "EP",
      "SequenceName": "epfid2d1_104",
      "SequenceVariant": [
        "SK",
        "SS"
],
      "SeriesDescription": "func_task-things_run-3",
      "SeriesNumber": 17,
      "SeriesTime": "133753.426000",
      "SliceLocation": -39.291348406374,
      "SliceThickness": 2.0,
      "SmallestImagePixelValue": 0,
      "SoftwareVersions": "syngo MR E11",
      "SpacingBetweenSlices": 1.9999999922656,
      "SpecificCharacterSet": "ISO_IR 100",
      "StudyID": "1",
      "StudyTime": "130501.836000",
      "TransmitCoilName": "Body",
      "VariableFlipAngleFlag": "N",
      "WindowCenterWidthExplanation": "Algo1",
      "dBdt": 0.0},
    "slices": {}
  },
  "time": {
    "samples": {
      "AcquisitionNumber": [1, 2, 3, 4, 5, 6, 7, 8, 9, 10, 11, 12, 13, 14, 15, 16, 17, 18, 19, 20, 21, 22, 23, 24, 25, 26, 27, 28, 29, 30, 31, 32, 33, 34, 35, 36, 37, 38, 39, 40, 41, 42, 43, 44, 45, 46, 47, 48, 49, 50, 51, 52, 53, 54, 55, 56, 57, 58, 59, 60, 61, 62, 63, 64, 65, 66, 67, 68, 69, 70, 71, 72, 73, 74, 75, 76, 77, 78, 79, 80, 81, 82, 83, 84, 85, 86, 87, 88, 89, 90, 91, 92, 93, 94, 95, 96, 97, 98, 99, 100, 101, 102, 103, 104, 105, 106, 107, 108, 109, 110, 111, 112, 113, 114, 115, 116, 117, 118, 119, 120, 121, 122, 123, 124, 125, 126, 127, 128, 129, 130, 131, 132, 133, 134, 135, 136, 137, 138, 139, 140, 141, 142, 143, 144, 145, 146, 147, 148, 149, 150, 151, 152, 153, 154, 155, 156, 157, 158, 159, 160, 161, 162, 163, 164, 165, 166, 167, 168, 169, 170, 171, 172, 173, 174, 175, 176, 177, 178, 179, 180, 181, 182, 183, 184, 185, 186, 187, 188, 189, 190],
      "AcquisitionTime": ["133629.935000", "133631.425000", "133632.915000", "133634.405000", "133635.895000", "133637.385000", "133638.875000", "133640.365000", "133641.855000", "133643.345000", "133644.835000", "133646.325000", "133647.815000", "133649.305000", "133650.795000", "133652.285000", "133653.775000", "133655.265000", "133656.755000", "133658.245000", "133659.735000", "133701.225000", "133702.715000", "133704.205000", "133705.695000", "133707.185000", "133708.675000", "133710.165000", "133711.655000", "133713.145000", "133714.635000", "133716.125000", "133717.615000", "133719.105000", "133720.595000", "133722.085000", "133723.575000", "133725.065000", "133726.555000", "133728.045000", "133729.535000", "133731.025000", "133732.515000", "133734.005000", "133735.495000", "133736.985000", "133738.475000", "133739.965000", "133741.455000", "133742.945000", "133744.435000", "133745.925000", "133747.415000", "133748.905000", "133750.395000", "133751.885000", "133753.375000", "133754.865000", "133756.355000", "133757.845000", "133759.335000", "133800.825000", "133802.315000", "133803.805000", "133805.295000", "133806.785000", "133808.275000", "133809.765000", "133811.255000", "133812.745000", "133814.235000", "133815.725000", "133817.215000", "133818.705000", "133820.195000", "133821.685000", "133823.175000", "133824.665000", "133826.155000", "133827.645000", "133829.135000", "133830.625000", "133832.115000", "133833.605000", "133835.095000", "133836.585000", "133838.075000", "133839.565000", "133841.055000", "133842.545000", "133844.035000", "133845.525000", "133847.015000", "133848.505000", "133849.995000", "133851.485000", "133852.975000", "133854.465000", "133855.955000", "133857.445000", "133858.935000", "133900.425000", "133901.915000", "133903.405000", "133904.895000", "133906.385000", "133907.875000", "133909.365000", "133910.855000", "133912.345000", "133913.835000", "133915.325000", "133916.815000", "133918.305000", "133919.795000", "133921.285000", "133922.775000", "133924.265000", "133925.755000", "133927.245000", "133928.735000", "133930.225000", "133931.715000", "133933.205000", "133934.695000", "133936.185000", "133937.675000", "133939.165000", "133940.655000", "133942.145000", "133943.635000", "133945.125000", "133946.615000", "133948.105000", "133949.595000", "133951.085000", "133952.575000", "133954.065000", "133955.555000", "133957.045000", "133958.535000", "134000.025000", "134001.515000", "134003.005000", "134004.495000", "134005.985000", "134007.475000", "134008.965000", "134010.455000", "134011.945000", "134013.435000", "134014.925000", "134016.415000", "134017.905000", "134019.395000", "134020.885000", "134022.375000", "134023.865000", "134025.355000", "134026.845000", "134028.335000", "134029.825000", "134031.315000", "134032.805000", "134034.295000", "134035.785000", "134037.275000", "134038.765000", "134040.255000", "134041.745000", "134043.235000", "134044.725000", "134046.215000", "134047.705000", "134049.195000", "134050.685000", "134052.175000", "134053.665000", "134055.155000", "134056.645000", "134058.135000", "134059.625000", "134101.115000", "134102.605000", "134104.095000", "134105.585000", "134107.075000", "134108.565000", "134110.055000", "134111.545000"],
      "ContentTime": ["133753.428000", "133753.431000", "133753.434000", "133753.436000", "133753.439000", "133753.441000", "133753.443000", "133753.450000", "133753.452000", "133753.455000", "133753.457000", "133753.460000", "133753.463000", "133753.465000", "133753.468000", "133753.470000", "133753.473000", "133753.475000", "133753.478000", "133753.480000", "133753.483000", "133753.485000", "133753.488000", "133753.491000", "133753.493000", "133753.495000", "133753.498000", "133753.500000", "133753.503000", "133813.311000", "133813.314000", "133813.317000", "133813.319000", "133813.322000", "133813.324000", "133813.327000", "133813.329000", "133813.332000", "133813.334000", "133813.337000", "133813.339000", "133813.341000", "133813.344000", "133813.346000", "133813.349000", "133813.351000", "133813.354000", "133813.356000", "133813.359000", "133833.305000", "133833.307000", "133833.310000", "133833.312000", "133833.315000", "133833.318000", "133833.320000", "133833.323000", "133833.325000", "133833.328000", "133833.330000", "133833.333000", "133833.335000", "133833.338000", "133833.340000", "133833.343000", "133833.346000", "133833.348000", "133833.350000", "133833.353000", "133853.309000", "133853.312000", "133853.315000", "133853.317000", "133853.320000", "133853.322000", "133853.335000", "133853.337000", "133853.340000", "133853.342000", "133853.345000", "133853.347000", "133853.350000", "133853.352000", "133853.355000", "133853.357000", "133853.360000", "133853.362000", "133853.365000", "133853.367000", "133913.308000", "133913.311000", "133913.314000", "133913.316000", "133913.319000", "133913.321000", "133913.324000", "133913.336000", "133913.338000", "133913.341000", "133913.343000", "133913.346000", "133913.348000", "133913.351000", "133913.353000", "133913.356000", "133913.358000", "133913.361000", "133913.363000", "133913.366000", "133953.333000", "133953.336000", "133953.339000", "133953.341000", "133953.344000", "133953.347000", "133953.350000", "133953.353000", "133953.356000", "133953.358000", "133953.361000", "133953.364000", "133953.367000", "133953.370000", "133953.373000", "133953.375000", "133953.378000", "133953.381000", "133953.397000", "133953.399000", "133953.402000", "133953.405000", "133953.407000", "133953.410000", "133953.412000", "133953.415000", "134033.329000", "134033.332000", "134033.335000", "134033.337000", "134033.340000", "134033.342000", "134033.345000", "134033.347000", "134033.350000", "134033.352000", "134033.355000", "134033.357000", "134033.360000", "134033.362000", "134033.365000", "134033.367000", "134033.370000", "134033.372000", "134033.375000", "134033.377000", "134033.380000", "134033.382000", "134033.385000", "134033.387000", "134033.390000", "134033.393000", "134033.395000", "134113.331000", "134113.333000", "134113.336000", "134113.339000", "134113.341000", "134113.344000", "134113.346000", "134113.349000", "134113.351000", "134113.354000", "134113.356000", "134113.359000", "134113.361000", "134113.364000", "134113.366000", "134113.369000", "134113.371000", "134113.374000", "134113.376000", "134113.379000", "134113.381000", "134113.384000", "134113.386000", "134113.389000", "134113.391000", "134113.394000", "134113.397000", "134113.891000"],
      "InstanceCreationTime": ["133753.428000", "133753.431000", "133753.434000", "133753.436000", "133753.439000", "133753.441000", "133753.443000", "133753.450000", "133753.452000", "133753.455000", "133753.457000", "133753.460000", "133753.463000", "133753.465000", "133753.468000", "133753.470000", "133753.473000", "133753.475000", "133753.478000", "133753.480000", "133753.483000", "133753.485000", "133753.488000", "133753.491000", "133753.493000", "133753.495000", "133753.498000", "133753.500000", "133753.503000", "133813.311000", "133813.314000", "133813.317000", "133813.319000", "133813.322000", "133813.324000", "133813.327000", "133813.329000", "133813.332000", "133813.334000", "133813.337000", "133813.339000", "133813.341000", "133813.344000", "133813.346000", "133813.349000", "133813.351000", "133813.354000", "133813.356000", "133813.359000", "133833.305000", "133833.307000", "133833.310000", "133833.312000", "133833.315000", "133833.318000", "133833.320000", "133833.323000", "133833.325000", "133833.328000", "133833.330000", "133833.333000", "133833.335000", "133833.338000", "133833.340000", "133833.343000", "133833.346000", "133833.348000", "133833.350000", "133833.353000", "133853.309000", "133853.312000", "133853.315000", "133853.317000", "133853.320000", "133853.322000", "133853.335000", "133853.337000", "133853.340000", "133853.342000", "133853.345000", "133853.347000", "133853.350000", "133853.352000", "133853.355000", "133853.357000", "133853.360000", "133853.362000", "133853.365000", "133853.367000", "133913.308000", "133913.311000", "133913.314000", "133913.316000", "133913.319000", "133913.321000", "133913.324000", "133913.336000", "133913.338000", "133913.341000", "133913.343000", "133913.346000", "133913.348000", "133913.351000", "133913.353000", "133913.356000", "133913.358000", "133913.361000", "133913.363000", "133913.366000", "133953.333000", "133953.336000", "133953.339000", "133953.341000", "133953.344000", "133953.347000", "133953.350000", "133953.353000", "133953.356000", "133953.358000", "133953.361000", "133953.364000", "133953.367000", "133953.370000", "133953.373000", "133953.375000", "133953.378000", "133953.381000", "133953.397000", "133953.399000", "133953.402000", "133953.405000", "133953.407000", "133953.410000", "133953.412000", "133953.415000", "134033.329000", "134033.332000", "134033.335000", "134033.337000", "134033.340000", "134033.342000", "134033.345000", "134033.347000", "134033.350000", "134033.352000", "134033.355000", "134033.357000", "134033.360000", "134033.362000", "134033.365000", "134033.367000", "134033.370000", "134033.372000", "134033.375000", "134033.377000", "134033.380000", "134033.382000", "134033.385000", "134033.387000", "134033.390000", "134033.393000", "134033.395000", "134113.331000", "134113.333000", "134113.336000", "134113.339000", "134113.341000", "134113.344000", "134113.346000", "134113.349000", "134113.351000", "134113.354000", "134113.356000", "134113.359000", "134113.361000", "134113.364000", "134113.366000", "134113.369000", "134113.371000", "134113.374000", "134113.376000", "134113.379000", "134113.381000", "134113.384000", "134113.386000", "134113.389000", "134113.391000", "134113.394000", "134113.397000", "134113.891000"],
      "InstanceNumber": [1, 2, 3, 4, 5, 6, 7, 8, 9, 10, 11, 12, 13, 14, 15, 16, 17, 18, 19, 20, 21, 22, 23, 24, 25, 26, 27, 28, 29, 30, 31, 32, 33, 34, 35, 36, 37, 38, 39, 40, 41, 42, 43, 44, 45, 46, 47, 48, 49, 50, 51, 52, 53, 54, 55, 56, 57, 58, 59, 60, 61, 62, 63, 64, 65, 66, 67, 68, 69, 70, 71, 72, 73, 74, 75, 76, 77, 78, 79, 80, 81, 82, 83, 84, 85, 86, 87, 88, 89, 90, 91, 92, 93, 94, 95, 96, 97, 98, 99, 100, 101, 102, 103, 104, 105, 106, 107, 108, 109, 110, 111, 112, 113, 114, 115, 116, 117, 118, 119, 120, 121, 122, 123, 124, 125, 126, 127, 128, 129, 130, 131, 132, 133, 134, 135, 136, 137, 138, 139, 140, 141, 142, 143, 144, 145, 146, 147, 148, 149, 150, 151, 152, 153, 154, 155, 156, 157, 158, 159, 160, 161, 162, 163, 164, 165, 166, 167, 168, 169, 170, 171, 172, 173, 174, 175, 176, 177, 178, 179, 180, 181, 182, 183, 184, 185, 186, 187, 188, 189, 190],
      "WindowCenter": [4862.0, 4864.0, 4866.0, 4864.0, 4864.0, 4858.0, 4862.0, 4856.0, 4862.0, 4858.0, 4868.0, 4862.0, 4864.0, 4866.0, 4862.0, 4864.0, 4862.0, 4862.0, 4864.0, 4860.0, 4862.0, 4864.0, 4860.0, 4864.0, 4864.0, 4864.0, 4862.0, 4866.0, 4862.0, 4864.0, 4862.0, 4864.0, 4862.0, 4864.0, 4862.0, 4860.0, 4862.0, 4862.0, 4864.0, 4836.0, 4864.0, 4860.0, 4866.0, 4858.0, 4862.0, 4862.0, 4862.0, 4862.0, 4862.0, 4856.0, 4862.0, 4860.0, 4862.0, 4860.0, 4862.0, 4860.0, 4866.0, 4860.0, 4866.0, 4862.0, 4862.0, 4862.0, 4858.0, 4860.0, 4864.0, 4862.0, 4862.0, 4862.0, 4860.0, 4858.0, 4860.0, 4858.0, 4864.0, 4866.0, 4868.0, 4862.0, 4858.0, 4836.0, 4860.0, 4860.0, 4862.0, 4862.0, 4860.0, 4860.0, 4862.0, 4862.0, 4862.0, 4862.0, 4860.0, 4862.0, 4860.0, 4866.0, 4860.0, 4864.0, 4860.0, 4862.0, 4864.0, 4862.0, 4862.0, 4860.0, 4862.0, 4862.0, 4862.0, 4862.0, 4860.0, 4862.0, 4862.0, 4864.0, 4866.0, 4862.0, 4862.0, 4864.0, 4860.0, 4860.0, 4858.0, 4860.0, 4862.0, 4862.0, 4866.0, 4862.0, 4864.0, 4864.0, 4864.0, 4862.0, 4864.0, 4860.0, 4860.0, 4860.0, 4864.0, 4862.0, 4864.0, 4862.0, 4864.0, 4860.0, 4860.0, 4856.0, 4862.0, 4856.0, 4864.0, 4858.0, 4860.0, 4860.0, 4864.0, 4866.0, 4864.0, 4862.0, 4862.0, 4862.0, 4862.0, 4862.0, 4862.0, 4860.0, 4858.0, 4860.0, 4858.0, 4862.0, 4858.0, 4862.0, 4862.0, 4862.0, 4862.0, 4860.0, 4864.0, 4862.0, 4862.0, 4862.0, 4860.0, 4864.0, 4858.0, 4862.0, 4862.0, 4858.0, 4862.0, 4860.0, 4862.0, 4860.0, 4864.0, 4860.0, 4864.0, 4862.0, 4862.0, 4860.0, 4864.0, 4862.0, 4858.0, 4860.0, 4860.0, 4862.0, 4862.0, 4860.0],
      "WindowWidth": [18698.0, 18696.0, 18698.0, 18700.0, 18700.0, 18694.0, 18696.0, 18690.0, 18702.0, 18696.0, 18698.0, 18700.0, 18698.0, 18698.0, 18702.0, 18700.0, 18696.0, 18700.0, 18698.0, 18700.0, 18696.0, 18696.0, 18696.0, 18700.0, 18706.0, 18696.0, 18700.0, 18700.0, 18702.0, 18698.0, 18696.0, 18702.0, 18696.0, 18700.0, 18706.0, 18694.0, 18702.0, 18694.0, 18702.0, 18668.0, 18700.0, 18696.0, 18704.0, 18696.0, 18698.0, 18696.0, 18698.0, 18696.0, 18698.0, 18690.0, 18698.0, 18700.0, 18698.0, 18696.0, 18694.0, 18696.0, 18698.0, 18692.0, 18698.0, 18696.0, 18696.0, 18698.0, 18694.0, 18700.0, 18698.0, 18696.0, 18700.0, 18700.0, 18700.0, 18694.0, 18696.0, 18694.0, 18696.0, 18696.0, 18702.0, 18694.0, 18696.0, 18666.0, 18696.0, 18700.0, 18698.0, 18698.0, 18700.0, 18698.0, 18694.0, 18698.0, 18696.0, 18702.0, 18700.0, 18694.0, 18696.0, 18702.0, 18696.0, 18702.0, 18696.0, 18694.0, 18702.0, 18698.0, 18698.0, 18698.0, 18698.0, 18700.0, 18696.0, 18696.0, 18702.0, 18702.0, 18696.0, 18700.0, 18704.0, 18700.0, 18700.0, 18694.0, 18696.0, 18696.0, 18694.0, 18696.0, 18696.0, 18700.0, 18698.0, 18696.0, 18698.0, 18696.0, 18698.0, 18696.0, 18698.0, 18700.0, 18694.0, 18700.0, 18698.0, 18696.0, 18700.0, 18696.0, 18700.0, 18696.0, 18696.0, 18692.0, 18698.0, 18694.0, 18704.0, 18694.0, 18696.0, 18696.0, 18696.0, 18698.0, 18698.0, 18694.0, 18696.0, 18696.0, 18702.0, 18700.0, 18700.0, 18696.0, 18694.0, 18692.0, 18696.0, 18702.0, 18694.0, 18698.0, 18696.0, 18694.0, 18698.0, 18694.0, 18698.0, 18700.0, 18702.0, 18698.0, 18696.0, 18702.0, 18696.0, 18696.0, 18700.0, 18696.0, 18696.0, 18700.0, 18702.0, 18702.0, 18704.0, 18698.0, 18694.0, 18698.0, 18698.0, 18696.0, 18696.0, 18698.0, 18696.0, 18694.0, 18700.0, 18698.0, 18698.0, 18698.0]
    },
    "slices": {}
  }
}