{
  "AcquisitionMatrixPE": 104,
  "AcquisitionNumber": 1,
  "AcquisitionTime": "13:54:41.630000",
  "BandwidthPerPixelPhaseEncode": 17.17,
  "BaseResolution": 104,
  "BodyPartExamined": "BRAIN",
  "CoilString": "HC1-7;NC1_2",
  "ConsistencyInfo": "N4_VE11C_LATEST_20160120",
  "ConversionSoftware": "dcm2niix",
  "ConversionSoftwareVersion": "v1.0.20190902",
  "DerivedVendorReportedEchoSpacing": 0.000560011,
  "DeviceSerialNumber": "167006",
  "DwellTime": 2.1e-06,
  "EchoTime": 0.037,
  "EchoTrainLength": 104,
  "EffectiveEchoSpacing": 0.000560011,
  "FlipAngle": 52,
  "ImageComments": "Unaliased_MB4_PE3_LB",
  "ImageOrientationPatientDICOM": [0.998891, 0.0273447, 0.0383392, -0.0186565, 0.977314, -0.210973],
  "ImageType": [
    "ORIGINAL",
    "PRIMARY",
    "M",
    "MB",
    "ND",
    "MOSAIC"
],
  "ImagingFrequency": 123.259,
  "InPlanePhaseEncodingDirectionDICOM": "COL",
  "InstitutionAddress": "Chemin_Queen-Mary_4565_Montreal_District_CA_H3W_1W5",
  "InstitutionName": "IUGM",
  "InstitutionalDepartmentName": "Department",
  "MRAcquisitionType": "2D",
  "MagneticFieldStrength": 3,
  "Manufacturer": "Siemens",
  "ManufacturersModelName": "Prisma_fit",
  "Modality": "MR",
  "MultibandAccelerationFactor": 4,
  "PartialFourier": 1,
  "PatientPosition": "HFS",
  "PercentPhaseFOV": 100,
  "PhaseEncodingDirection": "j",
  "PhaseEncodingSteps": 104,
  "PhaseResolution": 1,
  "PixelBandwidth": 2290,
  "ProcedureStepDescription": "memory_things",
  "ProtocolName": "func_task-things_run-6",
  "PulseSequenceDetails": "%CustomerSeq%_cmrr_mbep2d_bold",
  "ReceiveCoilActiveElements": "HC1-7;NC1,2",
  "ReceiveCoilName": "HeadNeck_64",
  "ReconMatrixPE": 104,
  "RepetitionTime": 1.49,
  "SAR": 0.0428478,
  "ScanOptions": "FS",
  "ScanningSequence": "EP",
  "SequenceName": "epfid2d1_104",
  "SequenceVariant": "SK_SS",
  "SeriesDescription": "func_task-things_run-6",
  "SeriesNumber": 25,
  "ShimSetting": [637, -7228, -8789, 728, 52, -46, 131, -18],
  "SliceThickness": 2,
  "SliceTiming": [0, 0.785, 0.1, 0.8825, 0.1975, 0.98, 0.295, 1.08, 0.3925, 1.1775, 0.49, 1.275, 0.59, 1.3725, 0.6875, 0, 0.785, 0.1, 0.8825, 0.1975, 0.98, 0.295, 1.08, 0.3925, 1.1775, 0.49, 1.275, 0.59, 1.3725, 0.6875, 0, 0.785, 0.1, 0.8825, 0.1975, 0.98, 0.295, 1.08, 0.3925, 1.1775, 0.49, 1.275, 0.59, 1.3725, 0.6875, 0, 0.785, 0.1, 0.8825, 0.1975, 0.98, 0.295, 1.08, 0.3925, 1.1775, 0.49, 1.275, 0.59, 1.3725, 0.6875],
  "SoftwareVersions": "syngo_MR_E11",
  "SpacingBetweenSlices": 2,
  "StationName": "MRC35049",
  "TaskName": "things",
  "TotalReadoutTime": 0.0576811,
  "TxRefAmp": 222.055,
  "WipMemBlock": "4fa38f6c-276f-4caf-96eb-9638556c2ebe||Sequence: R016 ve11c/master r/e634e98; Dec 19 2017 11:00:25 by eja",
  "dcmmeta_affine": [
    [-1.9977811574935913, -0.03731302544474602, 0.08647678047418594, 108.52408599853516],
    [-0.054689403623342514, 1.954627513885498, -0.42004796862602234, -74.64002227783203],
    [0.0766783133149147, 0.42194664478302, 1.953479290008545, -61.08070755004883],
    [0.0, 0.0, 0.0, 1.0]
],
  "dcmmeta_reorient_transform": [
    [0.0, -1.0, 0.0, 103.0],
    [1.0, 0.0, 0.0, 0.0],
    [0.0, 0.0, 1.0, 0.0],
    [0.0, 0.0, 0.0, 1.0]
],
  "dcmmeta_shape": [104, 104, 60, 190],
  "dcmmeta_slice_dim": 2,
  "dcmmeta_version": 0.6,
  "global": {
    "const": {
      "AcquisitionMatrix": [104, 0, 0, 104],
      "AngioFlag": "N",
      "BitsAllocated": 16,
      "BitsStored": 16,
      "BodyPartExamined": "BRAIN",
      "Columns": 832,
      "EchoNumbers": 1,
      "EchoTime": 37.0,
      "EchoTrainLength": 104,
      "FlipAngle": 52.0,
      "HighBit": 15,
      "ImageOrientationPatient": [0.99889057268662, 0.02734470232172, 0.03833915821629, -0.0186565123597, 0.97731376308514, -0.2109733230315],
      "ImagePositionPatient": [-818.29124417722, -858.07797258252, 108.05746741137],
      "ImageType": [
        "ORIGINAL",
        "PRIMARY",
        "M",
        "MB",
        "ND",
        "MOSAIC"
],
      "ImagedNucleus": "1H",
      "ImagingFrequency": 123.258925,
      "InPlanePhaseEncodingDirection": "COL",
      "MRAcquisitionType": "2D",
      "MagneticFieldStrength": 3.0,
      "Manufacturer": "SIEMENS",
      "ManufacturerModelName": "Prisma_fit",
      "Modality": "MR",
      "NumberOfAverages": 1.0,
      "NumberOfPhaseEncodingSteps": 104,
      "PercentPhaseFieldOfView": 100.0,
      "PercentSampling": 100.0,
      "PerformedProcedureStepStartTime": "130501.984000",
      "PhotometricInterpretation": "MONOCHROME2",
      "PixelBandwidth": 2290.0,
      "PixelRepresentation": 0,
      "PixelSpacing": [2.0, 2.0],
      "ProtocolName": "func_task-things_run-6",
      "RepetitionTime": 1490.0,
      "Rows": 832,
      "SAR": 0.04284777714031,
      "SamplesPerPixel": 1,
      "ScanOptions": "FS",
      "ScanningSequence": "EP",
      "SequenceName": "epfid2d1_104",
      "SequenceVariant": [
        "SK",
        "SS"
],
      "SeriesDescription": "func_task-things_run-6",
      "SeriesNumber": 25,
      "SeriesTime": "135553.233000",
      "SliceLocation": -39.291348406374,
      "SliceThickness": 2.0,
      "SmallestImagePixelValue": 0,
      "SoftwareVersions": "syngo MR E11",
      "SpacingBetweenSlices": 1.9999999922656,
      "SpecificCharacterSet": "ISO_IR 100",
      "StudyID": "1",
      "StudyTime": "130501.836000",
      "TransmitCoilName": "Body",
      "VariableFlipAngleFlag": "N",
      "WindowCenterWidthExplanation": "Algo1",
      "dBdt": 0.0},
    "slices": {}
  },
  "time": {
    "samples": {
      "AcquisitionNumber": [1, 2, 3, 4, 5, 6, 7, 8, 9, 10, 11, 12, 13, 14, 15, 16, 17, 18, 19, 20, 21, 22, 23, 24, 25, 26, 27, 28, 29, 30, 31, 32, 33, 34, 35, 36, 37, 38, 39, 40, 41, 42, 43, 44, 45, 46, 47, 48, 49, 50, 51, 52, 53, 54, 55, 56, 57, 58, 59, 60, 61, 62, 63, 64, 65, 66, 67, 68, 69, 70, 71, 72, 73, 74, 75, 76, 77, 78, 79, 80, 81, 82, 83, 84, 85, 86, 87, 88, 89, 90, 91, 92, 93, 94, 95, 96, 97, 98, 99, 100, 101, 102, 103, 104, 105, 106, 107, 108, 109, 110, 111, 112, 113, 114, 115, 116, 117, 118, 119, 120, 121, 122, 123, 124, 125, 126, 127, 128, 129, 130, 131, 132, 133, 134, 135, 136, 137, 138, 139, 140, 141, 142, 143, 144, 145, 146, 147, 148, 149, 150, 151, 152, 153, 154, 155, 156, 157, 158, 159, 160, 161, 162, 163, 164, 165, 166, 167, 168, 169, 170, 171, 172, 173, 174, 175, 176, 177, 178, 179, 180, 181, 182, 183, 184, 185, 186, 187, 188, 189, 190],
      "AcquisitionTime": ["135441.630000", "135443.120000", "135444.610000", "135446.100000", "135447.590000", "135449.080000", "135450.570000", "135452.060000", "135453.550000", "135455.040000", "135456.530000", "135458.020000", "135459.510000", "135501.000000", "135502.490000", "135503.980000", "135505.470000", "135506.960000", "135508.450000", "135509.940000", "135511.430000", "135512.920000", "135514.410000", "135515.900000", "135517.390000", "135518.880000", "135520.370000", "135521.860000", "135523.350000", "135524.840000", "135526.330000", "135527.820000", "135529.310000", "135530.800000", "135532.290000", "135533.780000", "135535.270000", "135536.760000", "135538.250000", "135539.740000", "135541.230000", "135542.720000", "135544.210000", "135545.700000", "135547.190000", "135548.680000", "135550.170000", "135551.660000", "135553.150000", "135554.640000", "135556.130000", "135557.620000", "135559.110000", "135600.600000", "135602.090000", "135603.580000", "135605.070000", "135606.560000", "135608.050000", "135609.540000", "135611.030000", "135612.520000", "135614.010000", "135615.500000", "135616.990000", "135618.480000", "135619.970000", "135621.460000", "135622.950000", "135624.440000", "135625.930000", "135627.420000", "135628.910000", "135630.400000", "135631.890000", "135633.380000", "135634.870000", "135636.360000", "135637.850000", "135639.340000", "135640.830000", "135642.320000", "135643.810000", "135645.300000", "135646.790000", "135648.280000", "135649.770000", "135651.260000", "135652.750000", "135654.240000", "135655.730000", "135657.220000", "135658.710000", "135700.200000", "135701.690000", "135703.180000", "135704.670000", "135706.160000", "135707.650000", "135709.140000", "135710.630000", "135712.120000", "135713.610000", "135715.100000", "135716.590000", "135718.080000", "135719.570000", "135721.060000", "135722.550000", "135724.040000", "135725.530000", "135727.020000", "135728.510000", "135730.000000", "135731.490000", "135732.980000", "135734.470000", "135735.960000", "135737.450000", "135738.940000", "135740.430000", "135741.920000", "135743.410000", "135744.900000", "135746.390000", "135747.880000", "135749.370000", "135750.860000", "135752.350000", "135753.840000", "135755.330000", "135756.820000", "135758.310000", "135759.800000", "135801.290000", "135802.780000", "135804.270000", "135805.760000", "135807.250000", "135808.740000", "135810.230000", "135811.720000", "135813.210000", "135814.700000", "135816.190000", "135817.680000", "135819.170000", "135820.660000", "135822.150000", "135823.640000", "135825.130000", "135826.620000", "135828.110000", "135829.600000", "135831.090000", "135832.580000", "135834.070000", "135835.560000", "135837.050000", "135838.540000", "135840.030000", "135841.520000", "135843.010000", "135844.500000", "135845.990000", "135847.480000", "135848.970000", "135850.460000", "135851.950000", "135853.440000", "135854.930000", "135856.420000", "135857.910000", "135859.400000", "135900.890000", "135902.380000", "135903.870000", "135905.360000", "135906.850000", "135908.340000", "135909.830000", "135911.320000", "135912.810000", "135914.300000", "135915.790000", "135917.280000", "135918.770000", "135920.260000", "135921.750000", "135923.240000"],
      "ContentTime": ["135553.236000", "135553.240000", "135553.243000", "135553.247000", "135553.250000", "135553.260000", "135553.263000", "135553.267000", "135553.270000", "135553.273000", "135553.277000", "135553.280000", "135553.283000", "135553.286000", "135553.290000", "135553.293000", "135613.185000", "135613.189000", "135613.199000", "135613.203000", "135613.206000", "135613.209000", "135613.213000", "135613.216000", "135613.219000", "135613.223000", "135613.226000", "135613.229000", "135613.233000", "135613.236000", "135613.239000", "135613.242000", "135613.246000", "135613.249000", "135613.253000", "135613.256000", "135633.186000", "135633.190000", "135633.193000", "135633.197000", "135633.200000", "135633.203000", "135633.206000", "135633.210000", "135633.213000", "135633.216000", "135633.220000", "135633.223000", "135633.226000", "135633.230000", "135633.233000", "135633.236000", "135633.240000", "135633.243000", "135633.246000", "135633.250000", "135653.187000", "135653.191000", "135653.195000", "135653.198000", "135653.202000", "135653.206000", "135653.209000", "135653.213000", "135653.216000", "135653.220000", "135653.223000", "135653.227000", "135653.230000", "135653.233000", "135653.236000", "135653.240000", "135653.243000", "135653.246000", "135653.250000", "135653.253000", "135713.186000", "135713.190000", "135713.197000", "135713.200000", "135713.204000", "135713.207000", "135713.210000", "135713.214000", "135713.236000", "135713.240000", "135713.243000", "135713.247000", "135713.250000", "135713.253000", "135713.256000", "135713.260000", "135713.263000", "135713.267000", "135713.270000", "135713.273000", "135713.276000", "135753.186000", "135753.190000", "135753.193000", "135753.197000", "135753.200000", "135753.204000", "135753.207000", "135753.210000", "135753.219000", "135753.222000", "135753.226000", "135753.229000", "135753.232000", "135753.236000", "135753.239000", "135753.242000", "135753.246000", "135753.249000", "135753.253000", "135753.256000", "135753.259000", "135753.263000", "135753.266000", "135753.270000", "135753.273000", "135753.276000", "135753.280000", "135753.283000", "135753.287000", "135753.290000", "135753.293000", "135833.185000", "135833.189000", "135833.192000", "135833.196000", "135833.199000", "135833.203000", "135833.206000", "135833.209000", "135833.213000", "135833.216000", "135833.219000", "135833.223000", "135833.226000", "135833.230000", "135833.233000", "135833.236000", "135833.240000", "135833.243000", "135833.246000", "135833.250000", "135833.253000", "135833.256000", "135833.260000", "135833.263000", "135833.267000", "135833.270000", "135833.273000", "135913.186000", "135913.190000", "135913.193000", "135913.197000", "135913.207000", "135913.210000", "135913.213000", "135913.217000", "135913.220000", "135913.224000", "135913.227000", "135913.230000", "135913.234000", "135913.237000", "135913.241000", "135913.244000", "135913.248000", "135913.251000", "135913.254000", "135913.258000", "135913.261000", "135913.264000", "135913.268000", "135913.271000", "135913.275000", "135913.278000", "135913.281000", "135925.089000", "135925.093000", "135925.096000", "135925.099000", "135925.103000", "135925.106000", "135925.120000", "135925.123000"],
      "InstanceCreationTime": ["135553.236000", "135553.240000", "135553.243000", "135553.247000", "135553.250000", "135553.260000", "135553.263000", "135553.267000", "135553.270000", "135553.273000", "135553.277000", "135553.280000", "135553.283000", "135553.286000", "135553.290000", "135553.293000", "135613.185000", "135613.189000", "135613.199000", "135613.203000", "135613.206000", "135613.209000", "135613.213000", "135613.216000", "135613.219000", "135613.223000", "135613.226000", "135613.229000", "135613.233000", "135613.236000", "135613.239000", "135613.242000", "135613.246000", "135613.249000", "135613.253000", "135613.256000", "135633.186000", "135633.190000", "135633.193000", "135633.197000", "135633.200000", "135633.203000", "135633.206000", "135633.210000", "135633.213000", "135633.216000", "135633.220000", "135633.223000", "135633.226000", "135633.230000", "135633.233000", "135633.236000", "135633.240000", "135633.243000", "135633.246000", "135633.250000", "135653.187000", "135653.191000", "135653.195000", "135653.198000", "135653.202000", "135653.206000", "135653.209000", "135653.213000", "135653.216000", "135653.220000", "135653.223000", "135653.227000", "135653.230000", "135653.233000", "135653.236000", "135653.240000", "135653.243000", "135653.246000", "135653.250000", "135653.253000", "135713.186000", "135713.190000", "135713.197000", "135713.200000", "135713.204000", "135713.207000", "135713.210000", "135713.214000", "135713.236000", "135713.240000", "135713.243000", "135713.247000", "135713.250000", "135713.253000", "135713.256000", "135713.260000", "135713.263000", "135713.267000", "135713.270000", "135713.273000", "135713.276000", "135753.186000", "135753.190000", "135753.193000", "135753.197000", "135753.200000", "135753.204000", "135753.207000", "135753.210000", "135753.219000", "135753.222000", "135753.226000", "135753.229000", "135753.232000", "135753.236000", "135753.239000", "135753.242000", "135753.246000", "135753.249000", "135753.253000", "135753.256000", "135753.259000", "135753.263000", "135753.266000", "135753.270000", "135753.273000", "135753.276000", "135753.280000", "135753.283000", "135753.287000", "135753.290000", "135753.293000", "135833.185000", "135833.189000", "135833.192000", "135833.196000", "135833.199000", "135833.203000", "135833.206000", "135833.209000", "135833.213000", "135833.216000", "135833.219000", "135833.223000", "135833.226000", "135833.230000", "135833.233000", "135833.236000", "135833.240000", "135833.243000", "135833.246000", "135833.250000", "135833.253000", "135833.256000", "135833.260000", "135833.263000", "135833.267000", "135833.270000", "135833.273000", "135913.186000", "135913.190000", "135913.193000", "135913.197000", "135913.207000", "135913.210000", "135913.213000", "135913.217000", "135913.220000", "135913.224000", "135913.227000", "135913.230000", "135913.234000", "135913.237000", "135913.241000", "135913.244000", "135913.248000", "135913.251000", "135913.254000", "135913.258000", "135913.261000", "135913.264000", "135913.268000", "135913.271000", "135913.275000", "135913.278000", "135913.281000", "135925.089000", "135925.093000", "135925.096000", "135925.099000", "135925.103000", "135925.106000", "135925.120000", "135925.123000"],
      "InstanceNumber": [1, 2, 3, 4, 5, 6, 7, 8, 9, 10, 11, 12, 13, 14, 15, 16, 17, 18, 19, 20, 21, 22, 23, 24, 25, 26, 27, 28, 29, 30, 31, 32, 33, 34, 35, 36, 37, 38, 39, 40, 41, 42, 43, 44, 45, 46, 47, 48, 49, 50, 51, 52, 53, 54, 55, 56, 57, 58, 59, 60, 61, 62, 63, 64, 65, 66, 67, 68, 69, 70, 71, 72, 73, 74, 75, 76, 77, 78, 79, 80, 81, 82, 83, 84, 85, 86, 87, 88, 89, 90, 91, 92, 93, 94, 95, 96, 97, 98, 99, 100, 101, 102, 103, 104, 105, 106, 107, 108, 109, 110, 111, 112, 113, 114, 115, 116, 117, 118, 119, 120, 121, 122, 123, 124, 125, 126, 127, 128, 129, 130, 131, 132, 133, 134, 135, 136, 137, 138, 139, 140, 141, 142, 143, 144, 145, 146, 147, 148, 149, 150, 151, 152, 153, 154, 155, 156, 157, 158, 159, 160, 161, 162, 163, 164, 165, 166, 167, 168, 169, 170, 171, 172, 173, 174, 175, 176, 177, 178, 179, 180, 181, 182, 183, 184, 185, 186, 187, 188, 189, 190],
      "LargestImagePixelValue": [40600, 39662, 39195, 38419, 38199, 38037, 37604, 37882, 38157, 37852, 38363, 37990, 38369, 38053, 38114, 37893, 38033, 38024, 38341, 37862, 37738, 37783, 37988, 37978, 38065, 37726, 37941, 38247, 38111, 37886, 37839, 38002, 37895, 37790, 37911, 37865, 38317, 38243, 37959, 37839, 37736, 38400, 38389, 38063, 38032, 37783, 37786, 37843, 38119, 37902, 37778, 38374, 38042, 37961, 38161, 38447, 38347, 38530, 38238, 38102, 38493, 37930, 38071, 38126, 38490, 37875, 38290, 37971, 37832, 38359, 38253, 38202, 38126, 38089, 38502, 38464, 38312, 37725, 38035, 38040, 38017, 37875, 37978, 38242, 38176, 37956, 37977, 37681, 38379, 38540, 37973, 38094, 37696, 38059, 38153, 38156, 38125, 37958, 38304, 38305, 37954, 37989, 37981, 37861, 37963, 38069, 38254, 38023, 38223, 37914, 37919, 38266, 38030, 38321, 37987, 37773, 38286, 37741, 37992, 38047, 38257, 38197, 38236, 38083, 38052, 37949, 38231, 37891, 38568, 38507, 37842, 38385, 38029, 37793, 37616, 38005, 38189, 38108, 38302, 37788, 37970, 38161, 37691, 38049, 38286, 37942, 38094, 38195, 37697, 37746, 37929, 38106, 38187, 38490, 37808, 38072, 38185, 37733, 38134, 38055, 38156, 38193, 37941, 37665, 38083, 37640, 37746, 37745, 37934, 37329, 37910, 37895, 37655, 38158, 37908, 37672, 38334, 38106, 37973, 38045, 38210, 37952, 37865, 37777, 37943, 38152, 37951, 37944, 37584, 37691],
      "WindowCenter": [10042.0, 10006.0, 9987.0, 9971.0, 9962.0, 9954.0, 9957.0, 9959.0, 9958.0, 9950.0, 9955.0, 9959.0, 9975.0, 9976.0, 9975.0, 9969.0, 9982.0, 9985.0, 9983.0, 9969.0, 9962.0, 9951.0, 9950.0, 9956.0, 9964.0, 9965.0, 9958.0, 9949.0, 9948.0, 9957.0, 9966.0, 9973.0, 9961.0, 9950.0, 9940.0, 9949.0, 9963.0, 9967.0, 9967.0, 9967.0, 9975.0, 9990.0, 9985.0, 9970.0, 9970.0, 9977.0, 9976.0, 9981.0, 9997.0, 9999.0, 9959.0, 9927.0, 9890.0, 9887.0, 9902.0, 9942.0, 9971.0, 9989.0, 9986.0, 9978.0, 9975.0, 9969.0, 9968.0, 9966.0, 9965.0, 9958.0, 9958.0, 9959.0, 9960.0, 9958.0, 9965.0, 9959.0, 9959.0, 9965.0, 9974.0, 9975.0, 9969.0, 9954.0, 9957.0, 9949.0, 9956.0, 9960.0, 9966.0, 9972.0, 9960.0, 9958.0, 9960.0, 9961.0, 9965.0, 9965.0, 9952.0, 9958.0, 9951.0, 9950.0, 9956.0, 9965.0, 9959.0, 9950.0, 9948.0, 9955.0, 9959.0, 9968.0, 9968.0, 9960.0, 9952.0, 9964.0, 9966.0, 9961.0, 9969.0, 9978.0, 9980.0, 9967.0, 9942.0, 9932.0, 9928.0, 9938.0, 9964.0, 9970.0, 9979.0, 9963.0, 9948.0, 9939.0, 9940.0, 9956.0, 9967.0, 9959.0, 9958.0, 9952.0, 9972.0, 9975.0, 9972.0, 9974.0, 9951.0, 9940.0, 9933.0, 9932.0, 9946.0, 9958.0, 9965.0, 9958.0, 9956.0, 9958.0, 9967.0, 9968.0, 9967.0, 9967.0, 9966.0, 9958.0, 9950.0, 9957.0, 9966.0, 9966.0, 9958.0, 9947.0, 9938.0, 9939.0, 9948.0, 9958.0, 9959.0, 9957.0, 9957.0, 9959.0, 9958.0, 9946.0, 9956.0, 9950.0, 9950.0, 9952.0, 9949.0, 9942.0, 9941.0, 9934.0, 9927.0, 9922.0, 9922.0, 9932.0, 9962.0, 9967.0, 9969.0, 9946.0, 9924.0, 9913.0, 9921.0, 9947.0, 9972.0, 9978.0, 9978.0, 9955.0, 9934.0, 9932.0],
      "WindowWidth": [21370.0, 21267.0, 21213.0, 21170.0, 21148.0, 21127.0, 21130.0, 21133.0, 21131.0, 21111.0, 21122.0, 21134.0, 21169.0, 21174.0, 21171.0, 21159.0, 21185.0, 21193.0, 21186.0, 21155.0, 21139.0, 21115.0, 21113.0, 21126.0, 21142.0, 21145.0, 21130.0, 21108.0, 21107.0, 21130.0, 21147.0, 21162.0, 21137.0, 21109.0, 21088.0, 21109.0, 21141.0, 21154.0, 21154.0, 21152.0, 21170.0, 21202.0, 21195.0, 21161.0, 21160.0, 21175.0, 21173.0, 21183.0, 21219.0, 21225.0, 21136.0, 21057.0, 20974.0, 20967.0, 21003.0, 21092.0, 21161.0, 21202.0, 21195.0, 21178.0, 21167.0, 21157.0, 21155.0, 21146.0, 21143.0, 21129.0, 21129.0, 21134.0, 21135.0, 21127.0, 21143.0, 21132.0, 21131.0, 21146.0, 21167.0, 21168.0, 21156.0, 21123.0, 21125.0, 21110.0, 21126.0, 21136.0, 21149.0, 21157.0, 21134.0, 21130.0, 21135.0, 21141.0, 21145.0, 21143.0, 21118.0, 21130.0, 21118.0, 21113.0, 21123.0, 21144.0, 21134.0, 21114.0, 21107.0, 21121.0, 21132.0, 21154.0, 21153.0, 21136.0, 21117.0, 21142.0, 21147.0, 21141.0, 21154.0, 21175.0, 21178.0, 21151.0, 21096.0, 21069.0, 21060.0, 21086.0, 21141.0, 21161.0, 21179.0, 21145.0, 21106.0, 21086.0, 21091.0, 21125.0, 21153.0, 21135.0, 21129.0, 21119.0, 21162.0, 21171.0, 21165.0, 21164.0, 21113.0, 21087.0, 21072.0, 21071.0, 21103.0, 21133.0, 21146.0, 21133.0, 21124.0, 21130.0, 21152.0, 21153.0, 21151.0, 21149.0, 21147.0, 21129.0, 21114.0, 21129.0, 21150.0, 21148.0, 21130.0, 21104.0, 21083.0, 21087.0, 21106.0, 21132.0, 21135.0, 21124.0, 21124.0, 21130.0, 21125.0, 21102.0, 21119.0, 21110.0, 21112.0, 21116.0, 21107.0, 21091.0, 21090.0, 21076.0, 21059.0, 21045.0, 21045.0, 21071.0, 21136.0, 21150.0, 21153.0, 21101.0, 21047.0, 21023.0, 21045.0, 21107.0, 21160.0, 21176.0, 21173.0, 21122.0, 21071.0, 21068.0]
    },
    "slices": {}
  }
}