{
  "AcquisitionMatrixPE": 104,
  "AcquisitionNumber": 1,
  "AcquisitionTime": "13:30:27.395000",
  "BandwidthPerPixelPhaseEncode": 17.17,
  "BaseResolution": 104,
  "BodyPartExamined": "BRAIN",
  "CoilString": "HC1-7;NC1_2",
  "ConsistencyInfo": "N4_VE11C_LATEST_20160120",
  "ConversionSoftware": "dcm2niix",
  "ConversionSoftwareVersion": "v1.0.20190902",
  "DerivedVendorReportedEchoSpacing": 0.000560011,
  "DeviceSerialNumber": "167006",
  "DwellTime": 2.1e-06,
  "EchoTime": 0.037,
  "EchoTrainLength": 104,
  "EffectiveEchoSpacing": 0.000560011,
  "FlipAngle": 52,
  "ImageComments": "Unaliased_MB4_PE3_LB",
  "ImageOrientationPatientDICOM": [0.998891, 0.0273447, 0.0383392, -0.0186565, 0.977314, -0.210973],
  "ImageType": [
    "ORIGINAL",
    "PRIMARY",
    "M",
    "MB",
    "ND",
    "MOSAIC"
],
  "ImagingFrequency": 123.259,
  "InPlanePhaseEncodingDirectionDICOM": "COL",
  "InstitutionAddress": "Chemin_Queen-Mary_4565_Montreal_District_CA_H3W_1W5",
  "InstitutionName": "IUGM",
  "InstitutionalDepartmentName": "Department",
  "MRAcquisitionType": "2D",
  "MagneticFieldStrength": 3,
  "Manufacturer": "Siemens",
  "ManufacturersModelName": "Prisma_fit",
  "Modality": "MR",
  "MultibandAccelerationFactor": 4,
  "PartialFourier": 1,
  "PatientPosition": "HFS",
  "PercentPhaseFOV": 100,
  "PhaseEncodingDirection": "j",
  "PhaseEncodingSteps": 104,
  "PhaseResolution": 1,
  "PixelBandwidth": 2290,
  "ProcedureStepDescription": "memory_things",
  "ProtocolName": "func_task-things_run-2",
  "PulseSequenceDetails": "%CustomerSeq%_cmrr_mbep2d_bold",
  "ReceiveCoilActiveElements": "HC1-7;NC1,2",
  "ReceiveCoilName": "HeadNeck_64",
  "ReconMatrixPE": 104,
  "RepetitionTime": 1.49,
  "SAR": 0.0428478,
  "ScanOptions": "FS",
  "ScanningSequence": "EP",
  "SequenceName": "epfid2d1_104",
  "SequenceVariant": "SK_SS",
  "SeriesDescription": "func_task-things_run-2",
  "SeriesNumber": 13,
  "ShimSetting": [637, -7228, -8789, 728, 52, -46, 131, -18],
  "SliceThickness": 2,
  "SliceTiming": [0, 0.785, 0.0975, 0.8825, 0.1975, 0.98, 0.295, 1.0775, 0.3925, 1.175, 0.49, 1.275, 0.5875, 1.3725, 0.685, 0, 0.785, 0.0975, 0.8825, 0.1975, 0.98, 0.295, 1.0775, 0.3925, 1.175, 0.49, 1.275, 0.5875, 1.3725, 0.685, 0, 0.785, 0.0975, 0.8825, 0.1975, 0.98, 0.295, 1.0775, 0.3925, 1.175, 0.49, 1.275, 0.5875, 1.3725, 0.685, 0, 0.785, 0.0975, 0.8825, 0.1975, 0.98, 0.295, 1.0775, 0.3925, 1.175, 0.49, 1.275, 0.5875, 1.3725, 0.685],
  "SoftwareVersions": "syngo_MR_E11",
  "SpacingBetweenSlices": 2,
  "StationName": "MRC35049",
  "TaskName": "things",
  "TotalReadoutTime": 0.0576811,
  "TxRefAmp": 222.055,
  "WipMemBlock": "617f80a5-64a8-48ab-a4bd-8d853874bd76||Sequence: R016 ve11c/master r/e634e98; Dec 19 2017 11:00:25 by eja",
  "dcmmeta_affine": [
    [-1.9977811574935913, -0.03731302544474602, 0.08647678047418594, 108.52408599853516],
    [-0.054689403623342514, 1.954627513885498, -0.42004796862602234, -74.64002227783203],
    [0.0766783133149147, 0.42194664478302, 1.953479290008545, -61.08070755004883],
    [0.0, 0.0, 0.0, 1.0]
],
  "dcmmeta_reorient_transform": [
    [0.0, -1.0, 0.0, 103.0],
    [1.0, 0.0, 0.0, 0.0],
    [0.0, 0.0, 1.0, 0.0],
    [0.0, 0.0, 0.0, 1.0]
],
  "dcmmeta_shape": [104, 104, 60, 190],
  "dcmmeta_slice_dim": 2,
  "dcmmeta_version": 0.6,
  "global": {
    "const": {
      "AcquisitionMatrix": [104, 0, 0, 104],
      "AngioFlag": "N",
      "BitsAllocated": 16,
      "BitsStored": 16,
      "BodyPartExamined": "BRAIN",
      "Columns": 832,
      "EchoNumbers": 1,
      "EchoTime": 37.0,
      "EchoTrainLength": 104,
      "FlipAngle": 52.0,
      "HighBit": 15,
      "ImageOrientationPatient": [0.99889057268662, 0.02734470232172, 0.03833915821629, -0.0186565123597, 0.97731376308514, -0.2109733230315],
      "ImagePositionPatient": [-818.29124417722, -858.07797258252, 108.05746741137],
      "ImageType": [
        "ORIGINAL",
        "PRIMARY",
        "M",
        "MB",
        "ND",
        "MOSAIC"
],
      "ImagedNucleus": "1H",
      "ImagingFrequency": 123.258913,
      "InPlanePhaseEncodingDirection": "COL",
      "MRAcquisitionType": "2D",
      "MagneticFieldStrength": 3.0,
      "Manufacturer": "SIEMENS",
      "ManufacturerModelName": "Prisma_fit",
      "Modality": "MR",
      "NumberOfAverages": 1.0,
      "NumberOfPhaseEncodingSteps": 104,
      "PercentPhaseFieldOfView": 100.0,
      "PercentSampling": 100.0,
      "PerformedProcedureStepStartTime": "130501.984000",
      "PhotometricInterpretation": "MONOCHROME2",
      "PixelBandwidth": 2290.0,
      "PixelRepresentation": 0,
      "PixelSpacing": [2.0, 2.0],
      "ProtocolName": "func_task-things_run-2",
      "RepetitionTime": 1490.0,
      "Rows": 832,
      "SAR": 0.04284777714031,
      "SamplesPerPixel": 1,
      "ScanOptions": "FS",
      "ScanningSequence": "EP",
      "SequenceName": "epfid2d1_104",
      "SequenceVariant": [
        "SK",
        "SS"
],
      "SeriesDescription": "func_task-things_run-2",
      "SeriesNumber": 13,
      "SeriesTime": "133141.308000",
      "SliceLocation": -39.291348406374,
      "SliceThickness": 2.0,
      "SmallestImagePixelValue": 0,
      "SoftwareVersions": "syngo MR E11",
      "SpacingBetweenSlices": 1.9999999922656,
      "SpecificCharacterSet": "ISO_IR 100",
      "StudyID": "1",
      "StudyTime": "130501.836000",
      "TransmitCoilName": "Body",
      "VariableFlipAngleFlag": "N",
      "WindowCenterWidthExplanation": "Algo1",
      "dBdt": 0.0},
    "slices": {}
  },
  "time": {
    "samples": {
      "AcquisitionNumber": [1, 2, 3, 4, 5, 6, 7, 8, 9, 10, 11, 12, 13, 14, 15, 16, 17, 18, 19, 20, 21, 22, 23, 24, 25, 26, 27, 28, 29, 30, 31, 32, 33, 34, 35, 36, 37, 38, 39, 40, 41, 42, 43, 44, 45, 46, 47, 48, 49, 50, 51, 52, 53, 54, 55, 56, 57, 58, 59, 60, 61, 62, 63, 64, 65, 66, 67, 68, 69, 70, 71, 72, 73, 74, 75, 76, 77, 78, 79, 80, 81, 82, 83, 84, 85, 86, 87, 88, 89, 90, 91, 92, 93, 94, 95, 96, 97, 98, 99, 100, 101, 102, 103, 104, 105, 106, 107, 108, 109, 110, 111, 112, 113, 114, 115, 116, 117, 118, 119, 120, 121, 122, 123, 124, 125, 126, 127, 128, 129, 130, 131, 132, 133, 134, 135, 136, 137, 138, 139, 140, 141, 142, 143, 144, 145, 146, 147, 148, 149, 150, 151, 152, 153, 154, 155, 156, 157, 158, 159, 160, 161, 162, 163, 164, 165, 166, 167, 168, 169, 170, 171, 172, 173, 174, 175, 176, 177, 178, 179, 180, 181, 182, 183, 184, 185, 186, 187, 188, 189, 190],
      "AcquisitionTime": ["133027.395000", "133028.885000", "133030.375000", "133031.865000", "133033.355000", "133034.845000", "133036.335000", "133037.825000", "133039.315000", "133040.805000", "133042.295000", "133043.785000", "133045.275000", "133046.765000", "133048.255000", "133049.745000", "133051.235000", "133052.725000", "133054.215000", "133055.705000", "133057.195000", "133058.685000", "133100.175000", "133101.665000", "133103.155000", "133104.645000", "133106.135000", "133107.625000", "133109.115000", "133110.605000", "133112.095000", "133113.585000", "133115.075000", "133116.565000", "133118.055000", "133119.545000", "133121.035000", "133122.525000", "133124.015000", "133125.505000", "133126.995000", "133128.485000", "133129.975000", "133131.465000", "133132.955000", "133134.445000", "133135.935000", "133137.425000", "133138.915000", "133140.405000", "133141.895000", "133143.385000", "133144.875000", "133146.365000", "133147.855000", "133149.345000", "133150.835000", "133152.325000", "133153.815000", "133155.305000", "133156.795000", "133158.285000", "133159.775000", "133201.265000", "133202.755000", "133204.245000", "133205.735000", "133207.225000", "133208.715000", "133210.205000", "133211.695000", "133213.185000", "133214.675000", "133216.165000", "133217.655000", "133219.145000", "133220.635000", "133222.125000", "133223.615000", "133225.105000", "133226.595000", "133228.085000", "133229.575000", "133231.065000", "133232.555000", "133234.045000", "133235.535000", "133237.025000", "133238.515000", "133240.005000", "133241.495000", "133242.985000", "133244.475000", "133245.965000", "133247.455000", "133248.945000", "133250.435000", "133251.925000", "133253.415000", "133254.905000", "133256.395000", "133257.885000", "133259.375000", "133300.865000", "133302.355000", "133303.845000", "133305.335000", "133306.825000", "133308.315000", "133309.805000", "133311.295000", "133312.785000", "133314.275000", "133315.765000", "133317.255000", "133318.745000", "133320.235000", "133321.725000", "133323.215000", "133324.705000", "133326.195000", "133327.685000", "133329.175000", "133330.665000", "133332.155000", "133333.645000", "133335.135000", "133336.625000", "133338.115000", "133339.605000", "133341.095000", "133342.585000", "133344.075000", "133345.565000", "133347.055000", "133348.545000", "133350.035000", "133351.525000", "133353.015000", "133354.505000", "133355.995000", "133357.485000", "133358.975000", "133400.465000", "133401.955000", "133403.445000", "133404.935000", "133406.425000", "133407.915000", "133409.405000", "133410.895000", "133412.385000", "133413.875000", "133415.365000", "133416.855000", "133418.345000", "133419.835000", "133421.325000", "133422.815000", "133424.305000", "133425.795000", "133427.285000", "133428.775000", "133430.265000", "133431.755000", "133433.245000", "133434.735000", "133436.225000", "133437.715000", "133439.205000", "133440.695000", "133442.185000", "133443.675000", "133445.165000", "133446.655000", "133448.145000", "133449.635000", "133451.125000", "133452.615000", "133454.105000", "133455.595000", "133457.085000", "133458.575000", "133500.065000", "133501.555000", "133503.045000", "133504.535000", "133506.025000", "133507.515000", "133509.005000"],
      "ContentTime": ["133141.311000", "133141.315000", "133141.319000", "133141.322000", "133141.330000", "133141.334000", "133141.337000", "133141.340000", "133141.344000", "133141.347000", "133141.350000", "133141.354000", "133141.357000", "133141.360000", "133141.364000", "133141.370000", "133141.374000", "133141.377000", "133141.380000", "133141.383000", "133201.272000", "133201.276000", "133201.279000", "133201.282000", "133201.286000", "133201.289000", "133201.292000", "133201.297000", "133201.300000", "133201.303000", "133201.307000", "133201.310000", "133201.313000", "133201.317000", "133201.320000", "133201.323000", "133201.327000", "133201.330000", "133201.333000", "133201.337000", "133221.273000", "133221.277000", "133221.280000", "133221.283000", "133221.287000", "133221.290000", "133221.293000", "133221.300000", "133221.303000", "133221.306000", "133221.309000", "133221.313000", "133221.316000", "133221.319000", "133221.323000", "133221.326000", "133221.329000", "133221.333000", "133221.336000", "133221.339000", "133221.343000", "133241.273000", "133241.277000", "133241.280000", "133241.283000", "133241.287000", "133241.290000", "133241.293000", "133241.297000", "133241.300000", "133241.303000", "133241.307000", "133241.310000", "133241.313000", "133241.317000", "133241.320000", "133241.323000", "133241.327000", "133241.330000", "133241.333000", "133241.337000", "133301.273000", "133301.277000", "133301.280000", "133301.284000", "133301.287000", "133301.290000", "133301.294000", "133301.297000", "133301.300000", "133301.304000", "133301.307000", "133301.310000", "133301.314000", "133301.317000", "133301.320000", "133301.324000", "133301.327000", "133301.330000", "133301.334000", "133301.337000", "133341.272000", "133341.276000", "133341.292000", "133341.296000", "133341.299000", "133341.303000", "133341.306000", "133341.309000", "133341.313000", "133341.316000", "133341.319000", "133341.323000", "133341.326000", "133341.329000", "133341.333000", "133341.336000", "133341.339000", "133341.343000", "133341.346000", "133341.349000", "133341.353000", "133341.356000", "133341.359000", "133341.363000", "133341.366000", "133341.369000", "133341.373000", "133341.376000", "133341.379000", "133421.272000", "133421.276000", "133421.279000", "133421.283000", "133421.286000", "133421.289000", "133421.293000", "133421.296000", "133421.299000", "133421.303000", "133421.306000", "133421.309000", "133421.313000", "133421.316000", "133421.319000", "133421.323000", "133421.326000", "133421.329000", "133421.333000", "133421.336000", "133421.339000", "133421.343000", "133421.346000", "133421.349000", "133421.354000", "133421.357000", "133441.273000", "133441.277000", "133441.280000", "133441.283000", "133441.287000", "133441.297000", "133441.300000", "133441.310000", "133441.313000", "133441.317000", "133441.320000", "133441.324000", "133441.327000", "133441.331000", "133510.730000", "133510.733000", "133510.737000", "133510.740000", "133510.744000", "133510.748000", "133510.752000", "133510.755000", "133510.758000", "133510.770000", "133510.774000", "133510.777000", "133510.781000", "133510.785000", "133510.788000", "133510.792000", "133510.796000", "133510.799000", "133510.803000", "133510.806000"],
      "InstanceCreationTime": ["133141.311000", "133141.315000", "133141.319000", "133141.322000", "133141.330000", "133141.334000", "133141.337000", "133141.340000", "133141.344000", "133141.347000", "133141.350000", "133141.354000", "133141.357000", "133141.360000", "133141.364000", "133141.370000", "133141.374000", "133141.377000", "133141.380000", "133141.383000", "133201.272000", "133201.276000", "133201.279000", "133201.282000", "133201.286000", "133201.289000", "133201.292000", "133201.297000", "133201.300000", "133201.303000", "133201.307000", "133201.310000", "133201.313000", "133201.317000", "133201.320000", "133201.323000", "133201.327000", "133201.330000", "133201.333000", "133201.337000", "133221.273000", "133221.277000", "133221.280000", "133221.283000", "133221.287000", "133221.290000", "133221.293000", "133221.300000", "133221.303000", "133221.306000", "133221.309000", "133221.313000", "133221.316000", "133221.319000", "133221.323000", "133221.326000", "133221.329000", "133221.333000", "133221.336000", "133221.339000", "133221.343000", "133241.273000", "133241.277000", "133241.280000", "133241.283000", "133241.287000", "133241.290000", "133241.293000", "133241.297000", "133241.300000", "133241.303000", "133241.307000", "133241.310000", "133241.313000", "133241.317000", "133241.320000", "133241.323000", "133241.327000", "133241.330000", "133241.333000", "133241.337000", "133301.273000", "133301.277000", "133301.280000", "133301.284000", "133301.287000", "133301.290000", "133301.294000", "133301.297000", "133301.300000", "133301.304000", "133301.307000", "133301.310000", "133301.314000", "133301.317000", "133301.320000", "133301.324000", "133301.327000", "133301.330000", "133301.334000", "133301.337000", "133341.272000", "133341.276000", "133341.292000", "133341.296000", "133341.299000", "133341.303000", "133341.306000", "133341.309000", "133341.313000", "133341.316000", "133341.319000", "133341.323000", "133341.326000", "133341.329000", "133341.333000", "133341.336000", "133341.339000", "133341.343000", "133341.346000", "133341.349000", "133341.353000", "133341.356000", "133341.359000", "133341.363000", "133341.366000", "133341.369000", "133341.373000", "133341.376000", "133341.379000", "133421.272000", "133421.276000", "133421.279000", "133421.283000", "133421.286000", "133421.289000", "133421.293000", "133421.296000", "133421.299000", "133421.303000", "133421.306000", "133421.309000", "133421.313000", "133421.316000", "133421.319000", "133421.323000", "133421.326000", "133421.329000", "133421.333000", "133421.336000", "133421.339000", "133421.343000", "133421.346000", "133421.349000", "133421.354000", "133421.357000", "133441.273000", "133441.277000", "133441.280000", "133441.283000", "133441.287000", "133441.297000", "133441.300000", "133441.310000", "133441.313000", "133441.317000", "133441.320000", "133441.324000", "133441.327000", "133441.331000", "133510.730000", "133510.733000", "133510.737000", "133510.740000", "133510.744000", "133510.748000", "133510.752000", "133510.755000", "133510.758000", "133510.770000", "133510.774000", "133510.777000", "133510.781000", "133510.785000", "133510.788000", "133510.792000", "133510.796000", "133510.799000", "133510.803000", "133510.806000"],
      "InstanceNumber": [1, 2, 3, 4, 5, 6, 7, 8, 9, 10, 11, 12, 13, 14, 15, 16, 17, 18, 19, 20, 21, 22, 23, 24, 25, 26, 27, 28, 29, 30, 31, 32, 33, 34, 35, 36, 37, 38, 39, 40, 41, 42, 43, 44, 45, 46, 47, 48, 49, 50, 51, 52, 53, 54, 55, 56, 57, 58, 59, 60, 61, 62, 63, 64, 65, 66, 67, 68, 69, 70, 71, 72, 73, 74, 75, 76, 77, 78, 79, 80, 81, 82, 83, 84, 85, 86, 87, 88, 89, 90, 91, 92, 93, 94, 95, 96, 97, 98, 99, 100, 101, 102, 103, 104, 105, 106, 107, 108, 109, 110, 111, 112, 113, 114, 115, 116, 117, 118, 119, 120, 121, 122, 123, 124, 125, 126, 127, 128, 129, 130, 131, 132, 133, 134, 135, 136, 137, 138, 139, 140, 141, 142, 143, 144, 145, 146, 147, 148, 149, 150, 151, 152, 153, 154, 155, 156, 157, 158, 159, 160, 161, 162, 163, 164, 165, 166, 167, 168, 169, 170, 171, 172, 173, 174, 175, 176, 177, 178, 179, 180, 181, 182, 183, 184, 185, 186, 187, 188, 189, 190],
      "LargestImagePixelValue": [40175, 39193, 38424, 38309, 37975, 37633, 37693, 37487, 37736, 37875, 38094, 37949, 37707, 37752, 37774, 37793, 37755, 37701, 37682, 37637, 37542, 37617, 37521, 37604, 37808, 37461, 37921, 37398, 37765, 37327, 37519, 37413, 37713, 37751, 37391, 37695, 37522, 38039, 37774, 37475, 37755, 37448, 37682, 37869, 37471, 37850, 37847, 37913, 37270, 37143, 37733, 37315, 37575, 37496, 37635, 37596, 37537, 37260, 37472, 38130, 37719, 37303, 37369, 37659, 37845, 37675, 37437, 37287, 37205, 37413, 37390, 37618, 37278, 37547, 37431, 37455, 37451, 37170, 37184, 36958, 37597, 37280, 37516, 37287, 37283, 37291, 37152, 37266, 37172, 37536, 37215, 37190, 37160, 37519, 37314, 37285, 37147, 37309, 37378, 37171, 37860, 37224, 37220, 37454, 37224, 37280, 37119, 37601, 37581, 37539, 37167, 37219, 37329, 37164, 37367, 37478, 37482, 37422, 37195, 36992, 37196, 37126, 37047, 36981, 37241, 37410, 37199, 36973, 37217, 36958, 37245, 37135, 37185, 37268, 37047, 37501, 36961, 37058, 37553, 37417, 37225, 37098, 37605, 37625, 37421, 37313, 37450, 37133, 37314, 37185, 37197, 37215, 37345, 36933, 37419, 37516, 37722, 37021, 37427, 37521, 37307, 37104, 37052, 37426, 37527, 36983, 37378, 37191, 37329, 37299, 37367, 37549, 37719, 37154, 36976, 37903, 37555, 37387, 37674, 37553, 37352, 37044, 37445, 37180, 37907, 37375, 37439, 37139, 37310, 37500],
      "WindowCenter": [10140.0, 10088.0, 10050.0, 10030.0, 10043.0, 10055.0, 10050.0, 10038.0, 10027.0, 10020.0, 10040.0, 10042.0, 10044.0, 10044.0, 10038.0, 10050.0, 10052.0, 10048.0, 10047.0, 10044.0, 10038.0, 10043.0, 10047.0, 10054.0, 10055.0, 10048.0, 10052.0, 10053.0, 10053.0, 10038.0, 10020.0, 10012.0, 10027.0, 10037.0, 10039.0, 10029.0, 10012.0, 10024.0, 10027.0, 10028.0, 10028.0, 10022.0, 10028.0, 10044.0, 10047.0, 10047.0, 10046.0, 10053.0, 10058.0, 10067.0, 10056.0, 10031.0, 10011.0, 10010.0, 10019.0, 10030.0, 10023.0, 10008.0, 10020.0, 10034.0, 10027.0, 10007.0, 9995.0, 9991.0, 10000.0, 10016.0, 10029.0, 10032.0, 10031.0, 10031.0, 10037.0, 10040.0, 10034.0, 10040.0, 10031.0, 10023.0, 10030.0, 10034.0, 10035.0, 10027.0, 10030.0, 10021.0, 10027.0, 10039.0, 10056.0, 10049.0, 10034.0, 10032.0, 10041.0, 10042.0, 10033.0, 10018.0, 10017.0, 10047.0, 10057.0, 10042.0, 10024.0, 10024.0, 10049.0, 10058.0, 10049.0, 10018.0, 10005.0, 10005.0, 10007.0, 10005.0, 9999.0, 10005.0, 10019.0, 10029.0, 10025.0, 10016.0, 10005.0, 9997.0, 10010.0, 10022.0, 10026.0, 10017.0, 10014.0, 10007.0, 10014.0, 10024.0, 10018.0, 10007.0, 10004.0, 10004.0, 10006.0, 10007.0, 10021.0, 10031.0, 10039.0, 10024.0, 10015.0, 10020.0, 10021.0, 10011.0, 9989.0, 9987.0, 9986.0, 10001.0, 9988.0, 9976.0, 9963.0, 9964.0, 9981.0, 10000.0, 10008.0, 10004.0, 10017.0, 10021.0, 10014.0, 10014.0, 10004.0, 9995.0, 10001.0, 10012.0, 10027.0, 10016.0, 10012.0, 10011.0, 10012.0, 10000.0, 9997.0, 10009.0, 10003.0, 9995.0, 9986.0, 9985.0, 9990.0, 9990.0, 9998.0, 10009.0, 10026.0, 10022.0, 9999.0, 10001.0, 10009.0, 10004.0, 10002.0, 9977.0, 9966.0, 9968.0, 9985.0, 9993.0, 9994.0, 9986.0, 9984.0, 9995.0, 10018.0, 10013.0],
      "WindowWidth": [21608.0, 21467.0, 21368.0, 21314.0, 21341.0, 21366.0, 21357.0, 21325.0, 21297.0, 21283.0, 21325.0, 21334.0, 21339.0, 21339.0, 21327.0, 21351.0, 21353.0, 21348.0, 21344.0, 21336.0, 21324.0, 21336.0, 21346.0, 21364.0, 21362.0, 21347.0, 21352.0, 21356.0, 21358.0, 21323.0, 21282.0, 21265.0, 21297.0, 21323.0, 21328.0, 21303.0, 21263.0, 21286.0, 21297.0, 21302.0, 21300.0, 21287.0, 21299.0, 21336.0, 21346.0, 21343.0, 21340.0, 21357.0, 21374.0, 21392.0, 21365.0, 21305.0, 21259.0, 21258.0, 21280.0, 21305.0, 21291.0, 21257.0, 21281.0, 21309.0, 21295.0, 21253.0, 21222.0, 21212.0, 21233.0, 21271.0, 21304.0, 21312.0, 21311.0, 21309.0, 21320.0, 21330.0, 21320.0, 21332.0, 21310.0, 21291.0, 21307.0, 21317.0, 21318.0, 21301.0, 21303.0, 21282.0, 21296.0, 21327.0, 21364.0, 21350.0, 21314.0, 21308.0, 21330.0, 21334.0, 21310.0, 21277.0, 21276.0, 21341.0, 21364.0, 21331.0, 21290.0, 21289.0, 21351.0, 21371.0, 21346.0, 21279.0, 21243.0, 21246.0, 21253.0, 21246.0, 21237.0, 21247.0, 21276.0, 21302.0, 21295.0, 21272.0, 21246.0, 21231.0, 21256.0, 21286.0, 21298.0, 21277.0, 21266.0, 21252.0, 21269.0, 21293.0, 21280.0, 21255.0, 21245.0, 21247.0, 21253.0, 21257.0, 21285.0, 21307.0, 21324.0, 21290.0, 21269.0, 21282.0, 21282.0, 21256.0, 21208.0, 21203.0, 21204.0, 21236.0, 21209.0, 21180.0, 21146.0, 21150.0, 21191.0, 21239.0, 21253.0, 21247.0, 21274.0, 21286.0, 21272.0, 21269.0, 21245.0, 21225.0, 21237.0, 21266.0, 21298.0, 21277.0, 21264.0, 21259.0, 21262.0, 21240.0, 21231.0, 21255.0, 21245.0, 21227.0, 21205.0, 21201.0, 21207.0, 21209.0, 21228.0, 21255.0, 21295.0, 21288.0, 21240.0, 21236.0, 21254.0, 21248.0, 21239.0, 21183.0, 21157.0, 21163.0, 21203.0, 21219.0, 21221.0, 21205.0, 21200.0, 21227.0, 21277.0, 21264.0]
    },
    "slices": {}
  }
}