{
  "AcquisitionMatrixPE": 104,
  "AcquisitionNumber": 1,
  "AcquisitionTime": "16:22:16.872500",
  "BandwidthPerPixelPhaseEncode": 17.17,
  "BaseResolution": 104,
  "BodyPartExamined": "BRAIN",
  "CoilString": "HC1-7;NC1_2",
  "ConsistencyInfo": "N4_VE11C_LATEST_20160120",
  "ConversionSoftware": "dcm2niix",
  "ConversionSoftwareVersion": "v1.0.20190902",
  "DerivedVendorReportedEchoSpacing": 0.000560011,
  "DeviceSerialNumber": "167006",
  "DwellTime": 2.1e-06,
  "EchoTime": 0.037,
  "EchoTrainLength": 104,
  "EffectiveEchoSpacing": 0.000560011,
  "FlipAngle": 52,
  "ImageComments": "Unaliased_MB4_PE3_LB",
  "ImageOrientationPatientDICOM": [0.997896, -0.063562, 0.0127807, 0.064531, 0.954698, -0.290494],
  "ImageType": [
    "ORIGINAL",
    "PRIMARY",
    "M",
    "MB",
    "ND",
    "MOSAIC"
],
  "ImagingFrequency": 123.259,
  "InPlanePhaseEncodingDirectionDICOM": "COL",
  "InstitutionAddress": "Chemin_Queen-Mary_4565_Montreal_District_CA_H3W_1W5",
  "InstitutionName": "IUGM",
  "InstitutionalDepartmentName": "Department",
  "MRAcquisitionType": "2D",
  "MagneticFieldStrength": 3,
  "Manufacturer": "Siemens",
  "ManufacturersModelName": "Prisma_fit",
  "Modality": "MR",
  "MultibandAccelerationFactor": 4,
  "PartialFourier": 1,
  "PatientPosition": "HFS",
  "PercentPhaseFOV": 100,
  "PhaseEncodingDirection": "j",
  "PhaseEncodingSteps": 104,
  "PhaseResolution": 1,
  "PixelBandwidth": 2290,
  "ProcedureStepDescription": "memory_things",
  "ProtocolName": "func_task-things_run-6",
  "PulseSequenceDetails": "%CustomerSeq%_cmrr_mbep2d_bold",
  "ReceiveCoilActiveElements": "HC1-7;NC1,2",
  "ReceiveCoilName": "HeadNeck_64",
  "ReconMatrixPE": 104,
  "RepetitionTime": 1.49,
  "SAR": 0.0474541,
  "ScanOptions": "FS",
  "ScanningSequence": "EP",
  "SequenceName": "epfid2d1_104",
  "SequenceVariant": "SK_SS",
  "SeriesDescription": "func_task-things_run-6",
  "SeriesNumber": 33,
  "ShimSetting": [630, -7265, -8819, 592, 15, -217, -13, -25],
  "SliceThickness": 2,
  "SliceTiming": [0, 0.785, 0.1, 0.8825, 0.1975, 0.98, 0.295, 1.08, 0.3925, 1.1775, 0.49, 1.275, 0.59, 1.3725, 0.6875, 0, 0.785, 0.1, 0.8825, 0.1975, 0.98, 0.295, 1.08, 0.3925, 1.1775, 0.49, 1.275, 0.59, 1.3725, 0.6875, 0, 0.785, 0.1, 0.8825, 0.1975, 0.98, 0.295, 1.08, 0.3925, 1.1775, 0.49, 1.275, 0.59, 1.3725, 0.6875, 0, 0.785, 0.1, 0.8825, 0.1975, 0.98, 0.295, 1.08, 0.3925, 1.1775, 0.49, 1.275, 0.59, 1.3725, 0.6875],
  "SoftwareVersions": "syngo_MR_E11",
  "SpacingBetweenSlices": 2,
  "StationName": "MRC35049",
  "TaskName": "things",
  "TotalReadoutTime": 0.0576811,
  "TxRefAmp": 249.264,
  "WipMemBlock": "32cf1708-bb1f-4671-824c-3ef763ef0e60||Sequence: R016 ve11c/master r/e634e98; Dec 19 2017 11:00:25 by eja",
  "dcmmeta_affine": [
    [-1.9957921504974365, 0.12906204164028168, -0.012525390833616257, 101.6309585571289],
    [0.12712399661540985, 1.9093966484069824, -0.5814155340194702, -74.84011840820312],
    [0.025561368092894554, 0.5809884071350098, 1.9135828018188477, -61.4794921875],
    [0.0, 0.0, 0.0, 1.0]
],
  "dcmmeta_reorient_transform": [
    [0.0, -1.0, 0.0, 103.0],
    [1.0, 0.0, 0.0, 0.0],
    [0.0, 0.0, 1.0, 0.0],
    [0.0, 0.0, 0.0, 1.0]
],
  "dcmmeta_shape": [104, 104, 60, 190],
  "dcmmeta_slice_dim": 2,
  "dcmmeta_version": 0.6,
  "global": {
    "const": {
      "AcquisitionMatrix": [104, 0, 0, 104],
      "AngioFlag": "N",
      "BitsAllocated": 16,
      "BitsStored": 16,
      "BodyPartExamined": "BRAIN",
      "Columns": 832,
      "EchoNumbers": 1,
      "EchoTime": 37.0,
      "EchoTrainLength": 104,
      "FlipAngle": 52.0,
      "HighBit": 15,
      "ImageOrientationPatient": [0.99789604990903, -0.0635619988666, 0.01278068370767, 0.06453101753785, 0.95469831060201, -0.2904942056379],
      "ImagePositionPatient": [-888.37125304198, -770.57497038483, 200.53775659973],
      "ImageType": [
        "ORIGINAL",
        "PRIMARY",
        "M",
        "MB",
        "ND",
        "MOSAIC"
],
      "ImagedNucleus": "1H",
      "ImagingFrequency": 123.259164,
      "InPlanePhaseEncodingDirection": "COL",
      "MRAcquisitionType": "2D",
      "MagneticFieldStrength": 3.0,
      "Manufacturer": "SIEMENS",
      "ManufacturerModelName": "Prisma_fit",
      "Modality": "MR",
      "NumberOfAverages": 1.0,
      "NumberOfPhaseEncodingSteps": 104,
      "PercentPhaseFieldOfView": 100.0,
      "PercentSampling": 100.0,
      "PerformedProcedureStepStartTime": "145010.721000",
      "PhotometricInterpretation": "MONOCHROME2",
      "PixelBandwidth": 2290.0,
      "PixelRepresentation": 0,
      "PixelSpacing": [2.0, 2.0],
      "ProtocolName": "func_task-things_run-6",
      "RepetitionTime": 1490.0,
      "Rows": 832,
      "SAR": 0.04745414699681,
      "SamplesPerPixel": 1,
      "ScanOptions": "FS",
      "ScanningSequence": "EP",
      "SequenceName": "epfid2d1_104",
      "SequenceVariant": [
        "SK",
        "SS"
],
      "SeriesDescription": "func_task-things_run-6",
      "SeriesNumber": 33,
      "SeriesTime": "162331.585000",
      "SliceLocation": -37.702930739776,
      "SliceThickness": 2.0,
      "SmallestImagePixelValue": 0,
      "SoftwareVersions": "syngo MR E11",
      "SpacingBetweenSlices": 2.0000000269489,
      "SpecificCharacterSet": "ISO_IR 100",
      "StudyID": "1",
      "StudyTime": "145010.667000",
      "TransmitCoilName": "Body",
      "VariableFlipAngleFlag": "N",
      "WindowCenterWidthExplanation": "Algo1",
      "dBdt": 0.0},
    "slices": {}
  },
  "time": {
    "samples": {
      "AcquisitionNumber": [1, 2, 3, 4, 5, 6, 7, 8, 9, 10, 11, 12, 13, 14, 15, 16, 17, 18, 19, 20, 21, 22, 23, 24, 25, 26, 27, 28, 29, 30, 31, 32, 33, 34, 35, 36, 37, 38, 39, 40, 41, 42, 43, 44, 45, 46, 47, 48, 49, 50, 51, 52, 53, 54, 55, 56, 57, 58, 59, 60, 61, 62, 63, 64, 65, 66, 67, 68, 69, 70, 71, 72, 73, 74, 75, 76, 77, 78, 79, 80, 81, 82, 83, 84, 85, 86, 87, 88, 89, 90, 91, 92, 93, 94, 95, 96, 97, 98, 99, 100, 101, 102, 103, 104, 105, 106, 107, 108, 109, 110, 111, 112, 113, 114, 115, 116, 117, 118, 119, 120, 121, 122, 123, 124, 125, 126, 127, 128, 129, 130, 131, 132, 133, 134, 135, 136, 137, 138, 139, 140, 141, 142, 143, 144, 145, 146, 147, 148, 149, 150, 151, 152, 153, 154, 155, 156, 157, 158, 159, 160, 161, 162, 163, 164, 165, 166, 167, 168, 169, 170, 171, 172, 173, 174, 175, 176, 177, 178, 179, 180, 181, 182, 183, 184, 185, 186, 187, 188, 189, 190],
      "AcquisitionTime": ["162216.872500", "162218.362500", "162219.852500", "162221.342500", "162222.832500", "162224.322500", "162225.812500", "162227.302500", "162228.792500", "162230.282500", "162231.772500", "162233.262500", "162234.752500", "162236.242500", "162237.732500", "162239.222500", "162240.712500", "162242.202500", "162243.692500", "162245.182500", "162246.672500", "162248.162500", "162249.652500", "162251.142500", "162252.632500", "162254.122500", "162255.612500", "162257.102500", "162258.592500", "162300.082500", "162301.572500", "162303.062500", "162304.552500", "162306.042500", "162307.532500", "162309.022500", "162310.512500", "162312.002500", "162313.492500", "162314.982500", "162316.472500", "162317.962500", "162319.452500", "162320.942500", "162322.432500", "162323.922500", "162325.412500", "162326.902500", "162328.392500", "162329.882500", "162331.372500", "162332.862500", "162334.352500", "162335.842500", "162337.332500", "162338.822500", "162340.312500", "162341.802500", "162343.292500", "162344.782500", "162346.272500", "162347.762500", "162349.252500", "162350.742500", "162352.232500", "162353.722500", "162355.212500", "162356.702500", "162358.192500", "162359.682500", "162401.172500", "162402.662500", "162404.152500", "162405.642500", "162407.132500", "162408.622500", "162410.112500", "162411.602500", "162413.092500", "162414.582500", "162416.072500", "162417.562500", "162419.052500", "162420.542500", "162422.032500", "162423.522500", "162425.012500", "162426.502500", "162427.992500", "162429.482500", "162430.972500", "162432.462500", "162433.952500", "162435.442500", "162436.932500", "162438.422500", "162439.912500", "162441.402500", "162442.892500", "162444.382500", "162445.872500", "162447.362500", "162448.852500", "162450.342500", "162451.832500", "162453.322500", "162454.812500", "162456.302500", "162457.792500", "162459.282500", "162500.772500", "162502.262500", "162503.752500", "162505.242500", "162506.732500", "162508.222500", "162509.712500", "162511.202500", "162512.692500", "162514.182500", "162515.672500", "162517.162500", "162518.652500", "162520.142500", "162521.632500", "162523.122500", "162524.612500", "162526.102500", "162527.592500", "162529.082500", "162530.572500", "162532.062500", "162533.552500", "162535.042500", "162536.532500", "162538.022500", "162539.512500", "162541.002500", "162542.492500", "162543.982500", "162545.472500", "162546.962500", "162548.452500", "162549.942500", "162551.432500", "162552.922500", "162554.412500", "162555.902500", "162557.392500", "162558.882500", "162600.372500", "162601.862500", "162603.352500", "162604.842500", "162606.332500", "162607.822500", "162609.312500", "162610.802500", "162612.292500", "162613.782500", "162615.272500", "162616.762500", "162618.252500", "162619.742500", "162621.232500", "162622.722500", "162624.212500", "162625.702500", "162627.192500", "162628.682500", "162630.172500", "162631.662500", "162633.152500", "162634.642500", "162636.132500", "162637.622500", "162639.112500", "162640.602500", "162642.092500", "162643.582500", "162645.072500", "162646.562500", "162648.052500", "162649.542500", "162651.032500", "162652.522500", "162654.012500", "162655.502500", "162656.992500", "162658.482500"],
      "ContentTime": ["162331.588000", "162331.592000", "162331.595000", "162331.601000", "162331.604000", "162331.607000", "162331.611000", "162331.614000", "162331.618000", "162331.621000", "162331.624000", "162331.628000", "162331.631000", "162331.635000", "162331.638000", "162331.648000", "162331.651000", "162331.654000", "162331.658000", "162331.661000", "162351.586000", "162351.590000", "162351.593000", "162351.596000", "162351.600000", "162351.603000", "162351.607000", "162351.610000", "162351.613000", "162351.616000", "162351.620000", "162351.624000", "162351.627000", "162351.630000", "162351.634000", "162351.637000", "162351.641000", "162351.644000", "162351.648000", "162351.651000", "162411.587000", "162411.599000", "162411.602000", "162411.606000", "162411.609000", "162411.612000", "162411.616000", "162411.619000", "162411.623000", "162411.626000", "162411.636000", "162411.640000", "162411.643000", "162411.646000", "162411.650000", "162411.654000", "162411.657000", "162411.660000", "162411.664000", "162411.667000", "162431.586000", "162431.590000", "162431.594000", "162431.597000", "162431.600000", "162431.604000", "162431.607000", "162431.611000", "162431.614000", "162431.617000", "162431.621000", "162431.624000", "162431.628000", "162431.631000", "162431.634000", "162431.638000", "162431.641000", "162431.645000", "162431.648000", "162431.651000", "162451.586000", "162451.590000", "162451.594000", "162451.606000", "162451.609000", "162451.613000", "162451.616000", "162451.619000", "162451.623000", "162451.627000", "162451.630000", "162451.634000", "162451.638000", "162451.642000", "162451.646000", "162451.650000", "162451.654000", "162451.658000", "162451.662000", "162451.665000", "162531.586000", "162531.590000", "162531.594000", "162531.597000", "162531.600000", "162531.604000", "162531.607000", "162531.611000", "162531.614000", "162531.617000", "162531.621000", "162531.624000", "162531.627000", "162531.631000", "162531.634000", "162531.638000", "162531.641000", "162531.644000", "162531.648000", "162531.651000", "162531.655000", "162531.658000", "162531.661000", "162531.665000", "162531.668000", "162531.672000", "162531.675000", "162531.678000", "162531.682000", "162531.685000", "162611.586000", "162611.590000", "162611.593000", "162611.597000", "162611.600000", "162611.604000", "162611.607000", "162611.610000", "162611.614000", "162611.617000", "162611.620000", "162611.625000", "162611.628000", "162611.632000", "162611.635000", "162611.638000", "162611.642000", "162611.645000", "162611.648000", "162611.652000", "162611.655000", "162611.659000", "162611.662000", "162611.665000", "162611.669000", "162611.672000", "162611.675000", "162651.586000", "162651.590000", "162651.593000", "162651.597000", "162651.600000", "162651.604000", "162651.607000", "162651.610000", "162651.614000", "162651.617000", "162651.621000", "162651.624000", "162651.627000", "162651.631000", "162651.634000", "162651.638000", "162651.641000", "162651.644000", "162651.648000", "162651.651000", "162651.654000", "162651.658000", "162651.661000", "162651.665000", "162651.668000", "162651.671000", "162651.675000", "162700.306000", "162700.309000", "162700.313000", "162700.316000", "162700.320000", "162700.323000"],
      "InstanceCreationTime": ["162331.588000", "162331.592000", "162331.595000", "162331.601000", "162331.604000", "162331.607000", "162331.611000", "162331.614000", "162331.618000", "162331.621000", "162331.624000", "162331.628000", "162331.631000", "162331.635000", "162331.638000", "162331.648000", "162331.651000", "162331.654000", "162331.658000", "162331.661000", "162351.586000", "162351.590000", "162351.593000", "162351.596000", "162351.600000", "162351.603000", "162351.607000", "162351.610000", "162351.613000", "162351.616000", "162351.620000", "162351.624000", "162351.627000", "162351.630000", "162351.634000", "162351.637000", "162351.641000", "162351.644000", "162351.648000", "162351.651000", "162411.587000", "162411.599000", "162411.602000", "162411.606000", "162411.609000", "162411.612000", "162411.616000", "162411.619000", "162411.623000", "162411.626000", "162411.636000", "162411.640000", "162411.643000", "162411.646000", "162411.650000", "162411.654000", "162411.657000", "162411.660000", "162411.664000", "162411.667000", "162431.586000", "162431.590000", "162431.594000", "162431.597000", "162431.600000", "162431.604000", "162431.607000", "162431.611000", "162431.614000", "162431.617000", "162431.621000", "162431.624000", "162431.628000", "162431.631000", "162431.634000", "162431.638000", "162431.641000", "162431.645000", "162431.648000", "162431.651000", "162451.586000", "162451.590000", "162451.594000", "162451.606000", "162451.609000", "162451.613000", "162451.616000", "162451.619000", "162451.623000", "162451.627000", "162451.630000", "162451.634000", "162451.638000", "162451.642000", "162451.646000", "162451.650000", "162451.654000", "162451.658000", "162451.662000", "162451.665000", "162531.586000", "162531.590000", "162531.594000", "162531.597000", "162531.600000", "162531.604000", "162531.607000", "162531.611000", "162531.614000", "162531.617000", "162531.621000", "162531.624000", "162531.627000", "162531.631000", "162531.634000", "162531.638000", "162531.641000", "162531.644000", "162531.648000", "162531.651000", "162531.655000", "162531.658000", "162531.661000", "162531.665000", "162531.668000", "162531.672000", "162531.675000", "162531.678000", "162531.682000", "162531.685000", "162611.586000", "162611.590000", "162611.593000", "162611.597000", "162611.600000", "162611.604000", "162611.607000", "162611.610000", "162611.614000", "162611.617000", "162611.620000", "162611.625000", "162611.628000", "162611.632000", "162611.635000", "162611.638000", "162611.642000", "162611.645000", "162611.648000", "162611.652000", "162611.655000", "162611.659000", "162611.662000", "162611.665000", "162611.669000", "162611.672000", "162611.675000", "162651.586000", "162651.590000", "162651.593000", "162651.597000", "162651.600000", "162651.604000", "162651.607000", "162651.610000", "162651.614000", "162651.617000", "162651.621000", "162651.624000", "162651.627000", "162651.631000", "162651.634000", "162651.638000", "162651.641000", "162651.644000", "162651.648000", "162651.651000", "162651.654000", "162651.658000", "162651.661000", "162651.665000", "162651.668000", "162651.671000", "162651.675000", "162700.306000", "162700.309000", "162700.313000", "162700.316000", "162700.320000", "162700.323000"],
      "InstanceNumber": [1, 2, 3, 4, 5, 6, 7, 8, 9, 10, 11, 12, 13, 14, 15, 16, 17, 18, 19, 20, 21, 22, 23, 24, 25, 26, 27, 28, 29, 30, 31, 32, 33, 34, 35, 36, 37, 38, 39, 40, 41, 42, 43, 44, 45, 46, 47, 48, 49, 50, 51, 52, 53, 54, 55, 56, 57, 58, 59, 60, 61, 62, 63, 64, 65, 66, 67, 68, 69, 70, 71, 72, 73, 74, 75, 76, 77, 78, 79, 80, 81, 82, 83, 84, 85, 86, 87, 88, 89, 90, 91, 92, 93, 94, 95, 96, 97, 98, 99, 100, 101, 102, 103, 104, 105, 106, 107, 108, 109, 110, 111, 112, 113, 114, 115, 116, 117, 118, 119, 120, 121, 122, 123, 124, 125, 126, 127, 128, 129, 130, 131, 132, 133, 134, 135, 136, 137, 138, 139, 140, 141, 142, 143, 144, 145, 146, 147, 148, 149, 150, 151, 152, 153, 154, 155, 156, 157, 158, 159, 160, 161, 162, 163, 164, 165, 166, 167, 168, 169, 170, 171, 172, 173, 174, 175, 176, 177, 178, 179, 180, 181, 182, 183, 184, 185, 186, 187, 188, 189, 190],
      "LargestImagePixelValue": [44401, 43022, 40460, 41975, 41721, 41498, 40751, 40609, 39521, 40025, 39632, 40121, 40282, 42158, 42731, 41875, 41041, 41027, 40080, 39326, 39631, 39706, 39907, 40013, 39972, 40131, 39828, 40535, 41188, 41284, 40739, 39663, 39664, 39024, 39217, 39246, 41500, 41250, 41493, 41435, 40177, 39866, 39375, 41504, 41681, 40923, 41342, 40190, 40540, 40043, 39991, 39804, 39481, 39855, 39568, 39311, 39946, 40138, 40288, 40338, 39838, 39474, 39516, 39171, 39426, 39652, 39832, 40497, 40459, 39593, 39811, 39757, 39839, 40145, 39448, 39965, 40308, 39538, 39346, 39882, 39630, 39124, 40128, 39622, 39319, 39978, 39535, 39625, 39933, 39533, 39896, 39530, 39307, 39595, 39442, 39539, 39635, 39580, 39735, 39972, 39758, 40183, 39976, 40328, 39876, 39848, 40008, 40499, 40205, 39779, 39813, 39894, 40010, 39529, 39580, 40130, 39765, 40114, 40341, 40608, 40187, 40163, 40184, 39836, 40407, 40581, 40465, 40380, 39946, 39921, 39978, 39936, 39715, 39733, 39800, 39595, 40003, 40228, 39842, 39697, 39642, 39730, 39350, 39658, 39310, 40027, 40057, 39626, 39906, 39917, 39633, 40042, 39778, 39506, 40003, 40101, 39551, 39787, 39813, 39814, 39836, 39984, 39386, 39556, 39507, 40103, 39766, 39593, 40198, 39935, 39747, 40368, 39710, 39892, 40079, 40338, 39839, 39655, 39987, 39819, 39295, 39581, 39901, 39762, 40415, 39693, 39329, 39912, 39894, 40256],
      "WindowCenter": [10310.0, 10263.0, 10237.0, 10274.0, 10260.0, 10278.0, 10277.0, 10257.0, 10216.0, 10197.0, 10172.0, 10203.0, 10253.0, 10255.0, 10263.0, 10251.0, 10253.0, 10220.0, 10184.0, 10160.0, 10166.0, 10192.0, 10226.0, 10244.0, 10246.0, 10254.0, 10257.0, 10280.0, 10313.0, 10322.0, 10320.0, 10288.0, 10270.0, 10265.0, 10250.0, 10248.0, 10279.0, 10278.0, 10273.0, 10259.0, 10240.0, 10225.0, 10205.0, 10221.0, 10227.0, 10277.0, 10286.0, 10253.0, 10230.0, 10208.0, 10190.0, 10191.0, 10199.0, 10221.0, 10227.0, 10262.0, 10280.0, 10278.0, 10271.0, 10269.0, 10276.0, 10275.0, 10248.0, 10207.0, 10186.0, 10192.0, 10215.0, 10230.0, 10225.0, 10198.0, 10192.0, 10207.0, 10217.0, 10232.0, 10240.0, 10261.0, 10263.0, 10251.0, 10236.0, 10249.0, 10244.0, 10229.0, 10242.0, 10236.0, 10227.0, 10240.0, 10234.0, 10234.0, 10248.0, 10266.0, 10279.0, 10266.0, 10253.0, 10246.0, 10230.0, 10240.0, 10245.0, 10259.0, 10252.0, 10234.0, 10227.0, 10241.0, 10254.0, 10270.0, 10270.0, 10286.0, 10283.0, 10270.0, 10259.0, 10221.0, 10214.0, 10219.0, 10224.0, 10216.0, 10209.0, 10215.0, 10218.0, 10219.0, 10242.0, 10253.0, 10249.0, 10243.0, 10242.0, 10248.0, 10284.0, 10282.0, 10258.0, 10249.0, 10234.0, 10234.0, 10234.0, 10229.0, 10213.0, 10220.0, 10222.0, 10202.0, 10223.0, 10233.0, 10226.0, 10226.0, 10221.0, 10230.0, 10232.0, 10229.0, 10223.0, 10238.0, 10238.0, 10243.0, 10253.0, 10269.0, 10270.0, 10277.0, 10264.0, 10257.0, 10260.0, 10253.0, 10261.0, 10274.0, 10292.0, 10276.0, 10249.0, 10245.0, 10230.0, 10227.0, 10215.0, 10210.0, 10221.0, 10228.0, 10225.0, 10233.0, 10238.0, 10263.0, 10270.0, 10280.0, 10274.0, 10285.0, 10297.0, 10290.0, 10273.0, 10250.0, 10235.0, 10246.0, 10268.0, 10250.0, 10238.0, 10223.0, 10231.0, 10260.0, 10264.0, 10264.0],
      "WindowWidth": [22279.0, 22139.0, 22060.0, 22129.0, 22087.0, 22121.0, 22117.0, 22066.0, 21977.0, 21928.0, 21875.0, 21952.0, 22074.0, 22078.0, 22105.0, 22071.0, 22070.0, 21987.0, 21906.0, 21850.0, 21859.0, 21917.0, 21998.0, 22042.0, 22050.0, 22070.0, 22077.0, 22126.0, 22201.0, 22218.0, 22212.0, 22143.0, 22102.0, 22089.0, 22054.0, 22052.0, 22117.0, 22118.0, 22105.0, 22075.0, 22032.0, 21996.0, 21956.0, 21983.0, 22001.0, 22126.0, 22144.0, 22067.0, 22008.0, 21958.0, 21917.0, 21918.0, 21935.0, 21984.0, 21998.0, 22082.0, 22131.0, 22126.0, 22114.0, 22105.0, 22117.0, 22116.0, 22054.0, 21959.0, 21907.0, 21922.0, 21976.0, 22012.0, 22000.0, 21943.0, 21925.0, 21955.0, 21982.0, 22015.0, 22034.0, 22079.0, 22086.0, 22062.0, 22028.0, 22055.0, 22043.0, 22009.0, 22035.0, 22025.0, 22004.0, 22032.0, 22018.0, 22019.0, 22050.0, 22095.0, 22119.0, 22093.0, 22064.0, 22049.0, 22011.0, 22028.0, 22039.0, 22075.0, 22060.0, 22017.0, 22003.0, 22031.0, 22064.0, 22102.0, 22099.0, 22137.0, 22132.0, 22102.0, 22076.0, 21990.0, 21974.0, 21984.0, 21998.0, 21980.0, 21966.0, 21977.0, 21986.0, 21988.0, 22040.0, 22062.0, 22057.0, 22044.0, 22040.0, 22062.0, 22145.0, 22139.0, 22081.0, 22058.0, 22023.0, 22019.0, 22020.0, 22010.0, 21976.0, 21989.0, 21997.0, 21950.0, 21994.0, 22017.0, 22002.0, 22000.0, 21991.0, 22010.0, 22019.0, 22008.0, 21997.0, 22030.0, 22033.0, 22042.0, 22063.0, 22101.0, 22101.0, 22118.0, 22086.0, 22073.0, 22078.0, 22064.0, 22083.0, 22109.0, 22152.0, 22118.0, 22058.0, 22045.0, 22009.0, 21999.0, 21976.0, 21961.0, 21990.0, 22005.0, 21997.0, 22018.0, 22033.0, 22084.0, 22108.0, 22128.0, 22114.0, 22132.0, 22162.0, 22149.0, 22109.0, 22058.0, 22026.0, 22049.0, 22098.0, 22061.0, 22030.0, 21999.0, 22016.0, 22076.0, 22089.0, 22089.0]
    },
    "slices": {}
  }
}