{
  "AcquisitionMatrixPE": 104,
  "AcquisitionNumber": 1,
  "AcquisitionTime": "16:16:3.087500",
  "BandwidthPerPixelPhaseEncode": 17.17,
  "BaseResolution": 104,
  "BodyPartExamined": "BRAIN",
  "CoilString": "HC1-7;NC1_2",
  "ConsistencyInfo": "N4_VE11C_LATEST_20160120",
  "ConversionSoftware": "dcm2niix",
  "ConversionSoftwareVersion": "v1.0.20190902",
  "DerivedVendorReportedEchoSpacing": 0.000560011,
  "DeviceSerialNumber": "167006",
  "DwellTime": 2.1e-06,
  "EchoTime": 0.037,
  "EchoTrainLength": 104,
  "EffectiveEchoSpacing": 0.000560011,
  "FlipAngle": 52,
  "ImageComments": "Unaliased_MB4_PE3_LB",
  "ImageOrientationPatientDICOM": [0.997896, -0.063562, 0.0127807, 0.064531, 0.954698, -0.290494],
  "ImageType": [
    "ORIGINAL",
    "PRIMARY",
    "P",
    "MB",
    "ND",
    "MOSAIC"
],
  "ImagingFrequency": 123.259,
  "InPlanePhaseEncodingDirectionDICOM": "COL",
  "InstitutionAddress": "Chemin_Queen-Mary_4565_Montreal_District_CA_H3W_1W5",
  "InstitutionName": "IUGM",
  "InstitutionalDepartmentName": "Department",
  "MRAcquisitionType": "2D",
  "MagneticFieldStrength": 3,
  "Manufacturer": "Siemens",
  "ManufacturersModelName": "Prisma_fit",
  "Modality": "MR",
  "MultibandAccelerationFactor": 4,
  "PartialFourier": 1,
  "PatientPosition": "HFS",
  "PercentPhaseFOV": 100,
  "PhaseEncodingDirection": "j",
  "PhaseEncodingSteps": 104,
  "PhaseResolution": 1,
  "PixelBandwidth": 2290,
  "ProcedureStepDescription": "memory_things",
  "ProtocolName": "func_task-things_run-5",
  "PulseSequenceDetails": "%CustomerSeq%_cmrr_mbep2d_bold",
  "ReceiveCoilActiveElements": "HC1-7;NC1,2",
  "ReceiveCoilName": "HeadNeck_64",
  "ReconMatrixPE": 104,
  "RepetitionTime": 1.49,
  "SAR": 0.0474541,
  "ScanOptions": "FS",
  "ScanningSequence": "EP",
  "SequenceName": "epfid2d1_104",
  "SequenceVariant": "SK_SS",
  "SeriesDescription": "func_task-things_run-5",
  "SeriesNumber": 31,
  "ShimSetting": [630, -7265, -8819, 592, 15, -217, -13, -25],
  "SliceThickness": 2,
  "SliceTiming": [0, 0.7825, 0.0975, 0.88, 0.195, 0.98, 0.2925, 1.0775, 0.39, 1.175, 0.49, 1.2725, 0.5875, 1.37, 0.685, 0, 0.7825, 0.0975, 0.88, 0.195, 0.98, 0.2925, 1.0775, 0.39, 1.175, 0.49, 1.2725, 0.5875, 1.37, 0.685, 0, 0.7825, 0.0975, 0.88, 0.195, 0.98, 0.2925, 1.0775, 0.39, 1.175, 0.49, 1.2725, 0.5875, 1.37, 0.685, 0, 0.7825, 0.0975, 0.88, 0.195, 0.98, 0.2925, 1.0775, 0.39, 1.175, 0.49, 1.2725, 0.5875, 1.37, 0.685],
  "SoftwareVersions": "syngo_MR_E11",
  "SpacingBetweenSlices": 2,
  "StationName": "MRC35049",
  "TaskName": "things",
  "TotalReadoutTime": 0.0576811,
  "TxRefAmp": 249.264,
  "WipMemBlock": "1f07b16c-fda6-4460-abc6-ed67348b80f2||Sequence: R016 ve11c/master r/e634e98; Dec 19 2017 11:00:25 by eja",
  "dcmmeta_affine": [
    [-1.9957921504974365, 0.12906204164028168, -0.012525390833616257, 101.6309585571289],
    [0.12712399661540985, 1.9093966484069824, -0.5814155340194702, -74.84011840820312],
    [0.025561368092894554, 0.5809884071350098, 1.9135828018188477, -61.4794921875],
    [0.0, 0.0, 0.0, 1.0]
],
  "dcmmeta_reorient_transform": [
    [0.0, -1.0, 0.0, 103.0],
    [1.0, 0.0, 0.0, 0.0],
    [0.0, 0.0, 1.0, 0.0],
    [0.0, 0.0, 0.0, 1.0]
],
  "dcmmeta_shape": [104, 104, 60, 190],
  "dcmmeta_slice_dim": 2,
  "dcmmeta_version": 0.6,
  "global": {
    "const": {
      "AcquisitionMatrix": [104, 0, 0, 104],
      "AngioFlag": "N",
      "BitsAllocated": 16,
      "BitsStored": 16,
      "BodyPartExamined": "BRAIN",
      "Columns": 832,
      "EchoNumbers": 1,
      "EchoTime": 37.0,
      "EchoTrainLength": 104,
      "FlipAngle": 52.0,
      "HighBit": 15,
      "ImageOrientationPatient": [0.99789604990903, -0.0635619988666, 0.01278068370767, 0.06453101753785, 0.95469831060201, -0.2904942056379],
      "ImagePositionPatient": [-888.37125304198, -770.57497038483, 200.53775659973],
      "ImageType": [
        "ORIGINAL",
        "PRIMARY",
        "P",
        "MB",
        "ND",
        "MOSAIC"
],
      "ImagedNucleus": "1H",
      "ImagingFrequency": 123.259161,
      "InPlanePhaseEncodingDirection": "COL",
      "LargestImagePixelValue": 4095,
      "MRAcquisitionType": "2D",
      "MagneticFieldStrength": 3.0,
      "Manufacturer": "SIEMENS",
      "ManufacturerModelName": "Prisma_fit",
      "Modality": "MR",
      "NumberOfAverages": 1.0,
      "NumberOfPhaseEncodingSteps": 104,
      "PercentPhaseFieldOfView": 100.0,
      "PercentSampling": 100.0,
      "PerformedProcedureStepStartTime": "145010.721000",
      "PhotometricInterpretation": "MONOCHROME2",
      "PixelBandwidth": 2290.0,
      "PixelRepresentation": 0,
      "PixelSpacing": [2.0, 2.0],
      "ProtocolName": "func_task-things_run-5",
      "RepetitionTime": 1490.0,
      "RescaleIntercept": -4096.0,
      "RescaleSlope": 2.0,
      "RescaleType": "US",
      "Rows": 832,
      "SAR": 0.04745414699681,
      "SamplesPerPixel": 1,
      "ScanOptions": "FS",
      "ScanningSequence": "EP",
      "SequenceName": "epfid2d1_104",
      "SequenceVariant": [
        "SK",
        "SS"
],
      "SeriesDescription": "func_task-things_run-5",
      "SeriesNumber": 31,
      "SeriesTime": "161729.990000",
      "SliceLocation": -37.702930739776,
      "SliceThickness": 2.0,
      "SmallestImagePixelValue": 0,
      "SoftwareVersions": "syngo MR E11",
      "SpacingBetweenSlices": 2.0000000269489,
      "SpecificCharacterSet": "ISO_IR 100",
      "StudyID": "1",
      "StudyTime": "145010.667000",
      "TransmitCoilName": "Body",
      "VariableFlipAngleFlag": "N",
      "WindowCenterWidthExplanation": "Algo1",
      "dBdt": 0.0},
    "slices": {}
  },
  "time": {
    "samples": {
      "AcquisitionNumber": [1, 2, 3, 4, 5, 6, 7, 8, 9, 10, 11, 12, 13, 14, 15, 16, 17, 18, 19, 20, 21, 22, 23, 24, 25, 26, 27, 28, 29, 30, 31, 32, 33, 34, 35, 36, 37, 38, 39, 40, 41, 42, 43, 44, 45, 46, 47, 48, 49, 50, 51, 52, 53, 54, 55, 56, 57, 58, 59, 60, 61, 62, 63, 64, 65, 66, 67, 68, 69, 70, 71, 72, 73, 74, 75, 76, 77, 78, 79, 80, 81, 82, 83, 84, 85, 86, 87, 88, 89, 90, 91, 92, 93, 94, 95, 96, 97, 98, 99, 100, 101, 102, 103, 104, 105, 106, 107, 108, 109, 110, 111, 112, 113, 114, 115, 116, 117, 118, 119, 120, 121, 122, 123, 124, 125, 126, 127, 128, 129, 130, 131, 132, 133, 134, 135, 136, 137, 138, 139, 140, 141, 142, 143, 144, 145, 146, 147, 148, 149, 150, 151, 152, 153, 154, 155, 156, 157, 158, 159, 160, 161, 162, 163, 164, 165, 166, 167, 168, 169, 170, 171, 172, 173, 174, 175, 176, 177, 178, 179, 180, 181, 182, 183, 184, 185, 186, 187, 188, 189, 190],
      "AcquisitionTime": ["161603.087500", "161604.577500", "161606.067500", "161607.557500", "161609.047500", "161610.537500", "161612.027500", "161613.517500", "161615.007500", "161616.497500", "161617.987500", "161619.477500", "161620.967500", "161622.457500", "161623.947500", "161625.437500", "161626.927500", "161628.417500", "161629.907500", "161631.397500", "161632.887500", "161634.377500", "161635.867500", "161637.357500", "161638.847500", "161640.337500", "161641.827500", "161643.317500", "161644.807500", "161646.297500", "161647.787500", "161649.277500", "161650.767500", "161652.257500", "161653.747500", "161655.237500", "161656.727500", "161658.217500", "161659.707500", "161701.197500", "161702.687500", "161704.177500", "161705.667500", "161707.157500", "161708.647500", "161710.137500", "161711.627500", "161713.117500", "161714.607500", "161716.097500", "161717.587500", "161719.077500", "161720.567500", "161722.057500", "161723.547500", "161725.037500", "161726.527500", "161728.017500", "161729.507500", "161730.997500", "161732.487500", "161733.977500", "161735.467500", "161736.957500", "161738.447500", "161739.937500", "161741.427500", "161742.917500", "161744.407500", "161745.897500", "161747.387500", "161748.877500", "161750.367500", "161751.857500", "161753.347500", "161754.837500", "161756.327500", "161757.817500", "161759.307500", "161800.797500", "161802.287500", "161803.777500", "161805.267500", "161806.757500", "161808.247500", "161809.737500", "161811.227500", "161812.717500", "161814.207500", "161815.697500", "161817.187500", "161818.677500", "161820.167500", "161821.657500", "161823.147500", "161824.637500", "161826.127500", "161827.617500", "161829.107500", "161830.597500", "161832.087500", "161833.577500", "161835.067500", "161836.557500", "161838.047500", "161839.537500", "161841.027500", "161842.517500", "161844.007500", "161845.497500", "161846.987500", "161848.477500", "161849.967500", "161851.457500", "161852.947500", "161854.437500", "161855.927500", "161857.417500", "161858.907500", "161900.397500", "161901.887500", "161903.377500", "161904.867500", "161906.357500", "161907.847500", "161909.337500", "161910.827500", "161912.317500", "161913.807500", "161915.297500", "161916.787500", "161918.277500", "161919.767500", "161921.257500", "161922.747500", "161924.237500", "161925.727500", "161927.217500", "161928.707500", "161930.197500", "161931.687500", "161933.177500", "161934.667500", "161936.157500", "161937.647500", "161939.137500", "161940.627500", "161942.117500", "161943.607500", "161945.097500", "161946.587500", "161948.077500", "161949.567500", "161951.057500", "161952.547500", "161954.037500", "161955.527500", "161957.017500", "161958.507500", "161959.997500", "162001.487500", "162002.977500", "162004.467500", "162005.957500", "162007.447500", "162008.937500", "162010.427500", "162011.917500", "162013.407500", "162014.897500", "162016.387500", "162017.877500", "162019.367500", "162020.857500", "162022.347500", "162023.837500", "162025.327500", "162026.817500", "162028.307500", "162029.797500", "162031.287500", "162032.777500", "162034.267500", "162035.757500", "162037.247500", "162038.737500", "162040.227500", "162041.717500", "162043.207500", "162044.697500"],
      "ContentTime": ["161729.992000", "161729.995000", "161729.997000", "161730.005000", "161730.007000", "161730.010000", "161730.012000", "161730.015000", "161730.017000", "161730.020000", "161730.022000", "161730.025000", "161730.027000", "161730.030000", "161730.032000", "161730.035000", "161730.037000", "161730.040000", "161730.043000", "161730.045000", "161730.048000", "161730.050000", "161730.058000", "161730.060000", "161730.063000", "161730.065000", "161730.068000", "161730.071000", "161730.073000", "161730.076000", "161730.078000", "161730.081000", "161749.915000", "161749.917000", "161749.920000", "161749.923000", "161749.925000", "161749.928000", "161749.930000", "161749.933000", "161749.935000", "161749.938000", "161749.940000", "161749.943000", "161749.945000", "161749.948000", "161749.951000", "161749.960000", "161749.963000", "161749.965000", "161749.968000", "161749.970000", "161809.919000", "161809.922000", "161809.925000", "161809.927000", "161809.930000", "161809.932000", "161809.935000", "161809.937000", "161809.940000", "161809.943000", "161809.945000", "161809.948000", "161809.950000", "161809.953000", "161809.955000", "161809.958000", "161809.960000", "161809.963000", "161809.965000", "161809.968000", "161829.913000", "161829.915000", "161829.918000", "161829.920000", "161829.923000", "161829.926000", "161829.928000", "161829.931000", "161829.933000", "161829.936000", "161829.938000", "161829.941000", "161829.943000", "161829.946000", "161829.948000", "161829.951000", "161829.953000", "161829.956000", "161829.958000", "161829.961000", "161909.955000", "161909.958000", "161909.961000", "161909.963000", "161909.966000", "161909.968000", "161909.971000", "161909.973000", "161909.976000", "161909.978000", "161909.981000", "161909.983000", "161909.986000", "161909.988000", "161909.991000", "161909.994000", "161909.996000", "161910.000000", "161910.002000", "161910.005000", "161910.007000", "161910.010000", "161910.018000", "161910.020000", "161910.025000", "161910.028000", "161910.030000", "161910.033000", "161910.036000", "161910.038000", "161910.041000", "161910.043000", "161949.946000", "161949.949000", "161949.952000", "161949.954000", "161949.957000", "161949.959000", "161949.962000", "161949.964000", "161949.967000", "161949.970000", "161949.972000", "161949.975000", "161949.977000", "161949.980000", "161949.982000", "161949.985000", "161949.988000", "161949.990000", "161949.993000", "161949.996000", "161949.998000", "161950.001000", "161950.004000", "161950.006000", "161950.009000", "161950.011000", "161950.014000", "162029.938000", "162029.941000", "162029.943000", "162029.946000", "162029.949000", "162029.951000", "162029.954000", "162029.956000", "162029.959000", "162029.961000", "162029.964000", "162029.966000", "162029.969000", "162029.972000", "162029.974000", "162029.977000", "162029.979000", "162029.982000", "162029.984000", "162029.987000", "162029.989000", "162029.992000", "162029.994000", "162029.997000", "162030.000000", "162030.003000", "162030.005000", "162047.865000", "162047.868000", "162047.871000", "162047.873000", "162047.877000", "162047.880000", "162047.890000", "162047.897000", "162047.910000", "162047.917000", "162047.920000", "162047.923000"],
      "InstanceCreationTime": ["161729.992000", "161729.995000", "161729.997000", "161730.005000", "161730.007000", "161730.010000", "161730.012000", "161730.015000", "161730.017000", "161730.020000", "161730.022000", "161730.025000", "161730.027000", "161730.030000", "161730.032000", "161730.035000", "161730.037000", "161730.040000", "161730.043000", "161730.045000", "161730.048000", "161730.050000", "161730.058000", "161730.060000", "161730.063000", "161730.065000", "161730.068000", "161730.071000", "161730.073000", "161730.076000", "161730.078000", "161730.081000", "161749.915000", "161749.917000", "161749.920000", "161749.923000", "161749.925000", "161749.928000", "161749.930000", "161749.933000", "161749.935000", "161749.938000", "161749.940000", "161749.943000", "161749.945000", "161749.948000", "161749.951000", "161749.960000", "161749.963000", "161749.965000", "161749.968000", "161749.970000", "161809.919000", "161809.922000", "161809.925000", "161809.927000", "161809.930000", "161809.932000", "161809.935000", "161809.937000", "161809.940000", "161809.943000", "161809.945000", "161809.948000", "161809.950000", "161809.953000", "161809.955000", "161809.958000", "161809.960000", "161809.963000", "161809.965000", "161809.968000", "161829.913000", "161829.915000", "161829.918000", "161829.920000", "161829.923000", "161829.926000", "161829.928000", "161829.931000", "161829.933000", "161829.936000", "161829.938000", "161829.941000", "161829.943000", "161829.946000", "161829.948000", "161829.951000", "161829.953000", "161829.956000", "161829.958000", "161829.961000", "161909.955000", "161909.958000", "161909.961000", "161909.963000", "161909.966000", "161909.968000", "161909.971000", "161909.973000", "161909.976000", "161909.978000", "161909.981000", "161909.983000", "161909.986000", "161909.988000", "161909.991000", "161909.994000", "161909.996000", "161910.000000", "161910.002000", "161910.005000", "161910.007000", "161910.010000", "161910.018000", "161910.020000", "161910.025000", "161910.028000", "161910.030000", "161910.033000", "161910.036000", "161910.038000", "161910.041000", "161910.043000", "161949.946000", "161949.949000", "161949.952000", "161949.954000", "161949.957000", "161949.959000", "161949.962000", "161949.964000", "161949.967000", "161949.970000", "161949.972000", "161949.975000", "161949.977000", "161949.980000", "161949.982000", "161949.985000", "161949.988000", "161949.990000", "161949.993000", "161949.996000", "161949.998000", "161950.001000", "161950.004000", "161950.006000", "161950.009000", "161950.011000", "161950.014000", "162029.938000", "162029.941000", "162029.943000", "162029.946000", "162029.949000", "162029.951000", "162029.954000", "162029.956000", "162029.959000", "162029.961000", "162029.964000", "162029.966000", "162029.969000", "162029.972000", "162029.974000", "162029.977000", "162029.979000", "162029.982000", "162029.984000", "162029.987000", "162029.989000", "162029.992000", "162029.994000", "162029.997000", "162030.000000", "162030.003000", "162030.005000", "162047.865000", "162047.868000", "162047.871000", "162047.873000", "162047.877000", "162047.880000", "162047.890000", "162047.897000", "162047.910000", "162047.917000", "162047.920000", "162047.923000"],
      "InstanceNumber": [1, 2, 3, 4, 5, 6, 7, 8, 9, 10, 11, 12, 13, 14, 15, 16, 17, 18, 19, 20, 21, 22, 23, 24, 25, 26, 27, 28, 29, 30, 31, 32, 33, 34, 35, 36, 37, 38, 39, 40, 41, 42, 43, 44, 45, 46, 47, 48, 49, 50, 51, 52, 53, 54, 55, 56, 57, 58, 59, 60, 61, 62, 63, 64, 65, 66, 67, 68, 69, 70, 71, 72, 73, 74, 75, 76, 77, 78, 79, 80, 81, 82, 83, 84, 85, 86, 87, 88, 89, 90, 91, 92, 93, 94, 95, 96, 97, 98, 99, 100, 101, 102, 103, 104, 105, 106, 107, 108, 109, 110, 111, 112, 113, 114, 115, 116, 117, 118, 119, 120, 121, 122, 123, 124, 125, 126, 127, 128, 129, 130, 131, 132, 133, 134, 135, 136, 137, 138, 139, 140, 141, 142, 143, 144, 145, 146, 147, 148, 149, 150, 151, 152, 153, 154, 155, 156, 157, 158, 159, 160, 161, 162, 163, 164, 165, 166, 167, 168, 169, 170, 171, 172, 173, 174, 175, 176, 177, 178, 179, 180, 181, 182, 183, 184, 185, 186, 187, 188, 189, 190],
      "WindowCenter": [4812.0, 4810.0, 4816.0, 4818.0, 4816.0, 4782.0, 4778.0, 4802.0, 4780.0, 4816.0, 4816.0, 4818.0, 4818.0, 4810.0, 4810.0, 4810.0, 4814.0, 4816.0, 4806.0, 4808.0, 4818.0, 4816.0, 4808.0, 4806.0, 4806.0, 4816.0, 4812.0, 4820.0, 4816.0, 4814.0, 4812.0, 4810.0, 4810.0, 4818.0, 4814.0, 4808.0, 4808.0, 4782.0, 4812.0, 4816.0, 4812.0, 4818.0, 4820.0, 4810.0, 4808.0, 4810.0, 4814.0, 4816.0, 4806.0, 4812.0, 4810.0, 4816.0, 4814.0, 4812.0, 4818.0, 4822.0, 4814.0, 4804.0, 4780.0, 4780.0, 4808.0, 4820.0, 4820.0, 4814.0, 4816.0, 4816.0, 4818.0, 4806.0, 4806.0, 4786.0, 4778.0, 4810.0, 4814.0, 4818.0, 4818.0, 4820.0, 4812.0, 4804.0, 4804.0, 4808.0, 4782.0, 4814.0, 4812.0, 4816.0, 4820.0, 4816.0, 4812.0, 4802.0, 4780.0, 4778.0, 4806.0, 4816.0, 4812.0, 4816.0, 4814.0, 4814.0, 4816.0, 4820.0, 4818.0, 4818.0, 4802.0, 4780.0, 4778.0, 4812.0, 4814.0, 4814.0, 4818.0, 4816.0, 4818.0, 4818.0, 4810.0, 4810.0, 4810.0, 4808.0, 4808.0, 4814.0, 4814.0, 4812.0, 4818.0, 4818.0, 4818.0, 4810.0, 4816.0, 4806.0, 4808.0, 4812.0, 4810.0, 4814.0, 4814.0, 4812.0, 4818.0, 4816.0, 4812.0, 4814.0, 4810.0, 4810.0, 4818.0, 4822.0, 4808.0, 4804.0, 4810.0, 4806.0, 4810.0, 4816.0, 4816.0, 4816.0, 4818.0, 4814.0, 4816.0, 4814.0, 4808.0, 4814.0, 4806.0, 4812.0, 4816.0, 4810.0, 4820.0, 4818.0, 4814.0, 4820.0, 4818.0, 4810.0, 4806.0, 4808.0, 4812.0, 4810.0, 4816.0, 4822.0, 4822.0, 4812.0, 4806.0, 4802.0, 4778.0, 4806.0, 4814.0, 4814.0, 4818.0, 4816.0, 4818.0, 4818.0, 4808.0, 4778.0, 4776.0, 4776.0, 4784.0, 4814.0, 4818.0, 4814.0, 4814.0, 4818.0],
      "WindowWidth": [18616.0, 18618.0, 18618.0, 18606.0, 18622.0, 18580.0, 18574.0, 18604.0, 18574.0, 18620.0, 18616.0, 18620.0, 18626.0, 18618.0, 18614.0, 18616.0, 18616.0, 18628.0, 18612.0, 18612.0, 18620.0, 18622.0, 18610.0, 18606.0, 18614.0, 18618.0, 18616.0, 18622.0, 18622.0, 18620.0, 18618.0, 18618.0, 18618.0, 18620.0, 18622.0, 18614.0, 18612.0, 18582.0, 18618.0, 18620.0, 18618.0, 18622.0, 18620.0, 18622.0, 18610.0, 18610.0, 18620.0, 18622.0, 18608.0, 18616.0, 18622.0, 18622.0, 18620.0, 18616.0, 18612.0, 18618.0, 18620.0, 18612.0, 18576.0, 18574.0, 18610.0, 18624.0, 18622.0, 18622.0, 18622.0, 18610.0, 18626.0, 18612.0, 18614.0, 18584.0, 18580.0, 18612.0, 18620.0, 18616.0, 18612.0, 18626.0, 18618.0, 18610.0, 18606.0, 18610.0, 18576.0, 18618.0, 18620.0, 18622.0, 18610.0, 18606.0, 18620.0, 18606.0, 18576.0, 18568.0, 18612.0, 18620.0, 18620.0, 18624.0, 18622.0, 18624.0, 18624.0, 18626.0, 18614.0, 18622.0, 18604.0, 18568.0, 18576.0, 18620.0, 18622.0, 18624.0, 18624.0, 18624.0, 18626.0, 18624.0, 18616.0, 18616.0, 18618.0, 18612.0, 18614.0, 18620.0, 18618.0, 18620.0, 18626.0, 18616.0, 18622.0, 18614.0, 18620.0, 18614.0, 18618.0, 18620.0, 18616.0, 18618.0, 18622.0, 18622.0, 18622.0, 18626.0, 18618.0, 18618.0, 18618.0, 18614.0, 18618.0, 18626.0, 18618.0, 18604.0, 18618.0, 18612.0, 18614.0, 18624.0, 18622.0, 18622.0, 18622.0, 18620.0, 18618.0, 18616.0, 18612.0, 18620.0, 18616.0, 18612.0, 18618.0, 18620.0, 18620.0, 18624.0, 18624.0, 18622.0, 18620.0, 18620.0, 18610.0, 18612.0, 18622.0, 18620.0, 18620.0, 18602.0, 18606.0, 18622.0, 18614.0, 18606.0, 18574.0, 18612.0, 18620.0, 18626.0, 18620.0, 18614.0, 18598.0, 18616.0, 18618.0, 18572.0, 18570.0, 18568.0, 18576.0, 18618.0, 18622.0, 18614.0, 18594.0, 18580.0]
    },
    "slices": {}
  }
}