{
  "AcquisitionMatrixPE": 104,
  "AcquisitionNumber": 1,
  "AcquisitionTime": "15:40:22.632500",
  "BandwidthPerPixelPhaseEncode": 17.17,
  "BaseResolution": 104,
  "BodyPartExamined": "BRAIN",
  "CoilString": "HC1-7;NC1_2",
  "ConsistencyInfo": "N4_VE11C_LATEST_20160120",
  "ConversionSoftware": "dcm2niix",
  "ConversionSoftwareVersion": "v1.0.20190902",
  "DerivedVendorReportedEchoSpacing": 0.000560011,
  "DeviceSerialNumber": "167006",
  "DwellTime": 2.1e-06,
  "EchoTime": 0.037,
  "EchoTrainLength": 104,
  "EffectiveEchoSpacing": 0.000560011,
  "FlipAngle": 52,
  "ImageComments": "Unaliased_MB4_PE3_LB",
  "ImageOrientationPatientDICOM": [0.998822, -0.0427354, 0.0229676, 0.0478022, 0.947783, -0.315312],
  "ImageType": [
    "ORIGINAL",
    "PRIMARY",
    "P",
    "MB",
    "ND",
    "MOSAIC"
],
  "ImagingFrequency": 123.259,
  "InPlanePhaseEncodingDirectionDICOM": "COL",
  "InstitutionAddress": "Chemin_Queen-Mary_4565_Montreal_District_CA_H3W_1W5",
  "InstitutionName": "IUGM",
  "InstitutionalDepartmentName": "Department",
  "MRAcquisitionType": "2D",
  "MagneticFieldStrength": 3,
  "Manufacturer": "Siemens",
  "ManufacturersModelName": "Prisma_fit",
  "Modality": "MR",
  "MultibandAccelerationFactor": 4,
  "PartialFourier": 1,
  "PatientPosition": "HFS",
  "PercentPhaseFOV": 100,
  "PhaseEncodingDirection": "j",
  "PhaseEncodingSteps": 104,
  "PhaseResolution": 1,
  "PixelBandwidth": 2290,
  "ProcedureStepDescription": "memory_things",
  "ProtocolName": "func_task-things_run-2",
  "PulseSequenceDetails": "%CustomerSeq%_cmrr_mbep2d_bold",
  "ReceiveCoilActiveElements": "HC1-7;NC1,2",
  "ReceiveCoilName": "HeadNeck_64",
  "ReconMatrixPE": 104,
  "RepetitionTime": 1.49,
  "SAR": 0.0520577,
  "ScanOptions": "FS",
  "ScanningSequence": "EP",
  "SequenceName": "epfid2d1_104",
  "SequenceVariant": "SK_SS",
  "SeriesDescription": "func_task-things_run-2",
  "SeriesNumber": 14,
  "ShimSetting": [628, -7249, -8831, 587, -6, -211, -50, -33],
  "SliceThickness": 2,
  "SliceTiming": [0, 0.7825, 0.0975, 0.88, 0.195, 0.98, 0.2925, 1.0775, 0.39, 1.175, 0.49, 1.2725, 0.5875, 1.37, 0.685, 0, 0.7825, 0.0975, 0.88, 0.195, 0.98, 0.2925, 1.0775, 0.39, 1.175, 0.49, 1.2725, 0.5875, 1.37, 0.685, 0, 0.7825, 0.0975, 0.88, 0.195, 0.98, 0.2925, 1.0775, 0.39, 1.175, 0.49, 1.2725, 0.5875, 1.37, 0.685, 0, 0.7825, 0.0975, 0.88, 0.195, 0.98, 0.2925, 1.0775, 0.39, 1.175, 0.49, 1.2725, 0.5875, 1.37, 0.685],
  "SoftwareVersions": "syngo_MR_E11",
  "SpacingBetweenSlices": 2,
  "StationName": "MRC35049",
  "TaskName": "things",
  "TotalReadoutTime": 0.0576811,
  "TxRefAmp": 257.819,
  "WipMemBlock": "8432b4c6-0af0-4778-a688-fd50d5362e85||Sequence: R016 ve11c/master r/e634e98; Dec 19 2017 11:00:25 by eja",
  "dcmmeta_affine": [
    [-1.9976447820663452, 0.09560434520244598, 0.01658656634390354, 102.24735260009766],
    [0.08547084778547287, 1.895566463470459, -0.6320779919624329, -71.15727996826172],
    [0.045935165137052536, 0.6306247711181641, 1.897420048713684, -68.63756561279297],
    [0.0, 0.0, 0.0, 1.0]
],
  "dcmmeta_reorient_transform": [
    [0.0, -1.0, 0.0, 103.0],
    [1.0, 0.0, 0.0, 0.0],
    [0.0, 0.0, 1.0, 0.0],
    [0.0, 0.0, 0.0, 1.0]
],
  "dcmmeta_shape": [104, 104, 60, 190],
  "dcmmeta_slice_dim": 2,
  "dcmmeta_version": 0.6,
  "global": {
    "const": {
      "AcquisitionMatrix": [104, 0, 0, 104],
      "AngioFlag": "N",
      "BitsAllocated": 16,
      "BitsStored": 16,
      "BodyPartExamined": "BRAIN",
      "Columns": 832,
      "EchoNumbers": 1,
      "EchoTime": 37.0,
      "EchoTrainLength": 104,
      "FlipAngle": 52.0,
      "HighBit": 15,
      "ImageOrientationPatient": [0.99882239352739, -0.0427354220729, 0.02296758342665, 0.04780217207127, 0.94778322974099, -0.3153123875889],
      "ImagePositionPatient": [-874.03728600851, -782.96086797506, 209.1438065979],
      "ImageType": [
        "ORIGINAL",
        "PRIMARY",
        "P",
        "MB",
        "ND",
        "MOSAIC"
],
      "ImagedNucleus": "1H",
      "ImagingFrequency": 123.259164,
      "InPlanePhaseEncodingDirection": "COL",
      "LargestImagePixelValue": 4095,
      "MRAcquisitionType": "2D",
      "MagneticFieldStrength": 3.0,
      "Manufacturer": "SIEMENS",
      "ManufacturerModelName": "Prisma_fit",
      "Modality": "MR",
      "NumberOfAverages": 1.0,
      "NumberOfPhaseEncodingSteps": 104,
      "PercentPhaseFieldOfView": 100.0,
      "PercentSampling": 100.0,
      "PerformedProcedureStepStartTime": "145010.721000",
      "PhotometricInterpretation": "MONOCHROME2",
      "PixelBandwidth": 2290.0,
      "PixelRepresentation": 0,
      "PixelSpacing": [2.0, 2.0],
      "ProtocolName": "func_task-things_run-2",
      "RepetitionTime": 1490.0,
      "RescaleIntercept": -4096.0,
      "RescaleSlope": 2.0,
      "RescaleType": "US",
      "Rows": 832,
      "SAR": 0.05205771770786,
      "SamplesPerPixel": 1,
      "ScanOptions": "FS",
      "ScanningSequence": "EP",
      "SequenceName": "epfid2d1_104",
      "SequenceVariant": [
        "SK",
        "SS"
],
      "SeriesDescription": "func_task-things_run-2",
      "SeriesNumber": 14,
      "SeriesTime": "154136.936000",
      "SliceLocation": -41.780698964933,
      "SliceThickness": 2.0,
      "SmallestImagePixelValue": 0,
      "SoftwareVersions": "syngo MR E11",
      "SpacingBetweenSlices": 2.0000000870032,
      "SpecificCharacterSet": "ISO_IR 100",
      "StudyID": "1",
      "StudyTime": "145010.667000",
      "TransmitCoilName": "Body",
      "VariableFlipAngleFlag": "N",
      "WindowCenterWidthExplanation": "Algo1",
      "dBdt": 0.0},
    "slices": {}
  },
  "time": {
    "samples": {
      "AcquisitionNumber": [1, 2, 3, 4, 5, 6, 7, 8, 9, 10, 11, 12, 13, 14, 15, 16, 17, 18, 19, 20, 21, 22, 23, 24, 25, 26, 27, 28, 29, 30, 31, 32, 33, 34, 35, 36, 37, 38, 39, 40, 41, 42, 43, 44, 45, 46, 47, 48, 49, 50, 51, 52, 53, 54, 55, 56, 57, 58, 59, 60, 61, 62, 63, 64, 65, 66, 67, 68, 69, 70, 71, 72, 73, 74, 75, 76, 77, 78, 79, 80, 81, 82, 83, 84, 85, 86, 87, 88, 89, 90, 91, 92, 93, 94, 95, 96, 97, 98, 99, 100, 101, 102, 103, 104, 105, 106, 107, 108, 109, 110, 111, 112, 113, 114, 115, 116, 117, 118, 119, 120, 121, 122, 123, 124, 125, 126, 127, 128, 129, 130, 131, 132, 133, 134, 135, 136, 137, 138, 139, 140, 141, 142, 143, 144, 145, 146, 147, 148, 149, 150, 151, 152, 153, 154, 155, 156, 157, 158, 159, 160, 161, 162, 163, 164, 165, 166, 167, 168, 169, 170, 171, 172, 173, 174, 175, 176, 177, 178, 179, 180, 181, 182, 183, 184, 185, 186, 187, 188, 189, 190],
      "AcquisitionTime": ["154022.632500", "154024.122500", "154025.612500", "154027.102500", "154028.592500", "154030.082500", "154031.572500", "154033.062500", "154034.552500", "154036.042500", "154037.532500", "154039.022500", "154040.512500", "154042.002500", "154043.492500", "154044.982500", "154046.472500", "154047.962500", "154049.452500", "154050.942500", "154052.432500", "154053.922500", "154055.412500", "154056.902500", "154058.392500", "154059.882500", "154101.372500", "154102.862500", "154104.352500", "154105.842500", "154107.332500", "154108.822500", "154110.312500", "154111.802500", "154113.292500", "154114.782500", "154116.272500", "154117.762500", "154119.252500", "154120.742500", "154122.232500", "154123.722500", "154125.212500", "154126.702500", "154128.192500", "154129.682500", "154131.172500", "154132.662500", "154134.152500", "154135.642500", "154137.132500", "154138.622500", "154140.112500", "154141.602500", "154143.092500", "154144.582500", "154146.072500", "154147.562500", "154149.052500", "154150.542500", "154152.032500", "154153.522500", "154155.012500", "154156.502500", "154157.992500", "154159.482500", "154200.972500", "154202.462500", "154203.952500", "154205.442500", "154206.932500", "154208.422500", "154209.912500", "154211.402500", "154212.892500", "154214.382500", "154215.872500", "154217.362500", "154218.852500", "154220.342500", "154221.832500", "154223.322500", "154224.812500", "154226.302500", "154227.792500", "154229.282500", "154230.772500", "154232.262500", "154233.752500", "154235.242500", "154236.732500", "154238.222500", "154239.712500", "154241.202500", "154242.692500", "154244.182500", "154245.672500", "154247.162500", "154248.652500", "154250.142500", "154251.632500", "154253.122500", "154254.612500", "154256.102500", "154257.592500", "154259.082500", "154300.572500", "154302.062500", "154303.552500", "154305.042500", "154306.532500", "154308.022500", "154309.512500", "154311.002500", "154312.492500", "154313.982500", "154315.472500", "154316.962500", "154318.452500", "154319.942500", "154321.432500", "154322.922500", "154324.412500", "154325.902500", "154327.392500", "154328.882500", "154330.372500", "154331.862500", "154333.352500", "154334.842500", "154336.332500", "154337.822500", "154339.312500", "154340.802500", "154342.292500", "154343.782500", "154345.272500", "154346.762500", "154348.252500", "154349.742500", "154351.232500", "154352.722500", "154354.212500", "154355.702500", "154357.192500", "154358.682500", "154400.172500", "154401.662500", "154403.152500", "154404.642500", "154406.132500", "154407.622500", "154409.112500", "154410.602500", "154412.092500", "154413.582500", "154415.072500", "154416.562500", "154418.052500", "154419.542500", "154421.032500", "154422.522500", "154424.012500", "154425.502500", "154426.992500", "154428.482500", "154429.972500", "154431.462500", "154432.952500", "154434.442500", "154435.932500", "154437.422500", "154438.912500", "154440.402500", "154441.892500", "154443.382500", "154444.872500", "154446.362500", "154447.852500", "154449.342500", "154450.832500", "154452.322500", "154453.812500", "154455.302500", "154456.792500", "154458.282500", "154459.772500", "154501.262500", "154502.752500", "154504.242500"],
      "ContentTime": ["154136.938000", "154136.941000", "154136.943000", "154136.946000", "154136.949000", "154136.951000", "154136.954000", "154136.957000", "154136.959000", "154136.962000", "154136.964000", "154136.977000", "154136.979000", "154136.982000", "154136.985000", "154136.987000", "154136.990000", "154136.992000", "154136.995000", "154136.998000", "154156.868000", "154156.871000", "154156.873000", "154156.876000", "154156.879000", "154156.881000", "154156.884000", "154156.886000", "154156.889000", "154156.891000", "154156.894000", "154156.896000", "154156.899000", "154156.902000", "154156.905000", "154156.907000", "154156.910000", "154156.912000", "154156.915000", "154156.917000", "154216.884000", "154216.887000", "154216.889000", "154216.892000", "154216.894000", "154216.897000", "154216.900000", "154216.902000", "154216.905000", "154216.907000", "154216.910000", "154216.912000", "154216.915000", "154216.917000", "154216.920000", "154216.923000", "154216.925000", "154216.928000", "154216.930000", "154216.933000", "154236.872000", "154236.874000", "154236.877000", "154236.880000", "154236.882000", "154236.885000", "154236.887000", "154236.890000", "154236.892000", "154236.895000", "154236.898000", "154236.900000", "154236.903000", "154236.905000", "154236.908000", "154236.911000", "154236.913000", "154236.916000", "154236.918000", "154236.921000", "154256.894000", "154256.896000", "154256.905000", "154256.908000", "154256.910000", "154256.913000", "154256.916000", "154256.918000", "154256.921000", "154256.924000", "154256.927000", "154256.929000", "154256.932000", "154256.934000", "154256.937000", "154256.940000", "154256.942000", "154256.945000", "154256.947000", "154256.950000", "154336.918000", "154336.921000", "154336.924000", "154336.926000", "154336.929000", "154336.932000", "154336.934000", "154336.937000", "154336.939000", "154336.942000", "154336.945000", "154336.947000", "154336.950000", "154336.952000", "154336.955000", "154336.958000", "154336.960000", "154336.963000", "154336.965000", "154336.968000", "154336.970000", "154336.973000", "154336.976000", "154336.978000", "154336.981000", "154336.983000", "154336.986000", "154336.989000", "154336.991000", "154416.899000", "154416.901000", "154416.904000", "154416.907000", "154416.909000", "154416.912000", "154416.915000", "154416.917000", "154416.920000", "154416.922000", "154416.925000", "154416.927000", "154416.930000", "154416.933000", "154416.935000", "154416.938000", "154416.940000", "154416.943000", "154416.946000", "154416.948000", "154416.951000", "154416.954000", "154416.956000", "154416.959000", "154416.961000", "154416.964000", "154416.967000", "154456.900000", "154456.903000", "154456.906000", "154456.909000", "154456.911000", "154456.914000", "154456.916000", "154456.919000", "154456.921000", "154456.924000", "154456.926000", "154456.929000", "154456.932000", "154456.934000", "154456.937000", "154456.939000", "154456.942000", "154456.945000", "154456.947000", "154456.950000", "154456.952000", "154456.955000", "154456.958000", "154456.961000", "154456.963000", "154456.966000", "154456.968000", "154506.773000", "154506.776000", "154506.779000", "154506.781000", "154506.784000", "154506.794000", "154506.797000"],
      "InstanceCreationTime": ["154136.938000", "154136.941000", "154136.943000", "154136.946000", "154136.949000", "154136.951000", "154136.954000", "154136.957000", "154136.959000", "154136.962000", "154136.964000", "154136.977000", "154136.979000", "154136.982000", "154136.985000", "154136.987000", "154136.990000", "154136.992000", "154136.995000", "154136.998000", "154156.868000", "154156.871000", "154156.873000", "154156.876000", "154156.879000", "154156.881000", "154156.884000", "154156.886000", "154156.889000", "154156.891000", "154156.894000", "154156.896000", "154156.899000", "154156.902000", "154156.905000", "154156.907000", "154156.910000", "154156.912000", "154156.915000", "154156.917000", "154216.884000", "154216.887000", "154216.889000", "154216.892000", "154216.894000", "154216.897000", "154216.900000", "154216.902000", "154216.905000", "154216.907000", "154216.910000", "154216.912000", "154216.915000", "154216.917000", "154216.920000", "154216.923000", "154216.925000", "154216.928000", "154216.930000", "154216.933000", "154236.872000", "154236.874000", "154236.877000", "154236.880000", "154236.882000", "154236.885000", "154236.887000", "154236.890000", "154236.892000", "154236.895000", "154236.898000", "154236.900000", "154236.903000", "154236.905000", "154236.908000", "154236.911000", "154236.913000", "154236.916000", "154236.918000", "154236.921000", "154256.894000", "154256.896000", "154256.905000", "154256.908000", "154256.910000", "154256.913000", "154256.916000", "154256.918000", "154256.921000", "154256.924000", "154256.927000", "154256.929000", "154256.932000", "154256.934000", "154256.937000", "154256.940000", "154256.942000", "154256.945000", "154256.947000", "154256.950000", "154336.918000", "154336.921000", "154336.924000", "154336.926000", "154336.929000", "154336.932000", "154336.934000", "154336.937000", "154336.939000", "154336.942000", "154336.945000", "154336.947000", "154336.950000", "154336.952000", "154336.955000", "154336.958000", "154336.960000", "154336.963000", "154336.965000", "154336.968000", "154336.970000", "154336.973000", "154336.976000", "154336.978000", "154336.981000", "154336.983000", "154336.986000", "154336.989000", "154336.991000", "154416.899000", "154416.901000", "154416.904000", "154416.907000", "154416.909000", "154416.912000", "154416.915000", "154416.917000", "154416.920000", "154416.922000", "154416.925000", "154416.927000", "154416.930000", "154416.933000", "154416.935000", "154416.938000", "154416.940000", "154416.943000", "154416.946000", "154416.948000", "154416.951000", "154416.954000", "154416.956000", "154416.959000", "154416.961000", "154416.964000", "154416.967000", "154456.900000", "154456.903000", "154456.906000", "154456.909000", "154456.911000", "154456.914000", "154456.916000", "154456.919000", "154456.921000", "154456.924000", "154456.926000", "154456.929000", "154456.932000", "154456.934000", "154456.937000", "154456.939000", "154456.942000", "154456.945000", "154456.947000", "154456.950000", "154456.952000", "154456.955000", "154456.958000", "154456.961000", "154456.963000", "154456.966000", "154456.968000", "154506.773000", "154506.776000", "154506.779000", "154506.781000", "154506.784000", "154506.794000", "154506.797000"],
      "InstanceNumber": [1, 2, 3, 4, 5, 6, 7, 8, 9, 10, 11, 12, 13, 14, 15, 16, 17, 18, 19, 20, 21, 22, 23, 24, 25, 26, 27, 28, 29, 30, 31, 32, 33, 34, 35, 36, 37, 38, 39, 40, 41, 42, 43, 44, 45, 46, 47, 48, 49, 50, 51, 52, 53, 54, 55, 56, 57, 58, 59, 60, 61, 62, 63, 64, 65, 66, 67, 68, 69, 70, 71, 72, 73, 74, 75, 76, 77, 78, 79, 80, 81, 82, 83, 84, 85, 86, 87, 88, 89, 90, 91, 92, 93, 94, 95, 96, 97, 98, 99, 100, 101, 102, 103, 104, 105, 106, 107, 108, 109, 110, 111, 112, 113, 114, 115, 116, 117, 118, 119, 120, 121, 122, 123, 124, 125, 126, 127, 128, 129, 130, 131, 132, 133, 134, 135, 136, 137, 138, 139, 140, 141, 142, 143, 144, 145, 146, 147, 148, 149, 150, 151, 152, 153, 154, 155, 156, 157, 158, 159, 160, 161, 162, 163, 164, 165, 166, 167, 168, 169, 170, 171, 172, 173, 174, 175, 176, 177, 178, 179, 180, 181, 182, 183, 184, 185, 186, 187, 188, 189, 190],
      "WindowCenter": [4820.0, 4824.0, 4822.0, 4822.0, 4820.0, 4820.0, 4822.0, 4818.0, 4824.0, 4826.0, 4824.0, 4848.0, 4822.0, 4828.0, 4822.0, 4844.0, 4812.0, 4812.0, 4816.0, 4818.0, 4822.0, 4822.0, 4824.0, 4820.0, 4820.0, 4822.0, 4816.0, 4820.0, 4824.0, 4820.0, 4820.0, 4820.0, 4820.0, 4820.0, 4824.0, 4822.0, 4824.0, 4822.0, 4820.0, 4826.0, 4820.0, 4820.0, 4820.0, 4818.0, 4824.0, 4822.0, 4824.0, 4820.0, 4820.0, 4818.0, 4822.0, 4820.0, 4822.0, 4824.0, 4818.0, 4822.0, 4822.0, 4818.0, 4818.0, 4820.0, 4820.0, 4826.0, 4822.0, 4820.0, 4822.0, 4818.0, 4820.0, 4818.0, 4822.0, 4822.0, 4822.0, 4824.0, 4820.0, 4818.0, 4822.0, 4820.0, 4820.0, 4820.0, 4822.0, 4826.0, 4844.0, 4848.0, 4820.0, 4818.0, 4822.0, 4820.0, 4820.0, 4846.0, 4818.0, 4824.0, 4822.0, 4824.0, 4820.0, 4822.0, 4824.0, 4822.0, 4818.0, 4824.0, 4820.0, 4816.0, 4814.0, 4818.0, 4822.0, 4822.0, 4822.0, 4824.0, 4822.0, 4818.0, 4820.0, 4818.0, 4810.0, 4816.0, 4818.0, 4820.0, 4822.0, 4822.0, 4822.0, 4824.0, 4822.0, 4824.0, 4822.0, 4818.0, 4820.0, 4818.0, 4820.0, 4822.0, 4824.0, 4820.0, 4818.0, 4818.0, 4820.0, 4820.0, 4824.0, 4824.0, 4816.0, 4824.0, 4824.0, 4820.0, 4820.0, 4822.0, 4814.0, 4812.0, 4812.0, 4812.0, 4818.0, 4820.0, 4816.0, 4820.0, 4820.0, 4824.0, 4820.0, 4814.0, 4820.0, 4816.0, 4820.0, 4824.0, 4822.0, 4822.0, 4822.0, 4826.0, 4820.0, 4822.0, 4822.0, 4820.0, 4822.0, 4820.0, 4820.0, 4822.0, 4822.0, 4822.0, 4822.0, 4822.0, 4818.0, 4818.0, 4824.0, 4824.0, 4810.0, 4812.0, 4812.0, 4816.0, 4824.0, 4820.0, 4820.0, 4818.0, 4822.0, 4818.0, 4822.0, 4820.0, 4814.0, 4820.0],
      "WindowWidth": [18616.0, 18624.0, 18624.0, 18612.0, 18618.0, 18612.0, 18618.0, 18612.0, 18614.0, 18620.0, 18616.0, 18648.0, 18620.0, 18606.0, 18610.0, 18652.0, 18614.0, 18614.0, 18614.0, 18616.0, 18624.0, 18618.0, 18608.0, 18616.0, 18622.0, 18622.0, 18618.0, 18620.0, 18620.0, 18626.0, 18616.0, 18624.0, 18616.0, 18618.0, 18620.0, 18624.0, 18618.0, 18624.0, 18624.0, 18618.0, 18620.0, 18622.0, 18622.0, 18620.0, 18618.0, 18622.0, 18624.0, 18620.0, 18622.0, 18618.0, 18616.0, 18626.0, 18614.0, 18614.0, 18624.0, 18622.0, 18622.0, 18618.0, 18620.0, 18622.0, 18612.0, 18612.0, 18620.0, 18616.0, 18618.0, 18624.0, 18622.0, 18620.0, 18618.0, 18626.0, 18622.0, 18618.0, 18624.0, 18618.0, 18624.0, 18622.0, 18620.0, 18622.0, 18620.0, 18620.0, 18656.0, 18654.0, 18624.0, 18618.0, 18620.0, 18620.0, 18618.0, 18652.0, 18622.0, 18624.0, 18622.0, 18618.0, 18618.0, 18622.0, 18620.0, 18622.0, 18608.0, 18602.0, 18624.0, 18618.0, 18612.0, 18622.0, 18624.0, 18618.0, 18622.0, 18620.0, 18594.0, 18590.0, 18622.0, 18616.0, 18612.0, 18614.0, 18618.0, 18622.0, 18616.0, 18616.0, 18614.0, 18616.0, 18620.0, 18612.0, 18626.0, 18620.0, 18624.0, 18622.0, 18620.0, 18630.0, 18620.0, 18604.0, 18620.0, 18620.0, 18620.0, 18624.0, 18620.0, 18626.0, 18620.0, 18620.0, 18624.0, 18618.0, 18576.0, 18604.0, 18614.0, 18610.0, 18616.0, 18610.0, 18622.0, 18616.0, 18608.0, 18614.0, 18612.0, 18616.0, 18618.0, 18614.0, 18616.0, 18618.0, 18622.0, 18628.0, 18624.0, 18620.0, 18628.0, 18622.0, 18616.0, 18624.0, 18624.0, 18622.0, 18616.0, 18626.0, 18616.0, 18624.0, 18624.0, 18622.0, 18624.0, 18620.0, 18616.0, 18598.0, 18594.0, 18618.0, 18608.0, 18612.0, 18616.0, 18622.0, 18624.0, 18620.0, 18604.0, 18616.0, 18616.0, 18616.0, 18618.0, 18626.0, 18614.0, 18622.0]
    },
    "slices": {}
  }
}