{
  "AcquisitionMatrixPE": 104,
  "AcquisitionNumber": 1,
  "AcquisitionTime": "16:09:44.827500",
  "BandwidthPerPixelPhaseEncode": 17.17,
  "BaseResolution": 104,
  "BodyPartExamined": "BRAIN",
  "CoilString": "HC1-7;NC1_2",
  "ConsistencyInfo": "N4_VE11C_LATEST_20160120",
  "ConversionSoftware": "dcm2niix",
  "ConversionSoftwareVersion": "v1.0.20190902",
  "DerivedVendorReportedEchoSpacing": 0.000560011,
  "DeviceSerialNumber": "167006",
  "DwellTime": 2.1e-06,
  "EchoTime": 0.037,
  "EchoTrainLength": 104,
  "EffectiveEchoSpacing": 0.000560011,
  "FlipAngle": 52,
  "ImageComments": "Unaliased_MB4_PE3_LB",
  "ImageOrientationPatientDICOM": [0.997896, -0.063562, 0.0127807, 0.064531, 0.954698, -0.290494],
  "ImageType": [
    "ORIGINAL",
    "PRIMARY",
    "M",
    "MB",
    "ND",
    "MOSAIC"
],
  "ImagingFrequency": 123.259,
  "InPlanePhaseEncodingDirectionDICOM": "COL",
  "InstitutionAddress": "Chemin_Queen-Mary_4565_Montreal_District_CA_H3W_1W5",
  "InstitutionName": "IUGM",
  "InstitutionalDepartmentName": "Department",
  "MRAcquisitionType": "2D",
  "MagneticFieldStrength": 3,
  "Manufacturer": "Siemens",
  "ManufacturersModelName": "Prisma_fit",
  "Modality": "MR",
  "MultibandAccelerationFactor": 4,
  "PartialFourier": 1,
  "PatientPosition": "HFS",
  "PercentPhaseFOV": 100,
  "PhaseEncodingDirection": "j",
  "PhaseEncodingSteps": 104,
  "PhaseResolution": 1,
  "PixelBandwidth": 2290,
  "ProcedureStepDescription": "memory_things",
  "ProtocolName": "func_task-things_run-4",
  "PulseSequenceDetails": "%CustomerSeq%_cmrr_mbep2d_bold",
  "ReceiveCoilActiveElements": "HC1-7;NC1,2",
  "ReceiveCoilName": "HeadNeck_64",
  "ReconMatrixPE": 104,
  "RepetitionTime": 1.49,
  "SAR": 0.0474541,
  "ScanOptions": "FS",
  "ScanningSequence": "EP",
  "SequenceName": "epfid2d1_104",
  "SequenceVariant": "SK_SS",
  "SeriesDescription": "func_task-things_run-4",
  "SeriesNumber": 27,
  "ShimSetting": [630, -7265, -8819, 592, 15, -217, -13, -25],
  "SliceThickness": 2,
  "SliceTiming": [0, 0.785, 0.0975, 0.8825, 0.195, 0.98, 0.295, 1.0775, 0.3925, 1.175, 0.49, 1.275, 0.5875, 1.3725, 0.685, 0, 0.785, 0.0975, 0.8825, 0.195, 0.98, 0.295, 1.0775, 0.3925, 1.175, 0.49, 1.275, 0.5875, 1.3725, 0.685, 0, 0.785, 0.0975, 0.8825, 0.195, 0.98, 0.295, 1.0775, 0.3925, 1.175, 0.49, 1.275, 0.5875, 1.3725, 0.685, 0, 0.785, 0.0975, 0.8825, 0.195, 0.98, 0.295, 1.0775, 0.3925, 1.175, 0.49, 1.275, 0.5875, 1.3725, 0.685],
  "SoftwareVersions": "syngo_MR_E11",
  "SpacingBetweenSlices": 2,
  "StationName": "MRC35049",
  "TaskName": "things",
  "TotalReadoutTime": 0.0576811,
  "TxRefAmp": 249.264,
  "WipMemBlock": "be379f87-9bdd-42ac-9c41-b88666cdbfc5||Sequence: R016 ve11c/master r/e634e98; Dec 19 2017 11:00:25 by eja",
  "dcmmeta_affine": [
    [-1.9957921504974365, 0.12906204164028168, -0.012525390833616257, 101.6309585571289],
    [0.12712399661540985, 1.9093966484069824, -0.5814155340194702, -74.84011840820312],
    [0.025561368092894554, 0.5809884071350098, 1.9135828018188477, -61.4794921875],
    [0.0, 0.0, 0.0, 1.0]
],
  "dcmmeta_reorient_transform": [
    [0.0, -1.0, 0.0, 103.0],
    [1.0, 0.0, 0.0, 0.0],
    [0.0, 0.0, 1.0, 0.0],
    [0.0, 0.0, 0.0, 1.0]
],
  "dcmmeta_shape": [104, 104, 60, 190],
  "dcmmeta_slice_dim": 2,
  "dcmmeta_version": 0.6,
  "global": {
    "const": {
      "AcquisitionMatrix": [104, 0, 0, 104],
      "AngioFlag": "N",
      "BitsAllocated": 16,
      "BitsStored": 16,
      "BodyPartExamined": "BRAIN",
      "Columns": 832,
      "EchoNumbers": 1,
      "EchoTime": 37.0,
      "EchoTrainLength": 104,
      "FlipAngle": 52.0,
      "HighBit": 15,
      "ImageOrientationPatient": [0.99789604990903, -0.0635619988666, 0.01278068370767, 0.06453101753785, 0.95469831060201, -0.2904942056379],
      "ImagePositionPatient": [-888.37125304198, -770.57497038483, 200.53775659973],
      "ImageType": [
        "ORIGINAL",
        "PRIMARY",
        "M",
        "MB",
        "ND",
        "MOSAIC"
],
      "ImagedNucleus": "1H",
      "ImagingFrequency": 123.259157,
      "InPlanePhaseEncodingDirection": "COL",
      "MRAcquisitionType": "2D",
      "MagneticFieldStrength": 3.0,
      "Manufacturer": "SIEMENS",
      "ManufacturerModelName": "Prisma_fit",
      "Modality": "MR",
      "NumberOfAverages": 1.0,
      "NumberOfPhaseEncodingSteps": 104,
      "PercentPhaseFieldOfView": 100.0,
      "PercentSampling": 100.0,
      "PerformedProcedureStepStartTime": "145010.721000",
      "PhotometricInterpretation": "MONOCHROME2",
      "PixelBandwidth": 2290.0,
      "PixelRepresentation": 0,
      "PixelSpacing": [2.0, 2.0],
      "ProtocolName": "func_task-things_run-4",
      "RepetitionTime": 1490.0,
      "Rows": 832,
      "SAR": 0.04745414699681,
      "SamplesPerPixel": 1,
      "ScanOptions": "FS",
      "ScanningSequence": "EP",
      "SequenceName": "epfid2d1_104",
      "SequenceVariant": [
        "SK",
        "SS"
],
      "SeriesDescription": "func_task-things_run-4",
      "SeriesNumber": 27,
      "SeriesTime": "161116.800000",
      "SliceLocation": -37.702930739776,
      "SliceThickness": 2.0,
      "SmallestImagePixelValue": 0,
      "SoftwareVersions": "syngo MR E11",
      "SpacingBetweenSlices": 2.0000000269489,
      "SpecificCharacterSet": "ISO_IR 100",
      "StudyID": "1",
      "StudyTime": "145010.667000",
      "TransmitCoilName": "Body",
      "VariableFlipAngleFlag": "N",
      "WindowCenterWidthExplanation": "Algo1",
      "dBdt": 0.0},
    "slices": {}
  },
  "time": {
    "samples": {
      "AcquisitionNumber": [1, 2, 3, 4, 5, 6, 7, 8, 9, 10, 11, 12, 13, 14, 15, 16, 17, 18, 19, 20, 21, 22, 23, 24, 25, 26, 27, 28, 29, 30, 31, 32, 33, 34, 35, 36, 37, 38, 39, 40, 41, 42, 43, 44, 45, 46, 47, 48, 49, 50, 51, 52, 53, 54, 55, 56, 57, 58, 59, 60, 61, 62, 63, 64, 65, 66, 67, 68, 69, 70, 71, 72, 73, 74, 75, 76, 77, 78, 79, 80, 81, 82, 83, 84, 85, 86, 87, 88, 89, 90, 91, 92, 93, 94, 95, 96, 97, 98, 99, 100, 101, 102, 103, 104, 105, 106, 107, 108, 109, 110, 111, 112, 113, 114, 115, 116, 117, 118, 119, 120, 121, 122, 123, 124, 125, 126, 127, 128, 129, 130, 131, 132, 133, 134, 135, 136, 137, 138, 139, 140, 141, 142, 143, 144, 145, 146, 147, 148, 149, 150, 151, 152, 153, 154, 155, 156, 157, 158, 159, 160, 161, 162, 163, 164, 165, 166, 167, 168, 169, 170, 171, 172, 173, 174, 175, 176, 177, 178, 179, 180, 181, 182, 183, 184, 185, 186, 187, 188, 189, 190],
      "AcquisitionTime": ["160944.827500", "160946.317500", "160947.807500", "160949.297500", "160950.787500", "160952.277500", "160953.767500", "160955.257500", "160956.747500", "160958.237500", "160959.727500", "161001.217500", "161002.707500", "161004.197500", "161005.687500", "161007.177500", "161008.667500", "161010.157500", "161011.647500", "161013.137500", "161014.627500", "161016.117500", "161017.607500", "161019.097500", "161020.587500", "161022.077500", "161023.567500", "161025.057500", "161026.547500", "161028.037500", "161029.527500", "161031.017500", "161032.507500", "161033.997500", "161035.487500", "161036.977500", "161038.467500", "161039.957500", "161041.447500", "161042.937500", "161044.427500", "161045.917500", "161047.407500", "161048.897500", "161050.387500", "161051.877500", "161053.367500", "161054.857500", "161056.347500", "161057.837500", "161059.327500", "161100.817500", "161102.307500", "161103.797500", "161105.287500", "161106.777500", "161108.267500", "161109.757500", "161111.247500", "161112.737500", "161114.227500", "161115.717500", "161117.207500", "161118.697500", "161120.187500", "161121.677500", "161123.167500", "161124.657500", "161126.147500", "161127.637500", "161129.127500", "161130.617500", "161132.107500", "161133.597500", "161135.087500", "161136.577500", "161138.067500", "161139.557500", "161141.047500", "161142.537500", "161144.027500", "161145.517500", "161147.007500", "161148.497500", "161149.987500", "161151.477500", "161152.967500", "161154.457500", "161155.947500", "161157.437500", "161158.927500", "161200.417500", "161201.907500", "161203.397500", "161204.887500", "161206.377500", "161207.867500", "161209.357500", "161210.847500", "161212.337500", "161213.827500", "161215.317500", "161216.807500", "161218.297500", "161219.787500", "161221.277500", "161222.767500", "161224.257500", "161225.747500", "161227.237500", "161228.727500", "161230.217500", "161231.707500", "161233.197500", "161234.687500", "161236.177500", "161237.667500", "161239.157500", "161240.647500", "161242.137500", "161243.627500", "161245.117500", "161246.607500", "161248.097500", "161249.587500", "161251.077500", "161252.567500", "161254.057500", "161255.547500", "161257.037500", "161258.527500", "161300.017500", "161301.507500", "161302.997500", "161304.487500", "161305.977500", "161307.467500", "161308.957500", "161310.447500", "161311.937500", "161313.427500", "161314.917500", "161316.407500", "161317.897500", "161319.387500", "161320.877500", "161322.367500", "161323.857500", "161325.347500", "161326.837500", "161328.327500", "161329.817500", "161331.307500", "161332.797500", "161334.287500", "161335.777500", "161337.267500", "161338.757500", "161340.247500", "161341.737500", "161343.227500", "161344.717500", "161346.207500", "161347.697500", "161349.187500", "161350.677500", "161352.167500", "161353.657500", "161355.147500", "161356.637500", "161358.127500", "161359.617500", "161401.107500", "161402.597500", "161404.087500", "161405.577500", "161407.067500", "161408.557500", "161410.047500", "161411.537500", "161413.027500", "161414.517500", "161416.007500", "161417.497500", "161418.987500", "161420.477500", "161421.967500", "161423.457500", "161424.947500", "161426.437500"],
      "ContentTime": ["161116.803000", "161116.807000", "161116.810000", "161116.814000", "161116.817000", "161116.820000", "161116.824000", "161116.827000", "161116.831000", "161116.842000", "161116.845000", "161116.848000", "161116.852000", "161116.855000", "161116.858000", "161116.862000", "161116.865000", "161116.868000", "161116.872000", "161116.875000", "161116.879000", "161116.882000", "161116.885000", "161116.889000", "161116.892000", "161116.895000", "161116.899000", "161116.902000", "161116.905000", "161116.909000", "161116.912000", "161116.916000", "161116.919000", "161116.922000", "161116.925000", "161116.929000", "161116.932000", "161116.936000", "161136.757000", "161136.761000", "161136.764000", "161136.768000", "161136.771000", "161136.774000", "161136.778000", "161136.781000", "161136.784000", "161136.788000", "161136.791000", "161136.794000", "161136.798000", "161136.811000", "161136.815000", "161136.818000", "161136.821000", "161136.825000", "161136.828000", "161136.831000", "161156.757000", "161156.761000", "161156.764000", "161156.768000", "161156.771000", "161156.775000", "161156.778000", "161156.781000", "161156.785000", "161156.788000", "161156.791000", "161156.795000", "161156.798000", "161156.801000", "161156.805000", "161156.808000", "161156.811000", "161156.815000", "161156.818000", "161156.821000", "161216.757000", "161216.761000", "161216.764000", "161216.768000", "161216.771000", "161216.774000", "161216.778000", "161216.781000", "161216.785000", "161216.788000", "161216.791000", "161216.795000", "161216.798000", "161216.801000", "161216.805000", "161216.809000", "161216.813000", "161216.816000", "161216.819000", "161216.823000", "161216.826000", "161256.757000", "161256.761000", "161256.764000", "161256.768000", "161256.771000", "161256.775000", "161256.778000", "161256.781000", "161256.785000", "161256.788000", "161256.791000", "161256.795000", "161256.798000", "161256.801000", "161256.805000", "161256.808000", "161256.811000", "161256.815000", "161256.818000", "161256.821000", "161256.825000", "161256.828000", "161256.831000", "161256.835000", "161256.838000", "161256.842000", "161256.845000", "161256.848000", "161256.852000", "161336.757000", "161336.761000", "161336.771000", "161336.774000", "161336.777000", "161336.781000", "161336.784000", "161336.788000", "161336.791000", "161336.794000", "161336.798000", "161336.801000", "161336.805000", "161336.808000", "161336.812000", "161336.815000", "161336.818000", "161336.822000", "161336.825000", "161336.828000", "161336.832000", "161336.835000", "161336.839000", "161336.842000", "161336.845000", "161336.849000", "161336.852000", "161416.757000", "161416.761000", "161416.764000", "161416.768000", "161416.771000", "161416.775000", "161416.778000", "161416.781000", "161416.785000", "161416.788000", "161416.791000", "161416.795000", "161416.798000", "161416.801000", "161416.805000", "161416.808000", "161416.817000", "161416.820000", "161416.823000", "161416.827000", "161416.830000", "161416.833000", "161416.855000", "161416.858000", "161416.862000", "161416.865000", "161416.868000", "161428.131000", "161428.135000", "161428.138000", "161428.142000", "161428.145000", "161428.149000", "161428.153000", "161428.157000"],
      "InstanceCreationTime": ["161116.803000", "161116.807000", "161116.810000", "161116.814000", "161116.817000", "161116.820000", "161116.824000", "161116.827000", "161116.831000", "161116.842000", "161116.845000", "161116.848000", "161116.852000", "161116.855000", "161116.858000", "161116.862000", "161116.865000", "161116.868000", "161116.872000", "161116.875000", "161116.879000", "161116.882000", "161116.885000", "161116.889000", "161116.892000", "161116.895000", "161116.899000", "161116.902000", "161116.905000", "161116.909000", "161116.912000", "161116.916000", "161116.919000", "161116.922000", "161116.925000", "161116.929000", "161116.932000", "161116.936000", "161136.757000", "161136.761000", "161136.764000", "161136.768000", "161136.771000", "161136.774000", "161136.778000", "161136.781000", "161136.784000", "161136.788000", "161136.791000", "161136.794000", "161136.798000", "161136.811000", "161136.815000", "161136.818000", "161136.821000", "161136.825000", "161136.828000", "161136.831000", "161156.757000", "161156.761000", "161156.764000", "161156.768000", "161156.771000", "161156.775000", "161156.778000", "161156.781000", "161156.785000", "161156.788000", "161156.791000", "161156.795000", "161156.798000", "161156.801000", "161156.805000", "161156.808000", "161156.811000", "161156.815000", "161156.818000", "161156.821000", "161216.757000", "161216.761000", "161216.764000", "161216.768000", "161216.771000", "161216.774000", "161216.778000", "161216.781000", "161216.785000", "161216.788000", "161216.791000", "161216.795000", "161216.798000", "161216.801000", "161216.805000", "161216.809000", "161216.813000", "161216.816000", "161216.819000", "161216.823000", "161216.826000", "161256.757000", "161256.761000", "161256.764000", "161256.768000", "161256.771000", "161256.775000", "161256.778000", "161256.781000", "161256.785000", "161256.788000", "161256.791000", "161256.795000", "161256.798000", "161256.801000", "161256.805000", "161256.808000", "161256.811000", "161256.815000", "161256.818000", "161256.821000", "161256.825000", "161256.828000", "161256.831000", "161256.835000", "161256.838000", "161256.842000", "161256.845000", "161256.848000", "161256.852000", "161336.757000", "161336.761000", "161336.771000", "161336.774000", "161336.777000", "161336.781000", "161336.784000", "161336.788000", "161336.791000", "161336.794000", "161336.798000", "161336.801000", "161336.805000", "161336.808000", "161336.812000", "161336.815000", "161336.818000", "161336.822000", "161336.825000", "161336.828000", "161336.832000", "161336.835000", "161336.839000", "161336.842000", "161336.845000", "161336.849000", "161336.852000", "161416.757000", "161416.761000", "161416.764000", "161416.768000", "161416.771000", "161416.775000", "161416.778000", "161416.781000", "161416.785000", "161416.788000", "161416.791000", "161416.795000", "161416.798000", "161416.801000", "161416.805000", "161416.808000", "161416.817000", "161416.820000", "161416.823000", "161416.827000", "161416.830000", "161416.833000", "161416.855000", "161416.858000", "161416.862000", "161416.865000", "161416.868000", "161428.131000", "161428.135000", "161428.138000", "161428.142000", "161428.145000", "161428.149000", "161428.153000", "161428.157000"],
      "InstanceNumber": [1, 2, 3, 4, 5, 6, 7, 8, 9, 10, 11, 12, 13, 14, 15, 16, 17, 18, 19, 20, 21, 22, 23, 24, 25, 26, 27, 28, 29, 30, 31, 32, 33, 34, 35, 36, 37, 38, 39, 40, 41, 42, 43, 44, 45, 46, 47, 48, 49, 50, 51, 52, 53, 54, 55, 56, 57, 58, 59, 60, 61, 62, 63, 64, 65, 66, 67, 68, 69, 70, 71, 72, 73, 74, 75, 76, 77, 78, 79, 80, 81, 82, 83, 84, 85, 86, 87, 88, 89, 90, 91, 92, 93, 94, 95, 96, 97, 98, 99, 100, 101, 102, 103, 104, 105, 106, 107, 108, 109, 110, 111, 112, 113, 114, 115, 116, 117, 118, 119, 120, 121, 122, 123, 124, 125, 126, 127, 128, 129, 130, 131, 132, 133, 134, 135, 136, 137, 138, 139, 140, 141, 142, 143, 144, 145, 146, 147, 148, 149, 150, 151, 152, 153, 154, 155, 156, 157, 158, 159, 160, 161, 162, 163, 164, 165, 166, 167, 168, 169, 170, 171, 172, 173, 174, 175, 176, 177, 178, 179, 180, 181, 182, 183, 184, 185, 186, 187, 188, 189, 190],
      "LargestImagePixelValue": [42710, 41124, 40227, 40065, 39015, 39021, 38975, 39944, 39827, 39075, 40563, 40331, 38919, 39400, 39979, 39440, 39419, 40164, 40015, 39600, 39768, 40736, 40419, 39730, 39752, 40642, 40484, 39418, 39287, 40697, 41747, 41114, 39133, 39466, 39990, 40573, 39703, 41058, 40159, 39648, 39179, 40140, 40075, 39506, 40741, 38830, 38892, 39858, 40582, 41059, 41697, 41105, 40764, 40601, 40775, 40683, 41206, 41968, 41601, 41087, 40236, 39763, 40822, 40737, 40594, 40175, 41126, 40571, 40167, 40240, 39411, 41283, 41871, 40832, 40433, 39699, 39174, 39473, 39117, 39170, 40534, 41228, 41821, 40604, 40645, 40249, 38713, 38999, 40457, 40600, 40121, 39439, 39409, 40611, 40417, 40139, 39918, 40479, 39922, 40064, 39516, 41531, 41503, 40754, 39152, 39038, 38872, 38852, 38799, 39230, 39706, 39735, 39599, 38628, 40490, 39153, 39966, 39266, 40995, 40371, 38821, 38509, 38964, 39606, 39151, 39094, 39243, 39549, 39433, 38989, 39780, 39880, 40115, 39287, 38232, 38528, 38585, 38274, 38683, 39109, 39068, 39640, 39268, 38780, 39322, 39865, 39646, 38813, 38214, 38804, 38389, 39019, 38497, 38708, 38754, 38525, 38764, 38662, 38329, 40006, 38948, 38365, 38980, 38661, 38383, 39407, 38417, 38837, 38823, 38962, 38562, 38571, 38605, 38836, 38852, 38918, 39004, 38393, 39099, 39443, 40453, 41427, 39864, 38632, 38575, 38511, 38773, 40179, 39162, 40859],
      "WindowCenter": [10429.0, 10351.0, 10321.0, 10310.0, 10313.0, 10304.0, 10286.0, 10286.0, 10279.0, 10290.0, 10299.0, 10295.0, 10285.0, 10289.0, 10294.0, 10289.0, 10290.0, 10301.0, 10302.0, 10297.0, 10293.0, 10286.0, 10286.0, 10294.0, 10299.0, 10310.0, 10315.0, 10308.0, 10298.0, 10307.0, 10333.0, 10351.0, 10319.0, 10292.0, 10277.0, 10274.0, 10259.0, 10283.0, 10291.0, 10281.0, 10274.0, 10297.0, 10299.0, 10285.0, 10298.0, 10293.0, 10299.0, 10296.0, 10288.0, 10309.0, 10333.0, 10323.0, 10271.0, 10258.0, 10236.0, 10232.0, 10257.0, 10287.0, 10308.0, 10313.0, 10310.0, 10291.0, 10291.0, 10276.0, 10266.0, 10274.0, 10309.0, 10314.0, 10295.0, 10270.0, 10265.0, 10322.0, 10323.0, 10288.0, 10278.0, 10259.0, 10258.0, 10266.0, 10252.0, 10244.0, 10265.0, 10277.0, 10287.0, 10286.0, 10294.0, 10305.0, 10291.0, 10301.0, 10292.0, 10289.0, 10286.0, 10289.0, 10269.0, 10295.0, 10292.0, 10278.0, 10239.0, 10242.0, 10251.0, 10273.0, 10303.0, 10339.0, 10332.0, 10300.0, 10282.0, 10276.0, 10276.0, 10270.0, 10249.0, 10244.0, 10248.0, 10249.0, 10263.0, 10260.0, 10283.0, 10284.0, 10297.0, 10330.0, 10365.0, 10313.0, 10288.0, 10282.0, 10279.0, 10286.0, 10247.0, 10237.0, 10247.0, 10256.0, 10249.0, 10257.0, 10279.0, 10300.0, 10309.0, 10299.0, 10273.0, 10260.0, 10278.0, 10274.0, 10275.0, 10270.0, 10261.0, 10263.0, 10276.0, 10271.0, 10299.0, 10321.0, 10290.0, 10277.0, 10256.0, 10267.0, 10281.0, 10310.0, 10285.0, 10253.0, 10248.0, 10249.0, 10256.0, 10254.0, 10256.0, 10271.0, 10281.0, 10288.0, 10292.0, 10296.0, 10292.0, 10293.0, 10281.0, 10280.0, 10282.0, 10286.0, 10265.0, 10269.0, 10270.0, 10263.0, 10256.0, 10253.0, 10260.0, 10258.0, 10276.0, 10299.0, 10294.0, 10293.0, 10279.0, 10275.0, 10249.0, 10219.0, 10212.0, 10243.0, 10261.0, 10263.0],
      "WindowWidth": [22557.0, 22341.0, 22248.0, 22208.0, 22214.0, 22187.0, 22141.0, 22133.0, 22119.0, 22143.0, 22159.0, 22151.0, 22138.0, 22144.0, 22155.0, 22144.0, 22149.0, 22167.0, 22172.0, 22161.0, 22152.0, 22131.0, 22128.0, 22152.0, 22168.0, 22189.0, 22199.0, 22191.0, 22166.0, 22180.0, 22248.0, 22286.0, 22221.0, 22153.0, 22112.0, 22104.0, 22075.0, 22126.0, 22148.0, 22132.0, 22112.0, 22160.0, 22165.0, 22135.0, 22158.0, 22155.0, 22169.0, 22160.0, 22143.0, 22190.0, 22243.0, 22220.0, 22100.0, 22069.0, 22022.0, 22011.0, 22064.0, 22129.0, 22179.0, 22194.0, 22191.0, 22149.0, 22142.0, 22108.0, 22086.0, 22105.0, 22179.0, 22196.0, 22154.0, 22098.0, 22094.0, 22213.0, 22215.0, 22139.0, 22111.0, 22071.0, 22074.0, 22092.0, 22062.0, 22045.0, 22085.0, 22113.0, 22131.0, 22134.0, 22150.0, 22176.0, 22152.0, 22176.0, 22148.0, 22138.0, 22136.0, 22148.0, 22097.0, 22153.0, 22149.0, 22118.0, 22031.0, 22034.0, 22058.0, 22108.0, 22183.0, 22254.0, 22239.0, 22167.0, 22131.0, 22118.0, 22119.0, 22109.0, 22060.0, 22046.0, 22053.0, 22055.0, 22089.0, 22085.0, 22130.0, 22139.0, 22165.0, 22247.0, 22326.0, 22203.0, 22149.0, 22136.0, 22124.0, 22142.0, 22053.0, 22028.0, 22051.0, 22072.0, 22059.0, 22081.0, 22129.0, 22174.0, 22193.0, 22176.0, 22118.0, 22082.0, 22122.0, 22118.0, 22123.0, 22109.0, 22089.0, 22088.0, 22121.0, 22116.0, 22177.0, 22226.0, 22154.0, 22123.0, 22077.0, 22097.0, 22133.0, 22196.0, 22142.0, 22070.0, 22060.0, 22066.0, 22080.0, 22076.0, 22078.0, 22110.0, 22131.0, 22152.0, 22157.0, 22169.0, 22162.0, 22161.0, 22136.0, 22136.0, 22144.0, 22149.0, 22101.0, 22105.0, 22106.0, 22094.0, 22082.0, 22069.0, 22084.0, 22087.0, 22125.0, 22178.0, 22163.0, 22156.0, 22128.0, 22118.0, 22064.0, 21996.0, 21976.0, 22033.0, 22087.0, 22088.0]
    },
    "slices": {}
  }
}