{
  "AcquisitionMatrixPE": 104,
  "AcquisitionNumber": 1,
  "AcquisitionTime": "15:40:22.632500",
  "BandwidthPerPixelPhaseEncode": 17.17,
  "BaseResolution": 104,
  "BodyPartExamined": "BRAIN",
  "CoilString": "HC1-7;NC1_2",
  "ConsistencyInfo": "N4_VE11C_LATEST_20160120",
  "ConversionSoftware": "dcm2niix",
  "ConversionSoftwareVersion": "v1.0.20190902",
  "DerivedVendorReportedEchoSpacing": 0.000560011,
  "DeviceSerialNumber": "167006",
  "DwellTime": 2.1e-06,
  "EchoTime": 0.037,
  "EchoTrainLength": 104,
  "EffectiveEchoSpacing": 0.000560011,
  "FlipAngle": 52,
  "ImageComments": "Unaliased_MB4_PE3_LB",
  "ImageOrientationPatientDICOM": [0.998822, -0.0427354, 0.0229676, 0.0478022, 0.947783, -0.315312],
  "ImageType": [
    "ORIGINAL",
    "PRIMARY",
    "M",
    "MB",
    "ND",
    "MOSAIC"
],
  "ImagingFrequency": 123.259,
  "InPlanePhaseEncodingDirectionDICOM": "COL",
  "InstitutionAddress": "Chemin_Queen-Mary_4565_Montreal_District_CA_H3W_1W5",
  "InstitutionName": "IUGM",
  "InstitutionalDepartmentName": "Department",
  "MRAcquisitionType": "2D",
  "MagneticFieldStrength": 3,
  "Manufacturer": "Siemens",
  "ManufacturersModelName": "Prisma_fit",
  "Modality": "MR",
  "MultibandAccelerationFactor": 4,
  "PartialFourier": 1,
  "PatientPosition": "HFS",
  "PercentPhaseFOV": 100,
  "PhaseEncodingDirection": "j",
  "PhaseEncodingSteps": 104,
  "PhaseResolution": 1,
  "PixelBandwidth": 2290,
  "ProcedureStepDescription": "memory_things",
  "ProtocolName": "func_task-things_run-2",
  "PulseSequenceDetails": "%CustomerSeq%_cmrr_mbep2d_bold",
  "ReceiveCoilActiveElements": "HC1-7;NC1,2",
  "ReceiveCoilName": "HeadNeck_64",
  "ReconMatrixPE": 104,
  "RepetitionTime": 1.49,
  "SAR": 0.0520577,
  "ScanOptions": "FS",
  "ScanningSequence": "EP",
  "SequenceName": "epfid2d1_104",
  "SequenceVariant": "SK_SS",
  "SeriesDescription": "func_task-things_run-2",
  "SeriesNumber": 13,
  "ShimSetting": [628, -7249, -8831, 587, -6, -211, -50, -33],
  "SliceThickness": 2,
  "SliceTiming": [0, 0.7825, 0.0975, 0.88, 0.195, 0.98, 0.2925, 1.0775, 0.39, 1.175, 0.49, 1.2725, 0.5875, 1.37, 0.685, 0, 0.7825, 0.0975, 0.88, 0.195, 0.98, 0.2925, 1.0775, 0.39, 1.175, 0.49, 1.2725, 0.5875, 1.37, 0.685, 0, 0.7825, 0.0975, 0.88, 0.195, 0.98, 0.2925, 1.0775, 0.39, 1.175, 0.49, 1.2725, 0.5875, 1.37, 0.685, 0, 0.7825, 0.0975, 0.88, 0.195, 0.98, 0.2925, 1.0775, 0.39, 1.175, 0.49, 1.2725, 0.5875, 1.37, 0.685],
  "SoftwareVersions": "syngo_MR_E11",
  "SpacingBetweenSlices": 2,
  "StationName": "MRC35049",
  "TaskName": "things",
  "TotalReadoutTime": 0.0576811,
  "TxRefAmp": 257.819,
  "WipMemBlock": "8432b4c6-0af0-4778-a688-fd50d5362e85||Sequence: R016 ve11c/master r/e634e98; Dec 19 2017 11:00:25 by eja",
  "dcmmeta_affine": [
    [-1.9976447820663452, 0.09560434520244598, 0.01658656634390354, 102.24735260009766],
    [0.08547084778547287, 1.895566463470459, -0.6320779919624329, -71.15727996826172],
    [0.045935165137052536, 0.6306247711181641, 1.897420048713684, -68.63756561279297],
    [0.0, 0.0, 0.0, 1.0]
],
  "dcmmeta_reorient_transform": [
    [0.0, -1.0, 0.0, 103.0],
    [1.0, 0.0, 0.0, 0.0],
    [0.0, 0.0, 1.0, 0.0],
    [0.0, 0.0, 0.0, 1.0]
],
  "dcmmeta_shape": [104, 104, 60, 190],
  "dcmmeta_slice_dim": 2,
  "dcmmeta_version": 0.6,
  "global": {
    "const": {
      "AcquisitionMatrix": [104, 0, 0, 104],
      "AngioFlag": "N",
      "BitsAllocated": 16,
      "BitsStored": 16,
      "BodyPartExamined": "BRAIN",
      "Columns": 832,
      "EchoNumbers": 1,
      "EchoTime": 37.0,
      "EchoTrainLength": 104,
      "FlipAngle": 52.0,
      "HighBit": 15,
      "ImageOrientationPatient": [0.99882239352739, -0.0427354220729, 0.02296758342665, 0.04780217207127, 0.94778322974099, -0.3153123875889],
      "ImagePositionPatient": [-874.03728600851, -782.96086797506, 209.1438065979],
      "ImageType": [
        "ORIGINAL",
        "PRIMARY",
        "M",
        "MB",
        "ND",
        "MOSAIC"
],
      "ImagedNucleus": "1H",
      "ImagingFrequency": 123.259164,
      "InPlanePhaseEncodingDirection": "COL",
      "MRAcquisitionType": "2D",
      "MagneticFieldStrength": 3.0,
      "Manufacturer": "SIEMENS",
      "ManufacturerModelName": "Prisma_fit",
      "Modality": "MR",
      "NumberOfAverages": 1.0,
      "NumberOfPhaseEncodingSteps": 104,
      "PercentPhaseFieldOfView": 100.0,
      "PercentSampling": 100.0,
      "PerformedProcedureStepStartTime": "145010.721000",
      "PhotometricInterpretation": "MONOCHROME2",
      "PixelBandwidth": 2290.0,
      "PixelRepresentation": 0,
      "PixelSpacing": [2.0, 2.0],
      "ProtocolName": "func_task-things_run-2",
      "RepetitionTime": 1490.0,
      "Rows": 832,
      "SAR": 0.05205771770786,
      "SamplesPerPixel": 1,
      "ScanOptions": "FS",
      "ScanningSequence": "EP",
      "SequenceName": "epfid2d1_104",
      "SequenceVariant": [
        "SK",
        "SS"
],
      "SeriesDescription": "func_task-things_run-2",
      "SeriesNumber": 13,
      "SeriesTime": "154136.797000",
      "SliceLocation": -41.780698964933,
      "SliceThickness": 2.0,
      "SmallestImagePixelValue": 0,
      "SoftwareVersions": "syngo MR E11",
      "SpacingBetweenSlices": 2.0000000870032,
      "SpecificCharacterSet": "ISO_IR 100",
      "StudyID": "1",
      "StudyTime": "145010.667000",
      "TransmitCoilName": "Body",
      "VariableFlipAngleFlag": "N",
      "WindowCenterWidthExplanation": "Algo1",
      "dBdt": 0.0},
    "slices": {}
  },
  "time": {
    "samples": {
      "AcquisitionNumber": [1, 2, 3, 4, 5, 6, 7, 8, 9, 10, 11, 12, 13, 14, 15, 16, 17, 18, 19, 20, 21, 22, 23, 24, 25, 26, 27, 28, 29, 30, 31, 32, 33, 34, 35, 36, 37, 38, 39, 40, 41, 42, 43, 44, 45, 46, 47, 48, 49, 50, 51, 52, 53, 54, 55, 56, 57, 58, 59, 60, 61, 62, 63, 64, 65, 66, 67, 68, 69, 70, 71, 72, 73, 74, 75, 76, 77, 78, 79, 80, 81, 82, 83, 84, 85, 86, 87, 88, 89, 90, 91, 92, 93, 94, 95, 96, 97, 98, 99, 100, 101, 102, 103, 104, 105, 106, 107, 108, 109, 110, 111, 112, 113, 114, 115, 116, 117, 118, 119, 120, 121, 122, 123, 124, 125, 126, 127, 128, 129, 130, 131, 132, 133, 134, 135, 136, 137, 138, 139, 140, 141, 142, 143, 144, 145, 146, 147, 148, 149, 150, 151, 152, 153, 154, 155, 156, 157, 158, 159, 160, 161, 162, 163, 164, 165, 166, 167, 168, 169, 170, 171, 172, 173, 174, 175, 176, 177, 178, 179, 180, 181, 182, 183, 184, 185, 186, 187, 188, 189, 190],
      "AcquisitionTime": ["154022.632500", "154024.122500", "154025.612500", "154027.102500", "154028.592500", "154030.082500", "154031.572500", "154033.062500", "154034.552500", "154036.042500", "154037.532500", "154039.022500", "154040.512500", "154042.002500", "154043.492500", "154044.982500", "154046.472500", "154047.962500", "154049.452500", "154050.942500", "154052.432500", "154053.922500", "154055.412500", "154056.902500", "154058.392500", "154059.882500", "154101.372500", "154102.862500", "154104.352500", "154105.842500", "154107.332500", "154108.822500", "154110.312500", "154111.802500", "154113.292500", "154114.782500", "154116.272500", "154117.762500", "154119.252500", "154120.742500", "154122.232500", "154123.722500", "154125.212500", "154126.702500", "154128.192500", "154129.682500", "154131.172500", "154132.662500", "154134.152500", "154135.642500", "154137.132500", "154138.622500", "154140.112500", "154141.602500", "154143.092500", "154144.582500", "154146.072500", "154147.562500", "154149.052500", "154150.542500", "154152.032500", "154153.522500", "154155.012500", "154156.502500", "154157.992500", "154159.482500", "154200.972500", "154202.462500", "154203.952500", "154205.442500", "154206.932500", "154208.422500", "154209.912500", "154211.402500", "154212.892500", "154214.382500", "154215.872500", "154217.362500", "154218.852500", "154220.342500", "154221.832500", "154223.322500", "154224.812500", "154226.302500", "154227.792500", "154229.282500", "154230.772500", "154232.262500", "154233.752500", "154235.242500", "154236.732500", "154238.222500", "154239.712500", "154241.202500", "154242.692500", "154244.182500", "154245.672500", "154247.162500", "154248.652500", "154250.142500", "154251.632500", "154253.122500", "154254.612500", "154256.102500", "154257.592500", "154259.082500", "154300.572500", "154302.062500", "154303.552500", "154305.042500", "154306.532500", "154308.022500", "154309.512500", "154311.002500", "154312.492500", "154313.982500", "154315.472500", "154316.962500", "154318.452500", "154319.942500", "154321.432500", "154322.922500", "154324.412500", "154325.902500", "154327.392500", "154328.882500", "154330.372500", "154331.862500", "154333.352500", "154334.842500", "154336.332500", "154337.822500", "154339.312500", "154340.802500", "154342.292500", "154343.782500", "154345.272500", "154346.762500", "154348.252500", "154349.742500", "154351.232500", "154352.722500", "154354.212500", "154355.702500", "154357.192500", "154358.682500", "154400.172500", "154401.662500", "154403.152500", "154404.642500", "154406.132500", "154407.622500", "154409.112500", "154410.602500", "154412.092500", "154413.582500", "154415.072500", "154416.562500", "154418.052500", "154419.542500", "154421.032500", "154422.522500", "154424.012500", "154425.502500", "154426.992500", "154428.482500", "154429.972500", "154431.462500", "154432.952500", "154434.442500", "154435.932500", "154437.422500", "154438.912500", "154440.402500", "154441.892500", "154443.382500", "154444.872500", "154446.362500", "154447.852500", "154449.342500", "154450.832500", "154452.322500", "154453.812500", "154455.302500", "154456.792500", "154458.282500", "154459.772500", "154501.262500", "154502.752500", "154504.242500"],
      "ContentTime": ["154136.800000", "154136.804000", "154136.807000", "154136.811000", "154136.814000", "154136.817000", "154136.821000", "154136.824000", "154136.828000", "154136.831000", "154136.835000", "154136.838000", "154136.841000", "154136.845000", "154136.848000", "154136.852000", "154136.855000", "154136.859000", "154136.862000", "154136.865000", "154156.757000", "154156.761000", "154156.765000", "154156.768000", "154156.771000", "154156.775000", "154156.778000", "154156.782000", "154156.785000", "154156.788000", "154156.792000", "154156.795000", "154156.798000", "154156.813000", "154156.817000", "154156.820000", "154156.824000", "154156.827000", "154156.831000", "154156.834000", "154216.757000", "154216.761000", "154216.765000", "154216.768000", "154216.771000", "154216.775000", "154216.778000", "154216.781000", "154216.785000", "154216.788000", "154216.791000", "154216.795000", "154216.798000", "154216.801000", "154216.805000", "154216.808000", "154216.812000", "154216.815000", "154216.818000", "154216.822000", "154236.757000", "154236.761000", "154236.765000", "154236.768000", "154236.771000", "154236.775000", "154236.778000", "154236.782000", "154236.785000", "154236.788000", "154236.792000", "154236.795000", "154236.798000", "154236.802000", "154236.805000", "154236.809000", "154236.812000", "154236.815000", "154236.819000", "154236.822000", "154256.757000", "154256.761000", "154256.764000", "154256.768000", "154256.771000", "154256.775000", "154256.778000", "154256.783000", "154256.788000", "154256.791000", "154256.796000", "154256.799000", "154256.803000", "154256.806000", "154256.810000", "154256.813000", "154256.817000", "154256.820000", "154256.824000", "154256.827000", "154336.757000", "154336.761000", "154336.765000", "154336.768000", "154336.771000", "154336.775000", "154336.778000", "154336.782000", "154336.785000", "154336.788000", "154336.792000", "154336.795000", "154336.799000", "154336.802000", "154336.805000", "154336.809000", "154336.812000", "154336.815000", "154336.819000", "154336.822000", "154336.826000", "154336.829000", "154336.833000", "154336.836000", "154336.839000", "154336.843000", "154336.846000", "154336.850000", "154336.853000", "154416.757000", "154416.761000", "154416.764000", "154416.768000", "154416.771000", "154416.775000", "154416.778000", "154416.788000", "154416.792000", "154416.795000", "154416.799000", "154416.802000", "154416.806000", "154416.809000", "154416.812000", "154416.816000", "154416.819000", "154416.823000", "154416.826000", "154416.829000", "154416.833000", "154416.836000", "154416.840000", "154416.843000", "154416.847000", "154416.850000", "154416.854000", "154456.757000", "154456.761000", "154456.765000", "154456.768000", "154456.771000", "154456.775000", "154456.778000", "154456.782000", "154456.785000", "154456.789000", "154456.792000", "154456.795000", "154456.799000", "154456.802000", "154456.806000", "154456.809000", "154456.813000", "154456.816000", "154456.819000", "154456.823000", "154456.826000", "154456.830000", "154456.833000", "154456.836000", "154456.840000", "154456.843000", "154456.847000", "154506.704000", "154506.708000", "154506.711000", "154506.715000", "154506.727000", "154506.730000", "154506.734000"],
      "InstanceCreationTime": ["154136.800000", "154136.804000", "154136.807000", "154136.811000", "154136.814000", "154136.817000", "154136.821000", "154136.824000", "154136.828000", "154136.831000", "154136.835000", "154136.838000", "154136.841000", "154136.845000", "154136.848000", "154136.852000", "154136.855000", "154136.859000", "154136.862000", "154136.865000", "154156.757000", "154156.761000", "154156.765000", "154156.768000", "154156.771000", "154156.775000", "154156.778000", "154156.782000", "154156.785000", "154156.788000", "154156.792000", "154156.795000", "154156.798000", "154156.813000", "154156.817000", "154156.820000", "154156.824000", "154156.827000", "154156.831000", "154156.834000", "154216.757000", "154216.761000", "154216.765000", "154216.768000", "154216.771000", "154216.775000", "154216.778000", "154216.781000", "154216.785000", "154216.788000", "154216.791000", "154216.795000", "154216.798000", "154216.801000", "154216.805000", "154216.808000", "154216.812000", "154216.815000", "154216.818000", "154216.822000", "154236.757000", "154236.761000", "154236.765000", "154236.768000", "154236.771000", "154236.775000", "154236.778000", "154236.782000", "154236.785000", "154236.788000", "154236.792000", "154236.795000", "154236.798000", "154236.802000", "154236.805000", "154236.809000", "154236.812000", "154236.815000", "154236.819000", "154236.822000", "154256.757000", "154256.761000", "154256.764000", "154256.768000", "154256.771000", "154256.775000", "154256.778000", "154256.783000", "154256.788000", "154256.791000", "154256.796000", "154256.799000", "154256.803000", "154256.806000", "154256.810000", "154256.813000", "154256.817000", "154256.820000", "154256.824000", "154256.827000", "154336.757000", "154336.761000", "154336.765000", "154336.768000", "154336.771000", "154336.775000", "154336.778000", "154336.782000", "154336.785000", "154336.788000", "154336.792000", "154336.795000", "154336.799000", "154336.802000", "154336.805000", "154336.809000", "154336.812000", "154336.815000", "154336.819000", "154336.822000", "154336.826000", "154336.829000", "154336.833000", "154336.836000", "154336.839000", "154336.843000", "154336.846000", "154336.850000", "154336.853000", "154416.757000", "154416.761000", "154416.764000", "154416.768000", "154416.771000", "154416.775000", "154416.778000", "154416.788000", "154416.792000", "154416.795000", "154416.799000", "154416.802000", "154416.806000", "154416.809000", "154416.812000", "154416.816000", "154416.819000", "154416.823000", "154416.826000", "154416.829000", "154416.833000", "154416.836000", "154416.840000", "154416.843000", "154416.847000", "154416.850000", "154416.854000", "154456.757000", "154456.761000", "154456.765000", "154456.768000", "154456.771000", "154456.775000", "154456.778000", "154456.782000", "154456.785000", "154456.789000", "154456.792000", "154456.795000", "154456.799000", "154456.802000", "154456.806000", "154456.809000", "154456.813000", "154456.816000", "154456.819000", "154456.823000", "154456.826000", "154456.830000", "154456.833000", "154456.836000", "154456.840000", "154456.843000", "154456.847000", "154506.704000", "154506.708000", "154506.711000", "154506.715000", "154506.727000", "154506.730000", "154506.734000"],
      "InstanceNumber": [1, 2, 3, 4, 5, 6, 7, 8, 9, 10, 11, 12, 13, 14, 15, 16, 17, 18, 19, 20, 21, 22, 23, 24, 25, 26, 27, 28, 29, 30, 31, 32, 33, 34, 35, 36, 37, 38, 39, 40, 41, 42, 43, 44, 45, 46, 47, 48, 49, 50, 51, 52, 53, 54, 55, 56, 57, 58, 59, 60, 61, 62, 63, 64, 65, 66, 67, 68, 69, 70, 71, 72, 73, 74, 75, 76, 77, 78, 79, 80, 81, 82, 83, 84, 85, 86, 87, 88, 89, 90, 91, 92, 93, 94, 95, 96, 97, 98, 99, 100, 101, 102, 103, 104, 105, 106, 107, 108, 109, 110, 111, 112, 113, 114, 115, 116, 117, 118, 119, 120, 121, 122, 123, 124, 125, 126, 127, 128, 129, 130, 131, 132, 133, 134, 135, 136, 137, 138, 139, 140, 141, 142, 143, 144, 145, 146, 147, 148, 149, 150, 151, 152, 153, 154, 155, 156, 157, 158, 159, 160, 161, 162, 163, 164, 165, 166, 167, 168, 169, 170, 171, 172, 173, 174, 175, 176, 177, 178, 179, 180, 181, 182, 183, 184, 185, 186, 187, 188, 189, 190],
      "LargestImagePixelValue": [41634, 40755, 40372, 38769, 38596, 39216, 39194, 38457, 38969, 38768, 38650, 38494, 38894, 39075, 38912, 38890, 38283, 38708, 38482, 38703, 38357, 38394, 38681, 38690, 39035, 39013, 38569, 38842, 38568, 38749, 38564, 38657, 38934, 38876, 38624, 38792, 38973, 38657, 38359, 38732, 38701, 38520, 38140, 39084, 38465, 38852, 39062, 38868, 39001, 39326, 38828, 39053, 38846, 38776, 38746, 38648, 38395, 38931, 39139, 39287, 38848, 38723, 39592, 38670, 39112, 38995, 38915, 38555, 38802, 39037, 39009, 39212, 39265, 38500, 38943, 38975, 38683, 38751, 39505, 39099, 38955, 38605, 38963, 39003, 39115, 38840, 38697, 39194, 38924, 39181, 38943, 38820, 39039, 38726, 38748, 38669, 38840, 38841, 39293, 39368, 38870, 39136, 39261, 38925, 38690, 39197, 38555, 38930, 39516, 39066, 38867, 38668, 39150, 39174, 38803, 38588, 38940, 39015, 38607, 39106, 39254, 38982, 38993, 39351, 38798, 38936, 39432, 38871, 39596, 38970, 39077, 38698, 39122, 38592, 38778, 39029, 39181, 39050, 39069, 38929, 39509, 39023, 38465, 38588, 39121, 38564, 38796, 38946, 38341, 38560, 38261, 38313, 38850, 38887, 38664, 38494, 39374, 38785, 38647, 38946, 38522, 38732, 38612, 38750, 38924, 38698, 38946, 38795, 39296, 38919, 39470, 39096, 37193, 39159, 39019, 37941, 39622, 39466, 39105, 39048, 38970, 39287, 39024, 39078, 39198, 39284, 38970, 38761, 38913, 39026],
      "WindowCenter": [10302.0, 10235.0, 10210.0, 10201.0, 10213.0, 10228.0, 10222.0, 10217.0, 10221.0, 10214.0, 10215.0, 10201.0, 10190.0, 10193.0, 10208.0, 10213.0, 10198.0, 10205.0, 10178.0, 10166.0, 10157.0, 10151.0, 10154.0, 10162.0, 10171.0, 10176.0, 10167.0, 10173.0, 10187.0, 10202.0, 10207.0, 10205.0, 10202.0, 10188.0, 10182.0, 10194.0, 10211.0, 10214.0, 10216.0, 10223.0, 10222.0, 10216.0, 10203.0, 10195.0, 10192.0, 10198.0, 10196.0, 10183.0, 10174.0, 10178.0, 10188.0, 10188.0, 10196.0, 10212.0, 10220.0, 10214.0, 10199.0, 10195.0, 10201.0, 10201.0, 10197.0, 10198.0, 10207.0, 10189.0, 10178.0, 10182.0, 10179.0, 10167.0, 10173.0, 10165.0, 10163.0, 10181.0, 10190.0, 10190.0, 10194.0, 10186.0, 10181.0, 10187.0, 10201.0, 10198.0, 10196.0, 10190.0, 10194.0, 10192.0, 10195.0, 10196.0, 10199.0, 10198.0, 10197.0, 10199.0, 10196.0, 10190.0, 10195.0, 10206.0, 10214.0, 10199.0, 10191.0, 10195.0, 10203.0, 10194.0, 10174.0, 10171.0, 10193.0, 10202.0, 10177.0, 10156.0, 10140.0, 10171.0, 10200.0, 10187.0, 10164.0, 10149.0, 10160.0, 10168.0, 10173.0, 10165.0, 10156.0, 10153.0, 10154.0, 10167.0, 10183.0, 10200.0, 10203.0, 10194.0, 10180.0, 10180.0, 10186.0, 10189.0, 10225.0, 10208.0, 10194.0, 10187.0, 10209.0, 10214.0, 10215.0, 10206.0, 10208.0, 10213.0, 10217.0, 10219.0, 10197.0, 10194.0, 10173.0, 10163.0, 10138.0, 10121.0, 10112.0, 10112.0, 10113.0, 10121.0, 10130.0, 10146.0, 10162.0, 10169.0, 10177.0, 10182.0, 10209.0, 10214.0, 10221.0, 10229.0, 10225.0, 10231.0, 10226.0, 10215.0, 10220.0, 10213.0, 10215.0, 10200.0, 10181.0, 10174.0, 10178.0, 10186.0, 10181.0, 10203.0, 10218.0, 10202.0, 10187.0, 10166.0, 10150.0, 10151.0, 10160.0, 10152.0, 10140.0, 10131.0, 10137.0, 10145.0, 10161.0, 10173.0, 10181.0, 10175.0],
      "WindowWidth": [22215.0, 22023.0, 21939.0, 21915.0, 21936.0, 21961.0, 21944.0, 21935.0, 21938.0, 21924.0, 21926.0, 21896.0, 21868.0, 21873.0, 21911.0, 21924.0, 21890.0, 21905.0, 21848.0, 21817.0, 21797.0, 21786.0, 21791.0, 21807.0, 21828.0, 21836.0, 21820.0, 21835.0, 21862.0, 21896.0, 21910.0, 21904.0, 21895.0, 21868.0, 21854.0, 21878.0, 21917.0, 21927.0, 21933.0, 21947.0, 21945.0, 21932.0, 21905.0, 21884.0, 21878.0, 21892.0, 21885.0, 21856.0, 21834.0, 21841.0, 21866.0, 21870.0, 21890.0, 21923.0, 21941.0, 21927.0, 21895.0, 21884.0, 21894.0, 21894.0, 21891.0, 21893.0, 21908.0, 21872.0, 21845.0, 21851.0, 21847.0, 21827.0, 21835.0, 21818.0, 21813.0, 21848.0, 21868.0, 21876.0, 21881.0, 21863.0, 21853.0, 21867.0, 21896.0, 21890.0, 21884.0, 21872.0, 21878.0, 21873.0, 21882.0, 21885.0, 21894.0, 21891.0, 21886.0, 21893.0, 21884.0, 21872.0, 21882.0, 21908.0, 21924.0, 21892.0, 21876.0, 21886.0, 21903.0, 21879.0, 21836.0, 21824.0, 21872.0, 21894.0, 21842.0, 21792.0, 21758.0, 21825.0, 21893.0, 21863.0, 21813.0, 21779.0, 21799.0, 21818.0, 21831.0, 21815.0, 21792.0, 21783.0, 21787.0, 21818.0, 21852.0, 21891.0, 21896.0, 21877.0, 21846.0, 21845.0, 21863.0, 21872.0, 21947.0, 21914.0, 21876.0, 21861.0, 21911.0, 21925.0, 21930.0, 21910.0, 21912.0, 21923.0, 21942.0, 21942.0, 21889.0, 21874.0, 21830.0, 21805.0, 21750.0, 21711.0, 21690.0, 21693.0, 21699.0, 21717.0, 21735.0, 21771.0, 21805.0, 21820.0, 21837.0, 21851.0, 21905.0, 21921.0, 21937.0, 21956.0, 21950.0, 21963.0, 21951.0, 21929.0, 21937.0, 21922.0, 21927.0, 21892.0, 21849.0, 21832.0, 21837.0, 21858.0, 21858.0, 21893.0, 21934.0, 21909.0, 21863.0, 21813.0, 21776.0, 21780.0, 21800.0, 21781.0, 21755.0, 21734.0, 21748.0, 21767.0, 21805.0, 21834.0, 21851.0, 21839.0]
    },
    "slices": {}
  }
}