{
  "AcquisitionMatrixPE": 104,
  "AcquisitionNumber": 1,
  "AcquisitionTime": "15:34:15.410000",
  "BandwidthPerPixelPhaseEncode": 17.17,
  "BaseResolution": 104,
  "BodyPartExamined": "BRAIN",
  "CoilString": "HC1-7;NC1_2",
  "ConsistencyInfo": "N4_VE11C_LATEST_20160120",
  "ConversionSoftware": "dcm2niix",
  "ConversionSoftwareVersion": "v1.0.20190902",
  "DerivedVendorReportedEchoSpacing": 0.000560011,
  "DeviceSerialNumber": "167006",
  "DwellTime": 2.1e-06,
  "EchoTime": 0.037,
  "EchoTrainLength": 104,
  "EffectiveEchoSpacing": 0.000560011,
  "FlipAngle": 52,
  "ImageComments": "Unaliased_MB4_PE3_LB",
  "ImageOrientationPatientDICOM": [0.998822, -0.0427354, 0.0229676, 0.0478022, 0.947783, -0.315312],
  "ImageType": [
    "ORIGINAL",
    "PRIMARY",
    "P",
    "MB",
    "ND",
    "MOSAIC"
],
  "ImagingFrequency": 123.259,
  "InPlanePhaseEncodingDirectionDICOM": "COL",
  "InstitutionAddress": "Chemin_Queen-Mary_4565_Montreal_District_CA_H3W_1W5",
  "InstitutionName": "IUGM",
  "InstitutionalDepartmentName": "Department",
  "MRAcquisitionType": "2D",
  "MagneticFieldStrength": 3,
  "Manufacturer": "Siemens",
  "ManufacturersModelName": "Prisma_fit",
  "Modality": "MR",
  "MultibandAccelerationFactor": 4,
  "PartialFourier": 1,
  "PatientPosition": "HFS",
  "PercentPhaseFOV": 100,
  "PhaseEncodingDirection": "j",
  "PhaseEncodingSteps": 104,
  "PhaseResolution": 1,
  "PixelBandwidth": 2290,
  "ProcedureStepDescription": "memory_things",
  "ProtocolName": "func_task-things_run-1",
  "PulseSequenceDetails": "%CustomerSeq%_cmrr_mbep2d_bold",
  "ReceiveCoilActiveElements": "HC1-7;NC1,2",
  "ReceiveCoilName": "HeadNeck_64",
  "ReconMatrixPE": 104,
  "RepetitionTime": 1.49,
  "SAR": 0.0520577,
  "ScanOptions": "FS",
  "ScanningSequence": "EP",
  "SequenceName": "epfid2d1_104",
  "SequenceVariant": "SK_SS",
  "SeriesDescription": "func_task-things_run-1",
  "SeriesNumber": 11,
  "ShimSetting": [628, -7249, -8831, 587, -6, -211, -50, -33],
  "SliceThickness": 2,
  "SliceTiming": [0, 0.785, 0.1, 0.8825, 0.1975, 0.98, 0.295, 1.08, 0.3925, 1.1775, 0.49, 1.275, 0.59, 1.3725, 0.6875, 0, 0.785, 0.1, 0.8825, 0.1975, 0.98, 0.295, 1.08, 0.3925, 1.1775, 0.49, 1.275, 0.59, 1.3725, 0.6875, 0, 0.785, 0.1, 0.8825, 0.1975, 0.98, 0.295, 1.08, 0.3925, 1.1775, 0.49, 1.275, 0.59, 1.3725, 0.6875, 0, 0.785, 0.1, 0.8825, 0.1975, 0.98, 0.295, 1.08, 0.3925, 1.1775, 0.49, 1.275, 0.59, 1.3725, 0.6875],
  "SoftwareVersions": "syngo_MR_E11",
  "SpacingBetweenSlices": 2,
  "StationName": "MRC35049",
  "TaskName": "things",
  "TotalReadoutTime": 0.0576811,
  "TxRefAmp": 257.819,
  "WipMemBlock": "81a9faf2-548f-4cd1-a9b9-a40108f348be||Sequence: R016 ve11c/master r/e634e98; Dec 19 2017 11:00:25 by eja",
  "dcmmeta_affine": [
    [-1.9976447820663452, 0.09560434520244598, 0.01658656634390354, 102.24735260009766],
    [0.08547084778547287, 1.895566463470459, -0.6320779919624329, -71.15727996826172],
    [0.045935165137052536, 0.6306247711181641, 1.897420048713684, -68.63756561279297],
    [0.0, 0.0, 0.0, 1.0]
],
  "dcmmeta_reorient_transform": [
    [0.0, -1.0, 0.0, 103.0],
    [1.0, 0.0, 0.0, 0.0],
    [0.0, 0.0, 1.0, 0.0],
    [0.0, 0.0, 0.0, 1.0]
],
  "dcmmeta_shape": [104, 104, 60, 190],
  "dcmmeta_slice_dim": 2,
  "dcmmeta_version": 0.6,
  "global": {
    "const": {
      "AcquisitionMatrix": [104, 0, 0, 104],
      "AngioFlag": "N",
      "BitsAllocated": 16,
      "BitsStored": 16,
      "BodyPartExamined": "BRAIN",
      "Columns": 832,
      "EchoNumbers": 1,
      "EchoTime": 37.0,
      "EchoTrainLength": 104,
      "FlipAngle": 52.0,
      "HighBit": 15,
      "ImageOrientationPatient": [0.99882239352739, -0.0427354220729, 0.02296758342665, 0.04780217207127, 0.94778322974099, -0.3153123875889],
      "ImagePositionPatient": [-874.03728600851, -782.96086797506, 209.1438065979],
      "ImageType": [
        "ORIGINAL",
        "PRIMARY",
        "P",
        "MB",
        "ND",
        "MOSAIC"
],
      "ImagedNucleus": "1H",
      "ImagingFrequency": 123.259158,
      "InPlanePhaseEncodingDirection": "COL",
      "LargestImagePixelValue": 4095,
      "MRAcquisitionType": "2D",
      "MagneticFieldStrength": 3.0,
      "Manufacturer": "SIEMENS",
      "ManufacturerModelName": "Prisma_fit",
      "Modality": "MR",
      "NumberOfAverages": 1.0,
      "NumberOfPhaseEncodingSteps": 104,
      "PercentPhaseFieldOfView": 100.0,
      "PercentSampling": 100.0,
      "PerformedProcedureStepStartTime": "145010.721000",
      "PhotometricInterpretation": "MONOCHROME2",
      "PixelBandwidth": 2290.0,
      "PixelRepresentation": 0,
      "PixelSpacing": [2.0, 2.0],
      "ProtocolName": "func_task-things_run-1",
      "RepetitionTime": 1490.0,
      "RescaleIntercept": -4096.0,
      "RescaleSlope": 2.0,
      "RescaleType": "US",
      "Rows": 832,
      "SAR": 0.05205771770786,
      "SamplesPerPixel": 1,
      "ScanOptions": "FS",
      "ScanningSequence": "EP",
      "SequenceName": "epfid2d1_104",
      "SequenceVariant": [
        "SK",
        "SS"
],
      "SeriesDescription": "func_task-things_run-1",
      "SeriesNumber": 11,
      "SeriesTime": "153531.737000",
      "SliceLocation": -41.780698964933,
      "SliceThickness": 2.0,
      "SmallestImagePixelValue": 0,
      "SoftwareVersions": "syngo MR E11",
      "SpacingBetweenSlices": 2.0000000870032,
      "SpecificCharacterSet": "ISO_IR 100",
      "StudyID": "1",
      "StudyTime": "145010.667000",
      "TransmitCoilName": "Body",
      "VariableFlipAngleFlag": "N",
      "WindowCenterWidthExplanation": "Algo1",
      "dBdt": 0.0},
    "slices": {}
  },
  "time": {
    "samples": {
      "AcquisitionNumber": [1, 2, 3, 4, 5, 6, 7, 8, 9, 10, 11, 12, 13, 14, 15, 16, 17, 18, 19, 20, 21, 22, 23, 24, 25, 26, 27, 28, 29, 30, 31, 32, 33, 34, 35, 36, 37, 38, 39, 40, 41, 42, 43, 44, 45, 46, 47, 48, 49, 50, 51, 52, 53, 54, 55, 56, 57, 58, 59, 60, 61, 62, 63, 64, 65, 66, 67, 68, 69, 70, 71, 72, 73, 74, 75, 76, 77, 78, 79, 80, 81, 82, 83, 84, 85, 86, 87, 88, 89, 90, 91, 92, 93, 94, 95, 96, 97, 98, 99, 100, 101, 102, 103, 104, 105, 106, 107, 108, 109, 110, 111, 112, 113, 114, 115, 116, 117, 118, 119, 120, 121, 122, 123, 124, 125, 126, 127, 128, 129, 130, 131, 132, 133, 134, 135, 136, 137, 138, 139, 140, 141, 142, 143, 144, 145, 146, 147, 148, 149, 150, 151, 152, 153, 154, 155, 156, 157, 158, 159, 160, 161, 162, 163, 164, 165, 166, 167, 168, 169, 170, 171, 172, 173, 174, 175, 176, 177, 178, 179, 180, 181, 182, 183, 184, 185, 186, 187, 188, 189, 190],
      "AcquisitionTime": ["153415.410000", "153416.900000", "153418.390000", "153419.880000", "153421.370000", "153422.860000", "153424.350000", "153425.840000", "153427.330000", "153428.820000", "153430.310000", "153431.800000", "153433.290000", "153434.780000", "153436.270000", "153437.760000", "153439.250000", "153440.740000", "153442.230000", "153443.720000", "153445.210000", "153446.700000", "153448.190000", "153449.680000", "153451.170000", "153452.660000", "153454.150000", "153455.640000", "153457.130000", "153458.620000", "153500.110000", "153501.600000", "153503.090000", "153504.580000", "153506.070000", "153507.560000", "153509.050000", "153510.540000", "153512.030000", "153513.520000", "153515.010000", "153516.500000", "153517.990000", "153519.480000", "153520.970000", "153522.460000", "153523.950000", "153525.440000", "153526.930000", "153528.420000", "153529.910000", "153531.400000", "153532.890000", "153534.380000", "153535.870000", "153537.360000", "153538.850000", "153540.340000", "153541.830000", "153543.320000", "153544.810000", "153546.300000", "153547.790000", "153549.280000", "153550.770000", "153552.260000", "153553.750000", "153555.240000", "153556.730000", "153558.220000", "153559.710000", "153601.200000", "153602.690000", "153604.180000", "153605.670000", "153607.160000", "153608.650000", "153610.140000", "153611.630000", "153613.120000", "153614.610000", "153616.100000", "153617.590000", "153619.080000", "153620.570000", "153622.060000", "153623.550000", "153625.040000", "153626.530000", "153628.020000", "153629.510000", "153631.000000", "153632.490000", "153633.980000", "153635.470000", "153636.960000", "153638.450000", "153639.940000", "153641.430000", "153642.920000", "153644.410000", "153645.900000", "153647.390000", "153648.880000", "153650.370000", "153651.860000", "153653.350000", "153654.840000", "153656.330000", "153657.820000", "153659.310000", "153700.800000", "153702.290000", "153703.780000", "153705.270000", "153706.760000", "153708.250000", "153709.740000", "153711.230000", "153712.720000", "153714.210000", "153715.700000", "153717.190000", "153718.680000", "153720.170000", "153721.660000", "153723.150000", "153724.640000", "153726.130000", "153727.620000", "153729.110000", "153730.600000", "153732.090000", "153733.580000", "153735.070000", "153736.560000", "153738.050000", "153739.540000", "153741.030000", "153742.520000", "153744.010000", "153745.500000", "153746.990000", "153748.480000", "153749.970000", "153751.460000", "153752.950000", "153754.440000", "153755.930000", "153757.420000", "153758.910000", "153800.400000", "153801.890000", "153803.380000", "153804.870000", "153806.360000", "153807.850000", "153809.340000", "153810.830000", "153812.320000", "153813.810000", "153815.300000", "153816.790000", "153818.280000", "153819.770000", "153821.260000", "153822.750000", "153824.240000", "153825.730000", "153827.220000", "153828.710000", "153830.200000", "153831.690000", "153833.180000", "153834.670000", "153836.160000", "153837.650000", "153839.140000", "153840.630000", "153842.120000", "153843.610000", "153845.100000", "153846.590000", "153848.080000", "153849.570000", "153851.060000", "153852.550000", "153854.040000", "153855.530000", "153857.020000"],
      "ContentTime": ["153531.739000", "153531.742000", "153531.745000", "153531.748000", "153531.750000", "153531.753000", "153531.755000", "153531.758000", "153531.760000", "153531.763000", "153531.766000", "153531.768000", "153531.771000", "153531.773000", "153531.776000", "153531.778000", "153531.781000", "153531.783000", "153531.786000", "153531.789000", "153531.791000", "153531.794000", "153531.796000", "153551.737000", "153551.740000", "153551.743000", "153551.745000", "153551.748000", "153551.750000", "153551.753000", "153551.755000", "153551.758000", "153551.760000", "153551.763000", "153551.766000", "153551.768000", "153551.863000", "153551.866000", "153551.868000", "153551.871000", "153551.873000", "153551.876000", "153551.878000", "153612.078000", "153612.081000", "153612.084000", "153612.086000", "153612.089000", "153612.091000", "153612.094000", "153612.096000", "153612.099000", "153612.102000", "153612.113000", "153612.116000", "153612.118000", "153612.121000", "153612.124000", "153612.126000", "153612.129000", "153612.131000", "153612.134000", "153612.136000", "153612.139000", "153631.712000", "153631.715000", "153631.718000", "153631.720000", "153631.723000", "153631.736000", "153631.739000", "153631.741000", "153631.744000", "153631.746000", "153631.749000", "153631.751000", "153631.754000", "153631.756000", "153631.759000", "153631.762000", "153631.764000", "153631.767000", "153631.769000", "153631.772000", "153651.700000", "153651.702000", "153651.705000", "153651.707000", "153651.710000", "153651.713000", "153651.715000", "153651.718000", "153651.720000", "153651.723000", "153651.726000", "153651.728000", "153651.731000", "153651.733000", "153651.736000", "153651.743000", "153651.746000", "153651.748000", "153651.751000", "153651.753000", "153731.736000", "153731.739000", "153731.741000", "153731.744000", "153731.746000", "153731.749000", "153731.752000", "153731.754000", "153731.757000", "153731.759000", "153731.762000", "153731.773000", "153731.775000", "153731.778000", "153731.781000", "153731.783000", "153731.786000", "153731.788000", "153731.791000", "153731.793000", "153731.796000", "153731.799000", "153731.801000", "153731.804000", "153731.806000", "153731.809000", "153731.812000", "153811.727000", "153811.730000", "153811.733000", "153811.735000", "153811.738000", "153811.741000", "153811.743000", "153811.746000", "153811.748000", "153811.751000", "153811.753000", "153811.756000", "153811.759000", "153811.761000", "153811.764000", "153811.766000", "153811.811000", "153811.813000", "153811.816000", "153811.818000", "153811.821000", "153811.823000", "153811.826000", "153811.829000", "153811.832000", "153811.834000", "153811.837000", "153851.723000", "153851.726000", "153851.729000", "153851.731000", "153851.734000", "153851.737000", "153851.739000", "153851.742000", "153851.744000", "153851.747000", "153851.750000", "153851.752000", "153851.755000", "153851.757000", "153851.760000", "153851.763000", "153851.765000", "153851.768000", "153851.819000", "153851.821000", "153851.824000", "153851.826000", "153851.829000", "153851.831000", "153851.834000", "153851.837000", "153851.839000", "153858.974000", "153858.977000", "153858.980000", "153858.982000", "153858.985000"],
      "InstanceCreationTime": ["153531.739000", "153531.742000", "153531.745000", "153531.748000", "153531.750000", "153531.753000", "153531.755000", "153531.758000", "153531.760000", "153531.763000", "153531.766000", "153531.768000", "153531.771000", "153531.773000", "153531.776000", "153531.778000", "153531.781000", "153531.783000", "153531.786000", "153531.789000", "153531.791000", "153531.794000", "153531.796000", "153551.737000", "153551.740000", "153551.743000", "153551.745000", "153551.748000", "153551.750000", "153551.753000", "153551.755000", "153551.758000", "153551.760000", "153551.763000", "153551.766000", "153551.768000", "153551.863000", "153551.866000", "153551.868000", "153551.871000", "153551.873000", "153551.876000", "153551.878000", "153612.078000", "153612.081000", "153612.084000", "153612.086000", "153612.089000", "153612.091000", "153612.094000", "153612.096000", "153612.099000", "153612.102000", "153612.113000", "153612.116000", "153612.118000", "153612.121000", "153612.124000", "153612.126000", "153612.129000", "153612.131000", "153612.134000", "153612.136000", "153612.139000", "153631.712000", "153631.715000", "153631.718000", "153631.720000", "153631.723000", "153631.736000", "153631.739000", "153631.741000", "153631.744000", "153631.746000", "153631.749000", "153631.751000", "153631.754000", "153631.756000", "153631.759000", "153631.762000", "153631.764000", "153631.767000", "153631.769000", "153631.772000", "153651.700000", "153651.702000", "153651.705000", "153651.707000", "153651.710000", "153651.713000", "153651.715000", "153651.718000", "153651.720000", "153651.723000", "153651.726000", "153651.728000", "153651.731000", "153651.733000", "153651.736000", "153651.743000", "153651.746000", "153651.748000", "153651.751000", "153651.753000", "153731.736000", "153731.739000", "153731.741000", "153731.744000", "153731.746000", "153731.749000", "153731.752000", "153731.754000", "153731.757000", "153731.759000", "153731.762000", "153731.773000", "153731.775000", "153731.778000", "153731.781000", "153731.783000", "153731.786000", "153731.788000", "153731.791000", "153731.793000", "153731.796000", "153731.799000", "153731.801000", "153731.804000", "153731.806000", "153731.809000", "153731.812000", "153811.727000", "153811.730000", "153811.733000", "153811.735000", "153811.738000", "153811.741000", "153811.743000", "153811.746000", "153811.748000", "153811.751000", "153811.753000", "153811.756000", "153811.759000", "153811.761000", "153811.764000", "153811.766000", "153811.811000", "153811.813000", "153811.816000", "153811.818000", "153811.821000", "153811.823000", "153811.826000", "153811.829000", "153811.832000", "153811.834000", "153811.837000", "153851.723000", "153851.726000", "153851.729000", "153851.731000", "153851.734000", "153851.737000", "153851.739000", "153851.742000", "153851.744000", "153851.747000", "153851.750000", "153851.752000", "153851.755000", "153851.757000", "153851.760000", "153851.763000", "153851.765000", "153851.768000", "153851.819000", "153851.821000", "153851.824000", "153851.826000", "153851.829000", "153851.831000", "153851.834000", "153851.837000", "153851.839000", "153858.974000", "153858.977000", "153858.980000", "153858.982000", "153858.985000"],
      "InstanceNumber": [1, 2, 3, 4, 5, 6, 7, 8, 9, 10, 11, 12, 13, 14, 15, 16, 17, 18, 19, 20, 21, 22, 23, 24, 25, 26, 27, 28, 29, 30, 31, 32, 33, 34, 35, 36, 37, 38, 39, 40, 41, 42, 43, 44, 45, 46, 47, 48, 49, 50, 51, 52, 53, 54, 55, 56, 57, 58, 59, 60, 61, 62, 63, 64, 65, 66, 67, 68, 69, 70, 71, 72, 73, 74, 75, 76, 77, 78, 79, 80, 81, 82, 83, 84, 85, 86, 87, 88, 89, 90, 91, 92, 93, 94, 95, 96, 97, 98, 99, 100, 101, 102, 103, 104, 105, 106, 107, 108, 109, 110, 111, 112, 113, 114, 115, 116, 117, 118, 119, 120, 121, 122, 123, 124, 125, 126, 127, 128, 129, 130, 131, 132, 133, 134, 135, 136, 137, 138, 139, 140, 141, 142, 143, 144, 145, 146, 147, 148, 149, 150, 151, 152, 153, 154, 155, 156, 157, 158, 159, 160, 161, 162, 163, 164, 165, 166, 167, 168, 169, 170, 171, 172, 173, 174, 175, 176, 177, 178, 179, 180, 181, 182, 183, 184, 185, 186, 187, 188, 189, 190],
      "WindowCenter": [4818.0, 4824.0, 4820.0, 4822.0, 4820.0, 4816.0, 4818.0, 4814.0, 4816.0, 4822.0, 4818.0, 4820.0, 4814.0, 4820.0, 4818.0, 4818.0, 4822.0, 4816.0, 4818.0, 4818.0, 4826.0, 4822.0, 4820.0, 4818.0, 4818.0, 4818.0, 4816.0, 4820.0, 4820.0, 4818.0, 4818.0, 4818.0, 4818.0, 4820.0, 4814.0, 4822.0, 4822.0, 4816.0, 4816.0, 4814.0, 4820.0, 4822.0, 4848.0, 4824.0, 4822.0, 4822.0, 4822.0, 4842.0, 4818.0, 4820.0, 4816.0, 4818.0, 4822.0, 4820.0, 4822.0, 4818.0, 4820.0, 4816.0, 4820.0, 4814.0, 4816.0, 4816.0, 4822.0, 4816.0, 4818.0, 4814.0, 4820.0, 4820.0, 4820.0, 4822.0, 4818.0, 4816.0, 4818.0, 4816.0, 4818.0, 4820.0, 4818.0, 4814.0, 4814.0, 4824.0, 4822.0, 4818.0, 4816.0, 4816.0, 4816.0, 4812.0, 4812.0, 4816.0, 4820.0, 4816.0, 4814.0, 4816.0, 4814.0, 4820.0, 4814.0, 4816.0, 4820.0, 4824.0, 4818.0, 4818.0, 4816.0, 4818.0, 4814.0, 4816.0, 4814.0, 4816.0, 4820.0, 4814.0, 4818.0, 4818.0, 4816.0, 4812.0, 4816.0, 4818.0, 4828.0, 4824.0, 4818.0, 4820.0, 4820.0, 4820.0, 4820.0, 4816.0, 4816.0, 4820.0, 4818.0, 4814.0, 4816.0, 4816.0, 4812.0, 4818.0, 4818.0, 4818.0, 4820.0, 4818.0, 4812.0, 4816.0, 4818.0, 4816.0, 4814.0, 4814.0, 4814.0, 4814.0, 4814.0, 4818.0, 4812.0, 4816.0, 4814.0, 4816.0, 4816.0, 4816.0, 4816.0, 4814.0, 4816.0, 4812.0, 4814.0, 4816.0, 4816.0, 4816.0, 4814.0, 4816.0, 4816.0, 4816.0, 4816.0, 4814.0, 4816.0, 4816.0, 4812.0, 4816.0, 4814.0, 4818.0, 4816.0, 4816.0, 4816.0, 4818.0, 4816.0, 4814.0, 4812.0, 4816.0, 4812.0, 4814.0, 4814.0, 4816.0, 4812.0, 4814.0, 4816.0, 4816.0, 4816.0, 4812.0, 4818.0, 4816.0],
      "WindowWidth": [18600.0, 18612.0, 18614.0, 18614.0, 18598.0, 18594.0, 18584.0, 18582.0, 18600.0, 18608.0, 18604.0, 18612.0, 18602.0, 18608.0, 18608.0, 18586.0, 18572.0, 18584.0, 18612.0, 18612.0, 18612.0, 18616.0, 18610.0, 18590.0, 18590.0, 18592.0, 18586.0, 18580.0, 18572.0, 18592.0, 18610.0, 18620.0, 18614.0, 18612.0, 18600.0, 18590.0, 18586.0, 18586.0, 18588.0, 18588.0, 18600.0, 18610.0, 18614.0, 18592.0, 18608.0, 18610.0, 18610.0, 18634.0, 18594.0, 18594.0, 18588.0, 18596.0, 18580.0, 18590.0, 18608.0, 18612.0, 18610.0, 18610.0, 18594.0, 18584.0, 18596.0, 18598.0, 18582.0, 18588.0, 18602.0, 18594.0, 18586.0, 18588.0, 18614.0, 18614.0, 18602.0, 18602.0, 18604.0, 18596.0, 18598.0, 18594.0, 18578.0, 18582.0, 18596.0, 18614.0, 18614.0, 18602.0, 18578.0, 18592.0, 18602.0, 18600.0, 18596.0, 18596.0, 18588.0, 18586.0, 18594.0, 18594.0, 18596.0, 18584.0, 18578.0, 18596.0, 18608.0, 18604.0, 18602.0, 18600.0, 18584.0, 18590.0, 18590.0, 18586.0, 18584.0, 18594.0, 18596.0, 18588.0, 18602.0, 18598.0, 18596.0, 18598.0, 18598.0, 18582.0, 18584.0, 18572.0, 18590.0, 18614.0, 18616.0, 18616.0, 18614.0, 18596.0, 18584.0, 18590.0, 18586.0, 18590.0, 18594.0, 18596.0, 18598.0, 18604.0, 18584.0, 18592.0, 18606.0, 18586.0, 18582.0, 18594.0, 18586.0, 18592.0, 18588.0, 18586.0, 18594.0, 18590.0, 18586.0, 18596.0, 18590.0, 18582.0, 18590.0, 18596.0, 18590.0, 18590.0, 18588.0, 18584.0, 18596.0, 18590.0, 18586.0, 18596.0, 18592.0, 18580.0, 18592.0, 18590.0, 18596.0, 18598.0, 18586.0, 18594.0, 18598.0, 18600.0, 18584.0, 18596.0, 18594.0, 18584.0, 18592.0, 18594.0, 18588.0, 18600.0, 18600.0, 18588.0, 18592.0, 18588.0, 18582.0, 18592.0, 18582.0, 18586.0, 18594.0, 18592.0, 18596.0, 18596.0, 18604.0, 18588.0, 18584.0, 18590.0]
    },
    "slices": {}
  }
}