{
  "AcquisitionMatrixPE": 104,
  "AcquisitionNumber": 1,
  "AcquisitionTime": "15:34:15.410000",
  "BandwidthPerPixelPhaseEncode": 17.17,
  "BaseResolution": 104,
  "BodyPartExamined": "BRAIN",
  "CoilString": "HC1-7;NC1_2",
  "ConsistencyInfo": "N4_VE11C_LATEST_20160120",
  "ConversionSoftware": "dcm2niix",
  "ConversionSoftwareVersion": "v1.0.20190902",
  "DerivedVendorReportedEchoSpacing": 0.000560011,
  "DeviceSerialNumber": "167006",
  "DwellTime": 2.1e-06,
  "EchoTime": 0.037,
  "EchoTrainLength": 104,
  "EffectiveEchoSpacing": 0.000560011,
  "FlipAngle": 52,
  "ImageComments": "Unaliased_MB4_PE3_LB",
  "ImageOrientationPatientDICOM": [0.998822, -0.0427354, 0.0229676, 0.0478022, 0.947783, -0.315312],
  "ImageType": [
    "ORIGINAL",
    "PRIMARY",
    "M",
    "MB",
    "ND",
    "MOSAIC"
],
  "ImagingFrequency": 123.259,
  "InPlanePhaseEncodingDirectionDICOM": "COL",
  "InstitutionAddress": "Chemin_Queen-Mary_4565_Montreal_District_CA_H3W_1W5",
  "InstitutionName": "IUGM",
  "InstitutionalDepartmentName": "Department",
  "MRAcquisitionType": "2D",
  "MagneticFieldStrength": 3,
  "Manufacturer": "Siemens",
  "ManufacturersModelName": "Prisma_fit",
  "Modality": "MR",
  "MultibandAccelerationFactor": 4,
  "PartialFourier": 1,
  "PatientPosition": "HFS",
  "PercentPhaseFOV": 100,
  "PhaseEncodingDirection": "j",
  "PhaseEncodingSteps": 104,
  "PhaseResolution": 1,
  "PixelBandwidth": 2290,
  "ProcedureStepDescription": "memory_things",
  "ProtocolName": "func_task-things_run-1",
  "PulseSequenceDetails": "%CustomerSeq%_cmrr_mbep2d_bold",
  "ReceiveCoilActiveElements": "HC1-7;NC1,2",
  "ReceiveCoilName": "HeadNeck_64",
  "ReconMatrixPE": 104,
  "RepetitionTime": 1.49,
  "SAR": 0.0520577,
  "ScanOptions": "FS",
  "ScanningSequence": "EP",
  "SequenceName": "epfid2d1_104",
  "SequenceVariant": "SK_SS",
  "SeriesDescription": "func_task-things_run-1",
  "SeriesNumber": 10,
  "ShimSetting": [628, -7249, -8831, 587, -6, -211, -50, -33],
  "SliceThickness": 2,
  "SliceTiming": [0, 0.785, 0.1, 0.8825, 0.1975, 0.98, 0.295, 1.08, 0.3925, 1.1775, 0.49, 1.275, 0.59, 1.3725, 0.6875, 0, 0.785, 0.1, 0.8825, 0.1975, 0.98, 0.295, 1.08, 0.3925, 1.1775, 0.49, 1.275, 0.59, 1.3725, 0.6875, 0, 0.785, 0.1, 0.8825, 0.1975, 0.98, 0.295, 1.08, 0.3925, 1.1775, 0.49, 1.275, 0.59, 1.3725, 0.6875, 0, 0.785, 0.1, 0.8825, 0.1975, 0.98, 0.295, 1.08, 0.3925, 1.1775, 0.49, 1.275, 0.59, 1.3725, 0.6875],
  "SoftwareVersions": "syngo_MR_E11",
  "SpacingBetweenSlices": 2,
  "StationName": "MRC35049",
  "TaskName": "things",
  "TotalReadoutTime": 0.0576811,
  "TxRefAmp": 257.819,
  "WipMemBlock": "81a9faf2-548f-4cd1-a9b9-a40108f348be||Sequence: R016 ve11c/master r/e634e98; Dec 19 2017 11:00:25 by eja",
  "dcmmeta_affine": [
    [-1.9976447820663452, 0.09560434520244598, 0.01658656634390354, 102.24735260009766],
    [0.08547084778547287, 1.895566463470459, -0.6320779919624329, -71.15727996826172],
    [0.045935165137052536, 0.6306247711181641, 1.897420048713684, -68.63756561279297],
    [0.0, 0.0, 0.0, 1.0]
],
  "dcmmeta_reorient_transform": [
    [0.0, -1.0, 0.0, 103.0],
    [1.0, 0.0, 0.0, 0.0],
    [0.0, 0.0, 1.0, 0.0],
    [0.0, 0.0, 0.0, 1.0]
],
  "dcmmeta_shape": [104, 104, 60, 190],
  "dcmmeta_slice_dim": 2,
  "dcmmeta_version": 0.6,
  "global": {
    "const": {
      "AcquisitionMatrix": [104, 0, 0, 104],
      "AngioFlag": "N",
      "BitsAllocated": 16,
      "BitsStored": 16,
      "BodyPartExamined": "BRAIN",
      "Columns": 832,
      "EchoNumbers": 1,
      "EchoTime": 37.0,
      "EchoTrainLength": 104,
      "FlipAngle": 52.0,
      "HighBit": 15,
      "ImageOrientationPatient": [0.99882239352739, -0.0427354220729, 0.02296758342665, 0.04780217207127, 0.94778322974099, -0.3153123875889],
      "ImagePositionPatient": [-874.03728600851, -782.96086797506, 209.1438065979],
      "ImageType": [
        "ORIGINAL",
        "PRIMARY",
        "M",
        "MB",
        "ND",
        "MOSAIC"
],
      "ImagedNucleus": "1H",
      "ImagingFrequency": 123.259158,
      "InPlanePhaseEncodingDirection": "COL",
      "MRAcquisitionType": "2D",
      "MagneticFieldStrength": 3.0,
      "Manufacturer": "SIEMENS",
      "ManufacturerModelName": "Prisma_fit",
      "Modality": "MR",
      "NumberOfAverages": 1.0,
      "NumberOfPhaseEncodingSteps": 104,
      "PercentPhaseFieldOfView": 100.0,
      "PercentSampling": 100.0,
      "PerformedProcedureStepStartTime": "145010.721000",
      "PhotometricInterpretation": "MONOCHROME2",
      "PixelBandwidth": 2290.0,
      "PixelRepresentation": 0,
      "PixelSpacing": [2.0, 2.0],
      "ProtocolName": "func_task-things_run-1",
      "RepetitionTime": 1490.0,
      "Rows": 832,
      "SAR": 0.05205771770786,
      "SamplesPerPixel": 1,
      "ScanOptions": "FS",
      "ScanningSequence": "EP",
      "SequenceName": "epfid2d1_104",
      "SequenceVariant": [
        "SK",
        "SS"
],
      "SeriesDescription": "func_task-things_run-1",
      "SeriesNumber": 10,
      "SeriesTime": "153531.620000",
      "SliceLocation": -41.780698964933,
      "SliceThickness": 2.0,
      "SmallestImagePixelValue": 0,
      "SoftwareVersions": "syngo MR E11",
      "SpacingBetweenSlices": 2.0000000870032,
      "SpecificCharacterSet": "ISO_IR 100",
      "StudyID": "1",
      "StudyTime": "145010.667000",
      "TransmitCoilName": "Body",
      "VariableFlipAngleFlag": "N",
      "WindowCenterWidthExplanation": "Algo1",
      "dBdt": 0.0},
    "slices": {}
  },
  "time": {
    "samples": {
      "AcquisitionNumber": [1, 2, 3, 4, 5, 6, 7, 8, 9, 10, 11, 12, 13, 14, 15, 16, 17, 18, 19, 20, 21, 22, 23, 24, 25, 26, 27, 28, 29, 30, 31, 32, 33, 34, 35, 36, 37, 38, 39, 40, 41, 42, 43, 44, 45, 46, 47, 48, 49, 50, 51, 52, 53, 54, 55, 56, 57, 58, 59, 60, 61, 62, 63, 64, 65, 66, 67, 68, 69, 70, 71, 72, 73, 74, 75, 76, 77, 78, 79, 80, 81, 82, 83, 84, 85, 86, 87, 88, 89, 90, 91, 92, 93, 94, 95, 96, 97, 98, 99, 100, 101, 102, 103, 104, 105, 106, 107, 108, 109, 110, 111, 112, 113, 114, 115, 116, 117, 118, 119, 120, 121, 122, 123, 124, 125, 126, 127, 128, 129, 130, 131, 132, 133, 134, 135, 136, 137, 138, 139, 140, 141, 142, 143, 144, 145, 146, 147, 148, 149, 150, 151, 152, 153, 154, 155, 156, 157, 158, 159, 160, 161, 162, 163, 164, 165, 166, 167, 168, 169, 170, 171, 172, 173, 174, 175, 176, 177, 178, 179, 180, 181, 182, 183, 184, 185, 186, 187, 188, 189, 190],
      "AcquisitionTime": ["153415.410000", "153416.900000", "153418.390000", "153419.880000", "153421.370000", "153422.860000", "153424.350000", "153425.840000", "153427.330000", "153428.820000", "153430.310000", "153431.800000", "153433.290000", "153434.780000", "153436.270000", "153437.760000", "153439.250000", "153440.740000", "153442.230000", "153443.720000", "153445.210000", "153446.700000", "153448.190000", "153449.680000", "153451.170000", "153452.660000", "153454.150000", "153455.640000", "153457.130000", "153458.620000", "153500.110000", "153501.600000", "153503.090000", "153504.580000", "153506.070000", "153507.560000", "153509.050000", "153510.540000", "153512.030000", "153513.520000", "153515.010000", "153516.500000", "153517.990000", "153519.480000", "153520.970000", "153522.460000", "153523.950000", "153525.440000", "153526.930000", "153528.420000", "153529.910000", "153531.400000", "153532.890000", "153534.380000", "153535.870000", "153537.360000", "153538.850000", "153540.340000", "153541.830000", "153543.320000", "153544.810000", "153546.300000", "153547.790000", "153549.280000", "153550.770000", "153552.260000", "153553.750000", "153555.240000", "153556.730000", "153558.220000", "153559.710000", "153601.200000", "153602.690000", "153604.180000", "153605.670000", "153607.160000", "153608.650000", "153610.140000", "153611.630000", "153613.120000", "153614.610000", "153616.100000", "153617.590000", "153619.080000", "153620.570000", "153622.060000", "153623.550000", "153625.040000", "153626.530000", "153628.020000", "153629.510000", "153631.000000", "153632.490000", "153633.980000", "153635.470000", "153636.960000", "153638.450000", "153639.940000", "153641.430000", "153642.920000", "153644.410000", "153645.900000", "153647.390000", "153648.880000", "153650.370000", "153651.860000", "153653.350000", "153654.840000", "153656.330000", "153657.820000", "153659.310000", "153700.800000", "153702.290000", "153703.780000", "153705.270000", "153706.760000", "153708.250000", "153709.740000", "153711.230000", "153712.720000", "153714.210000", "153715.700000", "153717.190000", "153718.680000", "153720.170000", "153721.660000", "153723.150000", "153724.640000", "153726.130000", "153727.620000", "153729.110000", "153730.600000", "153732.090000", "153733.580000", "153735.070000", "153736.560000", "153738.050000", "153739.540000", "153741.030000", "153742.520000", "153744.010000", "153745.500000", "153746.990000", "153748.480000", "153749.970000", "153751.460000", "153752.950000", "153754.440000", "153755.930000", "153757.420000", "153758.910000", "153800.400000", "153801.890000", "153803.380000", "153804.870000", "153806.360000", "153807.850000", "153809.340000", "153810.830000", "153812.320000", "153813.810000", "153815.300000", "153816.790000", "153818.280000", "153819.770000", "153821.260000", "153822.750000", "153824.240000", "153825.730000", "153827.220000", "153828.710000", "153830.200000", "153831.690000", "153833.180000", "153834.670000", "153836.160000", "153837.650000", "153839.140000", "153840.630000", "153842.120000", "153843.610000", "153845.100000", "153846.590000", "153848.080000", "153849.570000", "153851.060000", "153852.550000", "153854.040000", "153855.530000", "153857.020000"],
      "ContentTime": ["153531.623000", "153531.629000", "153531.633000", "153531.636000", "153531.639000", "153531.643000", "153531.646000", "153531.654000", "153531.657000", "153531.660000", "153531.664000", "153531.667000", "153531.671000", "153531.674000", "153531.678000", "153531.681000", "153531.685000", "153531.688000", "153531.692000", "153531.695000", "153531.698000", "153531.702000", "153531.705000", "153551.586000", "153551.590000", "153551.593000", "153551.597000", "153551.600000", "153551.603000", "153551.607000", "153551.610000", "153551.614000", "153551.628000", "153551.632000", "153551.635000", "153551.639000", "153551.642000", "153551.646000", "153551.649000", "153551.652000", "153551.656000", "153551.659000", "153551.663000", "153611.586000", "153611.590000", "153611.594000", "153611.597000", "153611.600000", "153611.603000", "153611.607000", "153611.610000", "153611.614000", "153611.617000", "153611.629000", "153611.632000", "153611.636000", "153611.639000", "153611.642000", "153611.646000", "153611.649000", "153611.652000", "153611.656000", "153611.659000", "153611.663000", "153631.586000", "153631.590000", "153631.593000", "153631.597000", "153631.600000", "153631.604000", "153631.607000", "153631.610000", "153631.614000", "153631.617000", "153631.620000", "153631.624000", "153631.627000", "153631.631000", "153631.634000", "153631.637000", "153631.641000", "153631.644000", "153631.648000", "153631.651000", "153651.586000", "153651.590000", "153651.593000", "153651.597000", "153651.600000", "153651.603000", "153651.607000", "153651.610000", "153651.614000", "153651.617000", "153651.620000", "153651.624000", "153651.627000", "153651.631000", "153651.634000", "153651.638000", "153651.641000", "153651.644000", "153651.648000", "153651.651000", "153731.586000", "153731.590000", "153731.600000", "153731.604000", "153731.607000", "153731.610000", "153731.614000", "153731.617000", "153731.621000", "153731.624000", "153731.627000", "153731.631000", "153731.634000", "153731.638000", "153731.641000", "153731.644000", "153731.648000", "153731.651000", "153731.655000", "153731.658000", "153731.661000", "153731.665000", "153731.668000", "153731.671000", "153731.675000", "153731.678000", "153731.682000", "153811.586000", "153811.590000", "153811.594000", "153811.597000", "153811.600000", "153811.604000", "153811.607000", "153811.611000", "153811.614000", "153811.617000", "153811.621000", "153811.624000", "153811.628000", "153811.631000", "153811.635000", "153811.638000", "153811.641000", "153811.645000", "153811.648000", "153811.651000", "153811.655000", "153811.658000", "153811.662000", "153811.665000", "153811.669000", "153811.672000", "153811.675000", "153851.586000", "153851.590000", "153851.593000", "153851.597000", "153851.600000", "153851.604000", "153851.607000", "153851.611000", "153851.614000", "153851.617000", "153851.621000", "153851.624000", "153851.628000", "153851.631000", "153851.635000", "153851.638000", "153851.642000", "153851.645000", "153851.648000", "153851.652000", "153851.655000", "153851.659000", "153851.662000", "153851.665000", "153851.669000", "153851.672000", "153851.676000", "153858.932000", "153858.936000", "153858.939000", "153858.943000", "153858.947000"],
      "InstanceCreationTime": ["153531.623000", "153531.629000", "153531.633000", "153531.636000", "153531.639000", "153531.643000", "153531.646000", "153531.654000", "153531.657000", "153531.660000", "153531.664000", "153531.667000", "153531.671000", "153531.674000", "153531.678000", "153531.681000", "153531.685000", "153531.688000", "153531.692000", "153531.695000", "153531.698000", "153531.702000", "153531.705000", "153551.586000", "153551.590000", "153551.593000", "153551.597000", "153551.600000", "153551.603000", "153551.607000", "153551.610000", "153551.614000", "153551.628000", "153551.632000", "153551.635000", "153551.639000", "153551.642000", "153551.646000", "153551.649000", "153551.652000", "153551.656000", "153551.659000", "153551.663000", "153611.586000", "153611.590000", "153611.594000", "153611.597000", "153611.600000", "153611.603000", "153611.607000", "153611.610000", "153611.614000", "153611.617000", "153611.629000", "153611.632000", "153611.636000", "153611.639000", "153611.642000", "153611.646000", "153611.649000", "153611.652000", "153611.656000", "153611.659000", "153611.663000", "153631.586000", "153631.590000", "153631.593000", "153631.597000", "153631.600000", "153631.604000", "153631.607000", "153631.610000", "153631.614000", "153631.617000", "153631.620000", "153631.624000", "153631.627000", "153631.631000", "153631.634000", "153631.637000", "153631.641000", "153631.644000", "153631.648000", "153631.651000", "153651.586000", "153651.590000", "153651.593000", "153651.597000", "153651.600000", "153651.603000", "153651.607000", "153651.610000", "153651.614000", "153651.617000", "153651.620000", "153651.624000", "153651.627000", "153651.631000", "153651.634000", "153651.638000", "153651.641000", "153651.644000", "153651.648000", "153651.651000", "153731.586000", "153731.590000", "153731.600000", "153731.604000", "153731.607000", "153731.610000", "153731.614000", "153731.617000", "153731.621000", "153731.624000", "153731.627000", "153731.631000", "153731.634000", "153731.638000", "153731.641000", "153731.644000", "153731.648000", "153731.651000", "153731.655000", "153731.658000", "153731.661000", "153731.665000", "153731.668000", "153731.671000", "153731.675000", "153731.678000", "153731.682000", "153811.586000", "153811.590000", "153811.594000", "153811.597000", "153811.600000", "153811.604000", "153811.607000", "153811.611000", "153811.614000", "153811.617000", "153811.621000", "153811.624000", "153811.628000", "153811.631000", "153811.635000", "153811.638000", "153811.641000", "153811.645000", "153811.648000", "153811.651000", "153811.655000", "153811.658000", "153811.662000", "153811.665000", "153811.669000", "153811.672000", "153811.675000", "153851.586000", "153851.590000", "153851.593000", "153851.597000", "153851.600000", "153851.604000", "153851.607000", "153851.611000", "153851.614000", "153851.617000", "153851.621000", "153851.624000", "153851.628000", "153851.631000", "153851.635000", "153851.638000", "153851.642000", "153851.645000", "153851.648000", "153851.652000", "153851.655000", "153851.659000", "153851.662000", "153851.665000", "153851.669000", "153851.672000", "153851.676000", "153858.932000", "153858.936000", "153858.939000", "153858.943000", "153858.947000"],
      "InstanceNumber": [1, 2, 3, 4, 5, 6, 7, 8, 9, 10, 11, 12, 13, 14, 15, 16, 17, 18, 19, 20, 21, 22, 23, 24, 25, 26, 27, 28, 29, 30, 31, 32, 33, 34, 35, 36, 37, 38, 39, 40, 41, 42, 43, 44, 45, 46, 47, 48, 49, 50, 51, 52, 53, 54, 55, 56, 57, 58, 59, 60, 61, 62, 63, 64, 65, 66, 67, 68, 69, 70, 71, 72, 73, 74, 75, 76, 77, 78, 79, 80, 81, 82, 83, 84, 85, 86, 87, 88, 89, 90, 91, 92, 93, 94, 95, 96, 97, 98, 99, 100, 101, 102, 103, 104, 105, 106, 107, 108, 109, 110, 111, 112, 113, 114, 115, 116, 117, 118, 119, 120, 121, 122, 123, 124, 125, 126, 127, 128, 129, 130, 131, 132, 133, 134, 135, 136, 137, 138, 139, 140, 141, 142, 143, 144, 145, 146, 147, 148, 149, 150, 151, 152, 153, 154, 155, 156, 157, 158, 159, 160, 161, 162, 163, 164, 165, 166, 167, 168, 169, 170, 171, 172, 173, 174, 175, 176, 177, 178, 179, 180, 181, 182, 183, 184, 185, 186, 187, 188, 189, 190],
      "LargestImagePixelValue": [42422, 41991, 40593, 39748, 39313, 39980, 39222, 40101, 40899, 39861, 40624, 40500, 40042, 40521, 40786, 40095, 39465, 40529, 40983, 40549, 39669, 39818, 40177, 39485, 40123, 41183, 40533, 39383, 39398, 40430, 40805, 40908, 40290, 40601, 40090, 39398, 40534, 40512, 40760, 40369, 40568, 40831, 39873, 40085, 40779, 39744, 39590, 39743, 39806, 39979, 40205, 40430, 39954, 40281, 40242, 40299, 39890, 40556, 39829, 39864, 39847, 40316, 39664, 40031, 40390, 40103, 39130, 39855, 40001, 39846, 40057, 40293, 40383, 39762, 39793, 39937, 39421, 39988, 40460, 40534, 40575, 39979, 38688, 40370, 40582, 39920, 39875, 40059, 39889, 39984, 40129, 40133, 40133, 39365, 39898, 40150, 40436, 39301, 40220, 39670, 38732, 40475, 40426, 40141, 40189, 40427, 40304, 39563, 40135, 40221, 39980, 39818, 40335, 39792, 38714, 39891, 39813, 40339, 40393, 40376, 40012, 39588, 40129, 40321, 40507, 40034, 40290, 40180, 40484, 40634, 39467, 40097, 40449, 39767, 39589, 40454, 39321, 39384, 40005, 39004, 40112, 40085, 39904, 40170, 39981, 39550, 39920, 39932, 39786, 39945, 40044, 40009, 40286, 40249, 40167, 40160, 40059, 39485, 40141, 40119, 39416, 40456, 39354, 40269, 40389, 40122, 39742, 40149, 40306, 39926, 40230, 40072, 40131, 40315, 40319, 40004, 40332, 40105, 39714, 40025, 40074, 40211, 40543, 40236, 40168, 40640, 40038, 39604, 39807, 40191],
      "WindowCenter": [10367.0, 10339.0, 10297.0, 10248.0, 10256.0, 10282.0, 10300.0, 10330.0, 10308.0, 10271.0, 10276.0, 10276.0, 10270.0, 10276.0, 10275.0, 10263.0, 10272.0, 10290.0, 10297.0, 10276.0, 10247.0, 10242.0, 10267.0, 10241.0, 10235.0, 10247.0, 10247.0, 10248.0, 10283.0, 10298.0, 10279.0, 10244.0, 10231.0, 10229.0, 10231.0, 10236.0, 10247.0, 10250.0, 10235.0, 10233.0, 10242.0, 10275.0, 10278.0, 10309.0, 10305.0, 10231.0, 10233.0, 10235.0, 10243.0, 10236.0, 10226.0, 10208.0, 10215.0, 10246.0, 10255.0, 10249.0, 10251.0, 10280.0, 10299.0, 10302.0, 10266.0, 10239.0, 10227.0, 10240.0, 10257.0, 10258.0, 10246.0, 10258.0, 10259.0, 10238.0, 10224.0, 10229.0, 10240.0, 10243.0, 10243.0, 10236.0, 10233.0, 10256.0, 10266.0, 10263.0, 10248.0, 10241.0, 10244.0, 10281.0, 10274.0, 10258.0, 10244.0, 10235.0, 10242.0, 10244.0, 10243.0, 10236.0, 10227.0, 10218.0, 10252.0, 10274.0, 10273.0, 10248.0, 10250.0, 10258.0, 10262.0, 10280.0, 10258.0, 10235.0, 10234.0, 10248.0, 10248.0, 10238.0, 10227.0, 10230.0, 10224.0, 10226.0, 10245.0, 10241.0, 10258.0, 10287.0, 10259.0, 10238.0, 10228.0, 10226.0, 10221.0, 10208.0, 10199.0, 10181.0, 10188.0, 10191.0, 10205.0, 10221.0, 10235.0, 10234.0, 10240.0, 10271.0, 10281.0, 10273.0, 10275.0, 10296.0, 10301.0, 10295.0, 10285.0, 10263.0, 10253.0, 10235.0, 10224.0, 10232.0, 10234.0, 10235.0, 10250.0, 10251.0, 10252.0, 10243.0, 10233.0, 10232.0, 10247.0, 10256.0, 10256.0, 10256.0, 10235.0, 10229.0, 10286.0, 10268.0, 10236.0, 10248.0, 10236.0, 10249.0, 10243.0, 10228.0, 10209.0, 10216.0, 10231.0, 10233.0, 10226.0, 10216.0, 10217.0, 10231.0, 10246.0, 10250.0, 10257.0, 10266.0, 10255.0, 10253.0, 10242.0, 10246.0, 10255.0, 10264.0, 10259.0, 10263.0, 10246.0, 10243.0, 10248.0, 10208.0],
      "WindowWidth": [22377.0, 22280.0, 22164.0, 22038.0, 22048.0, 22098.0, 22139.0, 22205.0, 22150.0, 22066.0, 22077.0, 22077.0, 22067.0, 22074.0, 22072.0, 22047.0, 22072.0, 22108.0, 22126.0, 22078.0, 22012.0, 21996.0, 22052.0, 21999.0, 21982.0, 22007.0, 22010.0, 22020.0, 22100.0, 22132.0, 22086.0, 22001.0, 21970.0, 21966.0, 21969.0, 21984.0, 22006.0, 22013.0, 21983.0, 21979.0, 21998.0, 22073.0, 22084.0, 22160.0, 22147.0, 21970.0, 21974.0, 21978.0, 21999.0, 21983.0, 21958.0, 21919.0, 21935.0, 22011.0, 22031.0, 22015.0, 22020.0, 22085.0, 22128.0, 22136.0, 22056.0, 21990.0, 21965.0, 21993.0, 22032.0, 22036.0, 22011.0, 22037.0, 22041.0, 21993.0, 21957.0, 21965.0, 21993.0, 22004.0, 22003.0, 21989.0, 21980.0, 22031.0, 22055.0, 22045.0, 22013.0, 21997.0, 22008.0, 22089.0, 22072.0, 22035.0, 22004.0, 21982.0, 21996.0, 22006.0, 22004.0, 21989.0, 21967.0, 21946.0, 22021.0, 22075.0, 22068.0, 22019.0, 22017.0, 22035.0, 22046.0, 22082.0, 22030.0, 21979.0, 21978.0, 22010.0, 22010.0, 21989.0, 21963.0, 21968.0, 21954.0, 21962.0, 22000.0, 21994.0, 22038.0, 22107.0, 22046.0, 21993.0, 21965.0, 21956.0, 21946.0, 21920.0, 21893.0, 21852.0, 21871.0, 21883.0, 21913.0, 21951.0, 21978.0, 21977.0, 21992.0, 22063.0, 22086.0, 22066.0, 22072.0, 22120.0, 22130.0, 22120.0, 22096.0, 22047.0, 22019.0, 21977.0, 21952.0, 21974.0, 21980.0, 21982.0, 22017.0, 22020.0, 22021.0, 22001.0, 21974.0, 21970.0, 22005.0, 22028.0, 22028.0, 22025.0, 21982.0, 21968.0, 22101.0, 22059.0, 21981.0, 22007.0, 21981.0, 22012.0, 21998.0, 21965.0, 21920.0, 21937.0, 21968.0, 21976.0, 21960.0, 21937.0, 21937.0, 21970.0, 22002.0, 22011.0, 22030.0, 22049.0, 22026.0, 22023.0, 21996.0, 21999.0, 22024.0, 22044.0, 22035.0, 22040.0, 22007.0, 21999.0, 22008.0, 21918.0]
    },
    "slices": {}
  }
}