{
  "AcquisitionMatrixPE": 104,
  "AcquisitionNumber": 1,
  "AcquisitionTime": "16:22:16.872500",
  "BandwidthPerPixelPhaseEncode": 17.17,
  "BaseResolution": 104,
  "BodyPartExamined": "BRAIN",
  "CoilString": "HC1-7;NC1_2",
  "ConsistencyInfo": "N4_VE11C_LATEST_20160120",
  "ConversionSoftware": "dcm2niix",
  "ConversionSoftwareVersion": "v1.0.20190902",
  "DerivedVendorReportedEchoSpacing": 0.000560011,
  "DeviceSerialNumber": "167006",
  "DwellTime": 2.1e-06,
  "EchoTime": 0.037,
  "EchoTrainLength": 104,
  "EffectiveEchoSpacing": 0.000560011,
  "FlipAngle": 52,
  "ImageComments": "Unaliased_MB4_PE3_LB",
  "ImageOrientationPatientDICOM": [0.997896, -0.063562, 0.0127807, 0.064531, 0.954698, -0.290494],
  "ImageType": [
    "ORIGINAL",
    "PRIMARY",
    "P",
    "MB",
    "ND",
    "MOSAIC"
],
  "ImagingFrequency": 123.259,
  "InPlanePhaseEncodingDirectionDICOM": "COL",
  "InstitutionAddress": "Chemin_Queen-Mary_4565_Montreal_District_CA_H3W_1W5",
  "InstitutionName": "IUGM",
  "InstitutionalDepartmentName": "Department",
  "MRAcquisitionType": "2D",
  "MagneticFieldStrength": 3,
  "Manufacturer": "Siemens",
  "ManufacturersModelName": "Prisma_fit",
  "Modality": "MR",
  "MultibandAccelerationFactor": 4,
  "PartialFourier": 1,
  "PatientPosition": "HFS",
  "PercentPhaseFOV": 100,
  "PhaseEncodingDirection": "j",
  "PhaseEncodingSteps": 104,
  "PhaseResolution": 1,
  "PixelBandwidth": 2290,
  "ProcedureStepDescription": "memory_things",
  "ProtocolName": "func_task-things_run-6",
  "PulseSequenceDetails": "%CustomerSeq%_cmrr_mbep2d_bold",
  "ReceiveCoilActiveElements": "HC1-7;NC1,2",
  "ReceiveCoilName": "HeadNeck_64",
  "ReconMatrixPE": 104,
  "RepetitionTime": 1.49,
  "SAR": 0.0474541,
  "ScanOptions": "FS",
  "ScanningSequence": "EP",
  "SequenceName": "epfid2d1_104",
  "SequenceVariant": "SK_SS",
  "SeriesDescription": "func_task-things_run-6",
  "SeriesNumber": 34,
  "ShimSetting": [630, -7265, -8819, 592, 15, -217, -13, -25],
  "SliceThickness": 2,
  "SliceTiming": [0, 0.785, 0.1, 0.8825, 0.1975, 0.98, 0.295, 1.08, 0.3925, 1.1775, 0.49, 1.275, 0.59, 1.3725, 0.6875, 0, 0.785, 0.1, 0.8825, 0.1975, 0.98, 0.295, 1.08, 0.3925, 1.1775, 0.49, 1.275, 0.59, 1.3725, 0.6875, 0, 0.785, 0.1, 0.8825, 0.1975, 0.98, 0.295, 1.08, 0.3925, 1.1775, 0.49, 1.275, 0.59, 1.3725, 0.6875, 0, 0.785, 0.1, 0.8825, 0.1975, 0.98, 0.295, 1.08, 0.3925, 1.1775, 0.49, 1.275, 0.59, 1.3725, 0.6875],
  "SoftwareVersions": "syngo_MR_E11",
  "SpacingBetweenSlices": 2,
  "StationName": "MRC35049",
  "TaskName": "things",
  "TotalReadoutTime": 0.0576811,
  "TxRefAmp": 249.264,
  "WipMemBlock": "32cf1708-bb1f-4671-824c-3ef763ef0e60||Sequence: R016 ve11c/master r/e634e98; Dec 19 2017 11:00:25 by eja",
  "dcmmeta_affine": [
    [-1.9957921504974365, 0.12906204164028168, -0.012525390833616257, 101.6309585571289],
    [0.12712399661540985, 1.9093966484069824, -0.5814155340194702, -74.84011840820312],
    [0.025561368092894554, 0.5809884071350098, 1.9135828018188477, -61.4794921875],
    [0.0, 0.0, 0.0, 1.0]
],
  "dcmmeta_reorient_transform": [
    [0.0, -1.0, 0.0, 103.0],
    [1.0, 0.0, 0.0, 0.0],
    [0.0, 0.0, 1.0, 0.0],
    [0.0, 0.0, 0.0, 1.0]
],
  "dcmmeta_shape": [104, 104, 60, 190],
  "dcmmeta_slice_dim": 2,
  "dcmmeta_version": 0.6,
  "global": {
    "const": {
      "AcquisitionMatrix": [104, 0, 0, 104],
      "AngioFlag": "N",
      "BitsAllocated": 16,
      "BitsStored": 16,
      "BodyPartExamined": "BRAIN",
      "Columns": 832,
      "EchoNumbers": 1,
      "EchoTime": 37.0,
      "EchoTrainLength": 104,
      "FlipAngle": 52.0,
      "HighBit": 15,
      "ImageOrientationPatient": [0.99789604990903, -0.0635619988666, 0.01278068370767, 0.06453101753785, 0.95469831060201, -0.2904942056379],
      "ImagePositionPatient": [-888.37125304198, -770.57497038483, 200.53775659973],
      "ImageType": [
        "ORIGINAL",
        "PRIMARY",
        "P",
        "MB",
        "ND",
        "MOSAIC"
],
      "ImagedNucleus": "1H",
      "ImagingFrequency": 123.259164,
      "InPlanePhaseEncodingDirection": "COL",
      "LargestImagePixelValue": 4095,
      "MRAcquisitionType": "2D",
      "MagneticFieldStrength": 3.0,
      "Manufacturer": "SIEMENS",
      "ManufacturerModelName": "Prisma_fit",
      "Modality": "MR",
      "NumberOfAverages": 1.0,
      "NumberOfPhaseEncodingSteps": 104,
      "PercentPhaseFieldOfView": 100.0,
      "PercentSampling": 100.0,
      "PerformedProcedureStepStartTime": "145010.721000",
      "PhotometricInterpretation": "MONOCHROME2",
      "PixelBandwidth": 2290.0,
      "PixelRepresentation": 0,
      "PixelSpacing": [2.0, 2.0],
      "ProtocolName": "func_task-things_run-6",
      "RepetitionTime": 1490.0,
      "RescaleIntercept": -4096.0,
      "RescaleSlope": 2.0,
      "RescaleType": "US",
      "Rows": 832,
      "SAR": 0.04745414699681,
      "SamplesPerPixel": 1,
      "ScanOptions": "FS",
      "ScanningSequence": "EP",
      "SequenceName": "epfid2d1_104",
      "SequenceVariant": [
        "SK",
        "SS"
],
      "SeriesDescription": "func_task-things_run-6",
      "SeriesNumber": 34,
      "SeriesTime": "162331.700000",
      "SliceLocation": -37.702930739776,
      "SliceThickness": 2.0,
      "SmallestImagePixelValue": 0,
      "SoftwareVersions": "syngo MR E11",
      "SpacingBetweenSlices": 2.0000000269489,
      "SpecificCharacterSet": "ISO_IR 100",
      "StudyID": "1",
      "StudyTime": "145010.667000",
      "TransmitCoilName": "Body",
      "VariableFlipAngleFlag": "N",
      "WindowCenterWidthExplanation": "Algo1",
      "dBdt": 0.0},
    "slices": {}
  },
  "time": {
    "samples": {
      "AcquisitionNumber": [1, 2, 3, 4, 5, 6, 7, 8, 9, 10, 11, 12, 13, 14, 15, 16, 17, 18, 19, 20, 21, 22, 23, 24, 25, 26, 27, 28, 29, 30, 31, 32, 33, 34, 35, 36, 37, 38, 39, 40, 41, 42, 43, 44, 45, 46, 47, 48, 49, 50, 51, 52, 53, 54, 55, 56, 57, 58, 59, 60, 61, 62, 63, 64, 65, 66, 67, 68, 69, 70, 71, 72, 73, 74, 75, 76, 77, 78, 79, 80, 81, 82, 83, 84, 85, 86, 87, 88, 89, 90, 91, 92, 93, 94, 95, 96, 97, 98, 99, 100, 101, 102, 103, 104, 105, 106, 107, 108, 109, 110, 111, 112, 113, 114, 115, 116, 117, 118, 119, 120, 121, 122, 123, 124, 125, 126, 127, 128, 129, 130, 131, 132, 133, 134, 135, 136, 137, 138, 139, 140, 141, 142, 143, 144, 145, 146, 147, 148, 149, 150, 151, 152, 153, 154, 155, 156, 157, 158, 159, 160, 161, 162, 163, 164, 165, 166, 167, 168, 169, 170, 171, 172, 173, 174, 175, 176, 177, 178, 179, 180, 181, 182, 183, 184, 185, 186, 187, 188, 189, 190],
      "AcquisitionTime": ["162216.872500", "162218.362500", "162219.852500", "162221.342500", "162222.832500", "162224.322500", "162225.812500", "162227.302500", "162228.792500", "162230.282500", "162231.772500", "162233.262500", "162234.752500", "162236.242500", "162237.732500", "162239.222500", "162240.712500", "162242.202500", "162243.692500", "162245.182500", "162246.672500", "162248.162500", "162249.652500", "162251.142500", "162252.632500", "162254.122500", "162255.612500", "162257.102500", "162258.592500", "162300.082500", "162301.572500", "162303.062500", "162304.552500", "162306.042500", "162307.532500", "162309.022500", "162310.512500", "162312.002500", "162313.492500", "162314.982500", "162316.472500", "162317.962500", "162319.452500", "162320.942500", "162322.432500", "162323.922500", "162325.412500", "162326.902500", "162328.392500", "162329.882500", "162331.372500", "162332.862500", "162334.352500", "162335.842500", "162337.332500", "162338.822500", "162340.312500", "162341.802500", "162343.292500", "162344.782500", "162346.272500", "162347.762500", "162349.252500", "162350.742500", "162352.232500", "162353.722500", "162355.212500", "162356.702500", "162358.192500", "162359.682500", "162401.172500", "162402.662500", "162404.152500", "162405.642500", "162407.132500", "162408.622500", "162410.112500", "162411.602500", "162413.092500", "162414.582500", "162416.072500", "162417.562500", "162419.052500", "162420.542500", "162422.032500", "162423.522500", "162425.012500", "162426.502500", "162427.992500", "162429.482500", "162430.972500", "162432.462500", "162433.952500", "162435.442500", "162436.932500", "162438.422500", "162439.912500", "162441.402500", "162442.892500", "162444.382500", "162445.872500", "162447.362500", "162448.852500", "162450.342500", "162451.832500", "162453.322500", "162454.812500", "162456.302500", "162457.792500", "162459.282500", "162500.772500", "162502.262500", "162503.752500", "162505.242500", "162506.732500", "162508.222500", "162509.712500", "162511.202500", "162512.692500", "162514.182500", "162515.672500", "162517.162500", "162518.652500", "162520.142500", "162521.632500", "162523.122500", "162524.612500", "162526.102500", "162527.592500", "162529.082500", "162530.572500", "162532.062500", "162533.552500", "162535.042500", "162536.532500", "162538.022500", "162539.512500", "162541.002500", "162542.492500", "162543.982500", "162545.472500", "162546.962500", "162548.452500", "162549.942500", "162551.432500", "162552.922500", "162554.412500", "162555.902500", "162557.392500", "162558.882500", "162600.372500", "162601.862500", "162603.352500", "162604.842500", "162606.332500", "162607.822500", "162609.312500", "162610.802500", "162612.292500", "162613.782500", "162615.272500", "162616.762500", "162618.252500", "162619.742500", "162621.232500", "162622.722500", "162624.212500", "162625.702500", "162627.192500", "162628.682500", "162630.172500", "162631.662500", "162633.152500", "162634.642500", "162636.132500", "162637.622500", "162639.112500", "162640.602500", "162642.092500", "162643.582500", "162645.072500", "162646.562500", "162648.052500", "162649.542500", "162651.032500", "162652.522500", "162654.012500", "162655.502500", "162656.992500", "162658.482500"],
      "ContentTime": ["162331.702000", "162331.705000", "162331.708000", "162331.711000", "162331.713000", "162331.716000", "162331.718000", "162331.721000", "162331.723000", "162331.726000", "162331.728000", "162331.731000", "162331.734000", "162331.736000", "162331.739000", "162331.741000", "162331.744000", "162331.746000", "162331.749000", "162331.751000", "162351.711000", "162351.714000", "162351.717000", "162351.719000", "162351.722000", "162351.725000", "162351.727000", "162351.730000", "162351.732000", "162351.735000", "162351.737000", "162351.740000", "162351.742000", "162351.745000", "162351.748000", "162351.750000", "162351.753000", "162351.755000", "162351.758000", "162351.760000", "162411.711000", "162411.714000", "162411.716000", "162411.719000", "162411.722000", "162411.725000", "162411.728000", "162411.730000", "162411.733000", "162411.735000", "162411.738000", "162411.740000", "162411.743000", "162411.746000", "162411.748000", "162411.751000", "162411.753000", "162411.756000", "162411.759000", "162411.762000", "162431.693000", "162431.696000", "162431.699000", "162431.701000", "162431.704000", "162431.706000", "162431.709000", "162431.712000", "162431.714000", "162431.717000", "162431.719000", "162431.722000", "162431.724000", "162431.727000", "162431.730000", "162431.732000", "162431.735000", "162431.737000", "162431.740000", "162431.743000", "162451.720000", "162451.723000", "162451.733000", "162451.736000", "162451.738000", "162451.741000", "162451.744000", "162451.746000", "162451.749000", "162451.751000", "162451.754000", "162451.757000", "162451.759000", "162451.762000", "162451.764000", "162451.767000", "162451.769000", "162451.772000", "162451.775000", "162451.777000", "162531.740000", "162531.743000", "162531.746000", "162531.748000", "162531.751000", "162531.753000", "162531.756000", "162531.759000", "162531.761000", "162531.764000", "162531.766000", "162531.811000", "162531.826000", "162531.828000", "162531.831000", "162531.834000", "162531.836000", "162531.839000", "162531.841000", "162531.844000", "162531.846000", "162531.849000", "162531.851000", "162531.854000", "162531.856000", "162531.859000", "162531.862000", "162531.864000", "162531.867000", "162531.869000", "162611.736000", "162611.739000", "162611.742000", "162611.744000", "162611.747000", "162611.749000", "162611.752000", "162611.754000", "162611.757000", "162611.759000", "162611.762000", "162611.764000", "162611.767000", "162611.770000", "162611.772000", "162611.775000", "162611.777000", "162611.780000", "162611.782000", "162611.785000", "162611.787000", "162611.790000", "162611.793000", "162611.795000", "162611.798000", "162611.800000", "162611.803000", "162651.722000", "162651.725000", "162651.727000", "162651.730000", "162651.742000", "162651.744000", "162651.747000", "162651.749000", "162651.752000", "162651.754000", "162651.757000", "162651.760000", "162651.762000", "162651.765000", "162651.767000", "162651.837000", "162651.840000", "162651.842000", "162651.845000", "162651.847000", "162651.850000", "162651.852000", "162651.855000", "162651.857000", "162651.860000", "162651.862000", "162651.865000", "162700.375000", "162700.378000", "162700.380000", "162700.383000", "162700.386000", "162700.388000"],
      "InstanceCreationTime": ["162331.702000", "162331.705000", "162331.708000", "162331.711000", "162331.713000", "162331.716000", "162331.718000", "162331.721000", "162331.723000", "162331.726000", "162331.728000", "162331.731000", "162331.734000", "162331.736000", "162331.739000", "162331.741000", "162331.744000", "162331.746000", "162331.749000", "162331.751000", "162351.711000", "162351.714000", "162351.717000", "162351.719000", "162351.722000", "162351.725000", "162351.727000", "162351.730000", "162351.732000", "162351.735000", "162351.737000", "162351.740000", "162351.742000", "162351.745000", "162351.748000", "162351.750000", "162351.753000", "162351.755000", "162351.758000", "162351.760000", "162411.711000", "162411.714000", "162411.716000", "162411.719000", "162411.722000", "162411.725000", "162411.728000", "162411.730000", "162411.733000", "162411.735000", "162411.738000", "162411.740000", "162411.743000", "162411.746000", "162411.748000", "162411.751000", "162411.753000", "162411.756000", "162411.759000", "162411.762000", "162431.693000", "162431.696000", "162431.699000", "162431.701000", "162431.704000", "162431.706000", "162431.709000", "162431.712000", "162431.714000", "162431.717000", "162431.719000", "162431.722000", "162431.724000", "162431.727000", "162431.730000", "162431.732000", "162431.735000", "162431.737000", "162431.740000", "162431.743000", "162451.720000", "162451.723000", "162451.733000", "162451.736000", "162451.738000", "162451.741000", "162451.744000", "162451.746000", "162451.749000", "162451.751000", "162451.754000", "162451.757000", "162451.759000", "162451.762000", "162451.764000", "162451.767000", "162451.769000", "162451.772000", "162451.775000", "162451.777000", "162531.740000", "162531.743000", "162531.746000", "162531.748000", "162531.751000", "162531.753000", "162531.756000", "162531.759000", "162531.761000", "162531.764000", "162531.766000", "162531.811000", "162531.826000", "162531.828000", "162531.831000", "162531.834000", "162531.836000", "162531.839000", "162531.841000", "162531.844000", "162531.846000", "162531.849000", "162531.851000", "162531.854000", "162531.856000", "162531.859000", "162531.862000", "162531.864000", "162531.867000", "162531.869000", "162611.736000", "162611.739000", "162611.742000", "162611.744000", "162611.747000", "162611.749000", "162611.752000", "162611.754000", "162611.757000", "162611.759000", "162611.762000", "162611.764000", "162611.767000", "162611.770000", "162611.772000", "162611.775000", "162611.777000", "162611.780000", "162611.782000", "162611.785000", "162611.787000", "162611.790000", "162611.793000", "162611.795000", "162611.798000", "162611.800000", "162611.803000", "162651.722000", "162651.725000", "162651.727000", "162651.730000", "162651.742000", "162651.744000", "162651.747000", "162651.749000", "162651.752000", "162651.754000", "162651.757000", "162651.760000", "162651.762000", "162651.765000", "162651.767000", "162651.837000", "162651.840000", "162651.842000", "162651.845000", "162651.847000", "162651.850000", "162651.852000", "162651.855000", "162651.857000", "162651.860000", "162651.862000", "162651.865000", "162700.375000", "162700.378000", "162700.380000", "162700.383000", "162700.386000", "162700.388000"],
      "InstanceNumber": [1, 2, 3, 4, 5, 6, 7, 8, 9, 10, 11, 12, 13, 14, 15, 16, 17, 18, 19, 20, 21, 22, 23, 24, 25, 26, 27, 28, 29, 30, 31, 32, 33, 34, 35, 36, 37, 38, 39, 40, 41, 42, 43, 44, 45, 46, 47, 48, 49, 50, 51, 52, 53, 54, 55, 56, 57, 58, 59, 60, 61, 62, 63, 64, 65, 66, 67, 68, 69, 70, 71, 72, 73, 74, 75, 76, 77, 78, 79, 80, 81, 82, 83, 84, 85, 86, 87, 88, 89, 90, 91, 92, 93, 94, 95, 96, 97, 98, 99, 100, 101, 102, 103, 104, 105, 106, 107, 108, 109, 110, 111, 112, 113, 114, 115, 116, 117, 118, 119, 120, 121, 122, 123, 124, 125, 126, 127, 128, 129, 130, 131, 132, 133, 134, 135, 136, 137, 138, 139, 140, 141, 142, 143, 144, 145, 146, 147, 148, 149, 150, 151, 152, 153, 154, 155, 156, 157, 158, 159, 160, 161, 162, 163, 164, 165, 166, 167, 168, 169, 170, 171, 172, 173, 174, 175, 176, 177, 178, 179, 180, 181, 182, 183, 184, 185, 186, 187, 188, 189, 190],
      "WindowCenter": [4808.0, 4818.0, 4822.0, 4822.0, 4806.0, 4774.0, 4772.0, 4774.0, 4778.0, 4784.0, 4816.0, 4816.0, 4792.0, 4820.0, 4820.0, 4810.0, 4838.0, 4874.0, 4838.0, 4774.0, 4812.0, 4820.0, 4814.0, 4816.0, 4820.0, 4818.0, 4806.0, 4806.0, 4802.0, 4776.0, 4772.0, 4772.0, 4776.0, 4806.0, 4820.0, 4824.0, 4824.0, 4824.0, 4804.0, 4780.0, 4778.0, 4778.0, 4804.0, 4808.0, 4820.0, 4794.0, 4816.0, 4808.0, 4780.0, 4778.0, 4778.0, 4800.0, 4810.0, 4816.0, 4816.0, 4822.0, 4816.0, 4816.0, 4804.0, 4776.0, 4774.0, 4774.0, 4780.0, 4780.0, 4814.0, 4822.0, 4822.0, 4816.0, 4810.0, 4780.0, 4782.0, 4780.0, 4776.0, 4786.0, 4822.0, 4816.0, 4808.0, 4806.0, 4782.0, 4804.0, 4802.0, 4786.0, 4816.0, 4818.0, 4808.0, 4808.0, 4808.0, 4804.0, 4806.0, 4816.0, 4822.0, 4810.0, 4778.0, 4780.0, 4778.0, 4804.0, 4818.0, 4814.0, 4812.0, 4810.0, 4816.0, 4814.0, 4806.0, 4804.0, 4818.0, 4816.0, 4804.0, 4800.0, 4782.0, 4808.0, 4820.0, 4814.0, 4812.0, 4812.0, 4804.0, 4780.0, 4810.0, 4816.0, 4812.0, 4810.0, 4808.0, 4808.0, 4808.0, 4818.0, 4820.0, 4816.0, 4806.0, 4776.0, 4776.0, 4778.0, 4806.0, 4816.0, 4816.0, 4816.0, 4812.0, 4820.0, 4814.0, 4804.0, 4780.0, 4778.0, 4780.0, 4806.0, 4812.0, 4822.0, 4820.0, 4820.0, 4810.0, 4780.0, 4778.0, 4804.0, 4808.0, 4812.0, 4810.0, 4808.0, 4812.0, 4784.0, 4816.0, 4822.0, 4818.0, 4808.0, 4776.0, 4776.0, 4778.0, 4782.0, 4808.0, 4812.0, 4820.0, 4820.0, 4842.0, 4810.0, 4818.0, 4816.0, 4784.0, 4778.0, 4778.0, 4772.0, 4812.0, 4810.0, 4812.0, 4816.0, 4820.0, 4818.0, 4808.0, 4780.0, 4780.0, 4800.0, 4802.0, 4814.0, 4818.0, 4822.0],
      "WindowWidth": [18610.0, 18618.0, 18596.0, 18628.0, 18610.0, 18568.0, 18566.0, 18566.0, 18568.0, 18574.0, 18620.0, 18592.0, 18552.0, 18604.0, 18626.0, 18626.0, 18638.0, 18684.0, 18642.0, 18568.0, 18618.0, 18616.0, 18598.0, 18602.0, 18614.0, 18624.0, 18608.0, 18612.0, 18610.0, 18566.0, 18568.0, 18566.0, 18568.0, 18610.0, 18618.0, 18590.0, 18598.0, 18622.0, 18606.0, 18570.0, 18570.0, 18566.0, 18598.0, 18610.0, 18604.0, 18564.0, 18622.0, 18616.0, 18572.0, 18566.0, 18568.0, 18604.0, 18612.0, 18622.0, 18624.0, 18616.0, 18592.0, 18626.0, 18608.0, 18564.0, 18566.0, 18564.0, 18574.0, 18574.0, 18620.0, 18620.0, 18622.0, 18624.0, 18612.0, 18570.0, 18576.0, 18570.0, 18566.0, 18578.0, 18626.0, 18626.0, 18604.0, 18606.0, 18574.0, 18602.0, 18604.0, 18578.0, 18616.0, 18626.0, 18610.0, 18610.0, 18604.0, 18604.0, 18604.0, 18618.0, 18626.0, 18612.0, 18570.0, 18574.0, 18568.0, 18606.0, 18618.0, 18618.0, 18610.0, 18614.0, 18622.0, 18618.0, 18608.0, 18608.0, 18620.0, 18620.0, 18602.0, 18602.0, 18574.0, 18608.0, 18622.0, 18618.0, 18612.0, 18612.0, 18606.0, 18572.0, 18612.0, 18618.0, 18608.0, 18608.0, 18608.0, 18608.0, 18610.0, 18616.0, 18602.0, 18626.0, 18602.0, 18568.0, 18566.0, 18566.0, 18610.0, 18614.0, 18626.0, 18622.0, 18616.0, 18624.0, 18618.0, 18606.0, 18574.0, 18572.0, 18566.0, 18608.0, 18612.0, 18620.0, 18624.0, 18624.0, 18610.0, 18578.0, 18570.0, 18610.0, 18614.0, 18614.0, 18614.0, 18614.0, 18614.0, 18582.0, 18614.0, 18620.0, 18620.0, 18608.0, 18566.0, 18568.0, 18568.0, 18572.0, 18606.0, 18616.0, 18626.0, 18622.0, 18658.0, 18614.0, 18618.0, 18618.0, 18578.0, 18566.0, 18570.0, 18568.0, 18614.0, 18614.0, 18618.0, 18624.0, 18618.0, 18624.0, 18610.0, 18570.0, 18566.0, 18598.0, 18604.0, 18614.0, 18620.0, 18626.0]
    },
    "slices": {}
  }
}