{
  "AcquisitionMatrixPE": 104,
  "AcquisitionNumber": 1,
  "AcquisitionTime": "16:16:3.087500",
  "BandwidthPerPixelPhaseEncode": 17.17,
  "BaseResolution": 104,
  "BodyPartExamined": "BRAIN",
  "CoilString": "HC1-7;NC1_2",
  "ConsistencyInfo": "N4_VE11C_LATEST_20160120",
  "ConversionSoftware": "dcm2niix",
  "ConversionSoftwareVersion": "v1.0.20190902",
  "DerivedVendorReportedEchoSpacing": 0.000560011,
  "DeviceSerialNumber": "167006",
  "DwellTime": 2.1e-06,
  "EchoTime": 0.037,
  "EchoTrainLength": 104,
  "EffectiveEchoSpacing": 0.000560011,
  "FlipAngle": 52,
  "ImageComments": "Unaliased_MB4_PE3_LB",
  "ImageOrientationPatientDICOM": [0.997896, -0.063562, 0.0127807, 0.064531, 0.954698, -0.290494],
  "ImageType": [
    "ORIGINAL",
    "PRIMARY",
    "M",
    "MB",
    "ND",
    "MOSAIC"
],
  "ImagingFrequency": 123.259,
  "InPlanePhaseEncodingDirectionDICOM": "COL",
  "InstitutionAddress": "Chemin_Queen-Mary_4565_Montreal_District_CA_H3W_1W5",
  "InstitutionName": "IUGM",
  "InstitutionalDepartmentName": "Department",
  "MRAcquisitionType": "2D",
  "MagneticFieldStrength": 3,
  "Manufacturer": "Siemens",
  "ManufacturersModelName": "Prisma_fit",
  "Modality": "MR",
  "MultibandAccelerationFactor": 4,
  "PartialFourier": 1,
  "PatientPosition": "HFS",
  "PercentPhaseFOV": 100,
  "PhaseEncodingDirection": "j",
  "PhaseEncodingSteps": 104,
  "PhaseResolution": 1,
  "PixelBandwidth": 2290,
  "ProcedureStepDescription": "memory_things",
  "ProtocolName": "func_task-things_run-5",
  "PulseSequenceDetails": "%CustomerSeq%_cmrr_mbep2d_bold",
  "ReceiveCoilActiveElements": "HC1-7;NC1,2",
  "ReceiveCoilName": "HeadNeck_64",
  "ReconMatrixPE": 104,
  "RepetitionTime": 1.49,
  "SAR": 0.0474541,
  "ScanOptions": "FS",
  "ScanningSequence": "EP",
  "SequenceName": "epfid2d1_104",
  "SequenceVariant": "SK_SS",
  "SeriesDescription": "func_task-things_run-5",
  "SeriesNumber": 30,
  "ShimSetting": [630, -7265, -8819, 592, 15, -217, -13, -25],
  "SliceThickness": 2,
  "SliceTiming": [0, 0.7825, 0.0975, 0.88, 0.195, 0.98, 0.2925, 1.0775, 0.39, 1.175, 0.49, 1.2725, 0.5875, 1.37, 0.685, 0, 0.7825, 0.0975, 0.88, 0.195, 0.98, 0.2925, 1.0775, 0.39, 1.175, 0.49, 1.2725, 0.5875, 1.37, 0.685, 0, 0.7825, 0.0975, 0.88, 0.195, 0.98, 0.2925, 1.0775, 0.39, 1.175, 0.49, 1.2725, 0.5875, 1.37, 0.685, 0, 0.7825, 0.0975, 0.88, 0.195, 0.98, 0.2925, 1.0775, 0.39, 1.175, 0.49, 1.2725, 0.5875, 1.37, 0.685],
  "SoftwareVersions": "syngo_MR_E11",
  "SpacingBetweenSlices": 2,
  "StationName": "MRC35049",
  "TaskName": "things",
  "TotalReadoutTime": 0.0576811,
  "TxRefAmp": 249.264,
  "WipMemBlock": "1f07b16c-fda6-4460-abc6-ed67348b80f2||Sequence: R016 ve11c/master r/e634e98; Dec 19 2017 11:00:25 by eja",
  "dcmmeta_affine": [
    [-1.9957921504974365, 0.12906204164028168, -0.012525390833616257, 101.6309585571289],
    [0.12712399661540985, 1.9093966484069824, -0.5814155340194702, -74.84011840820312],
    [0.025561368092894554, 0.5809884071350098, 1.9135828018188477, -61.4794921875],
    [0.0, 0.0, 0.0, 1.0]
],
  "dcmmeta_reorient_transform": [
    [0.0, -1.0, 0.0, 103.0],
    [1.0, 0.0, 0.0, 0.0],
    [0.0, 0.0, 1.0, 0.0],
    [0.0, 0.0, 0.0, 1.0]
],
  "dcmmeta_shape": [104, 104, 60, 190],
  "dcmmeta_slice_dim": 2,
  "dcmmeta_version": 0.6,
  "global": {
    "const": {
      "AcquisitionMatrix": [104, 0, 0, 104],
      "AngioFlag": "N",
      "BitsAllocated": 16,
      "BitsStored": 16,
      "BodyPartExamined": "BRAIN",
      "Columns": 832,
      "EchoNumbers": 1,
      "EchoTime": 37.0,
      "EchoTrainLength": 104,
      "FlipAngle": 52.0,
      "HighBit": 15,
      "ImageOrientationPatient": [0.99789604990903, -0.0635619988666, 0.01278068370767, 0.06453101753785, 0.95469831060201, -0.2904942056379],
      "ImagePositionPatient": [-888.37125304198, -770.57497038483, 200.53775659973],
      "ImageType": [
        "ORIGINAL",
        "PRIMARY",
        "M",
        "MB",
        "ND",
        "MOSAIC"
],
      "ImagedNucleus": "1H",
      "ImagingFrequency": 123.259161,
      "InPlanePhaseEncodingDirection": "COL",
      "MRAcquisitionType": "2D",
      "MagneticFieldStrength": 3.0,
      "Manufacturer": "SIEMENS",
      "ManufacturerModelName": "Prisma_fit",
      "Modality": "MR",
      "NumberOfAverages": 1.0,
      "NumberOfPhaseEncodingSteps": 104,
      "PercentPhaseFieldOfView": 100.0,
      "PercentSampling": 100.0,
      "PerformedProcedureStepStartTime": "145010.721000",
      "PhotometricInterpretation": "MONOCHROME2",
      "PixelBandwidth": 2290.0,
      "PixelRepresentation": 0,
      "PixelSpacing": [2.0, 2.0],
      "ProtocolName": "func_task-things_run-5",
      "RepetitionTime": 1490.0,
      "Rows": 832,
      "SAR": 0.04745414699681,
      "SamplesPerPixel": 1,
      "ScanOptions": "FS",
      "ScanningSequence": "EP",
      "SequenceName": "epfid2d1_104",
      "SequenceVariant": [
        "SK",
        "SS"
],
      "SeriesDescription": "func_task-things_run-5",
      "SeriesNumber": 30,
      "SeriesTime": "161729.831000",
      "SliceLocation": -37.702930739776,
      "SliceThickness": 2.0,
      "SmallestImagePixelValue": 0,
      "SoftwareVersions": "syngo MR E11",
      "SpacingBetweenSlices": 2.0000000269489,
      "SpecificCharacterSet": "ISO_IR 100",
      "StudyID": "1",
      "StudyTime": "145010.667000",
      "TransmitCoilName": "Body",
      "VariableFlipAngleFlag": "N",
      "WindowCenterWidthExplanation": "Algo1",
      "dBdt": 0.0},
    "slices": {}
  },
  "time": {
    "samples": {
      "AcquisitionNumber": [1, 2, 3, 4, 5, 6, 7, 8, 9, 10, 11, 12, 13, 14, 15, 16, 17, 18, 19, 20, 21, 22, 23, 24, 25, 26, 27, 28, 29, 30, 31, 32, 33, 34, 35, 36, 37, 38, 39, 40, 41, 42, 43, 44, 45, 46, 47, 48, 49, 50, 51, 52, 53, 54, 55, 56, 57, 58, 59, 60, 61, 62, 63, 64, 65, 66, 67, 68, 69, 70, 71, 72, 73, 74, 75, 76, 77, 78, 79, 80, 81, 82, 83, 84, 85, 86, 87, 88, 89, 90, 91, 92, 93, 94, 95, 96, 97, 98, 99, 100, 101, 102, 103, 104, 105, 106, 107, 108, 109, 110, 111, 112, 113, 114, 115, 116, 117, 118, 119, 120, 121, 122, 123, 124, 125, 126, 127, 128, 129, 130, 131, 132, 133, 134, 135, 136, 137, 138, 139, 140, 141, 142, 143, 144, 145, 146, 147, 148, 149, 150, 151, 152, 153, 154, 155, 156, 157, 158, 159, 160, 161, 162, 163, 164, 165, 166, 167, 168, 169, 170, 171, 172, 173, 174, 175, 176, 177, 178, 179, 180, 181, 182, 183, 184, 185, 186, 187, 188, 189, 190],
      "AcquisitionTime": ["161603.087500", "161604.577500", "161606.067500", "161607.557500", "161609.047500", "161610.537500", "161612.027500", "161613.517500", "161615.007500", "161616.497500", "161617.987500", "161619.477500", "161620.967500", "161622.457500", "161623.947500", "161625.437500", "161626.927500", "161628.417500", "161629.907500", "161631.397500", "161632.887500", "161634.377500", "161635.867500", "161637.357500", "161638.847500", "161640.337500", "161641.827500", "161643.317500", "161644.807500", "161646.297500", "161647.787500", "161649.277500", "161650.767500", "161652.257500", "161653.747500", "161655.237500", "161656.727500", "161658.217500", "161659.707500", "161701.197500", "161702.687500", "161704.177500", "161705.667500", "161707.157500", "161708.647500", "161710.137500", "161711.627500", "161713.117500", "161714.607500", "161716.097500", "161717.587500", "161719.077500", "161720.567500", "161722.057500", "161723.547500", "161725.037500", "161726.527500", "161728.017500", "161729.507500", "161730.997500", "161732.487500", "161733.977500", "161735.467500", "161736.957500", "161738.447500", "161739.937500", "161741.427500", "161742.917500", "161744.407500", "161745.897500", "161747.387500", "161748.877500", "161750.367500", "161751.857500", "161753.347500", "161754.837500", "161756.327500", "161757.817500", "161759.307500", "161800.797500", "161802.287500", "161803.777500", "161805.267500", "161806.757500", "161808.247500", "161809.737500", "161811.227500", "161812.717500", "161814.207500", "161815.697500", "161817.187500", "161818.677500", "161820.167500", "161821.657500", "161823.147500", "161824.637500", "161826.127500", "161827.617500", "161829.107500", "161830.597500", "161832.087500", "161833.577500", "161835.067500", "161836.557500", "161838.047500", "161839.537500", "161841.027500", "161842.517500", "161844.007500", "161845.497500", "161846.987500", "161848.477500", "161849.967500", "161851.457500", "161852.947500", "161854.437500", "161855.927500", "161857.417500", "161858.907500", "161900.397500", "161901.887500", "161903.377500", "161904.867500", "161906.357500", "161907.847500", "161909.337500", "161910.827500", "161912.317500", "161913.807500", "161915.297500", "161916.787500", "161918.277500", "161919.767500", "161921.257500", "161922.747500", "161924.237500", "161925.727500", "161927.217500", "161928.707500", "161930.197500", "161931.687500", "161933.177500", "161934.667500", "161936.157500", "161937.647500", "161939.137500", "161940.627500", "161942.117500", "161943.607500", "161945.097500", "161946.587500", "161948.077500", "161949.567500", "161951.057500", "161952.547500", "161954.037500", "161955.527500", "161957.017500", "161958.507500", "161959.997500", "162001.487500", "162002.977500", "162004.467500", "162005.957500", "162007.447500", "162008.937500", "162010.427500", "162011.917500", "162013.407500", "162014.897500", "162016.387500", "162017.877500", "162019.367500", "162020.857500", "162022.347500", "162023.837500", "162025.327500", "162026.817500", "162028.307500", "162029.797500", "162031.287500", "162032.777500", "162034.267500", "162035.757500", "162037.247500", "162038.737500", "162040.227500", "162041.717500", "162043.207500", "162044.697500"],
      "ContentTime": ["161729.834000", "161729.838000", "161729.842000", "161729.845000", "161729.848000", "161729.852000", "161729.855000", "161729.858000", "161729.862000", "161729.865000", "161729.868000", "161729.872000", "161729.875000", "161729.878000", "161729.882000", "161729.885000", "161729.894000", "161729.898000", "161729.901000", "161729.904000", "161729.908000", "161729.911000", "161729.915000", "161729.918000", "161729.921000", "161729.924000", "161729.928000", "161729.931000", "161729.934000", "161729.938000", "161729.941000", "161729.945000", "161749.801000", "161749.805000", "161749.808000", "161749.812000", "161749.815000", "161749.818000", "161749.822000", "161749.825000", "161749.828000", "161749.832000", "161749.835000", "161749.838000", "161749.842000", "161749.845000", "161749.849000", "161749.852000", "161749.855000", "161749.859000", "161749.862000", "161749.865000", "161809.801000", "161809.805000", "161809.808000", "161809.812000", "161809.815000", "161809.819000", "161809.822000", "161809.825000", "161809.829000", "161809.832000", "161809.835000", "161809.839000", "161809.842000", "161809.845000", "161809.849000", "161809.852000", "161809.855000", "161809.859000", "161809.862000", "161809.865000", "161829.801000", "161829.805000", "161829.808000", "161829.811000", "161829.815000", "161829.826000", "161829.830000", "161829.833000", "161829.836000", "161829.840000", "161829.843000", "161829.846000", "161829.850000", "161829.853000", "161829.857000", "161829.860000", "161829.869000", "161829.872000", "161829.876000", "161829.879000", "161909.801000", "161909.805000", "161909.809000", "161909.812000", "161909.816000", "161909.819000", "161909.823000", "161909.826000", "161909.829000", "161909.833000", "161909.836000", "161909.839000", "161909.843000", "161909.846000", "161909.849000", "161909.853000", "161909.856000", "161909.859000", "161909.863000", "161909.866000", "161909.869000", "161909.873000", "161909.876000", "161909.879000", "161909.883000", "161909.886000", "161909.889000", "161909.893000", "161909.896000", "161909.900000", "161909.903000", "161909.906000", "161949.801000", "161949.805000", "161949.808000", "161949.812000", "161949.815000", "161949.819000", "161949.822000", "161949.825000", "161949.829000", "161949.832000", "161949.835000", "161949.839000", "161949.842000", "161949.845000", "161949.849000", "161949.852000", "161949.855000", "161949.859000", "161949.862000", "161949.865000", "161949.869000", "161949.872000", "161949.875000", "161949.879000", "161949.882000", "161949.885000", "161949.889000", "162029.801000", "162029.805000", "162029.808000", "162029.812000", "162029.815000", "162029.818000", "162029.822000", "162029.825000", "162029.828000", "162029.832000", "162029.835000", "162029.838000", "162029.842000", "162029.845000", "162029.849000", "162029.852000", "162029.855000", "162029.859000", "162029.862000", "162029.865000", "162029.869000", "162029.872000", "162029.875000", "162029.879000", "162029.882000", "162029.885000", "162029.889000", "162047.291000", "162047.295000", "162047.298000", "162047.302000", "162047.305000", "162047.309000", "162047.312000", "162047.315000", "162047.319000", "162047.322000", "162047.326000", "162047.329000"],
      "InstanceCreationTime": ["161729.834000", "161729.838000", "161729.842000", "161729.845000", "161729.848000", "161729.852000", "161729.855000", "161729.858000", "161729.862000", "161729.865000", "161729.868000", "161729.872000", "161729.875000", "161729.878000", "161729.882000", "161729.885000", "161729.894000", "161729.898000", "161729.901000", "161729.904000", "161729.908000", "161729.911000", "161729.915000", "161729.918000", "161729.921000", "161729.924000", "161729.928000", "161729.931000", "161729.934000", "161729.938000", "161729.941000", "161729.945000", "161749.801000", "161749.805000", "161749.808000", "161749.812000", "161749.815000", "161749.818000", "161749.822000", "161749.825000", "161749.828000", "161749.832000", "161749.835000", "161749.838000", "161749.842000", "161749.845000", "161749.849000", "161749.852000", "161749.855000", "161749.859000", "161749.862000", "161749.865000", "161809.801000", "161809.805000", "161809.808000", "161809.812000", "161809.815000", "161809.819000", "161809.822000", "161809.825000", "161809.829000", "161809.832000", "161809.835000", "161809.839000", "161809.842000", "161809.845000", "161809.849000", "161809.852000", "161809.855000", "161809.859000", "161809.862000", "161809.865000", "161829.801000", "161829.805000", "161829.808000", "161829.811000", "161829.815000", "161829.826000", "161829.830000", "161829.833000", "161829.836000", "161829.840000", "161829.843000", "161829.846000", "161829.850000", "161829.853000", "161829.857000", "161829.860000", "161829.869000", "161829.872000", "161829.876000", "161829.879000", "161909.801000", "161909.805000", "161909.809000", "161909.812000", "161909.816000", "161909.819000", "161909.823000", "161909.826000", "161909.829000", "161909.833000", "161909.836000", "161909.839000", "161909.843000", "161909.846000", "161909.849000", "161909.853000", "161909.856000", "161909.859000", "161909.863000", "161909.866000", "161909.869000", "161909.873000", "161909.876000", "161909.879000", "161909.883000", "161909.886000", "161909.889000", "161909.893000", "161909.896000", "161909.900000", "161909.903000", "161909.906000", "161949.801000", "161949.805000", "161949.808000", "161949.812000", "161949.815000", "161949.819000", "161949.822000", "161949.825000", "161949.829000", "161949.832000", "161949.835000", "161949.839000", "161949.842000", "161949.845000", "161949.849000", "161949.852000", "161949.855000", "161949.859000", "161949.862000", "161949.865000", "161949.869000", "161949.872000", "161949.875000", "161949.879000", "161949.882000", "161949.885000", "161949.889000", "162029.801000", "162029.805000", "162029.808000", "162029.812000", "162029.815000", "162029.818000", "162029.822000", "162029.825000", "162029.828000", "162029.832000", "162029.835000", "162029.838000", "162029.842000", "162029.845000", "162029.849000", "162029.852000", "162029.855000", "162029.859000", "162029.862000", "162029.865000", "162029.869000", "162029.872000", "162029.875000", "162029.879000", "162029.882000", "162029.885000", "162029.889000", "162047.291000", "162047.295000", "162047.298000", "162047.302000", "162047.305000", "162047.309000", "162047.312000", "162047.315000", "162047.319000", "162047.322000", "162047.326000", "162047.329000"],
      "InstanceNumber": [1, 2, 3, 4, 5, 6, 7, 8, 9, 10, 11, 12, 13, 14, 15, 16, 17, 18, 19, 20, 21, 22, 23, 24, 25, 26, 27, 28, 29, 30, 31, 32, 33, 34, 35, 36, 37, 38, 39, 40, 41, 42, 43, 44, 45, 46, 47, 48, 49, 50, 51, 52, 53, 54, 55, 56, 57, 58, 59, 60, 61, 62, 63, 64, 65, 66, 67, 68, 69, 70, 71, 72, 73, 74, 75, 76, 77, 78, 79, 80, 81, 82, 83, 84, 85, 86, 87, 88, 89, 90, 91, 92, 93, 94, 95, 96, 97, 98, 99, 100, 101, 102, 103, 104, 105, 106, 107, 108, 109, 110, 111, 112, 113, 114, 115, 116, 117, 118, 119, 120, 121, 122, 123, 124, 125, 126, 127, 128, 129, 130, 131, 132, 133, 134, 135, 136, 137, 138, 139, 140, 141, 142, 143, 144, 145, 146, 147, 148, 149, 150, 151, 152, 153, 154, 155, 156, 157, 158, 159, 160, 161, 162, 163, 164, 165, 166, 167, 168, 169, 170, 171, 172, 173, 174, 175, 176, 177, 178, 179, 180, 181, 182, 183, 184, 185, 186, 187, 188, 189, 190],
      "LargestImagePixelValue": [44658, 44346, 42429, 43077, 42867, 42479, 42854, 41857, 41692, 41126, 41661, 41842, 42220, 42158, 41855, 42504, 41224, 41834, 42619, 41375, 40707, 42068, 41962, 41608, 41186, 41244, 41495, 40933, 41968, 41659, 41764, 41931, 41558, 40578, 42175, 42345, 41463, 41321, 40683, 41864, 41644, 40591, 41655, 41552, 41861, 41573, 41490, 41840, 41839, 41431, 40962, 41239, 41845, 41521, 40446, 41984, 42077, 42002, 41878, 41581, 41108, 40228, 41543, 41831, 41299, 40759, 40063, 41763, 41986, 41592, 41037, 40839, 40672, 40343, 40594, 42036, 41485, 41495, 41420, 41374, 41285, 40521, 41041, 40874, 39596, 41798, 42268, 41389, 41289, 41258, 40714, 40538, 41540, 40557, 40864, 40872, 41533, 40919, 40773, 41996, 41485, 41278, 40739, 39729, 40989, 40500, 40191, 40455, 41095, 40966, 41245, 41641, 41169, 41529, 40891, 40276, 40901, 40481, 40714, 40267, 41805, 42259, 40901, 41725, 40661, 40868, 41013, 40770, 40735, 41128, 40312, 41327, 41464, 40661, 40925, 40641, 39472, 41658, 41161, 41267, 40756, 40758, 41007, 40369, 40814, 40979, 40853, 41263, 40904, 41033, 41195, 40746, 41108, 40403, 40137, 40480, 39842, 40964, 41087, 39913, 41314, 41658, 40394, 40193, 41640, 42067, 41664, 41362, 41380, 41819, 41598, 41728, 41849, 41149, 41171, 41428, 41415, 41074, 40892, 42590, 42584, 41979, 41506, 41027, 41272, 40351, 40797, 40558, 38946, 40127],
      "WindowCenter": [10379.0, 10347.0, 10337.0, 10350.0, 10339.0, 10318.0, 10312.0, 10299.0, 10299.0, 10299.0, 10301.0, 10298.0, 10283.0, 10281.0, 10279.0, 10280.0, 10285.0, 10299.0, 10338.0, 10303.0, 10289.0, 10297.0, 10316.0, 10309.0, 10303.0, 10293.0, 10292.0, 10277.0, 10285.0, 10261.0, 10260.0, 10279.0, 10282.0, 10270.0, 10295.0, 10304.0, 10318.0, 10284.0, 10282.0, 10311.0, 10297.0, 10280.0, 10286.0, 10283.0, 10262.0, 10256.0, 10292.0, 10253.0, 10275.0, 10276.0, 10254.0, 10239.0, 10268.0, 10288.0, 10271.0, 10288.0, 10290.0, 10287.0, 10322.0, 10308.0, 10277.0, 10254.0, 10263.0, 10306.0, 10265.0, 10255.0, 10251.0, 10271.0, 10289.0, 10283.0, 10279.0, 10278.0, 10255.0, 10258.0, 10259.0, 10281.0, 10285.0, 10277.0, 10263.0, 10276.0, 10282.0, 10289.0, 10295.0, 10289.0, 10278.0, 10296.0, 10324.0, 10303.0, 10285.0, 10277.0, 10266.0, 10292.0, 10288.0, 10239.0, 10246.0, 10248.0, 10270.0, 10298.0, 10282.0, 10320.0, 10311.0, 10305.0, 10282.0, 10297.0, 10285.0, 10294.0, 10293.0, 10277.0, 10266.0, 10274.0, 10270.0, 10310.0, 10289.0, 10303.0, 10269.0, 10276.0, 10289.0, 10291.0, 10297.0, 10307.0, 10327.0, 10351.0, 10316.0, 10295.0, 10292.0, 10298.0, 10297.0, 10291.0, 10293.0, 10281.0, 10266.0, 10288.0, 10285.0, 10268.0, 10280.0, 10256.0, 10272.0, 10329.0, 10295.0, 10263.0, 10266.0, 10250.0, 10272.0, 10276.0, 10251.0, 10258.0, 10257.0, 10259.0, 10270.0, 10266.0, 10281.0, 10294.0, 10275.0, 10258.0, 10272.0, 10280.0, 10271.0, 10289.0, 10284.0, 10254.0, 10282.0, 10305.0, 10288.0, 10275.0, 10279.0, 10286.0, 10310.0, 10302.0, 10292.0, 10307.0, 10250.0, 10256.0, 10281.0, 10249.0, 10216.0, 10211.0, 10220.0, 10227.0, 10228.0, 10275.0, 10298.0, 10279.0, 10270.0, 10265.0, 10271.0, 10262.0, 10267.0, 10252.0, 10244.0, 10271.0],
      "WindowWidth": [22443.0, 22328.0, 22287.0, 22298.0, 22267.0, 22217.0, 22195.0, 22164.0, 22163.0, 22165.0, 22170.0, 22162.0, 22128.0, 22119.0, 22117.0, 22120.0, 22136.0, 22168.0, 22258.0, 22181.0, 22151.0, 22159.0, 22207.0, 22192.0, 22179.0, 22156.0, 22152.0, 22115.0, 22133.0, 22080.0, 22073.0, 22121.0, 22129.0, 22106.0, 22157.0, 22178.0, 22218.0, 22133.0, 22130.0, 22192.0, 22161.0, 22129.0, 22140.0, 22134.0, 22079.0, 22067.0, 22153.0, 22058.0, 22104.0, 22115.0, 22067.0, 22028.0, 22093.0, 22142.0, 22108.0, 22143.0, 22150.0, 22139.0, 22218.0, 22189.0, 22121.0, 22068.0, 22081.0, 22181.0, 22087.0, 22071.0, 22071.0, 22108.0, 22145.0, 22130.0, 22123.0, 22119.0, 22068.0, 22078.0, 22081.0, 22126.0, 22139.0, 22118.0, 22089.0, 22115.0, 22127.0, 22148.0, 22157.0, 22148.0, 22128.0, 22161.0, 22228.0, 22184.0, 22140.0, 22118.0, 22100.0, 22160.0, 22148.0, 22031.0, 22045.0, 22053.0, 22106.0, 22175.0, 22132.0, 22216.0, 22199.0, 22186.0, 22133.0, 22171.0, 22136.0, 22153.0, 22159.0, 22125.0, 22095.0, 22117.0, 22104.0, 22196.0, 22150.0, 22179.0, 22099.0, 22118.0, 22149.0, 22154.0, 22165.0, 22187.0, 22233.0, 22290.0, 22213.0, 22162.0, 22157.0, 22167.0, 22166.0, 22152.0, 22157.0, 22129.0, 22096.0, 22148.0, 22137.0, 22103.0, 22128.0, 22071.0, 22114.0, 22241.0, 22162.0, 22087.0, 22096.0, 22057.0, 22105.0, 22119.0, 22061.0, 22076.0, 22075.0, 22075.0, 22103.0, 22095.0, 22131.0, 22164.0, 22116.0, 22074.0, 22108.0, 22121.0, 22103.0, 22143.0, 22134.0, 22068.0, 22130.0, 22183.0, 22148.0, 22115.0, 22126.0, 22148.0, 22196.0, 22179.0, 22156.0, 22197.0, 22054.0, 22062.0, 22118.0, 22053.0, 21977.0, 21962.0, 21983.0, 22001.0, 22004.0, 22107.0, 22166.0, 22122.0, 22098.0, 22086.0, 22098.0, 22083.0, 22092.0, 22061.0, 22049.0, 22104.0]
    },
    "slices": {}
  }
}