{
  "AcquisitionMatrixPE": 104,
  "AcquisitionNumber": 1,
  "AcquisitionTime": "16:09:44.827500",
  "BandwidthPerPixelPhaseEncode": 17.17,
  "BaseResolution": 104,
  "BodyPartExamined": "BRAIN",
  "CoilString": "HC1-7;NC1_2",
  "ConsistencyInfo": "N4_VE11C_LATEST_20160120",
  "ConversionSoftware": "dcm2niix",
  "ConversionSoftwareVersion": "v1.0.20190902",
  "DerivedVendorReportedEchoSpacing": 0.000560011,
  "DeviceSerialNumber": "167006",
  "DwellTime": 2.1e-06,
  "EchoTime": 0.037,
  "EchoTrainLength": 104,
  "EffectiveEchoSpacing": 0.000560011,
  "FlipAngle": 52,
  "ImageComments": "Unaliased_MB4_PE3_LB",
  "ImageOrientationPatientDICOM": [0.997896, -0.063562, 0.0127807, 0.064531, 0.954698, -0.290494],
  "ImageType": [
    "ORIGINAL",
    "PRIMARY",
    "P",
    "MB",
    "ND",
    "MOSAIC"
],
  "ImagingFrequency": 123.259,
  "InPlanePhaseEncodingDirectionDICOM": "COL",
  "InstitutionAddress": "Chemin_Queen-Mary_4565_Montreal_District_CA_H3W_1W5",
  "InstitutionName": "IUGM",
  "InstitutionalDepartmentName": "Department",
  "MRAcquisitionType": "2D",
  "MagneticFieldStrength": 3,
  "Manufacturer": "Siemens",
  "ManufacturersModelName": "Prisma_fit",
  "Modality": "MR",
  "MultibandAccelerationFactor": 4,
  "PartialFourier": 1,
  "PatientPosition": "HFS",
  "PercentPhaseFOV": 100,
  "PhaseEncodingDirection": "j",
  "PhaseEncodingSteps": 104,
  "PhaseResolution": 1,
  "PixelBandwidth": 2290,
  "ProcedureStepDescription": "memory_things",
  "ProtocolName": "func_task-things_run-4",
  "PulseSequenceDetails": "%CustomerSeq%_cmrr_mbep2d_bold",
  "ReceiveCoilActiveElements": "HC1-7;NC1,2",
  "ReceiveCoilName": "HeadNeck_64",
  "ReconMatrixPE": 104,
  "RepetitionTime": 1.49,
  "SAR": 0.0474541,
  "ScanOptions": "FS",
  "ScanningSequence": "EP",
  "SequenceName": "epfid2d1_104",
  "SequenceVariant": "SK_SS",
  "SeriesDescription": "func_task-things_run-4",
  "SeriesNumber": 28,
  "ShimSetting": [630, -7265, -8819, 592, 15, -217, -13, -25],
  "SliceThickness": 2,
  "SliceTiming": [0, 0.785, 0.0975, 0.8825, 0.195, 0.98, 0.295, 1.0775, 0.3925, 1.175, 0.49, 1.275, 0.5875, 1.3725, 0.685, 0, 0.785, 0.0975, 0.8825, 0.195, 0.98, 0.295, 1.0775, 0.3925, 1.175, 0.49, 1.275, 0.5875, 1.3725, 0.685, 0, 0.785, 0.0975, 0.8825, 0.195, 0.98, 0.295, 1.0775, 0.3925, 1.175, 0.49, 1.275, 0.5875, 1.3725, 0.685, 0, 0.785, 0.0975, 0.8825, 0.195, 0.98, 0.295, 1.0775, 0.3925, 1.175, 0.49, 1.275, 0.5875, 1.3725, 0.685],
  "SoftwareVersions": "syngo_MR_E11",
  "SpacingBetweenSlices": 2,
  "StationName": "MRC35049",
  "TaskName": "things",
  "TotalReadoutTime": 0.0576811,
  "TxRefAmp": 249.264,
  "WipMemBlock": "be379f87-9bdd-42ac-9c41-b88666cdbfc5||Sequence: R016 ve11c/master r/e634e98; Dec 19 2017 11:00:25 by eja",
  "dcmmeta_affine": [
    [-1.9957921504974365, 0.12906204164028168, -0.012525390833616257, 101.6309585571289],
    [0.12712399661540985, 1.9093966484069824, -0.5814155340194702, -74.84011840820312],
    [0.025561368092894554, 0.5809884071350098, 1.9135828018188477, -61.4794921875],
    [0.0, 0.0, 0.0, 1.0]
],
  "dcmmeta_reorient_transform": [
    [0.0, -1.0, 0.0, 103.0],
    [1.0, 0.0, 0.0, 0.0],
    [0.0, 0.0, 1.0, 0.0],
    [0.0, 0.0, 0.0, 1.0]
],
  "dcmmeta_shape": [104, 104, 60, 190],
  "dcmmeta_slice_dim": 2,
  "dcmmeta_version": 0.6,
  "global": {
    "const": {
      "AcquisitionMatrix": [104, 0, 0, 104],
      "AngioFlag": "N",
      "BitsAllocated": 16,
      "BitsStored": 16,
      "BodyPartExamined": "BRAIN",
      "Columns": 832,
      "EchoNumbers": 1,
      "EchoTime": 37.0,
      "EchoTrainLength": 104,
      "FlipAngle": 52.0,
      "HighBit": 15,
      "ImageOrientationPatient": [0.99789604990903, -0.0635619988666, 0.01278068370767, 0.06453101753785, 0.95469831060201, -0.2904942056379],
      "ImagePositionPatient": [-888.37125304198, -770.57497038483, 200.53775659973],
      "ImageType": [
        "ORIGINAL",
        "PRIMARY",
        "P",
        "MB",
        "ND",
        "MOSAIC"
],
      "ImagedNucleus": "1H",
      "ImagingFrequency": 123.259157,
      "InPlanePhaseEncodingDirection": "COL",
      "LargestImagePixelValue": 4095,
      "MRAcquisitionType": "2D",
      "MagneticFieldStrength": 3.0,
      "Manufacturer": "SIEMENS",
      "ManufacturerModelName": "Prisma_fit",
      "Modality": "MR",
      "NumberOfAverages": 1.0,
      "NumberOfPhaseEncodingSteps": 104,
      "PercentPhaseFieldOfView": 100.0,
      "PercentSampling": 100.0,
      "PerformedProcedureStepStartTime": "145010.721000",
      "PhotometricInterpretation": "MONOCHROME2",
      "PixelBandwidth": 2290.0,
      "PixelRepresentation": 0,
      "PixelSpacing": [2.0, 2.0],
      "ProtocolName": "func_task-things_run-4",
      "RepetitionTime": 1490.0,
      "RescaleIntercept": -4096.0,
      "RescaleSlope": 2.0,
      "RescaleType": "US",
      "Rows": 832,
      "SAR": 0.04745414699681,
      "SamplesPerPixel": 1,
      "ScanOptions": "FS",
      "ScanningSequence": "EP",
      "SequenceName": "epfid2d1_104",
      "SequenceVariant": [
        "SK",
        "SS"
],
      "SeriesDescription": "func_task-things_run-4",
      "SeriesNumber": 28,
      "SeriesTime": "161116.983000",
      "SliceLocation": -37.702930739776,
      "SliceThickness": 2.0,
      "SmallestImagePixelValue": 0,
      "SoftwareVersions": "syngo MR E11",
      "SpacingBetweenSlices": 2.0000000269489,
      "SpecificCharacterSet": "ISO_IR 100",
      "StudyID": "1",
      "StudyTime": "145010.667000",
      "TransmitCoilName": "Body",
      "VariableFlipAngleFlag": "N",
      "WindowCenterWidthExplanation": "Algo1",
      "dBdt": 0.0},
    "slices": {}
  },
  "time": {
    "samples": {
      "AcquisitionNumber": [1, 2, 3, 4, 5, 6, 7, 8, 9, 10, 11, 12, 13, 14, 15, 16, 17, 18, 19, 20, 21, 22, 23, 24, 25, 26, 27, 28, 29, 30, 31, 32, 33, 34, 35, 36, 37, 38, 39, 40, 41, 42, 43, 44, 45, 46, 47, 48, 49, 50, 51, 52, 53, 54, 55, 56, 57, 58, 59, 60, 61, 62, 63, 64, 65, 66, 67, 68, 69, 70, 71, 72, 73, 74, 75, 76, 77, 78, 79, 80, 81, 82, 83, 84, 85, 86, 87, 88, 89, 90, 91, 92, 93, 94, 95, 96, 97, 98, 99, 100, 101, 102, 103, 104, 105, 106, 107, 108, 109, 110, 111, 112, 113, 114, 115, 116, 117, 118, 119, 120, 121, 122, 123, 124, 125, 126, 127, 128, 129, 130, 131, 132, 133, 134, 135, 136, 137, 138, 139, 140, 141, 142, 143, 144, 145, 146, 147, 148, 149, 150, 151, 152, 153, 154, 155, 156, 157, 158, 159, 160, 161, 162, 163, 164, 165, 166, 167, 168, 169, 170, 171, 172, 173, 174, 175, 176, 177, 178, 179, 180, 181, 182, 183, 184, 185, 186, 187, 188, 189, 190],
      "AcquisitionTime": ["160944.827500", "160946.317500", "160947.807500", "160949.297500", "160950.787500", "160952.277500", "160953.767500", "160955.257500", "160956.747500", "160958.237500", "160959.727500", "161001.217500", "161002.707500", "161004.197500", "161005.687500", "161007.177500", "161008.667500", "161010.157500", "161011.647500", "161013.137500", "161014.627500", "161016.117500", "161017.607500", "161019.097500", "161020.587500", "161022.077500", "161023.567500", "161025.057500", "161026.547500", "161028.037500", "161029.527500", "161031.017500", "161032.507500", "161033.997500", "161035.487500", "161036.977500", "161038.467500", "161039.957500", "161041.447500", "161042.937500", "161044.427500", "161045.917500", "161047.407500", "161048.897500", "161050.387500", "161051.877500", "161053.367500", "161054.857500", "161056.347500", "161057.837500", "161059.327500", "161100.817500", "161102.307500", "161103.797500", "161105.287500", "161106.777500", "161108.267500", "161109.757500", "161111.247500", "161112.737500", "161114.227500", "161115.717500", "161117.207500", "161118.697500", "161120.187500", "161121.677500", "161123.167500", "161124.657500", "161126.147500", "161127.637500", "161129.127500", "161130.617500", "161132.107500", "161133.597500", "161135.087500", "161136.577500", "161138.067500", "161139.557500", "161141.047500", "161142.537500", "161144.027500", "161145.517500", "161147.007500", "161148.497500", "161149.987500", "161151.477500", "161152.967500", "161154.457500", "161155.947500", "161157.437500", "161158.927500", "161200.417500", "161201.907500", "161203.397500", "161204.887500", "161206.377500", "161207.867500", "161209.357500", "161210.847500", "161212.337500", "161213.827500", "161215.317500", "161216.807500", "161218.297500", "161219.787500", "161221.277500", "161222.767500", "161224.257500", "161225.747500", "161227.237500", "161228.727500", "161230.217500", "161231.707500", "161233.197500", "161234.687500", "161236.177500", "161237.667500", "161239.157500", "161240.647500", "161242.137500", "161243.627500", "161245.117500", "161246.607500", "161248.097500", "161249.587500", "161251.077500", "161252.567500", "161254.057500", "161255.547500", "161257.037500", "161258.527500", "161300.017500", "161301.507500", "161302.997500", "161304.487500", "161305.977500", "161307.467500", "161308.957500", "161310.447500", "161311.937500", "161313.427500", "161314.917500", "161316.407500", "161317.897500", "161319.387500", "161320.877500", "161322.367500", "161323.857500", "161325.347500", "161326.837500", "161328.327500", "161329.817500", "161331.307500", "161332.797500", "161334.287500", "161335.777500", "161337.267500", "161338.757500", "161340.247500", "161341.737500", "161343.227500", "161344.717500", "161346.207500", "161347.697500", "161349.187500", "161350.677500", "161352.167500", "161353.657500", "161355.147500", "161356.637500", "161358.127500", "161359.617500", "161401.107500", "161402.597500", "161404.087500", "161405.577500", "161407.067500", "161408.557500", "161410.047500", "161411.537500", "161413.027500", "161414.517500", "161416.007500", "161417.497500", "161418.987500", "161420.477500", "161421.967500", "161423.457500", "161424.947500", "161426.437500"],
      "ContentTime": ["161116.985000", "161116.987000", "161116.990000", "161116.993000", "161116.995000", "161116.998000", "161117.001000", "161117.004000", "161117.006000", "161117.009000", "161117.011000", "161117.014000", "161117.017000", "161117.020000", "161117.023000", "161117.025000", "161117.028000", "161117.030000", "161117.033000", "161117.035000", "161117.038000", "161117.040000", "161117.043000", "161117.045000", "161117.048000", "161117.050000", "161117.053000", "161117.055000", "161117.058000", "161117.060000", "161117.063000", "161117.065000", "161117.068000", "161117.070000", "161117.073000", "161117.077000", "161117.081000", "161117.085000", "161136.879000", "161136.882000", "161136.884000", "161136.887000", "161136.889000", "161136.892000", "161136.894000", "161136.897000", "161136.899000", "161136.902000", "161136.904000", "161136.907000", "161136.909000", "161136.912000", "161136.915000", "161136.917000", "161136.920000", "161136.922000", "161136.925000", "161136.927000", "161156.879000", "161156.882000", "161156.884000", "161156.887000", "161156.889000", "161156.892000", "161156.894000", "161156.897000", "161156.899000", "161156.902000", "161156.904000", "161156.920000", "161156.923000", "161156.925000", "161156.928000", "161156.930000", "161156.933000", "161156.936000", "161156.938000", "161156.941000", "161216.873000", "161216.876000", "161216.878000", "161216.881000", "161216.883000", "161216.886000", "161216.888000", "161216.891000", "161216.893000", "161216.896000", "161216.898000", "161216.901000", "161216.903000", "161216.906000", "161216.908000", "161216.911000", "161216.913000", "161216.916000", "161216.919000", "161216.921000", "161216.924000", "161256.903000", "161256.906000", "161256.909000", "161256.911000", "161256.914000", "161256.916000", "161256.919000", "161256.921000", "161256.924000", "161256.926000", "161256.929000", "161256.931000", "161256.934000", "161256.936000", "161256.939000", "161256.941000", "161256.944000", "161256.947000", "161256.949000", "161256.952000", "161256.954000", "161256.957000", "161256.959000", "161256.962000", "161256.964000", "161256.967000", "161256.970000", "161256.972000", "161256.975000", "161336.893000", "161336.896000", "161336.899000", "161336.901000", "161336.904000", "161336.906000", "161336.909000", "161336.911000", "161336.914000", "161336.916000", "161336.919000", "161336.922000", "161336.924000", "161336.927000", "161336.929000", "161336.932000", "161336.934000", "161336.937000", "161336.939000", "161336.942000", "161336.944000", "161336.947000", "161336.949000", "161336.952000", "161336.954000", "161336.957000", "161336.959000", "161416.908000", "161416.911000", "161416.913000", "161416.916000", "161416.918000", "161416.921000", "161416.923000", "161416.926000", "161416.928000", "161416.931000", "161416.933000", "161416.936000", "161416.938000", "161416.941000", "161416.944000", "161416.946000", "161416.949000", "161416.951000", "161416.954000", "161416.956000", "161416.959000", "161416.961000", "161416.964000", "161416.966000", "161416.969000", "161416.971000", "161416.974000", "161428.187000", "161428.190000", "161428.193000", "161428.196000", "161428.198000", "161428.201000", "161428.204000", "161428.206000"],
      "InstanceCreationTime": ["161116.985000", "161116.987000", "161116.990000", "161116.993000", "161116.995000", "161116.998000", "161117.001000", "161117.004000", "161117.006000", "161117.009000", "161117.011000", "161117.014000", "161117.017000", "161117.020000", "161117.023000", "161117.025000", "161117.028000", "161117.030000", "161117.033000", "161117.035000", "161117.038000", "161117.040000", "161117.043000", "161117.045000", "161117.048000", "161117.050000", "161117.053000", "161117.055000", "161117.058000", "161117.060000", "161117.063000", "161117.065000", "161117.068000", "161117.070000", "161117.073000", "161117.077000", "161117.081000", "161117.085000", "161136.879000", "161136.882000", "161136.884000", "161136.887000", "161136.889000", "161136.892000", "161136.894000", "161136.897000", "161136.899000", "161136.902000", "161136.904000", "161136.907000", "161136.909000", "161136.912000", "161136.915000", "161136.917000", "161136.920000", "161136.922000", "161136.925000", "161136.927000", "161156.879000", "161156.882000", "161156.884000", "161156.887000", "161156.889000", "161156.892000", "161156.894000", "161156.897000", "161156.899000", "161156.902000", "161156.904000", "161156.920000", "161156.923000", "161156.925000", "161156.928000", "161156.930000", "161156.933000", "161156.936000", "161156.938000", "161156.941000", "161216.873000", "161216.876000", "161216.878000", "161216.881000", "161216.883000", "161216.886000", "161216.888000", "161216.891000", "161216.893000", "161216.896000", "161216.898000", "161216.901000", "161216.903000", "161216.906000", "161216.908000", "161216.911000", "161216.913000", "161216.916000", "161216.919000", "161216.921000", "161216.924000", "161256.903000", "161256.906000", "161256.909000", "161256.911000", "161256.914000", "161256.916000", "161256.919000", "161256.921000", "161256.924000", "161256.926000", "161256.929000", "161256.931000", "161256.934000", "161256.936000", "161256.939000", "161256.941000", "161256.944000", "161256.947000", "161256.949000", "161256.952000", "161256.954000", "161256.957000", "161256.959000", "161256.962000", "161256.964000", "161256.967000", "161256.970000", "161256.972000", "161256.975000", "161336.893000", "161336.896000", "161336.899000", "161336.901000", "161336.904000", "161336.906000", "161336.909000", "161336.911000", "161336.914000", "161336.916000", "161336.919000", "161336.922000", "161336.924000", "161336.927000", "161336.929000", "161336.932000", "161336.934000", "161336.937000", "161336.939000", "161336.942000", "161336.944000", "161336.947000", "161336.949000", "161336.952000", "161336.954000", "161336.957000", "161336.959000", "161416.908000", "161416.911000", "161416.913000", "161416.916000", "161416.918000", "161416.921000", "161416.923000", "161416.926000", "161416.928000", "161416.931000", "161416.933000", "161416.936000", "161416.938000", "161416.941000", "161416.944000", "161416.946000", "161416.949000", "161416.951000", "161416.954000", "161416.956000", "161416.959000", "161416.961000", "161416.964000", "161416.966000", "161416.969000", "161416.971000", "161416.974000", "161428.187000", "161428.190000", "161428.193000", "161428.196000", "161428.198000", "161428.201000", "161428.204000", "161428.206000"],
      "InstanceNumber": [1, 2, 3, 4, 5, 6, 7, 8, 9, 10, 11, 12, 13, 14, 15, 16, 17, 18, 19, 20, 21, 22, 23, 24, 25, 26, 27, 28, 29, 30, 31, 32, 33, 34, 35, 36, 37, 38, 39, 40, 41, 42, 43, 44, 45, 46, 47, 48, 49, 50, 51, 52, 53, 54, 55, 56, 57, 58, 59, 60, 61, 62, 63, 64, 65, 66, 67, 68, 69, 70, 71, 72, 73, 74, 75, 76, 77, 78, 79, 80, 81, 82, 83, 84, 85, 86, 87, 88, 89, 90, 91, 92, 93, 94, 95, 96, 97, 98, 99, 100, 101, 102, 103, 104, 105, 106, 107, 108, 109, 110, 111, 112, 113, 114, 115, 116, 117, 118, 119, 120, 121, 122, 123, 124, 125, 126, 127, 128, 129, 130, 131, 132, 133, 134, 135, 136, 137, 138, 139, 140, 141, 142, 143, 144, 145, 146, 147, 148, 149, 150, 151, 152, 153, 154, 155, 156, 157, 158, 159, 160, 161, 162, 163, 164, 165, 166, 167, 168, 169, 170, 171, 172, 173, 174, 175, 176, 177, 178, 179, 180, 181, 182, 183, 184, 185, 186, 187, 188, 189, 190],
      "WindowCenter": [4816.0, 4818.0, 4816.0, 4818.0, 4820.0, 4810.0, 4808.0, 4814.0, 4814.0, 4816.0, 4814.0, 4814.0, 4818.0, 4818.0, 4816.0, 4814.0, 4812.0, 4816.0, 4810.0, 4814.0, 4810.0, 4816.0, 4820.0, 4810.0, 4814.0, 4820.0, 4818.0, 4814.0, 4814.0, 4816.0, 4812.0, 4814.0, 4816.0, 4820.0, 4816.0, 4818.0, 4820.0, 4814.0, 4814.0, 4814.0, 4818.0, 4816.0, 4812.0, 4818.0, 4820.0, 4816.0, 4814.0, 4808.0, 4816.0, 4816.0, 4820.0, 4818.0, 4818.0, 4814.0, 4818.0, 4820.0, 4792.0, 4818.0, 4812.0, 4812.0, 4818.0, 4820.0, 4816.0, 4814.0, 4822.0, 4814.0, 4816.0, 4816.0, 4818.0, 4820.0, 4812.0, 4814.0, 4812.0, 4808.0, 4808.0, 4812.0, 4814.0, 4816.0, 4820.0, 4794.0, 4792.0, 4818.0, 4818.0, 4818.0, 4810.0, 4808.0, 4820.0, 4818.0, 4814.0, 4814.0, 4816.0, 4816.0, 4818.0, 4816.0, 4818.0, 4812.0, 4818.0, 4816.0, 4820.0, 4818.0, 4814.0, 4816.0, 4812.0, 4812.0, 4814.0, 4812.0, 4818.0, 4818.0, 4816.0, 4820.0, 4816.0, 4818.0, 4816.0, 4818.0, 4816.0, 4818.0, 4816.0, 4796.0, 4816.0, 4804.0, 4804.0, 4808.0, 4816.0, 4818.0, 4796.0, 4792.0, 4816.0, 4816.0, 4816.0, 4820.0, 4818.0, 4814.0, 4810.0, 4808.0, 4810.0, 4818.0, 4818.0, 4818.0, 4816.0, 4794.0, 4816.0, 4816.0, 4816.0, 4816.0, 4816.0, 4818.0, 4812.0, 4812.0, 4812.0, 4818.0, 4814.0, 4818.0, 4818.0, 4814.0, 4818.0, 4818.0, 4818.0, 4818.0, 4820.0, 4814.0, 4814.0, 4816.0, 4814.0, 4820.0, 4816.0, 4816.0, 4820.0, 4816.0, 4816.0, 4818.0, 4816.0, 4818.0, 4816.0, 4816.0, 4818.0, 4818.0, 4816.0, 4814.0, 4792.0, 4818.0, 4818.0, 4806.0, 4808.0, 4812.0, 4816.0, 4818.0, 4796.0, 4822.0, 4820.0, 4822.0],
      "WindowWidth": [18616.0, 18618.0, 18618.0, 18606.0, 18622.0, 18614.0, 18610.0, 18618.0, 18614.0, 18618.0, 18614.0, 18608.0, 18616.0, 18620.0, 18612.0, 18616.0, 18612.0, 18616.0, 18614.0, 18616.0, 18610.0, 18612.0, 18608.0, 18606.0, 18612.0, 18606.0, 18610.0, 18614.0, 18616.0, 18620.0, 18622.0, 18620.0, 18610.0, 18614.0, 18612.0, 18618.0, 18612.0, 18608.0, 18618.0, 18614.0, 18608.0, 18618.0, 18616.0, 18616.0, 18600.0, 18608.0, 18616.0, 18608.0, 18622.0, 18602.0, 18618.0, 18628.0, 18620.0, 18620.0, 18618.0, 18608.0, 18560.0, 18614.0, 18622.0, 18618.0, 18618.0, 18614.0, 18620.0, 18620.0, 18620.0, 18604.0, 18614.0, 18618.0, 18622.0, 18616.0, 18586.0, 18600.0, 18616.0, 18616.0, 18612.0, 18618.0, 18618.0, 18610.0, 18612.0, 18548.0, 18552.0, 18610.0, 18626.0, 18622.0, 18616.0, 18616.0, 18616.0, 18606.0, 18616.0, 18618.0, 18620.0, 18618.0, 18608.0, 18616.0, 18614.0, 18614.0, 18622.0, 18614.0, 18614.0, 18600.0, 18576.0, 18610.0, 18618.0, 18614.0, 18618.0, 18618.0, 18618.0, 18616.0, 18612.0, 18614.0, 18608.0, 18610.0, 18610.0, 18610.0, 18616.0, 18624.0, 18602.0, 18556.0, 18608.0, 18612.0, 18606.0, 18608.0, 18622.0, 18618.0, 18572.0, 18558.0, 18600.0, 18604.0, 18610.0, 18618.0, 18606.0, 18614.0, 18616.0, 18610.0, 18612.0, 18620.0, 18606.0, 18610.0, 18606.0, 18568.0, 18606.0, 18612.0, 18618.0, 18614.0, 18600.0, 18616.0, 18614.0, 18616.0, 18614.0, 18612.0, 18608.0, 18612.0, 18608.0, 18604.0, 18608.0, 18608.0, 18618.0, 18620.0, 18620.0, 18618.0, 18620.0, 18614.0, 18614.0, 18610.0, 18602.0, 18614.0, 18616.0, 18618.0, 18624.0, 18618.0, 18616.0, 18622.0, 18610.0, 18614.0, 18610.0, 18606.0, 18612.0, 18610.0, 18554.0, 18594.0, 18618.0, 18610.0, 18614.0, 18618.0, 18622.0, 18614.0, 18554.0, 18568.0, 18570.0, 18612.0]
    },
    "slices": {}
  }
}