{
  "AcquisitionMatrixPE": 104,
  "AcquisitionNumber": 1,
  "AcquisitionTime": "11:16:3.995000",
  "BandwidthPerPixelPhaseEncode": 17.17,
  "BaseResolution": 104,
  "BodyPartExamined": "BRAIN",
  "CoilString": "HC1-7;NC1_2",
  "ConsistencyInfo": "N4_VE11C_LATEST_20160120",
  "ConversionSoftware": "dcm2niix",
  "ConversionSoftwareVersion": "v1.0.20190902",
  "DerivedVendorReportedEchoSpacing": 0.000560011,
  "DeviceSerialNumber": "167006",
  "DwellTime": 2.1e-06,
  "EchoTime": 0.037,
  "EchoTrainLength": 104,
  "EffectiveEchoSpacing": 0.000560011,
  "FlipAngle": 52,
  "ImageComments": "Unaliased_MB4_PE3_LB",
  "ImageOrientationPatientDICOM": [0.999429, 0.0335224, -0.00418916, -0.0307099, 0.849825, -0.52617],
  "ImageType": [
    "ORIGINAL",
    "PRIMARY",
    "P",
    "MB",
    "ND",
    "MOSAIC"
],
  "ImagingFrequency": 123.259,
  "InPlanePhaseEncodingDirectionDICOM": "COL",
  "InstitutionAddress": "Chemin_Queen-Mary_4565_Montreal_District_CA_H3W_1W5",
  "InstitutionName": "IUGM",
  "InstitutionalDepartmentName": "Department",
  "MRAcquisitionType": "2D",
  "MagneticFieldStrength": 3,
  "Manufacturer": "Siemens",
  "ManufacturersModelName": "Prisma_fit",
  "Modality": "MR",
  "MultibandAccelerationFactor": 4,
  "PartialFourier": 1,
  "PatientPosition": "HFS",
  "PercentPhaseFOV": 100,
  "PhaseEncodingDirection": "j",
  "PhaseEncodingSteps": 104,
  "PhaseResolution": 1,
  "PixelBandwidth": 2290,
  "ProcedureStepDescription": "memory_things",
  "ProtocolName": "func_task-things_run-4",
  "PulseSequenceDetails": "%CustomerSeq%_cmrr_mbep2d_bold",
  "ReceiveCoilActiveElements": "HC1-7;NC1,2",
  "ReceiveCoilName": "HeadNeck_64",
  "ReconMatrixPE": 104,
  "RepetitionTime": 1.49,
  "SAR": 0.056501,
  "ScanOptions": "FS",
  "ScanningSequence": "EP",
  "SequenceName": "epfid2d1_104",
  "SequenceVariant": "SK_SS",
  "SeriesDescription": "func_task-things_run-4",
  "SeriesNumber": 20,
  "ShimSetting": [620, -7173, -8866, 308, 0, -124, -34, -42],
  "SliceThickness": 2,
  "SliceTiming": [0, 0.7825, 0.0975, 0.8825, 0.195, 0.98, 0.2925, 1.0775, 0.3925, 1.175, 0.49, 1.2725, 0.5875, 1.3725, 0.685, 0, 0.7825, 0.0975, 0.8825, 0.195, 0.98, 0.2925, 1.0775, 0.3925, 1.175, 0.49, 1.2725, 0.5875, 1.3725, 0.685, 0, 0.7825, 0.0975, 0.8825, 0.195, 0.98, 0.2925, 1.0775, 0.3925, 1.175, 0.49, 1.2725, 0.5875, 1.3725, 0.685, 0, 0.7825, 0.0975, 0.8825, 0.195, 0.98, 0.2925, 1.0775, 0.3925, 1.175, 0.49, 1.2725, 0.5875, 1.3725, 0.685],
  "SoftwareVersions": "syngo_MR_E11",
  "SpacingBetweenSlices": 2,
  "StationName": "MRC35049",
  "TaskName": "things",
  "TotalReadoutTime": 0.0576811,
  "TxRefAmp": 287.416,
  "WipMemBlock": "d4471a12-c4cf-4c7c-9d02-cb38981b2cf0||Sequence: R016 ve11c/master r/e634e98; Dec 19 2017 11:00:25 by eja",
  "dcmmeta_affine": [
    [-1.9988583326339722, -0.0614197812974453, 0.02815680019557476, 109.51152038574219],
    [-0.06704474985599518, 1.6996498107910156, -1.051995873451233, -46.41035842895508],
    [-0.008378328755497932, 1.0523393154144287, 1.700738549232483, -99.27816772460938],
    [0.0, 0.0, 0.0, 1.0]
],
  "dcmmeta_reorient_transform": [
    [0.0, -1.0, 0.0, 103.0],
    [1.0, 0.0, 0.0, 0.0],
    [0.0, 0.0, 1.0, 0.0],
    [0.0, 0.0, 0.0, 1.0]
],
  "dcmmeta_shape": [104, 104, 60, 190],
  "dcmmeta_slice_dim": 2,
  "dcmmeta_version": 0.6,
  "global": {
    "const": {
      "AcquisitionMatrix": [104, 0, 0, 104],
      "AngioFlag": "N",
      "BitsAllocated": 16,
      "BitsStored": 16,
      "BodyPartExamined": "BRAIN",
      "Columns": 832,
      "EchoNumbers": 1,
      "EchoTime": 37.0,
      "EchoTrainLength": 104,
      "FlipAngle": 52.0,
      "HighBit": 15,
      "ImageOrientationPatient": [0.99942918771109, 0.03352237539307, -0.0041891644939, -0.0307098907066, 0.84982491596245, -0.5261696635328],
      "ImagePositionPatient": [-808.41292785558, -771.73040401888, 395.21400832767],
      "ImageType": [
        "ORIGINAL",
        "PRIMARY",
        "P",
        "MB",
        "ND",
        "MOSAIC"
],
      "ImagedNucleus": "1H",
      "ImagingFrequency": 123.258932,
      "InPlanePhaseEncodingDirection": "COL",
      "LargestImagePixelValue": 4095,
      "MRAcquisitionType": "2D",
      "MagneticFieldStrength": 3.0,
      "Manufacturer": "SIEMENS",
      "ManufacturerModelName": "Prisma_fit",
      "Modality": "MR",
      "NumberOfAverages": 1.0,
      "NumberOfPhaseEncodingSteps": 104,
      "PercentPhaseFieldOfView": 100.0,
      "PercentSampling": 100.0,
      "PerformedProcedureStepStartTime": "102151.617000",
      "PhotometricInterpretation": "MONOCHROME2",
      "PixelBandwidth": 2290.0,
      "PixelRepresentation": 0,
      "PixelSpacing": [2.0, 2.0],
      "ProtocolName": "func_task-things_run-4",
      "RepetitionTime": 1490.0,
      "RescaleIntercept": -4096.0,
      "RescaleSlope": 2.0,
      "RescaleType": "US",
      "Rows": 832,
      "SAR": 0.05650104193225,
      "SamplesPerPixel": 1,
      "ScanOptions": "FS",
      "ScanningSequence": "EP",
      "SequenceName": "epfid2d1_104",
      "SequenceVariant": [
        "SK",
        "SS"
],
      "SeriesDescription": "func_task-things_run-4",
      "SeriesNumber": 20,
      "SeriesTime": "111720.845000",
      "SliceLocation": -58.469606237134,
      "SliceThickness": 2.0,
      "SmallestImagePixelValue": 0,
      "SoftwareVersions": "syngo MR E11",
      "SpacingBetweenSlices": 1.9999999879879,
      "SpecificCharacterSet": "ISO_IR 100",
      "StudyID": "1",
      "StudyTime": "102151.553000",
      "TransmitCoilName": "Body",
      "VariableFlipAngleFlag": "N",
      "WindowCenterWidthExplanation": "Algo1",
      "dBdt": 0.0},
    "slices": {}
  },
  "time": {
    "samples": {
      "AcquisitionNumber": [1, 2, 3, 4, 5, 6, 7, 8, 9, 10, 11, 12, 13, 14, 15, 16, 17, 18, 19, 20, 21, 22, 23, 24, 25, 26, 27, 28, 29, 30, 31, 32, 33, 34, 35, 36, 37, 38, 39, 40, 41, 42, 43, 44, 45, 46, 47, 48, 49, 50, 51, 52, 53, 54, 55, 56, 57, 58, 59, 60, 61, 62, 63, 64, 65, 66, 67, 68, 69, 70, 71, 72, 73, 74, 75, 76, 77, 78, 79, 80, 81, 82, 83, 84, 85, 86, 87, 88, 89, 90, 91, 92, 93, 94, 95, 96, 97, 98, 99, 100, 101, 102, 103, 104, 105, 106, 107, 108, 109, 110, 111, 112, 113, 114, 115, 116, 117, 118, 119, 120, 121, 122, 123, 124, 125, 126, 127, 128, 129, 130, 131, 132, 133, 134, 135, 136, 137, 138, 139, 140, 141, 142, 143, 144, 145, 146, 147, 148, 149, 150, 151, 152, 153, 154, 155, 156, 157, 158, 159, 160, 161, 162, 163, 164, 165, 166, 167, 168, 169, 170, 171, 172, 173, 174, 175, 176, 177, 178, 179, 180, 181, 182, 183, 184, 185, 186, 187, 188, 189, 190],
      "AcquisitionTime": ["111603.995000", "111605.485000", "111606.975000", "111608.465000", "111609.955000", "111611.445000", "111612.935000", "111614.425000", "111615.915000", "111617.405000", "111618.895000", "111620.385000", "111621.875000", "111623.365000", "111624.855000", "111626.345000", "111627.835000", "111629.325000", "111630.815000", "111632.305000", "111633.795000", "111635.285000", "111636.775000", "111638.265000", "111639.755000", "111641.245000", "111642.735000", "111644.225000", "111645.715000", "111647.205000", "111648.695000", "111650.185000", "111651.675000", "111653.165000", "111654.655000", "111656.145000", "111657.635000", "111659.125000", "111700.615000", "111702.105000", "111703.595000", "111705.085000", "111706.575000", "111708.065000", "111709.555000", "111711.045000", "111712.535000", "111714.025000", "111715.515000", "111717.005000", "111718.495000", "111719.985000", "111721.475000", "111722.965000", "111724.455000", "111725.945000", "111727.435000", "111728.925000", "111730.415000", "111731.905000", "111733.395000", "111734.885000", "111736.375000", "111737.865000", "111739.355000", "111740.845000", "111742.335000", "111743.825000", "111745.315000", "111746.805000", "111748.295000", "111749.785000", "111751.275000", "111752.765000", "111754.255000", "111755.745000", "111757.235000", "111758.725000", "111800.215000", "111801.705000", "111803.195000", "111804.685000", "111806.175000", "111807.665000", "111809.155000", "111810.645000", "111812.135000", "111813.625000", "111815.115000", "111816.605000", "111818.095000", "111819.585000", "111821.075000", "111822.565000", "111824.055000", "111825.545000", "111827.035000", "111828.525000", "111830.015000", "111831.505000", "111832.995000", "111834.485000", "111835.975000", "111837.465000", "111838.955000", "111840.445000", "111841.935000", "111843.425000", "111844.915000", "111846.405000", "111847.895000", "111849.385000", "111850.875000", "111852.365000", "111853.855000", "111855.345000", "111856.835000", "111858.325000", "111859.815000", "111901.305000", "111902.795000", "111904.285000", "111905.775000", "111907.265000", "111908.755000", "111910.245000", "111911.735000", "111913.225000", "111914.715000", "111916.205000", "111917.695000", "111919.185000", "111920.675000", "111922.165000", "111923.655000", "111925.145000", "111926.635000", "111928.125000", "111929.615000", "111931.105000", "111932.595000", "111934.085000", "111935.575000", "111937.065000", "111938.555000", "111940.045000", "111941.535000", "111943.025000", "111944.515000", "111946.005000", "111947.495000", "111948.985000", "111950.475000", "111951.965000", "111953.455000", "111954.945000", "111956.435000", "111957.925000", "111959.415000", "112000.905000", "112002.395000", "112003.885000", "112005.375000", "112006.865000", "112008.355000", "112009.845000", "112011.335000", "112012.825000", "112014.315000", "112015.805000", "112017.295000", "112018.785000", "112020.275000", "112021.765000", "112023.255000", "112024.745000", "112026.235000", "112027.725000", "112029.215000", "112030.705000", "112032.195000", "112033.685000", "112035.175000", "112036.665000", "112038.155000", "112039.645000", "112041.135000", "112042.625000", "112044.115000", "112045.605000"],
      "ContentTime": ["111720.847000", "111720.850000", "111720.853000", "111720.855000", "111720.858000", "111720.860000", "111720.863000", "111720.866000", "111720.868000", "111720.871000", "111720.873000", "111720.876000", "111720.878000", "111720.881000", "111720.883000", "111720.886000", "111720.888000", "111720.891000", "111720.894000", "111720.896000", "111720.899000", "111720.901000", "111720.904000", "111720.906000", "111740.776000", "111740.779000", "111740.781000", "111740.784000", "111740.786000", "111740.789000", "111740.791000", "111740.794000", "111740.797000", "111740.806000", "111740.808000", "111740.811000", "111740.813000", "111740.816000", "111740.818000", "111740.821000", "111740.823000", "111740.826000", "111740.829000", "111740.831000", "111800.792000", "111800.795000", "111800.797000", "111800.800000", "111800.803000", "111800.805000", "111800.808000", "111800.810000", "111800.813000", "111800.815000", "111800.818000", "111800.820000", "111800.823000", "111800.826000", "111800.828000", "111800.831000", "111800.833000", "111800.836000", "111800.838000", "111800.841000", "111820.825000", "111820.828000", "111820.831000", "111820.833000", "111820.842000", "111820.844000", "111820.847000", "111820.849000", "111820.852000", "111820.855000", "111820.857000", "111820.860000", "111820.863000", "111820.865000", "111820.868000", "111820.871000", "111820.873000", "111820.886000", "111820.889000", "111820.891000", "111840.802000", "111840.804000", "111840.807000", "111840.809000", "111840.812000", "111840.815000", "111840.817000", "111840.820000", "111840.823000", "111840.825000", "111840.828000", "111840.830000", "111840.833000", "111840.836000", "111840.838000", "111840.841000", "111840.843000", "111840.846000", "111840.849000", "111840.851000", "111920.810000", "111920.813000", "111920.815000", "111920.818000", "111920.820000", "111920.823000", "111920.825000", "111920.829000", "111920.831000", "111920.834000", "111920.837000", "111920.839000", "111920.842000", "111920.844000", "111920.847000", "111920.849000", "111920.859000", "111920.861000", "111920.864000", "111920.866000", "111920.869000", "111920.871000", "111920.874000", "111920.877000", "111920.879000", "111920.882000", "111920.884000", "112000.812000", "112000.815000", "112000.817000", "112000.820000", "112000.822000", "112000.825000", "112000.828000", "112000.830000", "112000.833000", "112000.835000", "112000.838000", "112000.840000", "112000.843000", "112000.846000", "112000.848000", "112000.851000", "112000.853000", "112000.856000", "112000.858000", "112000.861000", "112000.864000", "112000.866000", "112000.869000", "112000.871000", "112000.874000", "112000.876000", "112000.879000", "112040.814000", "112040.817000", "112040.819000", "112040.822000", "112040.824000", "112040.827000", "112040.830000", "112040.832000", "112040.835000", "112040.837000", "112040.840000", "112040.843000", "112040.845000", "112040.848000", "112040.850000", "112040.853000", "112040.855000", "112040.858000", "112040.861000", "112040.863000", "112040.866000", "112040.869000", "112040.871000", "112040.874000", "112040.877000", "112040.880000", "112040.882000", "112047.950000", "112047.953000", "112047.956000", "112047.959000", "112047.962000"],
      "InstanceCreationTime": ["111720.847000", "111720.850000", "111720.853000", "111720.855000", "111720.858000", "111720.860000", "111720.863000", "111720.866000", "111720.868000", "111720.871000", "111720.873000", "111720.876000", "111720.878000", "111720.881000", "111720.883000", "111720.886000", "111720.888000", "111720.891000", "111720.894000", "111720.896000", "111720.899000", "111720.901000", "111720.904000", "111720.906000", "111740.776000", "111740.779000", "111740.781000", "111740.784000", "111740.786000", "111740.789000", "111740.791000", "111740.794000", "111740.797000", "111740.806000", "111740.808000", "111740.811000", "111740.813000", "111740.816000", "111740.818000", "111740.821000", "111740.823000", "111740.826000", "111740.829000", "111740.831000", "111800.792000", "111800.795000", "111800.797000", "111800.800000", "111800.803000", "111800.805000", "111800.808000", "111800.810000", "111800.813000", "111800.815000", "111800.818000", "111800.820000", "111800.823000", "111800.826000", "111800.828000", "111800.831000", "111800.833000", "111800.836000", "111800.838000", "111800.841000", "111820.825000", "111820.828000", "111820.831000", "111820.833000", "111820.842000", "111820.844000", "111820.847000", "111820.849000", "111820.852000", "111820.855000", "111820.857000", "111820.860000", "111820.863000", "111820.865000", "111820.868000", "111820.871000", "111820.873000", "111820.886000", "111820.889000", "111820.891000", "111840.802000", "111840.804000", "111840.807000", "111840.809000", "111840.812000", "111840.815000", "111840.817000", "111840.820000", "111840.823000", "111840.825000", "111840.828000", "111840.830000", "111840.833000", "111840.836000", "111840.838000", "111840.841000", "111840.843000", "111840.846000", "111840.849000", "111840.851000", "111920.810000", "111920.813000", "111920.815000", "111920.818000", "111920.820000", "111920.823000", "111920.825000", "111920.829000", "111920.831000", "111920.834000", "111920.837000", "111920.839000", "111920.842000", "111920.844000", "111920.847000", "111920.849000", "111920.859000", "111920.861000", "111920.864000", "111920.866000", "111920.869000", "111920.871000", "111920.874000", "111920.877000", "111920.879000", "111920.882000", "111920.884000", "112000.812000", "112000.815000", "112000.817000", "112000.820000", "112000.822000", "112000.825000", "112000.828000", "112000.830000", "112000.833000", "112000.835000", "112000.838000", "112000.840000", "112000.843000", "112000.846000", "112000.848000", "112000.851000", "112000.853000", "112000.856000", "112000.858000", "112000.861000", "112000.864000", "112000.866000", "112000.869000", "112000.871000", "112000.874000", "112000.876000", "112000.879000", "112040.814000", "112040.817000", "112040.819000", "112040.822000", "112040.824000", "112040.827000", "112040.830000", "112040.832000", "112040.835000", "112040.837000", "112040.840000", "112040.843000", "112040.845000", "112040.848000", "112040.850000", "112040.853000", "112040.855000", "112040.858000", "112040.861000", "112040.863000", "112040.866000", "112040.869000", "112040.871000", "112040.874000", "112040.877000", "112040.880000", "112040.882000", "112047.950000", "112047.953000", "112047.956000", "112047.959000", "112047.962000"],
      "InstanceNumber": [1, 2, 3, 4, 5, 6, 7, 8, 9, 10, 11, 12, 13, 14, 15, 16, 17, 18, 19, 20, 21, 22, 23, 24, 25, 26, 27, 28, 29, 30, 31, 32, 33, 34, 35, 36, 37, 38, 39, 40, 41, 42, 43, 44, 45, 46, 47, 48, 49, 50, 51, 52, 53, 54, 55, 56, 57, 58, 59, 60, 61, 62, 63, 64, 65, 66, 67, 68, 69, 70, 71, 72, 73, 74, 75, 76, 77, 78, 79, 80, 81, 82, 83, 84, 85, 86, 87, 88, 89, 90, 91, 92, 93, 94, 95, 96, 97, 98, 99, 100, 101, 102, 103, 104, 105, 106, 107, 108, 109, 110, 111, 112, 113, 114, 115, 116, 117, 118, 119, 120, 121, 122, 123, 124, 125, 126, 127, 128, 129, 130, 131, 132, 133, 134, 135, 136, 137, 138, 139, 140, 141, 142, 143, 144, 145, 146, 147, 148, 149, 150, 151, 152, 153, 154, 155, 156, 157, 158, 159, 160, 161, 162, 163, 164, 165, 166, 167, 168, 169, 170, 171, 172, 173, 174, 175, 176, 177, 178, 179, 180, 181, 182, 183, 184, 185, 186, 187, 188, 189, 190],
      "WindowCenter": [4770.0, 4770.0, 4742.0, 4714.0, 4766.0, 4796.0, 4830.0, 4770.0, 4764.0, 4796.0, 4742.0, 4720.0, 4746.0, 4768.0, 4742.0, 4794.0, 4798.0, 4770.0, 4798.0, 4742.0, 4740.0, 4768.0, 4742.0, 4738.0, 4768.0, 4716.0, 4742.0, 4830.0, 4768.0, 4800.0, 4804.0, 4770.0, 4796.0, 4742.0, 4744.0, 4768.0, 4768.0, 4740.0, 4774.0, 4744.0, 4762.0, 4742.0, 4770.0, 4742.0, 4770.0, 4742.0, 4714.0, 4744.0, 4836.0, 4802.0, 4838.0, 4834.0, 4768.0, 4768.0, 4742.0, 4720.0, 4746.0, 4744.0, 4768.0, 4774.0, 4826.0, 4798.0, 4744.0, 4794.0, 4740.0, 4770.0, 4796.0, 4742.0, 4794.0, 4804.0, 4828.0, 4742.0, 4772.0, 4742.0, 4742.0, 4768.0, 4690.0, 4720.0, 4804.0, 4826.0, 4862.0, 4866.0, 4772.0, 4762.0, 4746.0, 4742.0, 4718.0, 4766.0, 4742.0, 4768.0, 4798.0, 4718.0, 4740.0, 4800.0, 4768.0, 4800.0, 4804.0, 4740.0, 4764.0, 4798.0, 4796.0, 4800.0, 4796.0, 4718.0, 4694.0, 4742.0, 4768.0, 4714.0, 4764.0, 4834.0, 4830.0, 4866.0, 4802.0, 4766.0, 4766.0, 4718.0, 4718.0, 4740.0, 4742.0, 4714.0, 4742.0, 4838.0, 4828.0, 4866.0, 4796.0, 4694.0, 4742.0, 4768.0, 4744.0, 4798.0, 4776.0, 4794.0, 4802.0, 4766.0, 4744.0, 4768.0, 4716.0, 4738.0, 4770.0, 4716.0, 4742.0, 4836.0, 4878.0, 4902.0, 4830.0, 4796.0, 4718.0, 4720.0, 4694.0, 4718.0, 4770.0, 4740.0, 4742.0, 4866.0, 4834.0, 4838.0, 4868.0, 4768.0, 4770.0, 4768.0, 4718.0, 4740.0, 4744.0, 4740.0, 4794.0, 4800.0, 4832.0, 4796.0, 4794.0, 4744.0, 4714.0, 4744.0, 4794.0, 4806.0, 4742.0, 4690.0, 4774.0, 4830.0, 4798.0, 4840.0, 4802.0, 4804.0, 4742.0, 4766.0, 4696.0, 4670.0, 4768.0, 4830.0, 4828.0, 4872.0],
      "WindowWidth": [18632.0, 18632.0, 18596.0, 18562.0, 18634.0, 18672.0, 18710.0, 18634.0, 18630.0, 18670.0, 18598.0, 18568.0, 18598.0, 18632.0, 18600.0, 18670.0, 18670.0, 18636.0, 18668.0, 18602.0, 18600.0, 18628.0, 18598.0, 18600.0, 18634.0, 18566.0, 18604.0, 18710.0, 18634.0, 18672.0, 18670.0, 18632.0, 18664.0, 18600.0, 18602.0, 18630.0, 18628.0, 18596.0, 18636.0, 18598.0, 18630.0, 18598.0, 18630.0, 18602.0, 18634.0, 18598.0, 18562.0, 18602.0, 18710.0, 18670.0, 18716.0, 18710.0, 18630.0, 18628.0, 18594.0, 18568.0, 18604.0, 18598.0, 18628.0, 18638.0, 18704.0, 18668.0, 18604.0, 18668.0, 18594.0, 18634.0, 18668.0, 18600.0, 18668.0, 18668.0, 18706.0, 18598.0, 18634.0, 18596.0, 18598.0, 18626.0, 18530.0, 18570.0, 18682.0, 18708.0, 18746.0, 18742.0, 18630.0, 18630.0, 18602.0, 18596.0, 18566.0, 18630.0, 18596.0, 18632.0, 18672.0, 18566.0, 18600.0, 18672.0, 18634.0, 18676.0, 18674.0, 18600.0, 18630.0, 18670.0, 18666.0, 18668.0, 18666.0, 18566.0, 18524.0, 18600.0, 18634.0, 18570.0, 18636.0, 18712.0, 18706.0, 18742.0, 18674.0, 18632.0, 18632.0, 18566.0, 18564.0, 18596.0, 18598.0, 18564.0, 18600.0, 18714.0, 18708.0, 18744.0, 18670.0, 18530.0, 18600.0, 18634.0, 18602.0, 18670.0, 18638.0, 18666.0, 18670.0, 18630.0, 18602.0, 18634.0, 18564.0, 18596.0, 18632.0, 18568.0, 18602.0, 18714.0, 18740.0, 18768.0, 18704.0, 18668.0, 18564.0, 18564.0, 18518.0, 18562.0, 18636.0, 18594.0, 18604.0, 18748.0, 18706.0, 18712.0, 18746.0, 18630.0, 18632.0, 18626.0, 18562.0, 18594.0, 18594.0, 18598.0, 18668.0, 18672.0, 18710.0, 18666.0, 18670.0, 18598.0, 18558.0, 18600.0, 18668.0, 18672.0, 18598.0, 18528.0, 18642.0, 18708.0, 18676.0, 18716.0, 18672.0, 18674.0, 18604.0, 18628.0, 18524.0, 18476.0, 18632.0, 18710.0, 18712.0, 18750.0]
    },
    "slices": {}
  }
}