{
  "AcquisitionMatrixPE": 104,
  "AcquisitionNumber": 1,
  "AcquisitionTime": "11:09:59.272500",
  "BandwidthPerPixelPhaseEncode": 17.17,
  "BaseResolution": 104,
  "BodyPartExamined": "BRAIN",
  "CoilString": "HC1-7;NC1_2",
  "ConsistencyInfo": "N4_VE11C_LATEST_20160120",
  "ConversionSoftware": "dcm2niix",
  "ConversionSoftwareVersion": "v1.0.20190902",
  "DerivedVendorReportedEchoSpacing": 0.000560011,
  "DeviceSerialNumber": "167006",
  "DwellTime": 2.1e-06,
  "EchoTime": 0.037,
  "EchoTrainLength": 104,
  "EffectiveEchoSpacing": 0.000560011,
  "FlipAngle": 52,
  "ImageComments": "Unaliased_MB4_PE3_LB",
  "ImageOrientationPatientDICOM": [0.999429, 0.0335224, -0.00418916, -0.0307099, 0.849825, -0.52617],
  "ImageType": [
    "ORIGINAL",
    "PRIMARY",
    "P",
    "MB",
    "ND",
    "MOSAIC"
],
  "ImagingFrequency": 123.259,
  "InPlanePhaseEncodingDirectionDICOM": "COL",
  "InstitutionAddress": "Chemin_Queen-Mary_4565_Montreal_District_CA_H3W_1W5",
  "InstitutionName": "IUGM",
  "InstitutionalDepartmentName": "Department",
  "MRAcquisitionType": "2D",
  "MagneticFieldStrength": 3,
  "Manufacturer": "Siemens",
  "ManufacturersModelName": "Prisma_fit",
  "Modality": "MR",
  "MultibandAccelerationFactor": 4,
  "PartialFourier": 1,
  "PatientPosition": "HFS",
  "PercentPhaseFOV": 100,
  "PhaseEncodingDirection": "j",
  "PhaseEncodingSteps": 104,
  "PhaseResolution": 1,
  "PixelBandwidth": 2290,
  "ProcedureStepDescription": "memory_things",
  "ProtocolName": "func_task-things_run-3",
  "PulseSequenceDetails": "%CustomerSeq%_cmrr_mbep2d_bold",
  "ReceiveCoilActiveElements": "HC1-7;NC1,2",
  "ReceiveCoilName": "HeadNeck_64",
  "ReconMatrixPE": 104,
  "RepetitionTime": 1.49,
  "SAR": 0.056501,
  "ScanOptions": "FS",
  "ScanningSequence": "EP",
  "SequenceName": "epfid2d1_104",
  "SequenceVariant": "SK_SS",
  "SeriesDescription": "func_task-things_run-3",
  "SeriesNumber": 17,
  "ShimSetting": [620, -7173, -8866, 308, 0, -124, -34, -42],
  "SliceThickness": 2,
  "SliceTiming": [0, 0.785, 0.1, 0.8825, 0.1975, 0.98, 0.295, 1.08, 0.3925, 1.1775, 0.49, 1.275, 0.59, 1.3725, 0.6875, 0, 0.785, 0.1, 0.8825, 0.1975, 0.98, 0.295, 1.08, 0.3925, 1.1775, 0.49, 1.275, 0.59, 1.3725, 0.6875, 0, 0.785, 0.1, 0.8825, 0.1975, 0.98, 0.295, 1.08, 0.3925, 1.1775, 0.49, 1.275, 0.59, 1.3725, 0.6875, 0, 0.785, 0.1, 0.8825, 0.1975, 0.98, 0.295, 1.08, 0.3925, 1.1775, 0.49, 1.275, 0.59, 1.3725, 0.6875],
  "SoftwareVersions": "syngo_MR_E11",
  "SpacingBetweenSlices": 2,
  "StationName": "MRC35049",
  "TaskName": "things",
  "TotalReadoutTime": 0.0576811,
  "TxRefAmp": 287.416,
  "WipMemBlock": "7d8b0b34-3ee5-4cfe-94e6-2d0320be5372||Sequence: R016 ve11c/master r/e634e98; Dec 19 2017 11:00:25 by eja",
  "dcmmeta_affine": [
    [-1.9988583326339722, -0.0614197812974453, 0.02815680019557476, 109.51152038574219],
    [-0.06704474985599518, 1.6996498107910156, -1.051995873451233, -46.41035842895508],
    [-0.008378328755497932, 1.0523393154144287, 1.700738549232483, -99.27816772460938],
    [0.0, 0.0, 0.0, 1.0]
],
  "dcmmeta_reorient_transform": [
    [0.0, -1.0, 0.0, 103.0],
    [1.0, 0.0, 0.0, 0.0],
    [0.0, 0.0, 1.0, 0.0],
    [0.0, 0.0, 0.0, 1.0]
],
  "dcmmeta_shape": [104, 104, 60, 190],
  "dcmmeta_slice_dim": 2,
  "dcmmeta_version": 0.6,
  "global": {
    "const": {
      "AcquisitionMatrix": [104, 0, 0, 104],
      "AngioFlag": "N",
      "BitsAllocated": 16,
      "BitsStored": 16,
      "BodyPartExamined": "BRAIN",
      "Columns": 832,
      "EchoNumbers": 1,
      "EchoTime": 37.0,
      "EchoTrainLength": 104,
      "FlipAngle": 52.0,
      "HighBit": 15,
      "ImageOrientationPatient": [0.99942918771109, 0.03352237539307, -0.0041891644939, -0.0307098907066, 0.84982491596245, -0.5261696635328],
      "ImagePositionPatient": [-808.41292785558, -771.73040401888, 395.21400832767],
      "ImageType": [
        "ORIGINAL",
        "PRIMARY",
        "P",
        "MB",
        "ND",
        "MOSAIC"
],
      "ImagedNucleus": "1H",
      "ImagingFrequency": 123.258929,
      "InPlanePhaseEncodingDirection": "COL",
      "LargestImagePixelValue": 4095,
      "MRAcquisitionType": "2D",
      "MagneticFieldStrength": 3.0,
      "Manufacturer": "SIEMENS",
      "ManufacturerModelName": "Prisma_fit",
      "Modality": "MR",
      "NumberOfAverages": 1.0,
      "NumberOfPhaseEncodingSteps": 104,
      "PercentPhaseFieldOfView": 100.0,
      "PercentSampling": 100.0,
      "PerformedProcedureStepStartTime": "102151.617000",
      "PhotometricInterpretation": "MONOCHROME2",
      "PixelBandwidth": 2290.0,
      "PixelRepresentation": 0,
      "PixelSpacing": [2.0, 2.0],
      "ProtocolName": "func_task-things_run-3",
      "RepetitionTime": 1490.0,
      "RescaleIntercept": -4096.0,
      "RescaleSlope": 2.0,
      "RescaleType": "US",
      "Rows": 832,
      "SAR": 0.05650104193225,
      "SamplesPerPixel": 1,
      "ScanOptions": "FS",
      "ScanningSequence": "EP",
      "SequenceName": "epfid2d1_104",
      "SequenceVariant": [
        "SK",
        "SS"
],
      "SeriesDescription": "func_task-things_run-3",
      "SeriesNumber": 17,
      "SeriesTime": "111117.487000",
      "SliceLocation": -58.469606237134,
      "SliceThickness": 2.0,
      "SmallestImagePixelValue": 0,
      "SoftwareVersions": "syngo MR E11",
      "SpacingBetweenSlices": 1.9999999879879,
      "SpecificCharacterSet": "ISO_IR 100",
      "StudyID": "1",
      "StudyTime": "102151.553000",
      "TransmitCoilName": "Body",
      "VariableFlipAngleFlag": "N",
      "WindowCenterWidthExplanation": "Algo1",
      "dBdt": 0.0},
    "slices": {}
  },
  "time": {
    "samples": {
      "AcquisitionNumber": [1, 2, 3, 4, 5, 6, 7, 8, 9, 10, 11, 12, 13, 14, 15, 16, 17, 18, 19, 20, 21, 22, 23, 24, 25, 26, 27, 28, 29, 30, 31, 32, 33, 34, 35, 36, 37, 38, 39, 40, 41, 42, 43, 44, 45, 46, 47, 48, 49, 50, 51, 52, 53, 54, 55, 56, 57, 58, 59, 60, 61, 62, 63, 64, 65, 66, 67, 68, 69, 70, 71, 72, 73, 74, 75, 76, 77, 78, 79, 80, 81, 82, 83, 84, 85, 86, 87, 88, 89, 90, 91, 92, 93, 94, 95, 96, 97, 98, 99, 100, 101, 102, 103, 104, 105, 106, 107, 108, 109, 110, 111, 112, 113, 114, 115, 116, 117, 118, 119, 120, 121, 122, 123, 124, 125, 126, 127, 128, 129, 130, 131, 132, 133, 134, 135, 136, 137, 138, 139, 140, 141, 142, 143, 144, 145, 146, 147, 148, 149, 150, 151, 152, 153, 154, 155, 156, 157, 158, 159, 160, 161, 162, 163, 164, 165, 166, 167, 168, 169, 170, 171, 172, 173, 174, 175, 176, 177, 178, 179, 180, 181, 182, 183, 184, 185, 186, 187, 188, 189, 190],
      "AcquisitionTime": ["110959.272500", "111000.762500", "111002.252500", "111003.742500", "111005.232500", "111006.722500", "111008.212500", "111009.702500", "111011.192500", "111012.682500", "111014.172500", "111015.662500", "111017.152500", "111018.642500", "111020.132500", "111021.622500", "111023.112500", "111024.602500", "111026.092500", "111027.582500", "111029.072500", "111030.562500", "111032.052500", "111033.542500", "111035.032500", "111036.522500", "111038.012500", "111039.502500", "111040.992500", "111042.482500", "111043.972500", "111045.462500", "111046.952500", "111048.442500", "111049.932500", "111051.422500", "111052.912500", "111054.402500", "111055.892500", "111057.382500", "111058.872500", "111100.362500", "111101.852500", "111103.342500", "111104.832500", "111106.322500", "111107.812500", "111109.302500", "111110.792500", "111112.282500", "111113.772500", "111115.262500", "111116.752500", "111118.242500", "111119.732500", "111121.222500", "111122.712500", "111124.202500", "111125.692500", "111127.182500", "111128.672500", "111130.162500", "111131.652500", "111133.142500", "111134.632500", "111136.122500", "111137.612500", "111139.102500", "111140.592500", "111142.082500", "111143.572500", "111145.062500", "111146.552500", "111148.042500", "111149.532500", "111151.022500", "111152.512500", "111154.002500", "111155.492500", "111156.982500", "111158.472500", "111159.962500", "111201.452500", "111202.942500", "111204.432500", "111205.922500", "111207.412500", "111208.902500", "111210.392500", "111211.882500", "111213.372500", "111214.862500", "111216.352500", "111217.842500", "111219.332500", "111220.822500", "111222.312500", "111223.802500", "111225.292500", "111226.782500", "111228.272500", "111229.762500", "111231.252500", "111232.742500", "111234.232500", "111235.722500", "111237.212500", "111238.702500", "111240.192500", "111241.682500", "111243.172500", "111244.662500", "111246.152500", "111247.642500", "111249.132500", "111250.622500", "111252.112500", "111253.602500", "111255.092500", "111256.582500", "111258.072500", "111259.562500", "111301.052500", "111302.542500", "111304.032500", "111305.522500", "111307.012500", "111308.502500", "111309.992500", "111311.482500", "111312.972500", "111314.462500", "111315.952500", "111317.442500", "111318.932500", "111320.422500", "111321.912500", "111323.402500", "111324.892500", "111326.382500", "111327.872500", "111329.362500", "111330.852500", "111332.342500", "111333.832500", "111335.322500", "111336.812500", "111338.302500", "111339.792500", "111341.282500", "111342.772500", "111344.262500", "111345.752500", "111347.242500", "111348.732500", "111350.222500", "111351.712500", "111353.202500", "111354.692500", "111356.182500", "111357.672500", "111359.162500", "111400.652500", "111402.142500", "111403.632500", "111405.122500", "111406.612500", "111408.102500", "111409.592500", "111411.082500", "111412.572500", "111414.062500", "111415.552500", "111417.042500", "111418.532500", "111420.022500", "111421.512500", "111423.002500", "111424.492500", "111425.982500", "111427.472500", "111428.962500", "111430.452500", "111431.942500", "111433.432500", "111434.922500", "111436.412500", "111437.902500", "111439.392500", "111440.882500"],
      "ContentTime": ["111117.489000", "111117.492000", "111117.494000", "111117.497000", "111117.499000", "111117.502000", "111117.504000", "111117.507000", "111117.510000", "111117.512000", "111117.515000", "111117.517000", "111117.520000", "111117.522000", "111117.525000", "111117.527000", "111117.530000", "111117.533000", "111117.535000", "111117.538000", "111117.540000", "111117.543000", "111117.546000", "111117.548000", "111137.492000", "111137.494000", "111137.497000", "111137.499000", "111137.502000", "111137.505000", "111137.507000", "111137.510000", "111137.512000", "111137.515000", "111137.517000", "111137.520000", "111137.522000", "111137.525000", "111137.527000", "111137.530000", "111137.532000", "111137.535000", "111137.537000", "111137.540000", "111157.468000", "111157.471000", "111157.473000", "111157.476000", "111157.478000", "111157.481000", "111157.483000", "111157.486000", "111157.489000", "111157.491000", "111157.494000", "111157.496000", "111157.499000", "111157.501000", "111157.504000", "111157.506000", "111157.509000", "111157.512000", "111157.514000", "111157.517000", "111157.519000", "111217.461000", "111217.464000", "111217.467000", "111217.469000", "111217.472000", "111217.474000", "111217.477000", "111217.486000", "111217.489000", "111217.491000", "111217.494000", "111217.496000", "111217.499000", "111217.501000", "111217.504000", "111217.506000", "111217.509000", "111217.512000", "111217.514000", "111217.517000", "111237.443000", "111237.446000", "111237.449000", "111237.451000", "111237.454000", "111237.456000", "111237.459000", "111237.462000", "111237.464000", "111237.467000", "111237.469000", "111237.472000", "111237.475000", "111237.477000", "111237.480000", "111237.482000", "111237.485000", "111237.487000", "111237.490000", "111237.492000", "111317.475000", "111317.477000", "111317.480000", "111317.486000", "111317.488000", "111317.491000", "111317.494000", "111317.496000", "111317.499000", "111317.501000", "111317.504000", "111317.507000", "111317.509000", "111317.512000", "111317.514000", "111317.517000", "111317.519000", "111317.522000", "111317.524000", "111317.527000", "111317.529000", "111317.532000", "111317.535000", "111317.537000", "111317.540000", "111317.542000", "111317.545000", "111337.415000", "111337.418000", "111337.421000", "111337.423000", "111337.426000", "111337.428000", "111337.431000", "111337.434000", "111337.436000", "111337.439000", "111337.441000", "111337.444000", "111337.446000", "111417.497000", "111417.500000", "111417.510000", "111417.513000", "111417.516000", "111417.518000", "111417.521000", "111417.523000", "111417.526000", "111417.528000", "111417.531000", "111417.534000", "111417.536000", "111417.539000", "111417.541000", "111417.544000", "111417.546000", "111417.549000", "111417.552000", "111417.554000", "111417.557000", "111417.559000", "111417.562000", "111417.565000", "111417.567000", "111417.570000", "111417.572000", "111443.434000", "111443.437000", "111443.440000", "111443.443000", "111443.446000", "111443.449000", "111443.451000", "111443.454000", "111443.457000", "111443.459000", "111443.462000", "111443.465000", "111443.468000", "111443.470000", "111443.473000", "111443.475000", "111443.478000", "111443.481000"],
      "InstanceCreationTime": ["111117.489000", "111117.492000", "111117.494000", "111117.497000", "111117.499000", "111117.502000", "111117.504000", "111117.507000", "111117.510000", "111117.512000", "111117.515000", "111117.517000", "111117.520000", "111117.522000", "111117.525000", "111117.527000", "111117.530000", "111117.533000", "111117.535000", "111117.538000", "111117.540000", "111117.543000", "111117.546000", "111117.548000", "111137.492000", "111137.494000", "111137.497000", "111137.499000", "111137.502000", "111137.505000", "111137.507000", "111137.510000", "111137.512000", "111137.515000", "111137.517000", "111137.520000", "111137.522000", "111137.525000", "111137.527000", "111137.530000", "111137.532000", "111137.535000", "111137.537000", "111137.540000", "111157.468000", "111157.471000", "111157.473000", "111157.476000", "111157.478000", "111157.481000", "111157.483000", "111157.486000", "111157.489000", "111157.491000", "111157.494000", "111157.496000", "111157.499000", "111157.501000", "111157.504000", "111157.506000", "111157.509000", "111157.512000", "111157.514000", "111157.517000", "111157.519000", "111217.461000", "111217.464000", "111217.467000", "111217.469000", "111217.472000", "111217.474000", "111217.477000", "111217.486000", "111217.489000", "111217.491000", "111217.494000", "111217.496000", "111217.499000", "111217.501000", "111217.504000", "111217.506000", "111217.509000", "111217.512000", "111217.514000", "111217.517000", "111237.443000", "111237.446000", "111237.449000", "111237.451000", "111237.454000", "111237.456000", "111237.459000", "111237.462000", "111237.464000", "111237.467000", "111237.469000", "111237.472000", "111237.475000", "111237.477000", "111237.480000", "111237.482000", "111237.485000", "111237.487000", "111237.490000", "111237.492000", "111317.475000", "111317.477000", "111317.480000", "111317.486000", "111317.488000", "111317.491000", "111317.494000", "111317.496000", "111317.499000", "111317.501000", "111317.504000", "111317.507000", "111317.509000", "111317.512000", "111317.514000", "111317.517000", "111317.519000", "111317.522000", "111317.524000", "111317.527000", "111317.529000", "111317.532000", "111317.535000", "111317.537000", "111317.540000", "111317.542000", "111317.545000", "111337.415000", "111337.418000", "111337.421000", "111337.423000", "111337.426000", "111337.428000", "111337.431000", "111337.434000", "111337.436000", "111337.439000", "111337.441000", "111337.444000", "111337.446000", "111417.497000", "111417.500000", "111417.510000", "111417.513000", "111417.516000", "111417.518000", "111417.521000", "111417.523000", "111417.526000", "111417.528000", "111417.531000", "111417.534000", "111417.536000", "111417.539000", "111417.541000", "111417.544000", "111417.546000", "111417.549000", "111417.552000", "111417.554000", "111417.557000", "111417.559000", "111417.562000", "111417.565000", "111417.567000", "111417.570000", "111417.572000", "111443.434000", "111443.437000", "111443.440000", "111443.443000", "111443.446000", "111443.449000", "111443.451000", "111443.454000", "111443.457000", "111443.459000", "111443.462000", "111443.465000", "111443.468000", "111443.470000", "111443.473000", "111443.475000", "111443.478000", "111443.481000"],
      "InstanceNumber": [1, 2, 3, 4, 5, 6, 7, 8, 9, 10, 11, 12, 13, 14, 15, 16, 17, 18, 19, 20, 21, 22, 23, 24, 25, 26, 27, 28, 29, 30, 31, 32, 33, 34, 35, 36, 37, 38, 39, 40, 41, 42, 43, 44, 45, 46, 47, 48, 49, 50, 51, 52, 53, 54, 55, 56, 57, 58, 59, 60, 61, 62, 63, 64, 65, 66, 67, 68, 69, 70, 71, 72, 73, 74, 75, 76, 77, 78, 79, 80, 81, 82, 83, 84, 85, 86, 87, 88, 89, 90, 91, 92, 93, 94, 95, 96, 97, 98, 99, 100, 101, 102, 103, 104, 105, 106, 107, 108, 109, 110, 111, 112, 113, 114, 115, 116, 117, 118, 119, 120, 121, 122, 123, 124, 125, 126, 127, 128, 129, 130, 131, 132, 133, 134, 135, 136, 137, 138, 139, 140, 141, 142, 143, 144, 145, 146, 147, 148, 149, 150, 151, 152, 153, 154, 155, 156, 157, 158, 159, 160, 161, 162, 163, 164, 165, 166, 167, 168, 169, 170, 171, 172, 173, 174, 175, 176, 177, 178, 179, 180, 181, 182, 183, 184, 185, 186, 187, 188, 189, 190],
      "WindowCenter": [4692.0, 4744.0, 4808.0, 4800.0, 4696.0, 4700.0, 4700.0, 4676.0, 4678.0, 4698.0, 4700.0, 4698.0, 4742.0, 4718.0, 4720.0, 4742.0, 4696.0, 4720.0, 4698.0, 4678.0, 4702.0, 4722.0, 4722.0, 4724.0, 4744.0, 4700.0, 4702.0, 4726.0, 4722.0, 4720.0, 4724.0, 4702.0, 4704.0, 4724.0, 4700.0, 4702.0, 4746.0, 4722.0, 4726.0, 4748.0, 4720.0, 4722.0, 4722.0, 4702.0, 4702.0, 4726.0, 4704.0, 4700.0, 4726.0, 4698.0, 4700.0, 4744.0, 4722.0, 4700.0, 4746.0, 4700.0, 4696.0, 4724.0, 4702.0, 4686.0, 4698.0, 4722.0, 4772.0, 4774.0, 4722.0, 4722.0, 4724.0, 4682.0, 4682.0, 4702.0, 4700.0, 4700.0, 4752.0, 4748.0, 4748.0, 4746.0, 4700.0, 4676.0, 4700.0, 4676.0, 4698.0, 4722.0, 4724.0, 4744.0, 4720.0, 4720.0, 4720.0, 4722.0, 4700.0, 4680.0, 4696.0, 4698.0, 4722.0, 4724.0, 4698.0, 4744.0, 4746.0, 4720.0, 4746.0, 4724.0, 4722.0, 4702.0, 4724.0, 4724.0, 4702.0, 4724.0, 4700.0, 4718.0, 4722.0, 4676.0, 4722.0, 4748.0, 4720.0, 4720.0, 4746.0, 4724.0, 4722.0, 4724.0, 4702.0, 4728.0, 4724.0, 4724.0, 4704.0, 4724.0, 4704.0, 4702.0, 4724.0, 4700.0, 4770.0, 4742.0, 4770.0, 4722.0, 4746.0, 4678.0, 4702.0, 4724.0, 4700.0, 4724.0, 4724.0, 4702.0, 4724.0, 4746.0, 4700.0, 4722.0, 4724.0, 4702.0, 4724.0, 4722.0, 4722.0, 4724.0, 4746.0, 4722.0, 4746.0, 4726.0, 4700.0, 4724.0, 4722.0, 4702.0, 4724.0, 4728.0, 4704.0, 4720.0, 4724.0, 4704.0, 4720.0, 4722.0, 4746.0, 4724.0, 4724.0, 4726.0, 4728.0, 4702.0, 4688.0, 4702.0, 4704.0, 4686.0, 4720.0, 4742.0, 4698.0, 4744.0, 4776.0, 4718.0, 4724.0, 4748.0, 4704.0, 4688.0, 4698.0, 4724.0, 4700.0, 4680.0],
      "WindowWidth": [18516.0, 18596.0, 18678.0, 18668.0, 18522.0, 18520.0, 18518.0, 18476.0, 18474.0, 18514.0, 18524.0, 18518.0, 18586.0, 18554.0, 18560.0, 18592.0, 18518.0, 18562.0, 18518.0, 18468.0, 18516.0, 18558.0, 18558.0, 18564.0, 18592.0, 18514.0, 18516.0, 18562.0, 18560.0, 18558.0, 18558.0, 18514.0, 18520.0, 18556.0, 18514.0, 18520.0, 18594.0, 18554.0, 18560.0, 18596.0, 18554.0, 18556.0, 18558.0, 18518.0, 18526.0, 18558.0, 18522.0, 18518.0, 18562.0, 18526.0, 18524.0, 18590.0, 18558.0, 18526.0, 18592.0, 18522.0, 18516.0, 18558.0, 18514.0, 18474.0, 18514.0, 18560.0, 18626.0, 18636.0, 18556.0, 18560.0, 18558.0, 18476.0, 18472.0, 18524.0, 18520.0, 18522.0, 18600.0, 18594.0, 18594.0, 18594.0, 18512.0, 18478.0, 18524.0, 18482.0, 18526.0, 18560.0, 18558.0, 18596.0, 18560.0, 18556.0, 18558.0, 18558.0, 18520.0, 18478.0, 18516.0, 18512.0, 18560.0, 18560.0, 18518.0, 18592.0, 18594.0, 18560.0, 18596.0, 18558.0, 18556.0, 18526.0, 18558.0, 18558.0, 18522.0, 18560.0, 18514.0, 18554.0, 18558.0, 18478.0, 18558.0, 18596.0, 18556.0, 18554.0, 18596.0, 18556.0, 18560.0, 18560.0, 18522.0, 18562.0, 18556.0, 18560.0, 18518.0, 18560.0, 18512.0, 18522.0, 18556.0, 18522.0, 18626.0, 18592.0, 18628.0, 18560.0, 18596.0, 18480.0, 18520.0, 18558.0, 18514.0, 18560.0, 18562.0, 18526.0, 18560.0, 18592.0, 18518.0, 18556.0, 18564.0, 18512.0, 18554.0, 18560.0, 18554.0, 18562.0, 18594.0, 18556.0, 18594.0, 18566.0, 18524.0, 18556.0, 18556.0, 18514.0, 18558.0, 18566.0, 18526.0, 18560.0, 18556.0, 18520.0, 18560.0, 18558.0, 18594.0, 18562.0, 18560.0, 18562.0, 18564.0, 18518.0, 18478.0, 18526.0, 18522.0, 18474.0, 18558.0, 18590.0, 18520.0, 18596.0, 18632.0, 18558.0, 18562.0, 18596.0, 18516.0, 18476.0, 18522.0, 18566.0, 18526.0, 18480.0]
    },
    "slices": {}
  }
}