{
  "AcquisitionMatrixPE": 104,
  "AcquisitionNumber": 1,
  "AcquisitionTime": "11:16:3.995000",
  "BandwidthPerPixelPhaseEncode": 17.17,
  "BaseResolution": 104,
  "BodyPartExamined": "BRAIN",
  "CoilString": "HC1-7;NC1_2",
  "ConsistencyInfo": "N4_VE11C_LATEST_20160120",
  "ConversionSoftware": "dcm2niix",
  "ConversionSoftwareVersion": "v1.0.20190902",
  "DerivedVendorReportedEchoSpacing": 0.000560011,
  "DeviceSerialNumber": "167006",
  "DwellTime": 2.1e-06,
  "EchoTime": 0.037,
  "EchoTrainLength": 104,
  "EffectiveEchoSpacing": 0.000560011,
  "FlipAngle": 52,
  "ImageComments": "Unaliased_MB4_PE3_LB",
  "ImageOrientationPatientDICOM": [0.999429, 0.0335224, -0.00418916, -0.0307099, 0.849825, -0.52617],
  "ImageType": [
    "ORIGINAL",
    "PRIMARY",
    "M",
    "MB",
    "ND",
    "MOSAIC"
],
  "ImagingFrequency": 123.259,
  "InPlanePhaseEncodingDirectionDICOM": "COL",
  "InstitutionAddress": "Chemin_Queen-Mary_4565_Montreal_District_CA_H3W_1W5",
  "InstitutionName": "IUGM",
  "InstitutionalDepartmentName": "Department",
  "MRAcquisitionType": "2D",
  "MagneticFieldStrength": 3,
  "Manufacturer": "Siemens",
  "ManufacturersModelName": "Prisma_fit",
  "Modality": "MR",
  "MultibandAccelerationFactor": 4,
  "PartialFourier": 1,
  "PatientPosition": "HFS",
  "PercentPhaseFOV": 100,
  "PhaseEncodingDirection": "j",
  "PhaseEncodingSteps": 104,
  "PhaseResolution": 1,
  "PixelBandwidth": 2290,
  "ProcedureStepDescription": "memory_things",
  "ProtocolName": "func_task-things_run-4",
  "PulseSequenceDetails": "%CustomerSeq%_cmrr_mbep2d_bold",
  "ReceiveCoilActiveElements": "HC1-7;NC1,2",
  "ReceiveCoilName": "HeadNeck_64",
  "ReconMatrixPE": 104,
  "RepetitionTime": 1.49,
  "SAR": 0.056501,
  "ScanOptions": "FS",
  "ScanningSequence": "EP",
  "SequenceName": "epfid2d1_104",
  "SequenceVariant": "SK_SS",
  "SeriesDescription": "func_task-things_run-4",
  "SeriesNumber": 19,
  "ShimSetting": [620, -7173, -8866, 308, 0, -124, -34, -42],
  "SliceThickness": 2,
  "SliceTiming": [0, 0.7825, 0.0975, 0.8825, 0.195, 0.98, 0.2925, 1.0775, 0.3925, 1.175, 0.49, 1.2725, 0.5875, 1.3725, 0.685, 0, 0.7825, 0.0975, 0.8825, 0.195, 0.98, 0.2925, 1.0775, 0.3925, 1.175, 0.49, 1.2725, 0.5875, 1.3725, 0.685, 0, 0.7825, 0.0975, 0.8825, 0.195, 0.98, 0.2925, 1.0775, 0.3925, 1.175, 0.49, 1.2725, 0.5875, 1.3725, 0.685, 0, 0.7825, 0.0975, 0.8825, 0.195, 0.98, 0.2925, 1.0775, 0.3925, 1.175, 0.49, 1.2725, 0.5875, 1.3725, 0.685],
  "SoftwareVersions": "syngo_MR_E11",
  "SpacingBetweenSlices": 2,
  "StationName": "MRC35049",
  "TaskName": "things",
  "TotalReadoutTime": 0.0576811,
  "TxRefAmp": 287.416,
  "WipMemBlock": "d4471a12-c4cf-4c7c-9d02-cb38981b2cf0||Sequence: R016 ve11c/master r/e634e98; Dec 19 2017 11:00:25 by eja",
  "dcmmeta_affine": [
    [-1.9988583326339722, -0.0614197812974453, 0.02815680019557476, 109.51152038574219],
    [-0.06704474985599518, 1.6996498107910156, -1.051995873451233, -46.41035842895508],
    [-0.008378328755497932, 1.0523393154144287, 1.700738549232483, -99.27816772460938],
    [0.0, 0.0, 0.0, 1.0]
],
  "dcmmeta_reorient_transform": [
    [0.0, -1.0, 0.0, 103.0],
    [1.0, 0.0, 0.0, 0.0],
    [0.0, 0.0, 1.0, 0.0],
    [0.0, 0.0, 0.0, 1.0]
],
  "dcmmeta_shape": [104, 104, 60, 190],
  "dcmmeta_slice_dim": 2,
  "dcmmeta_version": 0.6,
  "global": {
    "const": {
      "AcquisitionMatrix": [104, 0, 0, 104],
      "AngioFlag": "N",
      "BitsAllocated": 16,
      "BitsStored": 16,
      "BodyPartExamined": "BRAIN",
      "Columns": 832,
      "EchoNumbers": 1,
      "EchoTime": 37.0,
      "EchoTrainLength": 104,
      "FlipAngle": 52.0,
      "HighBit": 15,
      "ImageOrientationPatient": [0.99942918771109, 0.03352237539307, -0.0041891644939, -0.0307098907066, 0.84982491596245, -0.5261696635328],
      "ImagePositionPatient": [-808.41292785558, -771.73040401888, 395.21400832767],
      "ImageType": [
        "ORIGINAL",
        "PRIMARY",
        "M",
        "MB",
        "ND",
        "MOSAIC"
],
      "ImagedNucleus": "1H",
      "ImagingFrequency": 123.258932,
      "InPlanePhaseEncodingDirection": "COL",
      "MRAcquisitionType": "2D",
      "MagneticFieldStrength": 3.0,
      "Manufacturer": "SIEMENS",
      "ManufacturerModelName": "Prisma_fit",
      "Modality": "MR",
      "NumberOfAverages": 1.0,
      "NumberOfPhaseEncodingSteps": 104,
      "PercentPhaseFieldOfView": 100.0,
      "PercentSampling": 100.0,
      "PerformedProcedureStepStartTime": "102151.617000",
      "PhotometricInterpretation": "MONOCHROME2",
      "PixelBandwidth": 2290.0,
      "PixelRepresentation": 0,
      "PixelSpacing": [2.0, 2.0],
      "ProtocolName": "func_task-things_run-4",
      "RepetitionTime": 1490.0,
      "Rows": 832,
      "SAR": 0.05650104193225,
      "SamplesPerPixel": 1,
      "ScanOptions": "FS",
      "ScanningSequence": "EP",
      "SequenceName": "epfid2d1_104",
      "SequenceVariant": [
        "SK",
        "SS"
],
      "SeriesDescription": "func_task-things_run-4",
      "SeriesNumber": 19,
      "SeriesTime": "111720.705000",
      "SliceLocation": -58.469606237134,
      "SliceThickness": 2.0,
      "SmallestImagePixelValue": 0,
      "SoftwareVersions": "syngo MR E11",
      "SpacingBetweenSlices": 1.9999999879879,
      "SpecificCharacterSet": "ISO_IR 100",
      "StudyID": "1",
      "StudyTime": "102151.553000",
      "TransmitCoilName": "Body",
      "VariableFlipAngleFlag": "N",
      "WindowCenterWidthExplanation": "Algo1",
      "dBdt": 0.0},
    "slices": {}
  },
  "time": {
    "samples": {
      "AcquisitionNumber": [1, 2, 3, 4, 5, 6, 7, 8, 9, 10, 11, 12, 13, 14, 15, 16, 17, 18, 19, 20, 21, 22, 23, 24, 25, 26, 27, 28, 29, 30, 31, 32, 33, 34, 35, 36, 37, 38, 39, 40, 41, 42, 43, 44, 45, 46, 47, 48, 49, 50, 51, 52, 53, 54, 55, 56, 57, 58, 59, 60, 61, 62, 63, 64, 65, 66, 67, 68, 69, 70, 71, 72, 73, 74, 75, 76, 77, 78, 79, 80, 81, 82, 83, 84, 85, 86, 87, 88, 89, 90, 91, 92, 93, 94, 95, 96, 97, 98, 99, 100, 101, 102, 103, 104, 105, 106, 107, 108, 109, 110, 111, 112, 113, 114, 115, 116, 117, 118, 119, 120, 121, 122, 123, 124, 125, 126, 127, 128, 129, 130, 131, 132, 133, 134, 135, 136, 137, 138, 139, 140, 141, 142, 143, 144, 145, 146, 147, 148, 149, 150, 151, 152, 153, 154, 155, 156, 157, 158, 159, 160, 161, 162, 163, 164, 165, 166, 167, 168, 169, 170, 171, 172, 173, 174, 175, 176, 177, 178, 179, 180, 181, 182, 183, 184, 185, 186, 187, 188, 189, 190],
      "AcquisitionTime": ["111603.995000", "111605.485000", "111606.975000", "111608.465000", "111609.955000", "111611.445000", "111612.935000", "111614.425000", "111615.915000", "111617.405000", "111618.895000", "111620.385000", "111621.875000", "111623.365000", "111624.855000", "111626.345000", "111627.835000", "111629.325000", "111630.815000", "111632.305000", "111633.795000", "111635.285000", "111636.775000", "111638.265000", "111639.755000", "111641.245000", "111642.735000", "111644.225000", "111645.715000", "111647.205000", "111648.695000", "111650.185000", "111651.675000", "111653.165000", "111654.655000", "111656.145000", "111657.635000", "111659.125000", "111700.615000", "111702.105000", "111703.595000", "111705.085000", "111706.575000", "111708.065000", "111709.555000", "111711.045000", "111712.535000", "111714.025000", "111715.515000", "111717.005000", "111718.495000", "111719.985000", "111721.475000", "111722.965000", "111724.455000", "111725.945000", "111727.435000", "111728.925000", "111730.415000", "111731.905000", "111733.395000", "111734.885000", "111736.375000", "111737.865000", "111739.355000", "111740.845000", "111742.335000", "111743.825000", "111745.315000", "111746.805000", "111748.295000", "111749.785000", "111751.275000", "111752.765000", "111754.255000", "111755.745000", "111757.235000", "111758.725000", "111800.215000", "111801.705000", "111803.195000", "111804.685000", "111806.175000", "111807.665000", "111809.155000", "111810.645000", "111812.135000", "111813.625000", "111815.115000", "111816.605000", "111818.095000", "111819.585000", "111821.075000", "111822.565000", "111824.055000", "111825.545000", "111827.035000", "111828.525000", "111830.015000", "111831.505000", "111832.995000", "111834.485000", "111835.975000", "111837.465000", "111838.955000", "111840.445000", "111841.935000", "111843.425000", "111844.915000", "111846.405000", "111847.895000", "111849.385000", "111850.875000", "111852.365000", "111853.855000", "111855.345000", "111856.835000", "111858.325000", "111859.815000", "111901.305000", "111902.795000", "111904.285000", "111905.775000", "111907.265000", "111908.755000", "111910.245000", "111911.735000", "111913.225000", "111914.715000", "111916.205000", "111917.695000", "111919.185000", "111920.675000", "111922.165000", "111923.655000", "111925.145000", "111926.635000", "111928.125000", "111929.615000", "111931.105000", "111932.595000", "111934.085000", "111935.575000", "111937.065000", "111938.555000", "111940.045000", "111941.535000", "111943.025000", "111944.515000", "111946.005000", "111947.495000", "111948.985000", "111950.475000", "111951.965000", "111953.455000", "111954.945000", "111956.435000", "111957.925000", "111959.415000", "112000.905000", "112002.395000", "112003.885000", "112005.375000", "112006.865000", "112008.355000", "112009.845000", "112011.335000", "112012.825000", "112014.315000", "112015.805000", "112017.295000", "112018.785000", "112020.275000", "112021.765000", "112023.255000", "112024.745000", "112026.235000", "112027.725000", "112029.215000", "112030.705000", "112032.195000", "112033.685000", "112035.175000", "112036.665000", "112038.155000", "112039.645000", "112041.135000", "112042.625000", "112044.115000", "112045.605000"],
      "ContentTime": ["111720.708000", "111720.712000", "111720.716000", "111720.719000", "111720.722000", "111720.726000", "111720.729000", "111720.733000", "111720.736000", "111720.744000", "111720.747000", "111720.751000", "111720.754000", "111720.758000", "111720.761000", "111720.765000", "111720.768000", "111720.771000", "111720.775000", "111720.778000", "111720.781000", "111720.785000", "111720.788000", "111720.802000", "111740.673000", "111740.677000", "111740.680000", "111740.684000", "111740.687000", "111740.690000", "111740.694000", "111740.697000", "111740.700000", "111740.704000", "111740.707000", "111740.711000", "111740.714000", "111740.717000", "111740.721000", "111740.724000", "111740.727000", "111740.731000", "111740.734000", "111740.738000", "111800.673000", "111800.677000", "111800.680000", "111800.684000", "111800.687000", "111800.690000", "111800.694000", "111800.697000", "111800.701000", "111800.704000", "111800.712000", "111800.715000", "111800.718000", "111800.722000", "111800.725000", "111800.729000", "111800.732000", "111800.735000", "111800.739000", "111800.742000", "111820.673000", "111820.677000", "111820.680000", "111820.684000", "111820.687000", "111820.691000", "111820.694000", "111820.697000", "111820.701000", "111820.704000", "111820.708000", "111820.711000", "111820.715000", "111820.718000", "111820.728000", "111820.732000", "111820.735000", "111820.739000", "111820.743000", "111820.753000", "111840.673000", "111840.677000", "111840.680000", "111840.684000", "111840.688000", "111840.691000", "111840.694000", "111840.698000", "111840.701000", "111840.705000", "111840.708000", "111840.711000", "111840.715000", "111840.719000", "111840.723000", "111840.727000", "111840.731000", "111840.735000", "111840.740000", "111840.744000", "111920.673000", "111920.677000", "111920.680000", "111920.684000", "111920.687000", "111920.691000", "111920.694000", "111920.697000", "111920.701000", "111920.704000", "111920.708000", "111920.711000", "111920.714000", "111920.718000", "111920.721000", "111920.725000", "111920.728000", "111920.732000", "111920.735000", "111920.738000", "111920.742000", "111920.745000", "111920.749000", "111920.752000", "111920.756000", "111920.759000", "111920.762000", "112000.673000", "112000.677000", "112000.681000", "112000.684000", "112000.687000", "112000.691000", "112000.694000", "112000.698000", "112000.701000", "112000.705000", "112000.708000", "112000.712000", "112000.715000", "112000.719000", "112000.722000", "112000.726000", "112000.729000", "112000.732000", "112000.736000", "112000.739000", "112000.743000", "112000.746000", "112000.750000", "112000.753000", "112000.756000", "112000.760000", "112000.763000", "112040.673000", "112040.677000", "112040.680000", "112040.684000", "112040.687000", "112040.691000", "112040.694000", "112040.698000", "112040.701000", "112040.705000", "112040.708000", "112040.712000", "112040.715000", "112040.718000", "112040.722000", "112040.725000", "112040.729000", "112040.732000", "112040.736000", "112040.745000", "112040.749000", "112040.752000", "112040.756000", "112040.759000", "112040.762000", "112040.766000", "112040.769000", "112047.458000", "112047.462000", "112047.465000", "112047.469000", "112047.472000"],
      "InstanceCreationTime": ["111720.708000", "111720.712000", "111720.716000", "111720.719000", "111720.722000", "111720.726000", "111720.729000", "111720.733000", "111720.736000", "111720.744000", "111720.747000", "111720.751000", "111720.754000", "111720.758000", "111720.761000", "111720.765000", "111720.768000", "111720.771000", "111720.775000", "111720.778000", "111720.781000", "111720.785000", "111720.788000", "111720.802000", "111740.673000", "111740.677000", "111740.680000", "111740.684000", "111740.687000", "111740.690000", "111740.694000", "111740.697000", "111740.700000", "111740.704000", "111740.707000", "111740.711000", "111740.714000", "111740.717000", "111740.721000", "111740.724000", "111740.727000", "111740.731000", "111740.734000", "111740.738000", "111800.673000", "111800.677000", "111800.680000", "111800.684000", "111800.687000", "111800.690000", "111800.694000", "111800.697000", "111800.701000", "111800.704000", "111800.712000", "111800.715000", "111800.718000", "111800.722000", "111800.725000", "111800.729000", "111800.732000", "111800.735000", "111800.739000", "111800.742000", "111820.673000", "111820.677000", "111820.680000", "111820.684000", "111820.687000", "111820.691000", "111820.694000", "111820.697000", "111820.701000", "111820.704000", "111820.708000", "111820.711000", "111820.715000", "111820.718000", "111820.728000", "111820.732000", "111820.735000", "111820.739000", "111820.743000", "111820.753000", "111840.673000", "111840.677000", "111840.680000", "111840.684000", "111840.688000", "111840.691000", "111840.694000", "111840.698000", "111840.701000", "111840.705000", "111840.708000", "111840.711000", "111840.715000", "111840.719000", "111840.723000", "111840.727000", "111840.731000", "111840.735000", "111840.740000", "111840.744000", "111920.673000", "111920.677000", "111920.680000", "111920.684000", "111920.687000", "111920.691000", "111920.694000", "111920.697000", "111920.701000", "111920.704000", "111920.708000", "111920.711000", "111920.714000", "111920.718000", "111920.721000", "111920.725000", "111920.728000", "111920.732000", "111920.735000", "111920.738000", "111920.742000", "111920.745000", "111920.749000", "111920.752000", "111920.756000", "111920.759000", "111920.762000", "112000.673000", "112000.677000", "112000.681000", "112000.684000", "112000.687000", "112000.691000", "112000.694000", "112000.698000", "112000.701000", "112000.705000", "112000.708000", "112000.712000", "112000.715000", "112000.719000", "112000.722000", "112000.726000", "112000.729000", "112000.732000", "112000.736000", "112000.739000", "112000.743000", "112000.746000", "112000.750000", "112000.753000", "112000.756000", "112000.760000", "112000.763000", "112040.673000", "112040.677000", "112040.680000", "112040.684000", "112040.687000", "112040.691000", "112040.694000", "112040.698000", "112040.701000", "112040.705000", "112040.708000", "112040.712000", "112040.715000", "112040.718000", "112040.722000", "112040.725000", "112040.729000", "112040.732000", "112040.736000", "112040.745000", "112040.749000", "112040.752000", "112040.756000", "112040.759000", "112040.762000", "112040.766000", "112040.769000", "112047.458000", "112047.462000", "112047.465000", "112047.469000", "112047.472000"],
      "InstanceNumber": [1, 2, 3, 4, 5, 6, 7, 8, 9, 10, 11, 12, 13, 14, 15, 16, 17, 18, 19, 20, 21, 22, 23, 24, 25, 26, 27, 28, 29, 30, 31, 32, 33, 34, 35, 36, 37, 38, 39, 40, 41, 42, 43, 44, 45, 46, 47, 48, 49, 50, 51, 52, 53, 54, 55, 56, 57, 58, 59, 60, 61, 62, 63, 64, 65, 66, 67, 68, 69, 70, 71, 72, 73, 74, 75, 76, 77, 78, 79, 80, 81, 82, 83, 84, 85, 86, 87, 88, 89, 90, 91, 92, 93, 94, 95, 96, 97, 98, 99, 100, 101, 102, 103, 104, 105, 106, 107, 108, 109, 110, 111, 112, 113, 114, 115, 116, 117, 118, 119, 120, 121, 122, 123, 124, 125, 126, 127, 128, 129, 130, 131, 132, 133, 134, 135, 136, 137, 138, 139, 140, 141, 142, 143, 144, 145, 146, 147, 148, 149, 150, 151, 152, 153, 154, 155, 156, 157, 158, 159, 160, 161, 162, 163, 164, 165, 166, 167, 168, 169, 170, 171, 172, 173, 174, 175, 176, 177, 178, 179, 180, 181, 182, 183, 184, 185, 186, 187, 188, 189, 190],
      "LargestImagePixelValue": [44503, 43348, 41823, 42233, 42643, 42789, 42222, 41378, 42067, 42366, 41590, 41872, 42095, 41437, 41625, 42510, 42192, 42176, 42571, 41452, 42235, 43079, 41772, 42775, 43105, 41910, 42305, 42660, 41555, 42281, 41793, 41598, 42201, 41442, 41375, 42089, 42435, 42291, 42761, 41519, 42451, 42070, 42681, 41556, 41530, 41287, 41545, 42211, 41470, 40579, 41208, 40487, 40675, 40977, 40706, 41247, 41372, 41017, 41097, 40940, 41218, 40408, 40778, 41221, 40327, 40919, 41295, 40675, 40464, 40540, 40088, 40380, 40789, 40335, 40605, 41122, 40855, 41575, 41468, 40590, 41076, 39953, 40512, 40488, 40966, 40159, 40923, 41416, 41559, 41243, 41260, 40462, 40716, 41003, 40458, 40607, 40469, 40611, 40635, 40398, 40155, 40904, 40079, 40408, 40295, 41098, 40774, 40743, 41075, 41053, 40762, 41023, 40635, 40501, 40787, 41048, 41177, 40807, 41353, 41307, 41147, 40768, 40412, 40699, 40746, 40765, 40592, 40874, 40959, 40790, 41412, 41244, 40926, 41174, 41217, 41189, 41485, 40887, 41106, 41013, 41006, 42024, 41750, 41344, 40785, 40927, 40834, 41705, 40799, 41499, 41408, 40787, 41485, 41073, 40506, 40502, 40261, 40622, 40260, 40788, 40493, 40921, 40750, 40369, 40969, 40952, 40643, 41060, 40972, 41149, 41276, 41140, 41238, 40888, 41155, 41208, 41555, 40766, 40680, 40790, 40775, 40467, 40858, 40849, 41575, 40873, 42167, 40834, 40438, 41340],
      "WindowCenter": [10837.0, 10825.0, 10818.0, 10824.0, 10788.0, 10762.0, 10777.0, 10759.0, 10801.0, 10807.0, 10771.0, 10774.0, 10788.0, 10788.0, 10808.0, 10813.0, 10792.0, 10777.0, 10771.0, 10749.0, 10762.0, 10771.0, 10754.0, 10768.0, 10779.0, 10772.0, 10789.0, 10788.0, 10758.0, 10732.0, 10753.0, 10792.0, 10816.0, 10801.0, 10788.0, 10780.0, 10764.0, 10755.0, 10756.0, 10736.0, 10743.0, 10744.0, 10759.0, 10747.0, 10732.0, 10742.0, 10760.0, 10803.0, 10789.0, 10756.0, 10750.0, 10727.0, 10716.0, 10707.0, 10704.0, 10711.0, 10711.0, 10753.0, 10714.0, 10710.0, 10722.0, 10717.0, 10728.0, 10709.0, 10675.0, 10674.0, 10718.0, 10721.0, 10745.0, 10791.0, 10767.0, 10748.0, 10742.0, 10721.0, 10727.0, 10721.0, 10699.0, 10733.0, 10729.0, 10722.0, 10715.0, 10675.0, 10686.0, 10694.0, 10729.0, 10689.0, 10674.0, 10666.0, 10684.0, 10711.0, 10715.0, 10707.0, 10718.0, 10714.0, 10699.0, 10701.0, 10698.0, 10711.0, 10722.0, 10717.0, 10691.0, 10702.0, 10721.0, 10749.0, 10752.0, 10736.0, 10709.0, 10696.0, 10728.0, 10711.0, 10705.0, 10703.0, 10697.0, 10708.0, 10698.0, 10691.0, 10700.0, 10702.0, 10708.0, 10720.0, 10740.0, 10727.0, 10704.0, 10706.0, 10714.0, 10726.0, 10728.0, 10715.0, 10694.0, 10683.0, 10698.0, 10710.0, 10713.0, 10704.0, 10703.0, 10710.0, 10716.0, 10721.0, 10724.0, 10725.0, 10743.0, 10764.0, 10738.0, 10733.0, 10743.0, 10749.0, 10749.0, 10731.0, 10706.0, 10714.0, 10693.0, 10678.0, 10743.0, 10793.0, 10783.0, 10769.0, 10730.0, 10720.0, 10694.0, 10702.0, 10702.0, 10700.0, 10703.0, 10680.0, 10687.0, 10686.0, 10677.0, 10693.0, 10685.0, 10684.0, 10705.0, 10710.0, 10719.0, 10690.0, 10690.0, 10709.0, 10736.0, 10719.0, 10708.0, 10696.0, 10711.0, 10701.0, 10726.0, 10718.0, 10705.0, 10699.0, 10723.0, 10722.0, 10697.0, 10702.0],
      "WindowWidth": [23327.0, 23266.0, 23238.0, 23241.0, 23147.0, 23079.0, 23121.0, 23075.0, 23165.0, 23180.0, 23103.0, 23103.0, 23133.0, 23138.0, 23183.0, 23194.0, 23145.0, 23111.0, 23094.0, 23047.0, 23073.0, 23087.0, 23055.0, 23084.0, 23107.0, 23099.0, 23136.0, 23131.0, 23071.0, 23007.0, 23055.0, 23144.0, 23196.0, 23168.0, 23138.0, 23114.0, 23077.0, 23058.0, 23055.0, 23017.0, 23033.0, 23035.0, 23066.0, 23045.0, 23013.0, 23037.0, 23072.0, 23169.0, 23140.0, 23070.0, 23049.0, 23000.0, 22971.0, 22951.0, 22944.0, 22955.0, 22956.0, 23060.0, 22966.0, 22952.0, 22982.0, 22974.0, 23001.0, 22960.0, 22887.0, 22878.0, 22976.0, 22984.0, 23040.0, 23147.0, 23097.0, 23045.0, 23032.0, 22983.0, 22997.0, 22979.0, 22930.0, 23006.0, 22998.0, 22986.0, 22972.0, 22889.0, 22906.0, 22923.0, 22998.0, 22919.0, 22876.0, 22853.0, 22891.0, 22950.0, 22965.0, 22950.0, 22975.0, 22966.0, 22935.0, 22936.0, 22931.0, 22957.0, 22984.0, 22975.0, 22921.0, 22938.0, 22986.0, 23050.0, 23056.0, 23012.0, 22954.0, 22925.0, 22997.0, 22959.0, 22945.0, 22940.0, 22929.0, 22952.0, 22926.0, 22909.0, 22927.0, 22936.0, 22948.0, 22978.0, 23022.0, 23000.0, 22951.0, 22949.0, 22965.0, 22994.0, 22999.0, 22966.0, 22920.0, 22893.0, 22922.0, 22951.0, 22958.0, 22938.0, 22932.0, 22948.0, 22963.0, 22978.0, 22987.0, 22992.0, 23030.0, 23072.0, 23019.0, 23006.0, 23028.0, 23045.0, 23045.0, 23005.0, 22949.0, 22961.0, 22915.0, 22889.0, 23025.0, 23144.0, 23126.0, 23088.0, 23009.0, 22981.0, 22922.0, 22940.0, 22937.0, 22935.0, 22945.0, 22894.0, 22905.0, 22900.0, 22883.0, 22915.0, 22896.0, 22896.0, 22943.0, 22957.0, 22977.0, 22915.0, 22908.0, 22954.0, 23013.0, 22984.0, 22956.0, 22927.0, 22961.0, 22937.0, 22990.0, 22973.0, 22939.0, 22929.0, 22979.0, 22979.0, 22929.0, 22934.0]
    },
    "slices": {}
  }
}