{
  "AcquisitionMatrixPE": 104,
  "AcquisitionNumber": 1,
  "AcquisitionTime": "11:03:53.240000",
  "BandwidthPerPixelPhaseEncode": 17.17,
  "BaseResolution": 104,
  "BodyPartExamined": "BRAIN",
  "CoilString": "HC1-7;NC1_2",
  "ConsistencyInfo": "N4_VE11C_LATEST_20160120",
  "ConversionSoftware": "dcm2niix",
  "ConversionSoftwareVersion": "v1.0.20190902",
  "DerivedVendorReportedEchoSpacing": 0.000560011,
  "DeviceSerialNumber": "167006",
  "DwellTime": 2.1e-06,
  "EchoTime": 0.037,
  "EchoTrainLength": 104,
  "EffectiveEchoSpacing": 0.000560011,
  "FlipAngle": 52,
  "ImageComments": "Unaliased_MB4_PE3_LB",
  "ImageOrientationPatientDICOM": [0.999429, 0.0335224, -0.00418916, -0.0307099, 0.849825, -0.52617],
  "ImageType": [
    "ORIGINAL",
    "PRIMARY",
    "P",
    "MB",
    "ND",
    "MOSAIC"
],
  "ImagingFrequency": 123.259,
  "InPlanePhaseEncodingDirectionDICOM": "COL",
  "InstitutionAddress": "Chemin_Queen-Mary_4565_Montreal_District_CA_H3W_1W5",
  "InstitutionName": "IUGM",
  "InstitutionalDepartmentName": "Department",
  "MRAcquisitionType": "2D",
  "MagneticFieldStrength": 3,
  "Manufacturer": "Siemens",
  "ManufacturersModelName": "Prisma_fit",
  "Modality": "MR",
  "MultibandAccelerationFactor": 4,
  "PartialFourier": 1,
  "PatientPosition": "HFS",
  "PercentPhaseFOV": 100,
  "PhaseEncodingDirection": "j",
  "PhaseEncodingSteps": 104,
  "PhaseResolution": 1,
  "PixelBandwidth": 2290,
  "ProcedureStepDescription": "memory_things",
  "ProtocolName": "func_task-things_run-2",
  "PulseSequenceDetails": "%CustomerSeq%_cmrr_mbep2d_bold",
  "ReceiveCoilActiveElements": "HC1-7;NC1,2",
  "ReceiveCoilName": "HeadNeck_64",
  "ReconMatrixPE": 104,
  "RepetitionTime": 1.49,
  "SAR": 0.056501,
  "ScanOptions": "FS",
  "ScanningSequence": "EP",
  "SequenceName": "epfid2d1_104",
  "SequenceVariant": "SK_SS",
  "SeriesDescription": "func_task-things_run-2",
  "SeriesNumber": 14,
  "ShimSetting": [620, -7173, -8866, 308, 0, -124, -34, -42],
  "SliceThickness": 2,
  "SliceTiming": [0, 0.785, 0.0975, 0.8825, 0.1975, 0.98, 0.295, 1.0775, 0.3925, 1.1775, 0.49, 1.275, 0.5875, 1.3725, 0.6875, 0, 0.785, 0.0975, 0.8825, 0.1975, 0.98, 0.295, 1.0775, 0.3925, 1.1775, 0.49, 1.275, 0.5875, 1.3725, 0.6875, 0, 0.785, 0.0975, 0.8825, 0.1975, 0.98, 0.295, 1.0775, 0.3925, 1.1775, 0.49, 1.275, 0.5875, 1.3725, 0.6875, 0, 0.785, 0.0975, 0.8825, 0.1975, 0.98, 0.295, 1.0775, 0.3925, 1.1775, 0.49, 1.275, 0.5875, 1.3725, 0.6875],
  "SoftwareVersions": "syngo_MR_E11",
  "SpacingBetweenSlices": 2,
  "StationName": "MRC35049",
  "TaskName": "things",
  "TotalReadoutTime": 0.0576811,
  "TxRefAmp": 287.416,
  "WipMemBlock": "dd8179c6-97a5-40a2-8c5a-59a0b259591b||Sequence: R016 ve11c/master r/e634e98; Dec 19 2017 11:00:25 by eja",
  "dcmmeta_affine": [
    [-1.9988583326339722, -0.0614197812974453, 0.02815680019557476, 109.51152038574219],
    [-0.06704474985599518, 1.6996498107910156, -1.051995873451233, -46.41035842895508],
    [-0.008378328755497932, 1.0523393154144287, 1.700738549232483, -99.27816772460938],
    [0.0, 0.0, 0.0, 1.0]
],
  "dcmmeta_reorient_transform": [
    [0.0, -1.0, 0.0, 103.0],
    [1.0, 0.0, 0.0, 0.0],
    [0.0, 0.0, 1.0, 0.0],
    [0.0, 0.0, 0.0, 1.0]
],
  "dcmmeta_shape": [104, 104, 60, 190],
  "dcmmeta_slice_dim": 2,
  "dcmmeta_version": 0.6,
  "global": {
    "const": {
      "AcquisitionMatrix": [104, 0, 0, 104],
      "AngioFlag": "N",
      "BitsAllocated": 16,
      "BitsStored": 16,
      "BodyPartExamined": "BRAIN",
      "Columns": 832,
      "EchoNumbers": 1,
      "EchoTime": 37.0,
      "EchoTrainLength": 104,
      "FlipAngle": 52.0,
      "HighBit": 15,
      "ImageOrientationPatient": [0.99942918771109, 0.03352237539307, -0.0041891644939, -0.0307098907066, 0.84982491596245, -0.5261696635328],
      "ImagePositionPatient": [-808.41292785558, -771.73040401888, 395.21400832767],
      "ImageType": [
        "ORIGINAL",
        "PRIMARY",
        "P",
        "MB",
        "ND",
        "MOSAIC"
],
      "ImagedNucleus": "1H",
      "ImagingFrequency": 123.258923,
      "InPlanePhaseEncodingDirection": "COL",
      "LargestImagePixelValue": 4095,
      "MRAcquisitionType": "2D",
      "MagneticFieldStrength": 3.0,
      "Manufacturer": "SIEMENS",
      "ManufacturerModelName": "Prisma_fit",
      "Modality": "MR",
      "NumberOfAverages": 1.0,
      "NumberOfPhaseEncodingSteps": 104,
      "PercentPhaseFieldOfView": 100.0,
      "PercentSampling": 100.0,
      "PerformedProcedureStepStartTime": "102151.617000",
      "PhotometricInterpretation": "MONOCHROME2",
      "PixelBandwidth": 2290.0,
      "PixelRepresentation": 0,
      "PixelSpacing": [2.0, 2.0],
      "ProtocolName": "func_task-things_run-2",
      "RepetitionTime": 1490.0,
      "RescaleIntercept": -4096.0,
      "RescaleSlope": 2.0,
      "RescaleType": "US",
      "Rows": 832,
      "SAR": 0.05650104193225,
      "SamplesPerPixel": 1,
      "ScanOptions": "FS",
      "ScanningSequence": "EP",
      "SequenceName": "epfid2d1_104",
      "SequenceVariant": [
        "SK",
        "SS"
],
      "SeriesDescription": "func_task-things_run-2",
      "SeriesNumber": 14,
      "SeriesTime": "110500.702000",
      "SliceLocation": -58.469606237134,
      "SliceThickness": 2.0,
      "SmallestImagePixelValue": 0,
      "SoftwareVersions": "syngo MR E11",
      "SpacingBetweenSlices": 1.9999999879879,
      "SpecificCharacterSet": "ISO_IR 100",
      "StudyID": "1",
      "StudyTime": "102151.553000",
      "TransmitCoilName": "Body",
      "VariableFlipAngleFlag": "N",
      "WindowCenterWidthExplanation": "Algo1",
      "dBdt": 0.0},
    "slices": {}
  },
  "time": {
    "samples": {
      "AcquisitionNumber": [1, 2, 3, 4, 5, 6, 7, 8, 9, 10, 11, 12, 13, 14, 15, 16, 17, 18, 19, 20, 21, 22, 23, 24, 25, 26, 27, 28, 29, 30, 31, 32, 33, 34, 35, 36, 37, 38, 39, 40, 41, 42, 43, 44, 45, 46, 47, 48, 49, 50, 51, 52, 53, 54, 55, 56, 57, 58, 59, 60, 61, 62, 63, 64, 65, 66, 67, 68, 69, 70, 71, 72, 73, 74, 75, 76, 77, 78, 79, 80, 81, 82, 83, 84, 85, 86, 87, 88, 89, 90, 91, 92, 93, 94, 95, 96, 97, 98, 99, 100, 101, 102, 103, 104, 105, 106, 107, 108, 109, 110, 111, 112, 113, 114, 115, 116, 117, 118, 119, 120, 121, 122, 123, 124, 125, 126, 127, 128, 129, 130, 131, 132, 133, 134, 135, 136, 137, 138, 139, 140, 141, 142, 143, 144, 145, 146, 147, 148, 149, 150, 151, 152, 153, 154, 155, 156, 157, 158, 159, 160, 161, 162, 163, 164, 165, 166, 167, 168, 169, 170, 171, 172, 173, 174, 175, 176, 177, 178, 179, 180, 181, 182, 183, 184, 185, 186, 187, 188, 189, 190],
      "AcquisitionTime": ["110353.240000", "110354.730000", "110356.220000", "110357.710000", "110359.200000", "110400.690000", "110402.180000", "110403.670000", "110405.160000", "110406.650000", "110408.140000", "110409.630000", "110411.120000", "110412.610000", "110414.100000", "110415.590000", "110417.080000", "110418.570000", "110420.060000", "110421.550000", "110423.040000", "110424.530000", "110426.020000", "110427.510000", "110429.000000", "110430.490000", "110431.980000", "110433.470000", "110434.960000", "110436.450000", "110437.940000", "110439.430000", "110440.920000", "110442.410000", "110443.900000", "110445.390000", "110446.880000", "110448.370000", "110449.860000", "110451.350000", "110452.840000", "110454.330000", "110455.820000", "110457.310000", "110458.800000", "110500.290000", "110501.780000", "110503.270000", "110504.760000", "110506.250000", "110507.740000", "110509.230000", "110510.720000", "110512.210000", "110513.700000", "110515.190000", "110516.680000", "110518.170000", "110519.660000", "110521.150000", "110522.640000", "110524.130000", "110525.620000", "110527.110000", "110528.600000", "110530.090000", "110531.580000", "110533.070000", "110534.560000", "110536.050000", "110537.540000", "110539.030000", "110540.520000", "110542.010000", "110543.500000", "110544.990000", "110546.480000", "110547.970000", "110549.460000", "110550.950000", "110552.440000", "110553.930000", "110555.420000", "110556.910000", "110558.400000", "110559.890000", "110601.380000", "110602.870000", "110604.360000", "110605.850000", "110607.340000", "110608.830000", "110610.320000", "110611.810000", "110613.300000", "110614.790000", "110616.280000", "110617.770000", "110619.260000", "110620.750000", "110622.240000", "110623.730000", "110625.220000", "110626.710000", "110628.200000", "110629.690000", "110631.180000", "110632.670000", "110634.160000", "110635.650000", "110637.140000", "110638.630000", "110640.120000", "110641.610000", "110643.100000", "110644.590000", "110646.080000", "110647.570000", "110649.060000", "110650.550000", "110652.040000", "110653.530000", "110655.020000", "110656.510000", "110658.000000", "110659.490000", "110700.980000", "110702.470000", "110703.960000", "110705.450000", "110706.940000", "110708.430000", "110709.920000", "110711.410000", "110712.900000", "110714.390000", "110715.880000", "110717.370000", "110718.860000", "110720.350000", "110721.840000", "110723.330000", "110724.820000", "110726.310000", "110727.800000", "110729.290000", "110730.780000", "110732.270000", "110733.760000", "110735.250000", "110736.740000", "110738.230000", "110739.720000", "110741.210000", "110742.700000", "110744.190000", "110745.680000", "110747.170000", "110748.660000", "110750.150000", "110751.640000", "110753.130000", "110754.620000", "110756.110000", "110757.600000", "110759.090000", "110800.580000", "110802.070000", "110803.560000", "110805.050000", "110806.540000", "110808.030000", "110809.520000", "110811.010000", "110812.500000", "110813.990000", "110815.480000", "110816.970000", "110818.460000", "110819.950000", "110821.440000", "110822.930000", "110824.420000", "110825.910000", "110827.400000", "110828.890000", "110830.380000", "110831.870000", "110833.360000", "110834.850000"],
      "ContentTime": ["110500.704000", "110500.707000", "110500.709000", "110500.714000", "110500.716000", "110500.719000", "110500.722000", "110500.724000", "110500.727000", "110520.695000", "110520.698000", "110520.701000", "110520.703000", "110520.706000", "110520.708000", "110520.711000", "110520.713000", "110520.716000", "110520.718000", "110520.721000", "110520.723000", "110520.726000", "110520.729000", "110520.731000", "110520.734000", "110520.736000", "110520.739000", "110520.741000", "110520.744000", "110540.702000", "110540.705000", "110540.708000", "110540.710000", "110540.713000", "110540.716000", "110540.719000", "110540.722000", "110540.724000", "110540.727000", "110540.729000", "110540.732000", "110540.734000", "110540.737000", "110540.740000", "110540.742000", "110540.745000", "110540.747000", "110540.750000", "110540.752000", "110600.717000", "110600.720000", "110600.723000", "110600.725000", "110600.728000", "110600.730000", "110600.733000", "110600.736000", "110600.738000", "110600.741000", "110600.743000", "110600.746000", "110600.748000", "110600.751000", "110600.753000", "110600.756000", "110600.759000", "110600.761000", "110600.764000", "110600.766000", "110600.769000", "110620.728000", "110620.731000", "110620.733000", "110620.736000", "110620.739000", "110620.741000", "110620.744000", "110620.746000", "110620.749000", "110620.751000", "110620.754000", "110620.757000", "110620.759000", "110620.762000", "110620.764000", "110620.767000", "110620.769000", "110620.772000", "110620.774000", "110620.777000", "110640.733000", "110640.736000", "110640.738000", "110640.741000", "110640.743000", "110640.746000", "110640.748000", "110640.751000", "110640.754000", "110640.756000", "110640.759000", "110640.761000", "110640.764000", "110640.766000", "110640.769000", "110640.772000", "110640.774000", "110640.777000", "110640.779000", "110640.782000", "110640.784000", "110721.259000", "110721.262000", "110721.265000", "110721.267000", "110721.270000", "110721.272000", "110721.275000", "110721.278000", "110721.280000", "110721.283000", "110721.285000", "110721.288000", "110721.291000", "110721.293000", "110721.296000", "110721.298000", "110721.301000", "110721.303000", "110721.306000", "110721.308000", "110721.311000", "110721.313000", "110721.316000", "110721.319000", "110721.321000", "110721.324000", "110721.326000", "110800.732000", "110800.734000", "110800.737000", "110800.740000", "110800.742000", "110800.745000", "110800.747000", "110800.750000", "110800.752000", "110800.755000", "110800.758000", "110800.760000", "110800.763000", "110800.765000", "110800.768000", "110800.770000", "110800.773000", "110800.775000", "110800.778000", "110800.781000", "110800.783000", "110800.786000", "110800.788000", "110800.791000", "110800.794000", "110800.796000", "110800.799000", "110837.101000", "110837.104000", "110837.107000", "110837.109000", "110837.112000", "110837.115000", "110837.118000", "110837.120000", "110837.123000", "110837.126000", "110837.128000", "110837.131000", "110837.134000", "110837.136000", "110837.139000", "110837.142000", "110837.145000", "110837.148000", "110837.151000", "110837.153000", "110837.156000", "110837.159000", "110837.162000", "110837.165000", "110837.168000"],
      "InstanceCreationTime": ["110500.704000", "110500.707000", "110500.709000", "110500.714000", "110500.716000", "110500.719000", "110500.722000", "110500.724000", "110500.727000", "110520.695000", "110520.698000", "110520.701000", "110520.703000", "110520.706000", "110520.708000", "110520.711000", "110520.713000", "110520.716000", "110520.718000", "110520.721000", "110520.723000", "110520.726000", "110520.729000", "110520.731000", "110520.734000", "110520.736000", "110520.739000", "110520.741000", "110520.744000", "110540.702000", "110540.705000", "110540.708000", "110540.710000", "110540.713000", "110540.716000", "110540.719000", "110540.722000", "110540.724000", "110540.727000", "110540.729000", "110540.732000", "110540.734000", "110540.737000", "110540.740000", "110540.742000", "110540.745000", "110540.747000", "110540.750000", "110540.752000", "110600.717000", "110600.720000", "110600.723000", "110600.725000", "110600.728000", "110600.730000", "110600.733000", "110600.736000", "110600.738000", "110600.741000", "110600.743000", "110600.746000", "110600.748000", "110600.751000", "110600.753000", "110600.756000", "110600.759000", "110600.761000", "110600.764000", "110600.766000", "110600.769000", "110620.728000", "110620.731000", "110620.733000", "110620.736000", "110620.739000", "110620.741000", "110620.744000", "110620.746000", "110620.749000", "110620.751000", "110620.754000", "110620.757000", "110620.759000", "110620.762000", "110620.764000", "110620.767000", "110620.769000", "110620.772000", "110620.774000", "110620.777000", "110640.733000", "110640.736000", "110640.738000", "110640.741000", "110640.743000", "110640.746000", "110640.748000", "110640.751000", "110640.754000", "110640.756000", "110640.759000", "110640.761000", "110640.764000", "110640.766000", "110640.769000", "110640.772000", "110640.774000", "110640.777000", "110640.779000", "110640.782000", "110640.784000", "110721.259000", "110721.262000", "110721.265000", "110721.267000", "110721.270000", "110721.272000", "110721.275000", "110721.278000", "110721.280000", "110721.283000", "110721.285000", "110721.288000", "110721.291000", "110721.293000", "110721.296000", "110721.298000", "110721.301000", "110721.303000", "110721.306000", "110721.308000", "110721.311000", "110721.313000", "110721.316000", "110721.319000", "110721.321000", "110721.324000", "110721.326000", "110800.732000", "110800.734000", "110800.737000", "110800.740000", "110800.742000", "110800.745000", "110800.747000", "110800.750000", "110800.752000", "110800.755000", "110800.758000", "110800.760000", "110800.763000", "110800.765000", "110800.768000", "110800.770000", "110800.773000", "110800.775000", "110800.778000", "110800.781000", "110800.783000", "110800.786000", "110800.788000", "110800.791000", "110800.794000", "110800.796000", "110800.799000", "110837.101000", "110837.104000", "110837.107000", "110837.109000", "110837.112000", "110837.115000", "110837.118000", "110837.120000", "110837.123000", "110837.126000", "110837.128000", "110837.131000", "110837.134000", "110837.136000", "110837.139000", "110837.142000", "110837.145000", "110837.148000", "110837.151000", "110837.153000", "110837.156000", "110837.159000", "110837.162000", "110837.165000", "110837.168000"],
      "InstanceNumber": [1, 2, 3, 4, 5, 6, 7, 8, 9, 10, 11, 12, 13, 14, 15, 16, 17, 18, 19, 20, 21, 22, 23, 24, 25, 26, 27, 28, 29, 30, 31, 32, 33, 34, 35, 36, 37, 38, 39, 40, 41, 42, 43, 44, 45, 46, 47, 48, 49, 50, 51, 52, 53, 54, 55, 56, 57, 58, 59, 60, 61, 62, 63, 64, 65, 66, 67, 68, 69, 70, 71, 72, 73, 74, 75, 76, 77, 78, 79, 80, 81, 82, 83, 84, 85, 86, 87, 88, 89, 90, 91, 92, 93, 94, 95, 96, 97, 98, 99, 100, 101, 102, 103, 104, 105, 106, 107, 108, 109, 110, 111, 112, 113, 114, 115, 116, 117, 118, 119, 120, 121, 122, 123, 124, 125, 126, 127, 128, 129, 130, 131, 132, 133, 134, 135, 136, 137, 138, 139, 140, 141, 142, 143, 144, 145, 146, 147, 148, 149, 150, 151, 152, 153, 154, 155, 156, 157, 158, 159, 160, 161, 162, 163, 164, 165, 166, 167, 168, 169, 170, 171, 172, 173, 174, 175, 176, 177, 178, 179, 180, 181, 182, 183, 184, 185, 186, 187, 188, 189, 190],
      "WindowCenter": [4774.0, 4750.0, 4782.0, 4778.0, 4804.0, 4774.0, 4778.0, 4748.0, 4780.0, 4724.0, 4682.0, 4692.0, 4776.0, 4882.0, 4880.0, 4910.0, 4812.0, 4778.0, 4750.0, 4702.0, 4700.0, 4748.0, 4724.0, 4774.0, 4844.0, 4876.0, 4844.0, 4846.0, 4780.0, 4750.0, 4750.0, 4720.0, 4746.0, 4754.0, 4750.0, 4844.0, 4804.0, 4848.0, 4782.0, 4810.0, 4744.0, 4748.0, 4776.0, 4720.0, 4808.0, 4804.0, 4842.0, 4782.0, 4814.0, 4754.0, 4750.0, 4780.0, 4748.0, 4814.0, 4772.0, 4844.0, 4778.0, 4840.0, 4750.0, 4752.0, 4810.0, 4746.0, 4806.0, 4748.0, 4774.0, 4808.0, 4808.0, 4806.0, 4774.0, 4806.0, 4720.0, 4720.0, 4810.0, 4780.0, 4810.0, 4874.0, 4802.0, 4804.0, 4810.0, 4722.0, 4774.0, 4780.0, 4718.0, 4772.0, 4776.0, 4812.0, 4846.0, 4846.0, 4838.0, 4750.0, 4776.0, 4718.0, 4722.0, 4774.0, 4746.0, 4810.0, 4838.0, 4840.0, 4844.0, 4780.0, 4780.0, 4744.0, 4772.0, 4700.0, 4746.0, 4776.0, 4748.0, 4842.0, 4812.0, 4744.0, 4776.0, 4840.0, 4806.0, 4778.0, 4806.0, 4720.0, 4702.0, 4772.0, 4746.0, 4806.0, 4808.0, 4808.0, 4842.0, 4812.0, 4806.0, 4752.0, 4774.0, 4724.0, 4724.0, 4776.0, 4720.0, 4746.0, 4844.0, 4808.0, 4872.0, 4816.0, 4748.0, 4776.0, 4780.0, 4724.0, 4776.0, 4774.0, 4722.0, 4772.0, 4780.0, 4774.0, 4836.0, 4848.0, 4842.0, 4846.0, 4774.0, 4678.0, 4726.0, 4724.0, 4698.0, 4808.0, 4772.0, 4848.0, 4842.0, 4848.0, 4776.0, 4780.0, 4776.0, 4696.0, 4726.0, 4750.0, 4750.0, 4814.0, 4806.0, 4812.0, 4846.0, 4776.0, 4802.0, 4748.0, 4774.0, 4726.0, 4726.0, 4752.0, 4748.0, 4778.0, 4840.0, 4750.0, 4838.0, 4752.0, 4694.0, 4772.0, 4804.0, 4838.0, 4742.0, 4782.0],
      "WindowWidth": [18622.0, 18592.0, 18634.0, 18630.0, 18666.0, 18622.0, 18632.0, 18586.0, 18632.0, 18548.0, 18462.0, 18508.0, 18638.0, 18746.0, 18744.0, 18766.0, 18682.0, 18634.0, 18590.0, 18512.0, 18512.0, 18586.0, 18550.0, 18624.0, 18718.0, 18754.0, 18724.0, 18730.0, 18630.0, 18592.0, 18596.0, 18546.0, 18588.0, 18596.0, 18590.0, 18716.0, 18668.0, 18722.0, 18634.0, 18678.0, 18584.0, 18592.0, 18632.0, 18552.0, 18672.0, 18666.0, 18718.0, 18636.0, 18684.0, 18594.0, 18592.0, 18634.0, 18586.0, 18680.0, 18626.0, 18720.0, 18630.0, 18714.0, 18592.0, 18600.0, 18676.0, 18586.0, 18672.0, 18592.0, 18626.0, 18672.0, 18670.0, 18672.0, 18626.0, 18670.0, 18546.0, 18548.0, 18678.0, 18632.0, 18672.0, 18752.0, 18666.0, 18670.0, 18678.0, 18558.0, 18628.0, 18632.0, 18548.0, 18624.0, 18626.0, 18680.0, 18720.0, 18720.0, 18712.0, 18590.0, 18628.0, 18546.0, 18548.0, 18626.0, 18588.0, 18676.0, 18712.0, 18718.0, 18714.0, 18634.0, 18634.0, 18582.0, 18620.0, 18514.0, 18586.0, 18634.0, 18596.0, 18720.0, 18680.0, 18590.0, 18636.0, 18716.0, 18670.0, 18634.0, 18664.0, 18548.0, 18518.0, 18630.0, 18592.0, 18672.0, 18670.0, 18672.0, 18714.0, 18676.0, 18670.0, 18594.0, 18624.0, 18550.0, 18554.0, 18624.0, 18548.0, 18588.0, 18722.0, 18674.0, 18752.0, 18682.0, 18588.0, 18628.0, 18632.0, 18556.0, 18626.0, 18630.0, 18552.0, 18624.0, 18634.0, 18626.0, 18714.0, 18718.0, 18714.0, 18718.0, 18630.0, 18478.0, 18558.0, 18548.0, 18516.0, 18674.0, 18630.0, 18722.0, 18718.0, 18722.0, 18628.0, 18632.0, 18624.0, 18508.0, 18556.0, 18592.0, 18596.0, 18678.0, 18668.0, 18676.0, 18720.0, 18632.0, 18668.0, 18590.0, 18620.0, 18560.0, 18556.0, 18598.0, 18590.0, 18632.0, 18718.0, 18596.0, 18710.0, 18594.0, 18512.0, 18626.0, 18668.0, 18714.0, 18588.0, 18636.0]
    },
    "slices": {}
  }
}