{
  "AcquisitionMatrixPE": 104,
  "AcquisitionNumber": 1,
  "AcquisitionTime": "11:22:33.100000",
  "BandwidthPerPixelPhaseEncode": 17.17,
  "BaseResolution": 104,
  "BodyPartExamined": "BRAIN",
  "CoilString": "HC1-7;NC1_2",
  "ConsistencyInfo": "N4_VE11C_LATEST_20160120",
  "ConversionSoftware": "dcm2niix",
  "ConversionSoftwareVersion": "v1.0.20190902",
  "DerivedVendorReportedEchoSpacing": 0.000560011,
  "DeviceSerialNumber": "167006",
  "DwellTime": 2.1e-06,
  "EchoTime": 0.037,
  "EchoTrainLength": 104,
  "EffectiveEchoSpacing": 0.000560011,
  "FlipAngle": 52,
  "ImageComments": "Unaliased_MB4_PE3_LB",
  "ImageOrientationPatientDICOM": [0.999429, 0.0335224, -0.00418916, -0.0307099, 0.849825, -0.52617],
  "ImageType": [
    "ORIGINAL",
    "PRIMARY",
    "P",
    "MB",
    "ND",
    "MOSAIC"
],
  "ImagingFrequency": 123.259,
  "InPlanePhaseEncodingDirectionDICOM": "COL",
  "InstitutionAddress": "Chemin_Queen-Mary_4565_Montreal_District_CA_H3W_1W5",
  "InstitutionName": "IUGM",
  "InstitutionalDepartmentName": "Department",
  "MRAcquisitionType": "2D",
  "MagneticFieldStrength": 3,
  "Manufacturer": "Siemens",
  "ManufacturersModelName": "Prisma_fit",
  "Modality": "MR",
  "MultibandAccelerationFactor": 4,
  "PartialFourier": 1,
  "PatientPosition": "HFS",
  "PercentPhaseFOV": 100,
  "PhaseEncodingDirection": "j",
  "PhaseEncodingSteps": 104,
  "PhaseResolution": 1,
  "PixelBandwidth": 2290,
  "ProcedureStepDescription": "memory_things",
  "ProtocolName": "func_task-things_run-5",
  "PulseSequenceDetails": "%CustomerSeq%_cmrr_mbep2d_bold",
  "ReceiveCoilActiveElements": "HC1-7;NC1,2",
  "ReceiveCoilName": "HeadNeck_64",
  "ReconMatrixPE": 104,
  "RepetitionTime": 1.49,
  "SAR": 0.056501,
  "ScanOptions": "FS",
  "ScanningSequence": "EP",
  "SequenceName": "epfid2d1_104",
  "SequenceVariant": "SK_SS",
  "SeriesDescription": "func_task-things_run-5",
  "SeriesNumber": 23,
  "ShimSetting": [620, -7173, -8866, 308, 0, -124, -34, -42],
  "SliceThickness": 2,
  "SliceTiming": [0, 0.7825, 0.0975, 0.88, 0.195, 0.9775, 0.2925, 1.0775, 0.39, 1.175, 0.4875, 1.2725, 0.5875, 1.37, 0.685, 0, 0.7825, 0.0975, 0.88, 0.195, 0.9775, 0.2925, 1.0775, 0.39, 1.175, 0.4875, 1.2725, 0.5875, 1.37, 0.685, 0, 0.7825, 0.0975, 0.88, 0.195, 0.9775, 0.2925, 1.0775, 0.39, 1.175, 0.4875, 1.2725, 0.5875, 1.37, 0.685, 0, 0.7825, 0.0975, 0.88, 0.195, 0.9775, 0.2925, 1.0775, 0.39, 1.175, 0.4875, 1.2725, 0.5875, 1.37, 0.685],
  "SoftwareVersions": "syngo_MR_E11",
  "SpacingBetweenSlices": 2,
  "StationName": "MRC35049",
  "TaskName": "things",
  "TotalReadoutTime": 0.0576811,
  "TxRefAmp": 287.416,
  "WipMemBlock": "cb7a8d1c-2ea9-435b-aaf7-3cb9bf01a6a3||Sequence: R016 ve11c/master r/e634e98; Dec 19 2017 11:00:25 by eja",
  "dcmmeta_affine": [
    [-1.9988583326339722, -0.0614197812974453, 0.02815680019557476, 109.51152038574219],
    [-0.06704474985599518, 1.6996498107910156, -1.051995873451233, -46.41035842895508],
    [-0.008378328755497932, 1.0523393154144287, 1.700738549232483, -99.27816772460938],
    [0.0, 0.0, 0.0, 1.0]
],
  "dcmmeta_reorient_transform": [
    [0.0, -1.0, 0.0, 103.0],
    [1.0, 0.0, 0.0, 0.0],
    [0.0, 0.0, 1.0, 0.0],
    [0.0, 0.0, 0.0, 1.0]
],
  "dcmmeta_shape": [104, 104, 60, 190],
  "dcmmeta_slice_dim": 2,
  "dcmmeta_version": 0.6,
  "global": {
    "const": {
      "AcquisitionMatrix": [104, 0, 0, 104],
      "AngioFlag": "N",
      "BitsAllocated": 16,
      "BitsStored": 16,
      "BodyPartExamined": "BRAIN",
      "Columns": 832,
      "EchoNumbers": 1,
      "EchoTime": 37.0,
      "EchoTrainLength": 104,
      "FlipAngle": 52.0,
      "HighBit": 15,
      "ImageOrientationPatient": [0.99942918771109, 0.03352237539307, -0.0041891644939, -0.0307098907066, 0.84982491596245, -0.5261696635328],
      "ImagePositionPatient": [-808.41292785558, -771.73040401888, 395.21400832767],
      "ImageType": [
        "ORIGINAL",
        "PRIMARY",
        "P",
        "MB",
        "ND",
        "MOSAIC"
],
      "ImagedNucleus": "1H",
      "ImagingFrequency": 123.258936,
      "InPlanePhaseEncodingDirection": "COL",
      "LargestImagePixelValue": 4095,
      "MRAcquisitionType": "2D",
      "MagneticFieldStrength": 3.0,
      "Manufacturer": "SIEMENS",
      "ManufacturerModelName": "Prisma_fit",
      "Modality": "MR",
      "NumberOfAverages": 1.0,
      "NumberOfPhaseEncodingSteps": 104,
      "PercentPhaseFieldOfView": 100.0,
      "PercentSampling": 100.0,
      "PerformedProcedureStepStartTime": "102151.617000",
      "PhotometricInterpretation": "MONOCHROME2",
      "PixelBandwidth": 2290.0,
      "PixelRepresentation": 0,
      "PixelSpacing": [2.0, 2.0],
      "ProtocolName": "func_task-things_run-5",
      "RepetitionTime": 1490.0,
      "RescaleIntercept": -4096.0,
      "RescaleSlope": 2.0,
      "RescaleType": "US",
      "Rows": 832,
      "SAR": 0.05650104193225,
      "SamplesPerPixel": 1,
      "ScanOptions": "FS",
      "ScanningSequence": "EP",
      "SequenceName": "epfid2d1_104",
      "SequenceVariant": [
        "SK",
        "SS"
],
      "SeriesDescription": "func_task-things_run-5",
      "SeriesNumber": 23,
      "SeriesTime": "112340.718000",
      "SliceLocation": -58.469606237134,
      "SliceThickness": 2.0,
      "SmallestImagePixelValue": 0,
      "SoftwareVersions": "syngo MR E11",
      "SpacingBetweenSlices": 1.9999999879879,
      "SpecificCharacterSet": "ISO_IR 100",
      "StudyID": "1",
      "StudyTime": "102151.553000",
      "TransmitCoilName": "Body",
      "VariableFlipAngleFlag": "N",
      "WindowCenterWidthExplanation": "Algo1",
      "dBdt": 0.0},
    "slices": {}
  },
  "time": {
    "samples": {
      "AcquisitionNumber": [1, 2, 3, 4, 5, 6, 7, 8, 9, 10, 11, 12, 13, 14, 15, 16, 17, 18, 19, 20, 21, 22, 23, 24, 25, 26, 27, 28, 29, 30, 31, 32, 33, 34, 35, 36, 37, 38, 39, 40, 41, 42, 43, 44, 45, 46, 47, 48, 49, 50, 51, 52, 53, 54, 55, 56, 57, 58, 59, 60, 61, 62, 63, 64, 65, 66, 67, 68, 69, 70, 71, 72, 73, 74, 75, 76, 77, 78, 79, 80, 81, 82, 83, 84, 85, 86, 87, 88, 89, 90, 91, 92, 93, 94, 95, 96, 97, 98, 99, 100, 101, 102, 103, 104, 105, 106, 107, 108, 109, 110, 111, 112, 113, 114, 115, 116, 117, 118, 119, 120, 121, 122, 123, 124, 125, 126, 127, 128, 129, 130, 131, 132, 133, 134, 135, 136, 137, 138, 139, 140, 141, 142, 143, 144, 145, 146, 147, 148, 149, 150, 151, 152, 153, 154, 155, 156, 157, 158, 159, 160, 161, 162, 163, 164, 165, 166, 167, 168, 169, 170, 171, 172, 173, 174, 175, 176, 177, 178, 179, 180, 181, 182, 183, 184, 185, 186, 187, 188, 189, 190],
      "AcquisitionTime": ["112233.100000", "112234.590000", "112236.080000", "112237.570000", "112239.060000", "112240.550000", "112242.040000", "112243.530000", "112245.020000", "112246.510000", "112248.000000", "112249.490000", "112250.980000", "112252.470000", "112253.960000", "112255.450000", "112256.940000", "112258.430000", "112259.920000", "112301.410000", "112302.900000", "112304.390000", "112305.880000", "112307.370000", "112308.860000", "112310.350000", "112311.840000", "112313.330000", "112314.820000", "112316.310000", "112317.800000", "112319.290000", "112320.780000", "112322.270000", "112323.760000", "112325.250000", "112326.740000", "112328.230000", "112329.720000", "112331.210000", "112332.700000", "112334.190000", "112335.680000", "112337.170000", "112338.660000", "112340.150000", "112341.640000", "112343.130000", "112344.620000", "112346.110000", "112347.600000", "112349.090000", "112350.580000", "112352.070000", "112353.560000", "112355.050000", "112356.540000", "112358.030000", "112359.520000", "112401.010000", "112402.500000", "112403.990000", "112405.480000", "112406.970000", "112408.460000", "112409.950000", "112411.440000", "112412.930000", "112414.420000", "112415.910000", "112417.400000", "112418.890000", "112420.380000", "112421.870000", "112423.360000", "112424.850000", "112426.340000", "112427.830000", "112429.320000", "112430.810000", "112432.300000", "112433.790000", "112435.280000", "112436.770000", "112438.260000", "112439.750000", "112441.240000", "112442.730000", "112444.220000", "112445.710000", "112447.200000", "112448.690000", "112450.180000", "112451.670000", "112453.160000", "112454.650000", "112456.140000", "112457.630000", "112459.120000", "112500.610000", "112502.100000", "112503.590000", "112505.080000", "112506.570000", "112508.060000", "112509.550000", "112511.040000", "112512.530000", "112514.020000", "112515.510000", "112517.000000", "112518.490000", "112519.980000", "112521.470000", "112522.960000", "112524.450000", "112525.940000", "112527.430000", "112528.920000", "112530.410000", "112531.900000", "112533.390000", "112534.880000", "112536.370000", "112537.860000", "112539.350000", "112540.840000", "112542.330000", "112543.820000", "112545.310000", "112546.800000", "112548.290000", "112549.780000", "112551.270000", "112552.760000", "112554.250000", "112555.740000", "112557.230000", "112558.720000", "112600.210000", "112601.700000", "112603.190000", "112604.680000", "112606.170000", "112607.660000", "112609.150000", "112610.640000", "112612.130000", "112613.620000", "112615.110000", "112616.600000", "112618.090000", "112619.580000", "112621.070000", "112622.560000", "112624.050000", "112625.540000", "112627.030000", "112628.520000", "112630.010000", "112631.500000", "112632.990000", "112634.480000", "112635.970000", "112637.460000", "112638.950000", "112640.440000", "112641.930000", "112643.420000", "112644.910000", "112646.400000", "112647.890000", "112649.380000", "112650.870000", "112652.360000", "112653.850000", "112655.340000", "112656.830000", "112658.320000", "112659.810000", "112701.300000", "112702.790000", "112704.280000", "112705.770000", "112707.260000", "112708.750000", "112710.240000", "112711.730000", "112713.220000", "112714.710000"],
      "ContentTime": ["112340.720000", "112340.723000", "112340.725000", "112340.728000", "112340.731000", "112340.733000", "112340.736000", "112340.738000", "112340.741000", "112340.748000", "112400.694000", "112400.697000", "112400.700000", "112400.702000", "112400.705000", "112400.707000", "112400.717000", "112400.719000", "112400.722000", "112400.724000", "112400.727000", "112400.729000", "112400.732000", "112400.735000", "112400.737000", "112400.740000", "112400.742000", "112400.745000", "112400.755000", "112400.757000", "112420.705000", "112420.708000", "112420.710000", "112420.713000", "112420.715000", "112420.718000", "112420.721000", "112420.723000", "112420.726000", "112420.728000", "112420.731000", "112420.733000", "112420.736000", "112420.738000", "112420.741000", "112420.744000", "112420.746000", "112420.749000", "112420.751000", "112420.754000", "112440.710000", "112440.712000", "112440.715000", "112440.717000", "112440.720000", "112440.723000", "112440.725000", "112440.728000", "112440.730000", "112440.733000", "112440.735000", "112440.738000", "112440.741000", "112440.743000", "112440.746000", "112440.748000", "112440.751000", "112440.753000", "112440.756000", "112440.759000", "112440.761000", "112500.724000", "112500.727000", "112500.730000", "112500.732000", "112500.735000", "112500.737000", "112500.740000", "112500.743000", "112500.745000", "112500.748000", "112500.750000", "112500.753000", "112500.755000", "112500.758000", "112500.760000", "112500.763000", "112500.766000", "112500.768000", "112500.771000", "112500.773000", "112520.712000", "112520.715000", "112520.717000", "112520.720000", "112520.722000", "112520.725000", "112520.727000", "112520.730000", "112520.733000", "112520.735000", "112520.738000", "112520.740000", "112520.743000", "112520.745000", "112520.748000", "112520.752000", "112520.755000", "112520.757000", "112520.760000", "112520.762000", "112600.760000", "112600.762000", "112600.765000", "112600.768000", "112600.770000", "112600.773000", "112600.775000", "112600.778000", "112600.780000", "112600.783000", "112600.785000", "112600.788000", "112600.791000", "112600.793000", "112600.796000", "112600.798000", "112600.801000", "112600.804000", "112600.806000", "112600.809000", "112600.811000", "112600.814000", "112600.816000", "112600.819000", "112600.822000", "112600.825000", "112600.827000", "112640.734000", "112640.737000", "112640.739000", "112640.743000", "112640.746000", "112640.748000", "112640.751000", "112640.754000", "112640.756000", "112640.759000", "112640.761000", "112640.764000", "112640.766000", "112640.769000", "112640.772000", "112640.774000", "112640.777000", "112640.779000", "112640.782000", "112640.784000", "112640.787000", "112640.789000", "112640.792000", "112640.795000", "112640.797000", "112640.800000", "112640.803000", "112716.881000", "112716.884000", "112716.887000", "112716.889000", "112716.892000", "112716.895000", "112716.898000", "112716.901000", "112716.903000", "112716.906000", "112716.909000", "112716.912000", "112716.914000", "112716.917000", "112716.920000", "112716.922000", "112716.925000", "112716.927000", "112716.930000", "112716.933000", "112716.935000", "112716.938000", "112716.940000", "112716.943000", "112716.946000"],
      "InstanceCreationTime": ["112340.720000", "112340.723000", "112340.725000", "112340.728000", "112340.731000", "112340.733000", "112340.736000", "112340.738000", "112340.741000", "112340.748000", "112400.694000", "112400.697000", "112400.700000", "112400.702000", "112400.705000", "112400.707000", "112400.717000", "112400.719000", "112400.722000", "112400.724000", "112400.727000", "112400.729000", "112400.732000", "112400.735000", "112400.737000", "112400.740000", "112400.742000", "112400.745000", "112400.755000", "112400.757000", "112420.705000", "112420.708000", "112420.710000", "112420.713000", "112420.715000", "112420.718000", "112420.721000", "112420.723000", "112420.726000", "112420.728000", "112420.731000", "112420.733000", "112420.736000", "112420.738000", "112420.741000", "112420.744000", "112420.746000", "112420.749000", "112420.751000", "112420.754000", "112440.710000", "112440.712000", "112440.715000", "112440.717000", "112440.720000", "112440.723000", "112440.725000", "112440.728000", "112440.730000", "112440.733000", "112440.735000", "112440.738000", "112440.741000", "112440.743000", "112440.746000", "112440.748000", "112440.751000", "112440.753000", "112440.756000", "112440.759000", "112440.761000", "112500.724000", "112500.727000", "112500.730000", "112500.732000", "112500.735000", "112500.737000", "112500.740000", "112500.743000", "112500.745000", "112500.748000", "112500.750000", "112500.753000", "112500.755000", "112500.758000", "112500.760000", "112500.763000", "112500.766000", "112500.768000", "112500.771000", "112500.773000", "112520.712000", "112520.715000", "112520.717000", "112520.720000", "112520.722000", "112520.725000", "112520.727000", "112520.730000", "112520.733000", "112520.735000", "112520.738000", "112520.740000", "112520.743000", "112520.745000", "112520.748000", "112520.752000", "112520.755000", "112520.757000", "112520.760000", "112520.762000", "112600.760000", "112600.762000", "112600.765000", "112600.768000", "112600.770000", "112600.773000", "112600.775000", "112600.778000", "112600.780000", "112600.783000", "112600.785000", "112600.788000", "112600.791000", "112600.793000", "112600.796000", "112600.798000", "112600.801000", "112600.804000", "112600.806000", "112600.809000", "112600.811000", "112600.814000", "112600.816000", "112600.819000", "112600.822000", "112600.825000", "112600.827000", "112640.734000", "112640.737000", "112640.739000", "112640.743000", "112640.746000", "112640.748000", "112640.751000", "112640.754000", "112640.756000", "112640.759000", "112640.761000", "112640.764000", "112640.766000", "112640.769000", "112640.772000", "112640.774000", "112640.777000", "112640.779000", "112640.782000", "112640.784000", "112640.787000", "112640.789000", "112640.792000", "112640.795000", "112640.797000", "112640.800000", "112640.803000", "112716.881000", "112716.884000", "112716.887000", "112716.889000", "112716.892000", "112716.895000", "112716.898000", "112716.901000", "112716.903000", "112716.906000", "112716.909000", "112716.912000", "112716.914000", "112716.917000", "112716.920000", "112716.922000", "112716.925000", "112716.927000", "112716.930000", "112716.933000", "112716.935000", "112716.938000", "112716.940000", "112716.943000", "112716.946000"],
      "InstanceNumber": [1, 2, 3, 4, 5, 6, 7, 8, 9, 10, 11, 12, 13, 14, 15, 16, 17, 18, 19, 20, 21, 22, 23, 24, 25, 26, 27, 28, 29, 30, 31, 32, 33, 34, 35, 36, 37, 38, 39, 40, 41, 42, 43, 44, 45, 46, 47, 48, 49, 50, 51, 52, 53, 54, 55, 56, 57, 58, 59, 60, 61, 62, 63, 64, 65, 66, 67, 68, 69, 70, 71, 72, 73, 74, 75, 76, 77, 78, 79, 80, 81, 82, 83, 84, 85, 86, 87, 88, 89, 90, 91, 92, 93, 94, 95, 96, 97, 98, 99, 100, 101, 102, 103, 104, 105, 106, 107, 108, 109, 110, 111, 112, 113, 114, 115, 116, 117, 118, 119, 120, 121, 122, 123, 124, 125, 126, 127, 128, 129, 130, 131, 132, 133, 134, 135, 136, 137, 138, 139, 140, 141, 142, 143, 144, 145, 146, 147, 148, 149, 150, 151, 152, 153, 154, 155, 156, 157, 158, 159, 160, 161, 162, 163, 164, 165, 166, 167, 168, 169, 170, 171, 172, 173, 174, 175, 176, 177, 178, 179, 180, 181, 182, 183, 184, 185, 186, 187, 188, 189, 190],
      "WindowCenter": [4830.0, 4738.0, 4690.0, 4760.0, 4892.0, 4946.0, 4956.0, 4948.0, 4904.0, 4832.0, 4740.0, 4672.0, 4676.0, 4710.0, 4870.0, 4944.0, 4896.0, 4894.0, 4902.0, 4902.0, 4854.0, 4798.0, 4768.0, 4768.0, 4790.0, 4794.0, 4710.0, 4738.0, 4834.0, 4904.0, 4942.0, 4904.0, 4762.0, 4766.0, 4832.0, 4870.0, 4870.0, 4868.0, 4794.0, 4792.0, 4794.0, 4766.0, 4796.0, 4736.0, 4764.0, 4896.0, 4936.0, 4904.0, 4904.0, 4822.0, 4768.0, 4792.0, 4764.0, 4802.0, 4796.0, 4794.0, 4864.0, 4898.0, 4766.0, 4764.0, 4866.0, 4898.0, 4908.0, 4872.0, 4768.0, 4796.0, 4822.0, 4742.0, 4794.0, 4838.0, 4826.0, 4824.0, 4874.0, 4826.0, 4798.0, 4864.0, 4794.0, 4824.0, 4834.0, 4762.0, 4798.0, 4870.0, 4796.0, 4870.0, 4868.0, 4832.0, 4870.0, 4828.0, 4830.0, 4738.0, 4792.0, 4826.0, 4862.0, 4834.0, 4768.0, 4860.0, 4862.0, 4762.0, 4826.0, 4868.0, 4794.0, 4862.0, 4864.0, 4836.0, 4866.0, 4826.0, 4798.0, 4828.0, 4794.0, 4792.0, 4834.0, 4830.0, 4796.0, 4866.0, 4864.0, 4836.0, 4858.0, 4738.0, 4764.0, 4834.0, 4826.0, 4740.0, 4866.0, 4906.0, 4870.0, 4868.0, 4870.0, 4858.0, 4824.0, 4798.0, 4714.0, 4712.0, 4796.0, 4860.0, 4826.0, 4902.0, 4932.0, 4898.0, 4896.0, 4794.0, 4762.0, 4768.0, 4764.0, 4768.0, 4836.0, 4862.0, 4898.0, 4826.0, 4792.0, 4858.0, 4792.0, 4794.0, 4866.0, 4768.0, 4736.0, 4822.0, 4902.0, 4936.0, 4910.0, 4898.0, 4768.0, 4768.0, 4764.0, 4686.0, 4738.0, 4862.0, 4862.0, 4900.0, 4932.0, 4832.0, 4860.0, 4868.0, 4794.0, 4762.0, 4800.0, 4768.0, 4798.0, 4864.0, 4828.0, 4858.0, 4896.0, 4856.0, 4824.0, 4832.0, 4794.0, 4828.0, 4768.0, 4712.0, 4826.0, 4898.0],
      "WindowWidth": [18718.0, 18602.0, 18526.0, 18636.0, 18784.0, 18782.0, 18776.0, 18786.0, 18776.0, 18716.0, 18600.0, 18478.0, 18476.0, 18560.0, 18754.0, 18790.0, 18776.0, 18778.0, 18770.0, 18778.0, 18746.0, 18674.0, 18634.0, 18636.0, 18666.0, 18670.0, 18562.0, 18602.0, 18716.0, 18778.0, 18790.0, 18774.0, 18634.0, 18636.0, 18716.0, 18752.0, 18752.0, 18750.0, 18670.0, 18668.0, 18668.0, 18634.0, 18674.0, 18600.0, 18638.0, 18780.0, 18796.0, 18768.0, 18768.0, 18702.0, 18638.0, 18666.0, 18632.0, 18680.0, 18672.0, 18672.0, 18752.0, 18778.0, 18632.0, 18634.0, 18752.0, 18768.0, 18772.0, 18744.0, 18636.0, 18674.0, 18708.0, 18600.0, 18670.0, 18720.0, 18700.0, 18706.0, 18756.0, 18704.0, 18678.0, 18750.0, 18670.0, 18712.0, 18714.0, 18632.0, 18680.0, 18752.0, 18672.0, 18754.0, 18746.0, 18712.0, 18750.0, 18706.0, 18716.0, 18596.0, 18670.0, 18712.0, 18748.0, 18710.0, 18644.0, 18744.0, 18746.0, 18630.0, 18714.0, 18752.0, 18674.0, 18752.0, 18748.0, 18718.0, 18750.0, 18708.0, 18680.0, 18708.0, 18668.0, 18670.0, 18712.0, 18714.0, 18670.0, 18754.0, 18750.0, 18720.0, 18748.0, 18596.0, 18634.0, 18722.0, 18712.0, 18604.0, 18752.0, 18768.0, 18752.0, 18752.0, 18748.0, 18744.0, 18708.0, 18670.0, 18560.0, 18562.0, 18676.0, 18746.0, 18710.0, 18780.0, 18800.0, 18776.0, 18774.0, 18672.0, 18634.0, 18636.0, 18634.0, 18642.0, 18718.0, 18752.0, 18776.0, 18706.0, 18670.0, 18752.0, 18668.0, 18674.0, 18754.0, 18638.0, 18604.0, 18710.0, 18774.0, 18794.0, 18762.0, 18772.0, 18638.0, 18638.0, 18630.0, 18524.0, 18604.0, 18750.0, 18750.0, 18782.0, 18796.0, 18710.0, 18748.0, 18752.0, 18668.0, 18636.0, 18680.0, 18636.0, 18676.0, 18756.0, 18710.0, 18746.0, 18776.0, 18746.0, 18708.0, 18718.0, 18670.0, 18714.0, 18638.0, 18566.0, 18712.0, 18780.0]
    },
    "slices": {}
  }
}