{
  "AcquisitionMatrixPE": 104,
  "AcquisitionNumber": 1,
  "AcquisitionTime": "11:28:37.037500",
  "BandwidthPerPixelPhaseEncode": 17.17,
  "BaseResolution": 104,
  "BodyPartExamined": "BRAIN",
  "CoilString": "HC1-7;NC1_2",
  "ConsistencyInfo": "N4_VE11C_LATEST_20160120",
  "ConversionSoftware": "dcm2niix",
  "ConversionSoftwareVersion": "v1.0.20190902",
  "DerivedVendorReportedEchoSpacing": 0.000560011,
  "DeviceSerialNumber": "167006",
  "DwellTime": 2.1e-06,
  "EchoTime": 0.037,
  "EchoTrainLength": 104,
  "EffectiveEchoSpacing": 0.000560011,
  "FlipAngle": 52,
  "ImageComments": "Unaliased_MB4_PE3_LB",
  "ImageOrientationPatientDICOM": [0.999429, 0.0335224, -0.00418916, -0.0307099, 0.849825, -0.52617],
  "ImageType": [
    "ORIGINAL",
    "PRIMARY",
    "M",
    "MB",
    "ND",
    "MOSAIC"
],
  "ImagingFrequency": 123.259,
  "InPlanePhaseEncodingDirectionDICOM": "COL",
  "InstitutionAddress": "Chemin_Queen-Mary_4565_Montreal_District_CA_H3W_1W5",
  "InstitutionName": "IUGM",
  "InstitutionalDepartmentName": "Department",
  "MRAcquisitionType": "2D",
  "MagneticFieldStrength": 3,
  "Manufacturer": "Siemens",
  "ManufacturersModelName": "Prisma_fit",
  "Modality": "MR",
  "MultibandAccelerationFactor": 4,
  "PartialFourier": 1,
  "PatientPosition": "HFS",
  "PercentPhaseFOV": 100,
  "PhaseEncodingDirection": "j",
  "PhaseEncodingSteps": 104,
  "PhaseResolution": 1,
  "PixelBandwidth": 2290,
  "ProcedureStepDescription": "memory_things",
  "ProtocolName": "func_task-things_run-6",
  "PulseSequenceDetails": "%CustomerSeq%_cmrr_mbep2d_bold",
  "ReceiveCoilActiveElements": "HC1-7;NC1,2",
  "ReceiveCoilName": "HeadNeck_64",
  "ReconMatrixPE": 104,
  "RepetitionTime": 1.49,
  "SAR": 0.056501,
  "ScanOptions": "FS",
  "ScanningSequence": "EP",
  "SequenceName": "epfid2d1_104",
  "SequenceVariant": "SK_SS",
  "SeriesDescription": "func_task-things_run-6",
  "SeriesNumber": 25,
  "ShimSetting": [620, -7173, -8866, 308, 0, -124, -34, -42],
  "SliceThickness": 2,
  "SliceTiming": [0, 0.7825, 0.0975, 0.8825, 0.195, 0.98, 0.2925, 1.0775, 0.3925, 1.175, 0.49, 1.2725, 0.5875, 1.37, 0.685, 0, 0.7825, 0.0975, 0.8825, 0.195, 0.98, 0.2925, 1.0775, 0.3925, 1.175, 0.49, 1.2725, 0.5875, 1.37, 0.685, 0, 0.7825, 0.0975, 0.8825, 0.195, 0.98, 0.2925, 1.0775, 0.3925, 1.175, 0.49, 1.2725, 0.5875, 1.37, 0.685, 0, 0.7825, 0.0975, 0.8825, 0.195, 0.98, 0.2925, 1.0775, 0.3925, 1.175, 0.49, 1.2725, 0.5875, 1.37, 0.685],
  "SoftwareVersions": "syngo_MR_E11",
  "SpacingBetweenSlices": 2,
  "StationName": "MRC35049",
  "TaskName": "things",
  "TotalReadoutTime": 0.0576811,
  "TxRefAmp": 287.416,
  "WipMemBlock": "fe23193c-3156-4d78-a1bd-43c247272527||Sequence: R016 ve11c/master r/e634e98; Dec 19 2017 11:00:25 by eja",
  "dcmmeta_affine": [
    [-1.9988583326339722, -0.0614197812974453, 0.02815680019557476, 109.51152038574219],
    [-0.06704474985599518, 1.6996498107910156, -1.051995873451233, -46.41035842895508],
    [-0.008378328755497932, 1.0523393154144287, 1.700738549232483, -99.27816772460938],
    [0.0, 0.0, 0.0, 1.0]
],
  "dcmmeta_reorient_transform": [
    [0.0, -1.0, 0.0, 103.0],
    [1.0, 0.0, 0.0, 0.0],
    [0.0, 0.0, 1.0, 0.0],
    [0.0, 0.0, 0.0, 1.0]
],
  "dcmmeta_shape": [104, 104, 60, 190],
  "dcmmeta_slice_dim": 2,
  "dcmmeta_version": 0.6,
  "global": {
    "const": {
      "AcquisitionMatrix": [104, 0, 0, 104],
      "AngioFlag": "N",
      "BitsAllocated": 16,
      "BitsStored": 16,
      "BodyPartExamined": "BRAIN",
      "Columns": 832,
      "EchoNumbers": 1,
      "EchoTime": 37.0,
      "EchoTrainLength": 104,
      "FlipAngle": 52.0,
      "HighBit": 15,
      "ImageOrientationPatient": [0.99942918771109, 0.03352237539307, -0.0041891644939, -0.0307098907066, 0.84982491596245, -0.5261696635328],
      "ImagePositionPatient": [-808.41292785558, -771.73040401888, 395.21400832767],
      "ImageType": [
        "ORIGINAL",
        "PRIMARY",
        "M",
        "MB",
        "ND",
        "MOSAIC"
],
      "ImagedNucleus": "1H",
      "ImagingFrequency": 123.258941,
      "InPlanePhaseEncodingDirection": "COL",
      "MRAcquisitionType": "2D",
      "MagneticFieldStrength": 3.0,
      "Manufacturer": "SIEMENS",
      "ManufacturerModelName": "Prisma_fit",
      "Modality": "MR",
      "NumberOfAverages": 1.0,
      "NumberOfPhaseEncodingSteps": 104,
      "PercentPhaseFieldOfView": 100.0,
      "PercentSampling": 100.0,
      "PerformedProcedureStepStartTime": "102151.617000",
      "PhotometricInterpretation": "MONOCHROME2",
      "PixelBandwidth": 2290.0,
      "PixelRepresentation": 0,
      "PixelSpacing": [2.0, 2.0],
      "ProtocolName": "func_task-things_run-6",
      "RepetitionTime": 1490.0,
      "Rows": 832,
      "SAR": 0.05650104193225,
      "SamplesPerPixel": 1,
      "ScanOptions": "FS",
      "ScanningSequence": "EP",
      "SequenceName": "epfid2d1_104",
      "SequenceVariant": [
        "SK",
        "SS"
],
      "SeriesDescription": "func_task-things_run-6",
      "SeriesNumber": 25,
      "SeriesTime": "112957.378000",
      "SliceLocation": -58.469606237134,
      "SliceThickness": 2.0,
      "SmallestImagePixelValue": 0,
      "SoftwareVersions": "syngo MR E11",
      "SpacingBetweenSlices": 1.9999999879879,
      "SpecificCharacterSet": "ISO_IR 100",
      "StudyID": "1",
      "StudyTime": "102151.553000",
      "TransmitCoilName": "Body",
      "VariableFlipAngleFlag": "N",
      "WindowCenterWidthExplanation": "Algo1",
      "dBdt": 0.0},
    "slices": {}
  },
  "time": {
    "samples": {
      "AcquisitionNumber": [1, 2, 3, 4, 5, 6, 7, 8, 9, 10, 11, 12, 13, 14, 15, 16, 17, 18, 19, 20, 21, 22, 23, 24, 25, 26, 27, 28, 29, 30, 31, 32, 33, 34, 35, 36, 37, 38, 39, 40, 41, 42, 43, 44, 45, 46, 47, 48, 49, 50, 51, 52, 53, 54, 55, 56, 57, 58, 59, 60, 61, 62, 63, 64, 65, 66, 67, 68, 69, 70, 71, 72, 73, 74, 75, 76, 77, 78, 79, 80, 81, 82, 83, 84, 85, 86, 87, 88, 89, 90, 91, 92, 93, 94, 95, 96, 97, 98, 99, 100, 101, 102, 103, 104, 105, 106, 107, 108, 109, 110, 111, 112, 113, 114, 115, 116, 117, 118, 119, 120, 121, 122, 123, 124, 125, 126, 127, 128, 129, 130, 131, 132, 133, 134, 135, 136, 137, 138, 139, 140, 141, 142, 143, 144, 145, 146, 147, 148, 149, 150, 151, 152, 153, 154, 155, 156, 157, 158, 159, 160, 161, 162, 163, 164, 165, 166, 167, 168, 169, 170, 171, 172, 173, 174, 175, 176, 177, 178, 179, 180, 181, 182, 183, 184, 185, 186, 187, 188, 189, 190],
      "AcquisitionTime": ["112837.037500", "112838.527500", "112840.017500", "112841.507500", "112842.997500", "112844.487500", "112845.977500", "112847.467500", "112848.957500", "112850.447500", "112851.937500", "112853.427500", "112854.917500", "112856.407500", "112857.897500", "112859.387500", "112900.877500", "112902.367500", "112903.857500", "112905.347500", "112906.837500", "112908.327500", "112909.817500", "112911.307500", "112912.797500", "112914.287500", "112915.777500", "112917.267500", "112918.757500", "112920.247500", "112921.737500", "112923.227500", "112924.717500", "112926.207500", "112927.697500", "112929.187500", "112930.677500", "112932.167500", "112933.657500", "112935.147500", "112936.637500", "112938.127500", "112939.617500", "112941.107500", "112942.597500", "112944.087500", "112945.577500", "112947.067500", "112948.557500", "112950.047500", "112951.537500", "112953.027500", "112954.517500", "112956.007500", "112957.497500", "112958.987500", "113000.477500", "113001.967500", "113003.457500", "113004.947500", "113006.437500", "113007.927500", "113009.417500", "113010.907500", "113012.397500", "113013.887500", "113015.377500", "113016.867500", "113018.357500", "113019.847500", "113021.337500", "113022.827500", "113024.317500", "113025.807500", "113027.297500", "113028.787500", "113030.277500", "113031.767500", "113033.257500", "113034.747500", "113036.237500", "113037.727500", "113039.217500", "113040.707500", "113042.197500", "113043.687500", "113045.177500", "113046.667500", "113048.157500", "113049.647500", "113051.137500", "113052.627500", "113054.117500", "113055.607500", "113057.097500", "113058.587500", "113100.077500", "113101.567500", "113103.057500", "113104.547500", "113106.037500", "113107.527500", "113109.017500", "113110.507500", "113111.997500", "113113.487500", "113114.977500", "113116.467500", "113117.957500", "113119.447500", "113120.937500", "113122.427500", "113123.917500", "113125.407500", "113126.897500", "113128.387500", "113129.877500", "113131.367500", "113132.857500", "113134.347500", "113135.837500", "113137.327500", "113138.817500", "113140.307500", "113141.797500", "113143.287500", "113144.777500", "113146.267500", "113147.757500", "113149.247500", "113150.737500", "113152.227500", "113153.717500", "113155.207500", "113156.697500", "113158.187500", "113159.677500", "113201.167500", "113202.657500", "113204.147500", "113205.637500", "113207.127500", "113208.617500", "113210.107500", "113211.597500", "113213.087500", "113214.577500", "113216.067500", "113217.557500", "113219.047500", "113220.537500", "113222.027500", "113223.517500", "113225.007500", "113226.497500", "113227.987500", "113229.477500", "113230.967500", "113232.457500", "113233.947500", "113235.437500", "113236.927500", "113238.417500", "113239.907500", "113241.397500", "113242.887500", "113244.377500", "113245.867500", "113247.357500", "113248.847500", "113250.337500", "113251.827500", "113253.317500", "113254.807500", "113256.297500", "113257.787500", "113259.277500", "113300.767500", "113302.257500", "113303.747500", "113305.237500", "113306.727500", "113308.217500", "113309.707500", "113311.197500", "113312.687500", "113314.177500", "113315.667500", "113317.157500", "113318.647500"],
      "ContentTime": ["112957.382000", "112957.386000", "112957.389000", "112957.392000", "112957.396000", "112957.399000", "112957.402000", "112957.406000", "112957.409000", "112957.413000", "112957.416000", "112957.419000", "112957.423000", "112957.426000", "112957.430000", "112957.433000", "112957.436000", "112957.440000", "112957.443000", "112957.446000", "112957.450000", "112957.453000", "112957.457000", "112957.460000", "112957.463000", "112957.467000", "113017.340000", "113017.344000", "113017.347000", "113017.351000", "113017.354000", "113017.357000", "113017.361000", "113017.364000", "113017.368000", "113017.371000", "113017.375000", "113017.378000", "113017.381000", "113017.385000", "113017.388000", "113017.392000", "113017.396000", "113017.403000", "113017.407000", "113017.410000", "113017.414000", "113037.340000", "113037.344000", "113037.347000", "113037.351000", "113037.354000", "113037.358000", "113037.361000", "113037.364000", "113037.368000", "113037.379000", "113037.382000", "113037.385000", "113037.389000", "113037.392000", "113037.396000", "113037.399000", "113037.402000", "113037.406000", "113037.409000", "113037.413000", "113057.340000", "113057.344000", "113057.347000", "113057.351000", "113057.354000", "113057.358000", "113057.361000", "113057.365000", "113057.368000", "113057.371000", "113057.375000", "113057.391000", "113057.394000", "113057.398000", "113057.401000", "113057.404000", "113057.408000", "113057.411000", "113057.415000", "113057.418000", "113117.341000", "113117.345000", "113117.349000", "113117.352000", "113117.355000", "113117.359000", "113117.362000", "113117.366000", "113117.369000", "113117.372000", "113117.376000", "113117.379000", "113117.383000", "113117.386000", "113117.389000", "113117.393000", "113117.396000", "113117.399000", "113117.403000", "113117.406000", "113157.341000", "113157.345000", "113157.356000", "113157.360000", "113157.364000", "113157.368000", "113157.372000", "113157.377000", "113157.380000", "113157.392000", "113157.396000", "113157.399000", "113157.403000", "113157.406000", "113157.409000", "113157.413000", "113157.416000", "113157.420000", "113157.423000", "113157.427000", "113157.430000", "113157.433000", "113157.437000", "113157.440000", "113157.443000", "113157.447000", "113237.340000", "113237.344000", "113237.348000", "113237.351000", "113237.354000", "113237.358000", "113237.361000", "113237.365000", "113237.368000", "113237.371000", "113237.375000", "113237.378000", "113237.382000", "113237.385000", "113237.388000", "113237.392000", "113237.395000", "113237.399000", "113237.402000", "113237.405000", "113237.409000", "113237.412000", "113237.416000", "113237.419000", "113237.422000", "113237.426000", "113237.429000", "113317.340000", "113317.344000", "113317.348000", "113317.351000", "113317.354000", "113317.358000", "113317.361000", "113317.365000", "113317.368000", "113317.372000", "113317.375000", "113317.378000", "113317.382000", "113317.385000", "113317.389000", "113317.392000", "113317.406000", "113317.409000", "113317.413000", "113317.416000", "113317.420000", "113317.423000", "113317.426000", "113317.430000", "113317.433000", "113317.437000", "113317.440000", "113320.865000", "113320.869000", "113320.872000"],
      "InstanceCreationTime": ["112957.382000", "112957.386000", "112957.389000", "112957.392000", "112957.396000", "112957.399000", "112957.402000", "112957.406000", "112957.409000", "112957.413000", "112957.416000", "112957.419000", "112957.423000", "112957.426000", "112957.430000", "112957.433000", "112957.436000", "112957.440000", "112957.443000", "112957.446000", "112957.450000", "112957.453000", "112957.457000", "112957.460000", "112957.463000", "112957.467000", "113017.340000", "113017.344000", "113017.347000", "113017.351000", "113017.354000", "113017.357000", "113017.361000", "113017.364000", "113017.368000", "113017.371000", "113017.375000", "113017.378000", "113017.381000", "113017.385000", "113017.388000", "113017.392000", "113017.396000", "113017.403000", "113017.407000", "113017.410000", "113017.414000", "113037.340000", "113037.344000", "113037.347000", "113037.351000", "113037.354000", "113037.358000", "113037.361000", "113037.364000", "113037.368000", "113037.379000", "113037.382000", "113037.385000", "113037.389000", "113037.392000", "113037.396000", "113037.399000", "113037.402000", "113037.406000", "113037.409000", "113037.413000", "113057.340000", "113057.344000", "113057.347000", "113057.351000", "113057.354000", "113057.358000", "113057.361000", "113057.365000", "113057.368000", "113057.371000", "113057.375000", "113057.391000", "113057.394000", "113057.398000", "113057.401000", "113057.404000", "113057.408000", "113057.411000", "113057.415000", "113057.418000", "113117.341000", "113117.345000", "113117.349000", "113117.352000", "113117.355000", "113117.359000", "113117.362000", "113117.366000", "113117.369000", "113117.372000", "113117.376000", "113117.379000", "113117.383000", "113117.386000", "113117.389000", "113117.393000", "113117.396000", "113117.399000", "113117.403000", "113117.406000", "113157.341000", "113157.345000", "113157.356000", "113157.360000", "113157.364000", "113157.368000", "113157.372000", "113157.377000", "113157.380000", "113157.392000", "113157.396000", "113157.399000", "113157.403000", "113157.406000", "113157.409000", "113157.413000", "113157.416000", "113157.420000", "113157.423000", "113157.427000", "113157.430000", "113157.433000", "113157.437000", "113157.440000", "113157.443000", "113157.447000", "113237.340000", "113237.344000", "113237.348000", "113237.351000", "113237.354000", "113237.358000", "113237.361000", "113237.365000", "113237.368000", "113237.371000", "113237.375000", "113237.378000", "113237.382000", "113237.385000", "113237.388000", "113237.392000", "113237.395000", "113237.399000", "113237.402000", "113237.405000", "113237.409000", "113237.412000", "113237.416000", "113237.419000", "113237.422000", "113237.426000", "113237.429000", "113317.340000", "113317.344000", "113317.348000", "113317.351000", "113317.354000", "113317.358000", "113317.361000", "113317.365000", "113317.368000", "113317.372000", "113317.375000", "113317.378000", "113317.382000", "113317.385000", "113317.389000", "113317.392000", "113317.406000", "113317.409000", "113317.413000", "113317.416000", "113317.420000", "113317.423000", "113317.426000", "113317.430000", "113317.433000", "113317.437000", "113317.440000", "113320.865000", "113320.869000", "113320.872000"],
      "InstanceNumber": [1, 2, 3, 4, 5, 6, 7, 8, 9, 10, 11, 12, 13, 14, 15, 16, 17, 18, 19, 20, 21, 22, 23, 24, 25, 26, 27, 28, 29, 30, 31, 32, 33, 34, 35, 36, 37, 38, 39, 40, 41, 42, 43, 44, 45, 46, 47, 48, 49, 50, 51, 52, 53, 54, 55, 56, 57, 58, 59, 60, 61, 62, 63, 64, 65, 66, 67, 68, 69, 70, 71, 72, 73, 74, 75, 76, 77, 78, 79, 80, 81, 82, 83, 84, 85, 86, 87, 88, 89, 90, 91, 92, 93, 94, 95, 96, 97, 98, 99, 100, 101, 102, 103, 104, 105, 106, 107, 108, 109, 110, 111, 112, 113, 114, 115, 116, 117, 118, 119, 120, 121, 122, 123, 124, 125, 126, 127, 128, 129, 130, 131, 132, 133, 134, 135, 136, 137, 138, 139, 140, 141, 142, 143, 144, 145, 146, 147, 148, 149, 150, 151, 152, 153, 154, 155, 156, 157, 158, 159, 160, 161, 162, 163, 164, 165, 166, 167, 168, 169, 170, 171, 172, 173, 174, 175, 176, 177, 178, 179, 180, 181, 182, 183, 184, 185, 186, 187, 188, 189, 190],
      "LargestImagePixelValue": [45332, 43238, 43421, 42721, 42186, 41625, 41803, 40980, 42084, 42527, 42322, 41969, 42018, 41104, 41263, 40945, 41189, 42133, 42038, 41888, 41790, 42406, 42269, 41438, 42595, 41661, 40668, 40593, 40042, 41200, 41267, 41475, 41830, 41370, 41705, 41912, 41886, 41490, 41054, 41524, 41567, 41393, 41116, 41666, 40794, 42292, 41335, 41887, 41550, 41380, 41654, 40730, 40851, 40741, 41285, 41349, 40935, 42000, 40754, 41125, 41720, 41142, 41001, 41449, 40781, 41032, 41122, 41548, 41007, 42304, 42116, 41732, 41795, 41696, 40802, 40962, 40987, 40870, 41408, 40860, 41176, 42411, 42319, 41540, 41425, 41562, 40712, 41709, 41461, 40881, 41898, 41698, 41855, 41897, 42209, 41468, 41640, 40475, 41407, 40704, 41129, 40723, 42121, 41550, 40905, 41859, 40585, 40883, 41477, 40887, 40933, 40641, 40555, 41684, 41887, 40891, 41996, 40915, 41303, 41512, 40558, 41217, 40798, 41599, 40723, 40517, 41828, 41945, 41053, 41681, 41042, 40585, 40978, 40847, 41367, 41893, 41750, 41069, 42011, 41232, 41860, 41522, 40722, 40558, 41259, 41306, 41371, 42013, 41734, 41333, 42089, 41016, 41567, 41574, 40197, 41566, 41610, 40684, 41944, 41537, 40538, 41316, 41526, 40253, 41930, 41753, 40258, 41362, 41746, 40717, 41551, 41532, 40531, 41655, 41855, 40853, 41320, 41836, 41321, 40573, 41193, 40942, 41077, 41158, 41024, 41163, 40445, 41914, 42285, 41651],
      "WindowCenter": [10865.0, 10779.0, 10727.0, 10703.0, 10698.0, 10710.0, 10728.0, 10718.0, 10736.0, 10735.0, 10709.0, 10659.0, 10671.0, 10689.0, 10738.0, 10738.0, 10728.0, 10724.0, 10712.0, 10703.0, 10711.0, 10740.0, 10742.0, 10733.0, 10801.0, 10776.0, 10745.0, 10743.0, 10735.0, 10745.0, 10748.0, 10726.0, 10727.0, 10711.0, 10709.0, 10715.0, 10720.0, 10708.0, 10708.0, 10740.0, 10729.0, 10722.0, 10726.0, 10738.0, 10738.0, 10736.0, 10713.0, 10690.0, 10695.0, 10692.0, 10679.0, 10679.0, 10739.0, 10744.0, 10750.0, 10693.0, 10695.0, 10681.0, 10650.0, 10670.0, 10668.0, 10670.0, 10673.0, 10663.0, 10664.0, 10661.0, 10682.0, 10691.0, 10690.0, 10722.0, 10691.0, 10649.0, 10644.0, 10662.0, 10705.0, 10709.0, 10690.0, 10684.0, 10703.0, 10685.0, 10690.0, 10690.0, 10674.0, 10668.0, 10660.0, 10684.0, 10704.0, 10718.0, 10691.0, 10675.0, 10678.0, 10669.0, 10682.0, 10686.0, 10685.0, 10687.0, 10696.0, 10684.0, 10691.0, 10680.0, 10664.0, 10674.0, 10714.0, 10722.0, 10715.0, 10727.0, 10687.0, 10689.0, 10690.0, 10683.0, 10685.0, 10677.0, 10678.0, 10680.0, 10675.0, 10662.0, 10680.0, 10667.0, 10683.0, 10698.0, 10689.0, 10684.0, 10680.0, 10704.0, 10688.0, 10696.0, 10716.0, 10689.0, 10673.0, 10668.0, 10657.0, 10672.0, 10693.0, 10697.0, 10701.0, 10700.0, 10662.0, 10674.0, 10674.0, 10696.0, 10684.0, 10695.0, 10657.0, 10649.0, 10692.0, 10683.0, 10665.0, 10685.0, 10685.0, 10689.0, 10693.0, 10667.0, 10686.0, 10680.0, 10691.0, 10688.0, 10659.0, 10631.0, 10659.0, 10681.0, 10693.0, 10700.0, 10700.0, 10687.0, 10692.0, 10678.0, 10667.0, 10670.0, 10668.0, 10672.0, 10677.0, 10676.0, 10664.0, 10666.0, 10665.0, 10677.0, 10695.0, 10703.0, 10682.0, 10667.0, 10667.0, 10658.0, 10662.0, 10660.0, 10651.0, 10657.0, 10659.0, 10682.0, 10653.0, 10628.0],
      "WindowWidth": [23372.0, 23159.0, 23006.0, 22940.0, 22924.0, 22951.0, 22988.0, 22969.0, 23003.0, 23000.0, 22945.0, 22834.0, 22855.0, 22904.0, 23013.0, 23017.0, 22989.0, 22976.0, 22947.0, 22931.0, 22952.0, 23013.0, 23021.0, 23008.0, 23160.0, 23110.0, 23034.0, 23025.0, 23012.0, 23028.0, 23042.0, 22984.0, 22983.0, 22949.0, 22942.0, 22956.0, 22968.0, 22943.0, 22946.0, 23015.0, 22995.0, 22977.0, 22987.0, 23013.0, 23017.0, 23010.0, 22960.0, 22906.0, 22922.0, 22912.0, 22879.0, 22881.0, 23015.0, 23028.0, 23037.0, 22906.0, 22912.0, 22879.0, 22816.0, 22855.0, 22849.0, 22853.0, 22861.0, 22843.0, 22847.0, 22833.0, 22883.0, 22897.0, 22903.0, 22970.0, 22900.0, 22809.0, 22797.0, 22833.0, 22933.0, 22946.0, 22901.0, 22883.0, 22928.0, 22890.0, 22899.0, 22897.0, 22860.0, 22847.0, 22833.0, 22882.0, 22930.0, 22961.0, 22899.0, 22864.0, 22864.0, 22846.0, 22874.0, 22889.0, 22881.0, 22890.0, 22909.0, 22894.0, 22902.0, 22886.0, 22843.0, 22869.0, 22955.0, 22971.0, 22957.0, 22980.0, 22892.0, 22892.0, 22894.0, 22882.0, 22885.0, 22870.0, 22872.0, 22872.0, 22856.0, 22833.0, 22867.0, 22845.0, 22880.0, 22911.0, 22901.0, 22882.0, 22878.0, 22930.0, 22895.0, 22912.0, 22955.0, 22897.0, 22863.0, 22846.0, 22824.0, 22857.0, 22902.0, 22913.0, 22916.0, 22920.0, 22834.0, 22865.0, 22856.0, 22912.0, 22882.0, 22908.0, 22826.0, 22805.0, 22900.0, 22884.0, 22842.0, 22881.0, 22881.0, 22898.0, 22903.0, 22850.0, 22886.0, 22878.0, 22907.0, 22891.0, 22828.0, 22772.0, 22823.0, 22874.0, 22907.0, 22923.0, 22921.0, 22894.0, 22898.0, 22871.0, 22851.0, 22851.0, 22850.0, 22860.0, 22866.0, 22862.0, 22839.0, 22840.0, 22843.0, 22865.0, 22906.0, 22923.0, 22879.0, 22849.0, 22844.0, 22824.0, 22832.0, 22825.0, 22804.0, 22817.0, 22831.0, 22875.0, 22810.0, 22756.0]
    },
    "slices": {}
  }
}