{
  "AcquisitionMatrixPE": 104,
  "AcquisitionNumber": 1,
  "AcquisitionTime": "13:27:52.327500",
  "BandwidthPerPixelPhaseEncode": 17.17,
  "BaseResolution": 104,
  "BodyPartExamined": "BRAIN",
  "CoilString": "HC1-7;NC1_2",
  "ConsistencyInfo": "N4_VE11C_LATEST_20160120",
  "ConversionSoftware": "dcm2niix",
  "ConversionSoftwareVersion": "v1.0.20190902",
  "DerivedVendorReportedEchoSpacing": 0.000560011,
  "DeviceSerialNumber": "167006",
  "DwellTime": 2.1e-06,
  "EchoTime": 0.037,
  "EchoTrainLength": 104,
  "EffectiveEchoSpacing": 0.000560011,
  "FlipAngle": 52,
  "ImageComments": "Unaliased_MB4_PE3_LB",
  "ImageOrientationPatientDICOM": [0.999828, 0.00298026, 0.0183009, 0.00157055, 0.96984, -0.243739],
  "ImageType": [
    "ORIGINAL",
    "PRIMARY",
    "P",
    "MB",
    "ND",
    "MOSAIC"
],
  "ImagingFrequency": 123.259,
  "InPlanePhaseEncodingDirectionDICOM": "COL",
  "InstitutionAddress": "Chemin_Queen-Mary_4565_Montreal_District_CA_H3W_1W5",
  "InstitutionName": "IUGM",
  "InstitutionalDepartmentName": "Department",
  "MRAcquisitionType": "2D",
  "MagneticFieldStrength": 3,
  "Manufacturer": "Siemens",
  "ManufacturersModelName": "Prisma_fit",
  "Modality": "MR",
  "MultibandAccelerationFactor": 4,
  "PartialFourier": 1,
  "PatientPosition": "HFS",
  "PercentPhaseFOV": 100,
  "PhaseEncodingDirection": "j",
  "PhaseEncodingSteps": 104,
  "PhaseResolution": 1,
  "PixelBandwidth": 2290,
  "ProcedureStepDescription": "memory_things",
  "ProtocolName": "func_task-things_run-2",
  "PulseSequenceDetails": "%CustomerSeq%_cmrr_mbep2d_bold",
  "ReceiveCoilActiveElements": "HC1-7;NC1,2",
  "ReceiveCoilName": "HeadNeck_64",
  "ReconMatrixPE": 104,
  "RepetitionTime": 1.49,
  "SAR": 0.0558013,
  "ScanOptions": "FS",
  "ScanningSequence": "EP",
  "SequenceName": "epfid2d1_104",
  "SequenceVariant": "SK_SS",
  "SeriesDescription": "func_task-things_run-2",
  "SeriesNumber": 14,
  "ShimSetting": [641, -7197, -8757, 694, 67, 50, 78, -17],
  "SliceThickness": 2,
  "SliceTiming": [0, 0.785, 0.0975, 0.8825, 0.1975, 0.98, 0.295, 1.0775, 0.3925, 1.1775, 0.49, 1.275, 0.5875, 1.3725, 0.6875, 0, 0.785, 0.0975, 0.8825, 0.1975, 0.98, 0.295, 1.0775, 0.3925, 1.1775, 0.49, 1.275, 0.5875, 1.3725, 0.6875, 0, 0.785, 0.0975, 0.8825, 0.1975, 0.98, 0.295, 1.0775, 0.3925, 1.1775, 0.49, 1.275, 0.5875, 1.3725, 0.6875, 0, 0.785, 0.0975, 0.8825, 0.1975, 0.98, 0.295, 1.0775, 0.3925, 1.1775, 0.49, 1.275, 0.5875, 1.3725, 0.6875],
  "SoftwareVersions": "syngo_MR_E11",
  "SpacingBetweenSlices": 2,
  "StationName": "MRC35049",
  "TaskName": "things",
  "TotalReadoutTime": 0.0576811,
  "TxRefAmp": 248.001,
  "WipMemBlock": "841bc432-f2c8-4679-a8bf-7d1316afae77||Sequence: R016 ve11c/master r/e634e98; Dec 19 2017 11:00:25 by eja",
  "dcmmeta_affine": [
    [-1.9996562004089355, 0.003141106106340885, 0.036950770765542984, 108.21681213378906],
    [-0.005960514768958092, 1.9396791458129883, -0.4874517619609833, -73.78596496582031],
    [0.03660188615322113, 0.487478107213974, 1.9393362998962402, -52.09556579589844],
    [0.0, 0.0, 0.0, 1.0]
],
  "dcmmeta_reorient_transform": [
    [0.0, -1.0, 0.0, 103.0],
    [1.0, 0.0, 0.0, 0.0],
    [0.0, 0.0, 1.0, 0.0],
    [0.0, 0.0, 0.0, 1.0]
],
  "dcmmeta_shape": [104, 104, 60, 190],
  "dcmmeta_slice_dim": 2,
  "dcmmeta_version": 0.6,
  "global": {
    "const": {
      "AcquisitionMatrix": [104, 0, 0, 104],
      "AngioFlag": "N",
      "BitsAllocated": 16,
      "BitsStored": 16,
      "BodyPartExamined": "BRAIN",
      "Columns": 832,
      "EchoNumbers": 1,
      "EchoTime": 37.0,
      "EchoTrainLength": 104,
      "FlipAngle": 52.0,
      "HighBit": 15,
      "ImageOrientationPatient": [0.99982808198007, 0.00298025748569, 0.01830094394756, 0.00157055307512, 0.96983957838178, -0.2437390521999],
      "ImagePositionPatient": [-837.55855372063, -834.21382599118, 162.23362303979],
      "ImageType": [
        "ORIGINAL",
        "PRIMARY",
        "P",
        "MB",
        "ND",
        "MOSAIC"
],
      "ImagedNucleus": "1H",
      "ImagingFrequency": 123.258946,
      "InPlanePhaseEncodingDirection": "COL",
      "LargestImagePixelValue": 4095,
      "MRAcquisitionType": "2D",
      "MagneticFieldStrength": 3.0,
      "Manufacturer": "SIEMENS",
      "ManufacturerModelName": "Prisma_fit",
      "Modality": "MR",
      "NumberOfAverages": 1.0,
      "NumberOfPhaseEncodingSteps": 104,
      "PercentPhaseFieldOfView": 100.0,
      "PercentSampling": 100.0,
      "PerformedProcedureStepStartTime": "124848.386000",
      "PhotometricInterpretation": "MONOCHROME2",
      "PixelBandwidth": 2290.0,
      "PixelRepresentation": 0,
      "PixelSpacing": [2.0, 2.0],
      "ProtocolName": "func_task-things_run-2",
      "RepetitionTime": 1490.0,
      "RescaleIntercept": -4096.0,
      "RescaleSlope": 2.0,
      "RescaleType": "US",
      "Rows": 832,
      "SAR": 0.05580134116485,
      "SamplesPerPixel": 1,
      "ScanOptions": "FS",
      "ScanningSequence": "EP",
      "SequenceName": "epfid2d1_104",
      "SequenceVariant": [
        "SK",
        "SS"
],
      "SeriesDescription": "func_task-things_run-2",
      "SeriesNumber": 14,
      "SeriesTime": "132918.404000",
      "SliceLocation": -30.532512401496,
      "SliceThickness": 2.0,
      "SmallestImagePixelValue": 0,
      "SoftwareVersions": "syngo MR E11",
      "SpacingBetweenSlices": 1.9999999636167,
      "SpecificCharacterSet": "ISO_IR 100",
      "StudyID": "1",
      "StudyTime": "124848.268000",
      "TransmitCoilName": "Body",
      "VariableFlipAngleFlag": "N",
      "WindowCenterWidthExplanation": "Algo1",
      "dBdt": 0.0},
    "slices": {}
  },
  "time": {
    "samples": {
      "AcquisitionNumber": [1, 2, 3, 4, 5, 6, 7, 8, 9, 10, 11, 12, 13, 14, 15, 16, 17, 18, 19, 20, 21, 22, 23, 24, 25, 26, 27, 28, 29, 30, 31, 32, 33, 34, 35, 36, 37, 38, 39, 40, 41, 42, 43, 44, 45, 46, 47, 48, 49, 50, 51, 52, 53, 54, 55, 56, 57, 58, 59, 60, 61, 62, 63, 64, 65, 66, 67, 68, 69, 70, 71, 72, 73, 74, 75, 76, 77, 78, 79, 80, 81, 82, 83, 84, 85, 86, 87, 88, 89, 90, 91, 92, 93, 94, 95, 96, 97, 98, 99, 100, 101, 102, 103, 104, 105, 106, 107, 108, 109, 110, 111, 112, 113, 114, 115, 116, 117, 118, 119, 120, 121, 122, 123, 124, 125, 126, 127, 128, 129, 130, 131, 132, 133, 134, 135, 136, 137, 138, 139, 140, 141, 142, 143, 144, 145, 146, 147, 148, 149, 150, 151, 152, 153, 154, 155, 156, 157, 158, 159, 160, 161, 162, 163, 164, 165, 166, 167, 168, 169, 170, 171, 172, 173, 174, 175, 176, 177, 178, 179, 180, 181, 182, 183, 184, 185, 186, 187, 188, 189, 190],
      "AcquisitionTime": ["132752.327500", "132753.817500", "132755.307500", "132756.797500", "132758.287500", "132759.777500", "132801.267500", "132802.757500", "132804.247500", "132805.737500", "132807.227500", "132808.717500", "132810.207500", "132811.697500", "132813.187500", "132814.677500", "132816.167500", "132817.657500", "132819.147500", "132820.637500", "132822.127500", "132823.617500", "132825.107500", "132826.597500", "132828.087500", "132829.577500", "132831.067500", "132832.557500", "132834.047500", "132835.537500", "132837.027500", "132838.517500", "132840.007500", "132841.497500", "132842.987500", "132844.477500", "132845.967500", "132847.457500", "132848.947500", "132850.437500", "132851.927500", "132853.417500", "132854.907500", "132856.397500", "132857.887500", "132859.377500", "132900.867500", "132902.357500", "132903.847500", "132905.337500", "132906.827500", "132908.317500", "132909.807500", "132911.297500", "132912.787500", "132914.277500", "132915.767500", "132917.257500", "132918.747500", "132920.237500", "132921.727500", "132923.217500", "132924.707500", "132926.197500", "132927.687500", "132929.177500", "132930.667500", "132932.157500", "132933.647500", "132935.137500", "132936.627500", "132938.117500", "132939.607500", "132941.097500", "132942.587500", "132944.077500", "132945.567500", "132947.057500", "132948.547500", "132950.037500", "132951.527500", "132953.017500", "132954.507500", "132955.997500", "132957.487500", "132958.977500", "133000.467500", "133001.957500", "133003.447500", "133004.937500", "133006.427500", "133007.917500", "133009.407500", "133010.897500", "133012.387500", "133013.877500", "133015.367500", "133016.857500", "133018.347500", "133019.837500", "133021.327500", "133022.817500", "133024.307500", "133025.797500", "133027.287500", "133028.777500", "133030.267500", "133031.757500", "133033.247500", "133034.737500", "133036.227500", "133037.717500", "133039.207500", "133040.697500", "133042.187500", "133043.677500", "133045.167500", "133046.657500", "133048.147500", "133049.637500", "133051.127500", "133052.617500", "133054.107500", "133055.597500", "133057.087500", "133058.577500", "133100.067500", "133101.557500", "133103.047500", "133104.537500", "133106.027500", "133107.517500", "133109.007500", "133110.497500", "133111.987500", "133113.477500", "133114.967500", "133116.457500", "133117.947500", "133119.437500", "133120.927500", "133122.417500", "133123.907500", "133125.397500", "133126.887500", "133128.377500", "133129.867500", "133131.357500", "133132.847500", "133134.337500", "133135.827500", "133137.317500", "133138.807500", "133140.297500", "133141.787500", "133143.277500", "133144.767500", "133146.257500", "133147.747500", "133149.237500", "133150.727500", "133152.217500", "133153.707500", "133155.197500", "133156.687500", "133158.177500", "133159.667500", "133201.157500", "133202.647500", "133204.137500", "133205.627500", "133207.117500", "133208.607500", "133210.097500", "133211.587500", "133213.077500", "133214.567500", "133216.057500", "133217.547500", "133219.037500", "133220.527500", "133222.017500", "133223.507500", "133224.997500", "133226.487500", "133227.977500", "133229.467500", "133230.957500", "133232.447500", "133233.937500"],
      "ContentTime": ["132918.406000", "132918.409000", "132918.412000", "132918.414000", "132918.417000", "132918.419000", "132918.422000", "132918.424000", "132918.427000", "132918.429000", "132918.432000", "132918.434000", "132918.437000", "132918.439000", "132918.442000", "132918.444000", "132918.447000", "132918.449000", "132918.452000", "132918.454000", "132918.462000", "132918.464000", "132918.467000", "132918.469000", "132918.472000", "132918.474000", "132918.477000", "132918.479000", "132918.482000", "132918.484000", "132918.487000", "132938.305000", "132938.308000", "132938.310000", "132938.313000", "132938.315000", "132938.318000", "132938.320000", "132938.323000", "132938.325000", "132938.328000", "132938.330000", "132938.333000", "132938.335000", "132938.338000", "132938.340000", "132938.343000", "132938.345000", "132938.348000", "132938.350000", "132938.353000", "132958.321000", "132958.324000", "132958.327000", "132958.329000", "132958.332000", "132958.334000", "132958.337000", "132958.339000", "132958.342000", "132958.344000", "132958.347000", "132958.349000", "132958.352000", "132958.354000", "132958.357000", "132958.359000", "132958.362000", "132958.364000", "132958.367000", "132958.369000", "133018.310000", "133018.313000", "133018.315000", "133018.318000", "133018.320000", "133018.323000", "133018.325000", "133018.328000", "133018.331000", "133018.334000", "133018.336000", "133018.340000", "133018.343000", "133018.346000", "133018.348000", "133018.351000", "133018.354000", "133018.356000", "133018.359000", "133018.362000", "133058.370000", "133058.373000", "133058.375000", "133058.378000", "133058.380000", "133058.383000", "133058.385000", "133058.388000", "133058.390000", "133058.393000", "133058.395000", "133058.398000", "133058.401000", "133058.403000", "133058.406000", "133058.408000", "133058.411000", "133058.413000", "133058.416000", "133058.418000", "133058.421000", "133058.423000", "133058.426000", "133058.428000", "133058.431000", "133058.433000", "133058.436000", "133058.438000", "133058.441000", "133058.443000", "133058.446000", "133058.448000", "133138.354000", "133138.357000", "133138.360000", "133138.362000", "133138.365000", "133138.367000", "133138.370000", "133138.372000", "133138.375000", "133138.378000", "133138.380000", "133138.383000", "133138.385000", "133138.388000", "133138.390000", "133138.393000", "133138.395000", "133138.398000", "133138.400000", "133138.403000", "133138.405000", "133138.408000", "133138.411000", "133138.413000", "133138.416000", "133138.418000", "133138.421000", "133218.373000", "133218.376000", "133218.379000", "133218.382000", "133218.384000", "133218.387000", "133218.389000", "133218.392000", "133218.394000", "133218.397000", "133218.399000", "133218.402000", "133218.405000", "133218.407000", "133218.410000", "133218.412000", "133218.415000", "133218.417000", "133218.420000", "133218.422000", "133218.425000", "133218.427000", "133218.430000", "133218.432000", "133218.435000", "133218.437000", "133218.440000", "133236.694000", "133236.697000", "133236.700000", "133236.702000", "133236.705000", "133236.708000", "133236.710000", "133236.713000", "133236.716000", "133236.718000", "133236.721000", "133236.723000", "133236.726000"],
      "InstanceCreationTime": ["132918.406000", "132918.409000", "132918.412000", "132918.414000", "132918.417000", "132918.419000", "132918.422000", "132918.424000", "132918.427000", "132918.429000", "132918.432000", "132918.434000", "132918.437000", "132918.439000", "132918.442000", "132918.444000", "132918.447000", "132918.449000", "132918.452000", "132918.454000", "132918.462000", "132918.464000", "132918.467000", "132918.469000", "132918.472000", "132918.474000", "132918.477000", "132918.479000", "132918.482000", "132918.484000", "132918.487000", "132938.305000", "132938.308000", "132938.310000", "132938.313000", "132938.315000", "132938.318000", "132938.320000", "132938.323000", "132938.325000", "132938.328000", "132938.330000", "132938.333000", "132938.335000", "132938.338000", "132938.340000", "132938.343000", "132938.345000", "132938.348000", "132938.350000", "132938.353000", "132958.321000", "132958.324000", "132958.327000", "132958.329000", "132958.332000", "132958.334000", "132958.337000", "132958.339000", "132958.342000", "132958.344000", "132958.347000", "132958.349000", "132958.352000", "132958.354000", "132958.357000", "132958.359000", "132958.362000", "132958.364000", "132958.367000", "132958.369000", "133018.310000", "133018.313000", "133018.315000", "133018.318000", "133018.320000", "133018.323000", "133018.325000", "133018.328000", "133018.331000", "133018.334000", "133018.336000", "133018.340000", "133018.343000", "133018.346000", "133018.348000", "133018.351000", "133018.354000", "133018.356000", "133018.359000", "133018.362000", "133058.370000", "133058.373000", "133058.375000", "133058.378000", "133058.380000", "133058.383000", "133058.385000", "133058.388000", "133058.390000", "133058.393000", "133058.395000", "133058.398000", "133058.401000", "133058.403000", "133058.406000", "133058.408000", "133058.411000", "133058.413000", "133058.416000", "133058.418000", "133058.421000", "133058.423000", "133058.426000", "133058.428000", "133058.431000", "133058.433000", "133058.436000", "133058.438000", "133058.441000", "133058.443000", "133058.446000", "133058.448000", "133138.354000", "133138.357000", "133138.360000", "133138.362000", "133138.365000", "133138.367000", "133138.370000", "133138.372000", "133138.375000", "133138.378000", "133138.380000", "133138.383000", "133138.385000", "133138.388000", "133138.390000", "133138.393000", "133138.395000", "133138.398000", "133138.400000", "133138.403000", "133138.405000", "133138.408000", "133138.411000", "133138.413000", "133138.416000", "133138.418000", "133138.421000", "133218.373000", "133218.376000", "133218.379000", "133218.382000", "133218.384000", "133218.387000", "133218.389000", "133218.392000", "133218.394000", "133218.397000", "133218.399000", "133218.402000", "133218.405000", "133218.407000", "133218.410000", "133218.412000", "133218.415000", "133218.417000", "133218.420000", "133218.422000", "133218.425000", "133218.427000", "133218.430000", "133218.432000", "133218.435000", "133218.437000", "133218.440000", "133236.694000", "133236.697000", "133236.700000", "133236.702000", "133236.705000", "133236.708000", "133236.710000", "133236.713000", "133236.716000", "133236.718000", "133236.721000", "133236.723000", "133236.726000"],
      "InstanceNumber": [1, 2, 3, 4, 5, 6, 7, 8, 9, 10, 11, 12, 13, 14, 15, 16, 17, 18, 19, 20, 21, 22, 23, 24, 25, 26, 27, 28, 29, 30, 31, 32, 33, 34, 35, 36, 37, 38, 39, 40, 41, 42, 43, 44, 45, 46, 47, 48, 49, 50, 51, 52, 53, 54, 55, 56, 57, 58, 59, 60, 61, 62, 63, 64, 65, 66, 67, 68, 69, 70, 71, 72, 73, 74, 75, 76, 77, 78, 79, 80, 81, 82, 83, 84, 85, 86, 87, 88, 89, 90, 91, 92, 93, 94, 95, 96, 97, 98, 99, 100, 101, 102, 103, 104, 105, 106, 107, 108, 109, 110, 111, 112, 113, 114, 115, 116, 117, 118, 119, 120, 121, 122, 123, 124, 125, 126, 127, 128, 129, 130, 131, 132, 133, 134, 135, 136, 137, 138, 139, 140, 141, 142, 143, 144, 145, 146, 147, 148, 149, 150, 151, 152, 153, 154, 155, 156, 157, 158, 159, 160, 161, 162, 163, 164, 165, 166, 167, 168, 169, 170, 171, 172, 173, 174, 175, 176, 177, 178, 179, 180, 181, 182, 183, 184, 185, 186, 187, 188, 189, 190],
      "WindowCenter": [4754.0, 4750.0, 4754.0, 4778.0, 4748.0, 4752.0, 4752.0, 4754.0, 4754.0, 4754.0, 4752.0, 4754.0, 4754.0, 4750.0, 4750.0, 4752.0, 4750.0, 4756.0, 4746.0, 4754.0, 4752.0, 4754.0, 4752.0, 4754.0, 4746.0, 4752.0, 4750.0, 4754.0, 4754.0, 4750.0, 4748.0, 4752.0, 4754.0, 4754.0, 4750.0, 4750.0, 4752.0, 4752.0, 4754.0, 4746.0, 4754.0, 4748.0, 4752.0, 4752.0, 4752.0, 4752.0, 4752.0, 4756.0, 4752.0, 4754.0, 4752.0, 4754.0, 4750.0, 4752.0, 4750.0, 4754.0, 4750.0, 4750.0, 4750.0, 4754.0, 4752.0, 4752.0, 4752.0, 4750.0, 4750.0, 4750.0, 4752.0, 4752.0, 4752.0, 4750.0, 4748.0, 4752.0, 4748.0, 4752.0, 4754.0, 4752.0, 4750.0, 4752.0, 4752.0, 4752.0, 4754.0, 4750.0, 4748.0, 4752.0, 4754.0, 4750.0, 4750.0, 4750.0, 4750.0, 4750.0, 4756.0, 4752.0, 4752.0, 4754.0, 4748.0, 4752.0, 4752.0, 4754.0, 4750.0, 4750.0, 4752.0, 4756.0, 4754.0, 4750.0, 4752.0, 4756.0, 4756.0, 4752.0, 4752.0, 4750.0, 4752.0, 4750.0, 4752.0, 4752.0, 4754.0, 4754.0, 4752.0, 4750.0, 4752.0, 4754.0, 4758.0, 4754.0, 4752.0, 4750.0, 4754.0, 4752.0, 4750.0, 4754.0, 4754.0, 4756.0, 4756.0, 4752.0, 4754.0, 4750.0, 4756.0, 4754.0, 4752.0, 4752.0, 4750.0, 4754.0, 4756.0, 4754.0, 4752.0, 4756.0, 4754.0, 4752.0, 4754.0, 4750.0, 4774.0, 4750.0, 4750.0, 4752.0, 4756.0, 4754.0, 4758.0, 4754.0, 4752.0, 4752.0, 4752.0, 4752.0, 4754.0, 4752.0, 4754.0, 4750.0, 4750.0, 4756.0, 4754.0, 4754.0, 4752.0, 4756.0, 4754.0, 4752.0, 4754.0, 4754.0, 4750.0, 4754.0, 4752.0, 4750.0, 4754.0, 4752.0, 4754.0, 4776.0, 4752.0, 4754.0, 4752.0, 4752.0, 4756.0, 4750.0, 4750.0, 4750.0],
      "WindowWidth": [18532.0, 18530.0, 18532.0, 18564.0, 18526.0, 18538.0, 18528.0, 18532.0, 18536.0, 18536.0, 18528.0, 18538.0, 18536.0, 18530.0, 18528.0, 18532.0, 18530.0, 18534.0, 18524.0, 18532.0, 18532.0, 18534.0, 18532.0, 18532.0, 18526.0, 18530.0, 18524.0, 18526.0, 18534.0, 18526.0, 18528.0, 18530.0, 18530.0, 18532.0, 18524.0, 18532.0, 18522.0, 18530.0, 18536.0, 18524.0, 18536.0, 18528.0, 18530.0, 18534.0, 18526.0, 18536.0, 18532.0, 18530.0, 18528.0, 18530.0, 18532.0, 18536.0, 18530.0, 18528.0, 18526.0, 18532.0, 18526.0, 18530.0, 18530.0, 18530.0, 18532.0, 18528.0, 18528.0, 18526.0, 18524.0, 18528.0, 18530.0, 18532.0, 18530.0, 18530.0, 18526.0, 18530.0, 18530.0, 18526.0, 18534.0, 18528.0, 18526.0, 18532.0, 18528.0, 18532.0, 18530.0, 18528.0, 18526.0, 18530.0, 18532.0, 18528.0, 18528.0, 18526.0, 18528.0, 18524.0, 18532.0, 18534.0, 18526.0, 18530.0, 18522.0, 18530.0, 18528.0, 18530.0, 18532.0, 18524.0, 18532.0, 18534.0, 18532.0, 18526.0, 18522.0, 18530.0, 18534.0, 18532.0, 18530.0, 18524.0, 18530.0, 18528.0, 18528.0, 18528.0, 18530.0, 18528.0, 18530.0, 18530.0, 18532.0, 18532.0, 18532.0, 18532.0, 18528.0, 18530.0, 18528.0, 18530.0, 18528.0, 18532.0, 18534.0, 18534.0, 18530.0, 18532.0, 18530.0, 18528.0, 18524.0, 18530.0, 18528.0, 18532.0, 18532.0, 18532.0, 18532.0, 18530.0, 18530.0, 18528.0, 18528.0, 18526.0, 18530.0, 18528.0, 18558.0, 18532.0, 18524.0, 18530.0, 18530.0, 18528.0, 18532.0, 18530.0, 18528.0, 18530.0, 18530.0, 18530.0, 18532.0, 18530.0, 18532.0, 18530.0, 18524.0, 18538.0, 18524.0, 18532.0, 18526.0, 18528.0, 18528.0, 18532.0, 18526.0, 18532.0, 18524.0, 18534.0, 18526.0, 18526.0, 18528.0, 18528.0, 18526.0, 18562.0, 18526.0, 18530.0, 18530.0, 18526.0, 18536.0, 18530.0, 18526.0, 18524.0]
    },
    "slices": {}
  }
}