{
  "AcquisitionMatrixPE": 104,
  "AcquisitionNumber": 1,
  "AcquisitionTime": "13:27:52.327500",
  "BandwidthPerPixelPhaseEncode": 17.17,
  "BaseResolution": 104,
  "BodyPartExamined": "BRAIN",
  "CoilString": "HC1-7;NC1_2",
  "ConsistencyInfo": "N4_VE11C_LATEST_20160120",
  "ConversionSoftware": "dcm2niix",
  "ConversionSoftwareVersion": "v1.0.20190902",
  "DerivedVendorReportedEchoSpacing": 0.000560011,
  "DeviceSerialNumber": "167006",
  "DwellTime": 2.1e-06,
  "EchoTime": 0.037,
  "EchoTrainLength": 104,
  "EffectiveEchoSpacing": 0.000560011,
  "FlipAngle": 52,
  "ImageComments": "Unaliased_MB4_PE3_LB",
  "ImageOrientationPatientDICOM": [0.999828, 0.00298026, 0.0183009, 0.00157055, 0.96984, -0.243739],
  "ImageType": [
    "ORIGINAL",
    "PRIMARY",
    "M",
    "MB",
    "ND",
    "MOSAIC"
],
  "ImagingFrequency": 123.259,
  "InPlanePhaseEncodingDirectionDICOM": "COL",
  "InstitutionAddress": "Chemin_Queen-Mary_4565_Montreal_District_CA_H3W_1W5",
  "InstitutionName": "IUGM",
  "InstitutionalDepartmentName": "Department",
  "MRAcquisitionType": "2D",
  "MagneticFieldStrength": 3,
  "Manufacturer": "Siemens",
  "ManufacturersModelName": "Prisma_fit",
  "Modality": "MR",
  "MultibandAccelerationFactor": 4,
  "PartialFourier": 1,
  "PatientPosition": "HFS",
  "PercentPhaseFOV": 100,
  "PhaseEncodingDirection": "j",
  "PhaseEncodingSteps": 104,
  "PhaseResolution": 1,
  "PixelBandwidth": 2290,
  "ProcedureStepDescription": "memory_things",
  "ProtocolName": "func_task-things_run-2",
  "PulseSequenceDetails": "%CustomerSeq%_cmrr_mbep2d_bold",
  "ReceiveCoilActiveElements": "HC1-7;NC1,2",
  "ReceiveCoilName": "HeadNeck_64",
  "ReconMatrixPE": 104,
  "RepetitionTime": 1.49,
  "SAR": 0.0558013,
  "ScanOptions": "FS",
  "ScanningSequence": "EP",
  "SequenceName": "epfid2d1_104",
  "SequenceVariant": "SK_SS",
  "SeriesDescription": "func_task-things_run-2",
  "SeriesNumber": 13,
  "ShimSetting": [641, -7197, -8757, 694, 67, 50, 78, -17],
  "SliceThickness": 2,
  "SliceTiming": [0, 0.785, 0.0975, 0.8825, 0.1975, 0.98, 0.295, 1.0775, 0.3925, 1.1775, 0.49, 1.275, 0.5875, 1.3725, 0.6875, 0, 0.785, 0.0975, 0.8825, 0.1975, 0.98, 0.295, 1.0775, 0.3925, 1.1775, 0.49, 1.275, 0.5875, 1.3725, 0.6875, 0, 0.785, 0.0975, 0.8825, 0.1975, 0.98, 0.295, 1.0775, 0.3925, 1.1775, 0.49, 1.275, 0.5875, 1.3725, 0.6875, 0, 0.785, 0.0975, 0.8825, 0.1975, 0.98, 0.295, 1.0775, 0.3925, 1.1775, 0.49, 1.275, 0.5875, 1.3725, 0.6875],
  "SoftwareVersions": "syngo_MR_E11",
  "SpacingBetweenSlices": 2,
  "StationName": "MRC35049",
  "TaskName": "things",
  "TotalReadoutTime": 0.0576811,
  "TxRefAmp": 248.001,
  "WipMemBlock": "841bc432-f2c8-4679-a8bf-7d1316afae77||Sequence: R016 ve11c/master r/e634e98; Dec 19 2017 11:00:25 by eja",
  "dcmmeta_affine": [
    [-1.9996562004089355, 0.003141106106340885, 0.036950770765542984, 108.21681213378906],
    [-0.005960514768958092, 1.9396791458129883, -0.4874517619609833, -73.78596496582031],
    [0.03660188615322113, 0.487478107213974, 1.9393362998962402, -52.09556579589844],
    [0.0, 0.0, 0.0, 1.0]
],
  "dcmmeta_reorient_transform": [
    [0.0, -1.0, 0.0, 103.0],
    [1.0, 0.0, 0.0, 0.0],
    [0.0, 0.0, 1.0, 0.0],
    [0.0, 0.0, 0.0, 1.0]
],
  "dcmmeta_shape": [104, 104, 60, 190],
  "dcmmeta_slice_dim": 2,
  "dcmmeta_version": 0.6,
  "global": {
    "const": {
      "AcquisitionMatrix": [104, 0, 0, 104],
      "AngioFlag": "N",
      "BitsAllocated": 16,
      "BitsStored": 16,
      "BodyPartExamined": "BRAIN",
      "Columns": 832,
      "EchoNumbers": 1,
      "EchoTime": 37.0,
      "EchoTrainLength": 104,
      "FlipAngle": 52.0,
      "HighBit": 15,
      "ImageOrientationPatient": [0.99982808198007, 0.00298025748569, 0.01830094394756, 0.00157055307512, 0.96983957838178, -0.2437390521999],
      "ImagePositionPatient": [-837.55855372063, -834.21382599118, 162.23362303979],
      "ImageType": [
        "ORIGINAL",
        "PRIMARY",
        "M",
        "MB",
        "ND",
        "MOSAIC"
],
      "ImagedNucleus": "1H",
      "ImagingFrequency": 123.258946,
      "InPlanePhaseEncodingDirection": "COL",
      "MRAcquisitionType": "2D",
      "MagneticFieldStrength": 3.0,
      "Manufacturer": "SIEMENS",
      "ManufacturerModelName": "Prisma_fit",
      "Modality": "MR",
      "NumberOfAverages": 1.0,
      "NumberOfPhaseEncodingSteps": 104,
      "PercentPhaseFieldOfView": 100.0,
      "PercentSampling": 100.0,
      "PerformedProcedureStepStartTime": "124848.386000",
      "PhotometricInterpretation": "MONOCHROME2",
      "PixelBandwidth": 2290.0,
      "PixelRepresentation": 0,
      "PixelSpacing": [2.0, 2.0],
      "ProtocolName": "func_task-things_run-2",
      "RepetitionTime": 1490.0,
      "Rows": 832,
      "SAR": 0.05580134116485,
      "SamplesPerPixel": 1,
      "ScanOptions": "FS",
      "ScanningSequence": "EP",
      "SequenceName": "epfid2d1_104",
      "SequenceVariant": [
        "SK",
        "SS"
],
      "SeriesDescription": "func_task-things_run-2",
      "SeriesNumber": 13,
      "SeriesTime": "132918.246000",
      "SliceLocation": -30.532512401496,
      "SliceThickness": 2.0,
      "SmallestImagePixelValue": 0,
      "SoftwareVersions": "syngo MR E11",
      "SpacingBetweenSlices": 1.9999999636167,
      "SpecificCharacterSet": "ISO_IR 100",
      "StudyID": "1",
      "StudyTime": "124848.268000",
      "TransmitCoilName": "Body",
      "VariableFlipAngleFlag": "N",
      "WindowCenterWidthExplanation": "Algo1",
      "dBdt": 0.0},
    "slices": {}
  },
  "time": {
    "samples": {
      "AcquisitionNumber": [1, 2, 3, 4, 5, 6, 7, 8, 9, 10, 11, 12, 13, 14, 15, 16, 17, 18, 19, 20, 21, 22, 23, 24, 25, 26, 27, 28, 29, 30, 31, 32, 33, 34, 35, 36, 37, 38, 39, 40, 41, 42, 43, 44, 45, 46, 47, 48, 49, 50, 51, 52, 53, 54, 55, 56, 57, 58, 59, 60, 61, 62, 63, 64, 65, 66, 67, 68, 69, 70, 71, 72, 73, 74, 75, 76, 77, 78, 79, 80, 81, 82, 83, 84, 85, 86, 87, 88, 89, 90, 91, 92, 93, 94, 95, 96, 97, 98, 99, 100, 101, 102, 103, 104, 105, 106, 107, 108, 109, 110, 111, 112, 113, 114, 115, 116, 117, 118, 119, 120, 121, 122, 123, 124, 125, 126, 127, 128, 129, 130, 131, 132, 133, 134, 135, 136, 137, 138, 139, 140, 141, 142, 143, 144, 145, 146, 147, 148, 149, 150, 151, 152, 153, 154, 155, 156, 157, 158, 159, 160, 161, 162, 163, 164, 165, 166, 167, 168, 169, 170, 171, 172, 173, 174, 175, 176, 177, 178, 179, 180, 181, 182, 183, 184, 185, 186, 187, 188, 189, 190],
      "AcquisitionTime": ["132752.327500", "132753.817500", "132755.307500", "132756.797500", "132758.287500", "132759.777500", "132801.267500", "132802.757500", "132804.247500", "132805.737500", "132807.227500", "132808.717500", "132810.207500", "132811.697500", "132813.187500", "132814.677500", "132816.167500", "132817.657500", "132819.147500", "132820.637500", "132822.127500", "132823.617500", "132825.107500", "132826.597500", "132828.087500", "132829.577500", "132831.067500", "132832.557500", "132834.047500", "132835.537500", "132837.027500", "132838.517500", "132840.007500", "132841.497500", "132842.987500", "132844.477500", "132845.967500", "132847.457500", "132848.947500", "132850.437500", "132851.927500", "132853.417500", "132854.907500", "132856.397500", "132857.887500", "132859.377500", "132900.867500", "132902.357500", "132903.847500", "132905.337500", "132906.827500", "132908.317500", "132909.807500", "132911.297500", "132912.787500", "132914.277500", "132915.767500", "132917.257500", "132918.747500", "132920.237500", "132921.727500", "132923.217500", "132924.707500", "132926.197500", "132927.687500", "132929.177500", "132930.667500", "132932.157500", "132933.647500", "132935.137500", "132936.627500", "132938.117500", "132939.607500", "132941.097500", "132942.587500", "132944.077500", "132945.567500", "132947.057500", "132948.547500", "132950.037500", "132951.527500", "132953.017500", "132954.507500", "132955.997500", "132957.487500", "132958.977500", "133000.467500", "133001.957500", "133003.447500", "133004.937500", "133006.427500", "133007.917500", "133009.407500", "133010.897500", "133012.387500", "133013.877500", "133015.367500", "133016.857500", "133018.347500", "133019.837500", "133021.327500", "133022.817500", "133024.307500", "133025.797500", "133027.287500", "133028.777500", "133030.267500", "133031.757500", "133033.247500", "133034.737500", "133036.227500", "133037.717500", "133039.207500", "133040.697500", "133042.187500", "133043.677500", "133045.167500", "133046.657500", "133048.147500", "133049.637500", "133051.127500", "133052.617500", "133054.107500", "133055.597500", "133057.087500", "133058.577500", "133100.067500", "133101.557500", "133103.047500", "133104.537500", "133106.027500", "133107.517500", "133109.007500", "133110.497500", "133111.987500", "133113.477500", "133114.967500", "133116.457500", "133117.947500", "133119.437500", "133120.927500", "133122.417500", "133123.907500", "133125.397500", "133126.887500", "133128.377500", "133129.867500", "133131.357500", "133132.847500", "133134.337500", "133135.827500", "133137.317500", "133138.807500", "133140.297500", "133141.787500", "133143.277500", "133144.767500", "133146.257500", "133147.747500", "133149.237500", "133150.727500", "133152.217500", "133153.707500", "133155.197500", "133156.687500", "133158.177500", "133159.667500", "133201.157500", "133202.647500", "133204.137500", "133205.627500", "133207.117500", "133208.607500", "133210.097500", "133211.587500", "133213.077500", "133214.567500", "133216.057500", "133217.547500", "133219.037500", "133220.527500", "133222.017500", "133223.507500", "133224.997500", "133226.487500", "133227.977500", "133229.467500", "133230.957500", "133232.447500", "133233.937500"],
      "ContentTime": ["132918.249000", "132918.259000", "132918.262000", "132918.266000", "132918.269000", "132918.273000", "132918.276000", "132918.279000", "132918.283000", "132918.286000", "132918.289000", "132918.293000", "132918.296000", "132918.299000", "132918.303000", "132918.306000", "132918.309000", "132918.313000", "132918.316000", "132918.320000", "132918.323000", "132918.326000", "132918.330000", "132918.333000", "132918.336000", "132918.340000", "132918.343000", "132918.347000", "132918.350000", "132918.353000", "132918.357000", "132938.196000", "132938.207000", "132938.210000", "132938.214000", "132938.217000", "132938.220000", "132938.223000", "132938.227000", "132938.230000", "132938.233000", "132938.237000", "132938.240000", "132938.243000", "132938.247000", "132938.250000", "132938.253000", "132938.257000", "132938.260000", "132938.263000", "132938.266000", "132958.196000", "132958.200000", "132958.203000", "132958.207000", "132958.210000", "132958.213000", "132958.217000", "132958.235000", "132958.239000", "132958.242000", "132958.245000", "132958.249000", "132958.252000", "132958.255000", "132958.266000", "132958.269000", "132958.272000", "132958.276000", "132958.279000", "132958.282000", "133018.196000", "133018.200000", "133018.203000", "133018.207000", "133018.210000", "133018.213000", "133018.217000", "133018.220000", "133018.223000", "133018.227000", "133018.230000", "133018.233000", "133018.237000", "133018.240000", "133018.243000", "133018.247000", "133018.250000", "133018.253000", "133018.257000", "133018.260000", "133058.196000", "133058.201000", "133058.205000", "133058.209000", "133058.212000", "133058.216000", "133058.220000", "133058.224000", "133058.228000", "133058.231000", "133058.235000", "133058.239000", "133058.242000", "133058.246000", "133058.249000", "133058.253000", "133058.256000", "133058.260000", "133058.263000", "133058.266000", "133058.270000", "133058.273000", "133058.276000", "133058.280000", "133058.283000", "133058.286000", "133058.290000", "133058.293000", "133058.296000", "133058.300000", "133058.303000", "133058.306000", "133138.196000", "133138.200000", "133138.203000", "133138.206000", "133138.210000", "133138.213000", "133138.217000", "133138.220000", "133138.223000", "133138.227000", "133138.230000", "133138.233000", "133138.237000", "133138.240000", "133138.243000", "133138.247000", "133138.250000", "133138.254000", "133138.257000", "133138.260000", "133138.264000", "133138.267000", "133138.270000", "133138.274000", "133138.277000", "133138.280000", "133138.284000", "133218.196000", "133218.200000", "133218.203000", "133218.207000", "133218.210000", "133218.229000", "133218.232000", "133218.235000", "133218.239000", "133218.242000", "133218.251000", "133218.254000", "133218.258000", "133218.261000", "133218.265000", "133218.268000", "133218.271000", "133218.275000", "133218.278000", "133218.282000", "133218.285000", "133218.288000", "133218.292000", "133218.295000", "133218.299000", "133218.302000", "133218.305000", "133236.596000", "133236.599000", "133236.603000", "133236.606000", "133236.610000", "133236.613000", "133236.616000", "133236.620000", "133236.623000", "133236.627000", "133236.630000", "133236.633000", "133236.637000"],
      "InstanceCreationTime": ["132918.249000", "132918.259000", "132918.262000", "132918.266000", "132918.269000", "132918.273000", "132918.276000", "132918.279000", "132918.283000", "132918.286000", "132918.289000", "132918.293000", "132918.296000", "132918.299000", "132918.303000", "132918.306000", "132918.309000", "132918.313000", "132918.316000", "132918.320000", "132918.323000", "132918.326000", "132918.330000", "132918.333000", "132918.336000", "132918.340000", "132918.343000", "132918.347000", "132918.350000", "132918.353000", "132918.357000", "132938.196000", "132938.207000", "132938.210000", "132938.214000", "132938.217000", "132938.220000", "132938.223000", "132938.227000", "132938.230000", "132938.233000", "132938.237000", "132938.240000", "132938.243000", "132938.247000", "132938.250000", "132938.253000", "132938.257000", "132938.260000", "132938.263000", "132938.266000", "132958.196000", "132958.200000", "132958.203000", "132958.207000", "132958.210000", "132958.213000", "132958.217000", "132958.235000", "132958.239000", "132958.242000", "132958.245000", "132958.249000", "132958.252000", "132958.255000", "132958.266000", "132958.269000", "132958.272000", "132958.276000", "132958.279000", "132958.282000", "133018.196000", "133018.200000", "133018.203000", "133018.207000", "133018.210000", "133018.213000", "133018.217000", "133018.220000", "133018.223000", "133018.227000", "133018.230000", "133018.233000", "133018.237000", "133018.240000", "133018.243000", "133018.247000", "133018.250000", "133018.253000", "133018.257000", "133018.260000", "133058.196000", "133058.201000", "133058.205000", "133058.209000", "133058.212000", "133058.216000", "133058.220000", "133058.224000", "133058.228000", "133058.231000", "133058.235000", "133058.239000", "133058.242000", "133058.246000", "133058.249000", "133058.253000", "133058.256000", "133058.260000", "133058.263000", "133058.266000", "133058.270000", "133058.273000", "133058.276000", "133058.280000", "133058.283000", "133058.286000", "133058.290000", "133058.293000", "133058.296000", "133058.300000", "133058.303000", "133058.306000", "133138.196000", "133138.200000", "133138.203000", "133138.206000", "133138.210000", "133138.213000", "133138.217000", "133138.220000", "133138.223000", "133138.227000", "133138.230000", "133138.233000", "133138.237000", "133138.240000", "133138.243000", "133138.247000", "133138.250000", "133138.254000", "133138.257000", "133138.260000", "133138.264000", "133138.267000", "133138.270000", "133138.274000", "133138.277000", "133138.280000", "133138.284000", "133218.196000", "133218.200000", "133218.203000", "133218.207000", "133218.210000", "133218.229000", "133218.232000", "133218.235000", "133218.239000", "133218.242000", "133218.251000", "133218.254000", "133218.258000", "133218.261000", "133218.265000", "133218.268000", "133218.271000", "133218.275000", "133218.278000", "133218.282000", "133218.285000", "133218.288000", "133218.292000", "133218.295000", "133218.299000", "133218.302000", "133218.305000", "133236.596000", "133236.599000", "133236.603000", "133236.606000", "133236.610000", "133236.613000", "133236.616000", "133236.620000", "133236.623000", "133236.627000", "133236.630000", "133236.633000", "133236.637000"],
      "InstanceNumber": [1, 2, 3, 4, 5, 6, 7, 8, 9, 10, 11, 12, 13, 14, 15, 16, 17, 18, 19, 20, 21, 22, 23, 24, 25, 26, 27, 28, 29, 30, 31, 32, 33, 34, 35, 36, 37, 38, 39, 40, 41, 42, 43, 44, 45, 46, 47, 48, 49, 50, 51, 52, 53, 54, 55, 56, 57, 58, 59, 60, 61, 62, 63, 64, 65, 66, 67, 68, 69, 70, 71, 72, 73, 74, 75, 76, 77, 78, 79, 80, 81, 82, 83, 84, 85, 86, 87, 88, 89, 90, 91, 92, 93, 94, 95, 96, 97, 98, 99, 100, 101, 102, 103, 104, 105, 106, 107, 108, 109, 110, 111, 112, 113, 114, 115, 116, 117, 118, 119, 120, 121, 122, 123, 124, 125, 126, 127, 128, 129, 130, 131, 132, 133, 134, 135, 136, 137, 138, 139, 140, 141, 142, 143, 144, 145, 146, 147, 148, 149, 150, 151, 152, 153, 154, 155, 156, 157, 158, 159, 160, 161, 162, 163, 164, 165, 166, 167, 168, 169, 170, 171, 172, 173, 174, 175, 176, 177, 178, 179, 180, 181, 182, 183, 184, 185, 186, 187, 188, 189, 190],
      "LargestImagePixelValue": [42890, 41184, 40533, 40240, 41478, 40056, 39867, 40021, 39888, 39868, 40198, 39987, 39941, 39686, 39751, 39598, 39594, 39871, 40022, 39820, 39982, 39486, 39501, 39606, 39425, 39384, 39470, 39410, 39318, 39386, 39703, 39710, 39487, 39560, 39522, 39759, 39617, 39502, 39862, 39339, 39705, 39657, 39527, 39573, 40089, 39477, 39424, 39316, 39631, 40106, 39614, 39674, 39649, 39671, 39314, 39600, 39311, 39725, 39682, 39953, 39626, 39503, 39417, 39861, 40049, 39764, 40370, 39481, 40070, 40061, 39684, 39363, 39323, 39492, 39840, 39627, 39519, 39510, 39631, 39628, 39470, 39765, 39877, 40046, 39620, 39857, 39706, 39748, 39736, 39491, 39412, 39235, 39472, 39595, 39810, 39345, 39397, 39164, 39590, 39742, 39319, 39278, 39267, 39253, 39346, 39819, 39418, 39366, 39195, 39581, 40033, 39688, 39751, 39376, 39602, 39635, 40031, 39695, 39540, 39628, 39735, 39619, 39707, 39746, 39507, 39760, 39135, 39387, 39154, 39612, 39749, 40059, 39654, 39709, 39634, 39534, 40198, 39895, 40089, 39580, 39398, 39372, 39628, 39937, 39783, 39472, 39714, 39702, 39617, 40078, 40119, 39588, 39939, 39629, 40363, 39562, 39690, 39265, 39856, 39068, 39708, 39299, 40076, 39392, 39914, 39486, 39771, 39703, 40013, 39776, 39283, 39857, 39895, 40024, 39648, 39773, 39426, 40302, 40093, 40064, 39618, 39684, 39634, 39641, 39442, 39636, 39635, 39450, 39552, 39956],
      "WindowCenter": [10141.0, 10110.0, 10110.0, 10244.0, 10212.0, 10138.0, 10137.0, 10129.0, 10110.0, 10100.0, 10105.0, 10107.0, 10133.0, 10144.0, 10147.0, 10131.0, 10122.0, 10124.0, 10132.0, 10144.0, 10153.0, 10149.0, 10147.0, 10154.0, 10146.0, 10147.0, 10131.0, 10131.0, 10137.0, 10148.0, 10146.0, 10145.0, 10122.0, 10118.0, 10124.0, 10128.0, 10136.0, 10147.0, 10163.0, 10154.0, 10131.0, 10104.0, 10100.0, 10106.0, 10121.0, 10112.0, 10112.0, 10111.0, 10110.0, 10124.0, 10118.0, 10118.0, 10115.0, 10113.0, 10105.0, 10113.0, 10118.0, 10118.0, 10110.0, 10118.0, 10127.0, 10128.0, 10122.0, 10115.0, 10116.0, 10125.0, 10142.0, 10137.0, 10142.0, 10136.0, 10129.0, 10120.0, 10098.0, 10103.0, 10115.0, 10118.0, 10105.0, 10104.0, 10100.0, 10127.0, 10138.0, 10130.0, 10110.0, 10102.0, 10100.0, 10121.0, 10126.0, 10128.0, 10129.0, 10120.0, 10113.0, 10104.0, 10119.0, 10129.0, 10139.0, 10132.0, 10123.0, 10115.0, 10126.0, 10137.0, 10138.0, 10130.0, 10116.0, 10105.0, 10106.0, 10112.0, 10122.0, 10113.0, 10106.0, 10110.0, 10120.0, 10112.0, 10120.0, 10113.0, 10127.0, 10137.0, 10153.0, 10149.0, 10135.0, 10123.0, 10103.0, 10094.0, 10092.0, 10108.0, 10135.0, 10147.0, 10134.0, 10108.0, 10089.0, 10084.0, 10101.0, 10109.0, 10104.0, 10102.0, 10112.0, 10110.0, 10118.0, 10119.0, 10126.0, 10128.0, 10123.0, 10124.0, 10111.0, 10114.0, 10113.0, 10113.0, 10120.0, 10136.0, 10140.0, 10148.0, 10124.0, 10090.0, 10084.0, 10077.0, 10107.0, 10120.0, 10122.0, 10106.0, 10102.0, 10099.0, 10121.0, 10116.0, 10105.0, 10091.0, 10093.0, 10095.0, 10101.0, 10113.0, 10120.0, 10115.0, 10105.0, 10105.0, 10104.0, 10112.0, 10129.0, 10130.0, 10123.0, 10112.0, 10104.0, 10102.0, 10105.0, 10110.0, 10114.0, 10105.0, 10099.0, 10096.0, 10095.0, 10087.0, 10093.0, 10091.0],
      "WindowWidth": [21617.0, 21524.0, 21516.0, 21829.0, 21745.0, 21565.0, 21557.0, 21538.0, 21494.0, 21469.0, 21480.0, 21487.0, 21549.0, 21577.0, 21585.0, 21545.0, 21524.0, 21525.0, 21546.0, 21575.0, 21595.0, 21590.0, 21582.0, 21597.0, 21582.0, 21582.0, 21545.0, 21544.0, 21555.0, 21583.0, 21578.0, 21573.0, 21521.0, 21510.0, 21524.0, 21539.0, 21556.0, 21584.0, 21620.0, 21594.0, 21542.0, 21478.0, 21471.0, 21483.0, 21515.0, 21503.0, 21501.0, 21499.0, 21494.0, 21527.0, 21515.0, 21516.0, 21506.0, 21505.0, 21486.0, 21506.0, 21514.0, 21512.0, 21496.0, 21511.0, 21533.0, 21538.0, 21523.0, 21502.0, 21504.0, 21527.0, 21566.0, 21555.0, 21565.0, 21554.0, 21536.0, 21516.0, 21469.0, 21481.0, 21505.0, 21513.0, 21484.0, 21480.0, 21470.0, 21533.0, 21559.0, 21539.0, 21492.0, 21473.0, 21471.0, 21517.0, 21531.0, 21535.0, 21535.0, 21514.0, 21499.0, 21481.0, 21516.0, 21538.0, 21563.0, 21547.0, 21523.0, 21507.0, 21525.0, 21554.0, 21557.0, 21541.0, 21509.0, 21482.0, 21486.0, 21498.0, 21523.0, 21503.0, 21487.0, 21492.0, 21516.0, 21501.0, 21518.0, 21501.0, 21529.0, 21552.0, 21588.0, 21583.0, 21553.0, 21524.0, 21476.0, 21455.0, 21450.0, 21489.0, 21551.0, 21580.0, 21553.0, 21490.0, 21447.0, 21433.0, 21473.0, 21490.0, 21480.0, 21473.0, 21496.0, 21491.0, 21510.0, 21512.0, 21528.0, 21531.0, 21522.0, 21525.0, 21491.0, 21502.0, 21499.0, 21501.0, 21518.0, 21556.0, 21569.0, 21579.0, 21521.0, 21441.0, 21428.0, 21417.0, 21485.0, 21517.0, 21523.0, 21486.0, 21473.0, 21471.0, 21519.0, 21509.0, 21478.0, 21449.0, 21450.0, 21457.0, 21470.0, 21501.0, 21515.0, 21505.0, 21480.0, 21479.0, 21479.0, 21499.0, 21538.0, 21539.0, 21523.0, 21494.0, 21477.0, 21470.0, 21480.0, 21490.0, 21501.0, 21481.0, 21468.0, 21457.0, 21456.0, 21438.0, 21449.0, 21442.0]
    },
    "slices": {}
  }
}