{
  "AcquisitionMatrixPE": 104,
  "AcquisitionNumber": 1,
  "AcquisitionTime": "13:34:16.745000",
  "BandwidthPerPixelPhaseEncode": 17.17,
  "BaseResolution": 104,
  "BodyPartExamined": "BRAIN",
  "CoilString": "HC1-7;NC1_2",
  "ConsistencyInfo": "N4_VE11C_LATEST_20160120",
  "ConversionSoftware": "dcm2niix",
  "ConversionSoftwareVersion": "v1.0.20190902",
  "DerivedVendorReportedEchoSpacing": 0.000560011,
  "DeviceSerialNumber": "167006",
  "DwellTime": 2.1e-06,
  "EchoTime": 0.037,
  "EchoTrainLength": 104,
  "EffectiveEchoSpacing": 0.000560011,
  "FlipAngle": 52,
  "ImageComments": "Unaliased_MB4_PE3_LB",
  "ImageOrientationPatientDICOM": [0.999828, 0.00298026, 0.0183009, 0.00157055, 0.96984, -0.243739],
  "ImageType": [
    "ORIGINAL",
    "PRIMARY",
    "P",
    "MB",
    "ND",
    "MOSAIC"
],
  "ImagingFrequency": 123.259,
  "InPlanePhaseEncodingDirectionDICOM": "COL",
  "InstitutionAddress": "Chemin_Queen-Mary_4565_Montreal_District_CA_H3W_1W5",
  "InstitutionName": "IUGM",
  "InstitutionalDepartmentName": "Department",
  "MRAcquisitionType": "2D",
  "MagneticFieldStrength": 3,
  "Manufacturer": "Siemens",
  "ManufacturersModelName": "Prisma_fit",
  "Modality": "MR",
  "MultibandAccelerationFactor": 4,
  "PartialFourier": 1,
  "PatientPosition": "HFS",
  "PercentPhaseFOV": 100,
  "PhaseEncodingDirection": "j",
  "PhaseEncodingSteps": 104,
  "PhaseResolution": 1,
  "PixelBandwidth": 2290,
  "ProcedureStepDescription": "memory_things",
  "ProtocolName": "func_task-things_run-3",
  "PulseSequenceDetails": "%CustomerSeq%_cmrr_mbep2d_bold",
  "ReceiveCoilActiveElements": "HC1-7;NC1,2",
  "ReceiveCoilName": "HeadNeck_64",
  "ReconMatrixPE": 104,
  "RepetitionTime": 1.49,
  "SAR": 0.0558013,
  "ScanOptions": "FS",
  "ScanningSequence": "EP",
  "SequenceName": "epfid2d1_104",
  "SequenceVariant": "SK_SS",
  "SeriesDescription": "func_task-things_run-3",
  "SeriesNumber": 17,
  "ShimSetting": [641, -7197, -8757, 694, 67, 50, 78, -17],
  "SliceThickness": 2,
  "SliceTiming": [0, 0.7825, 0.0975, 0.88, 0.195, 0.98, 0.2925, 1.0775, 0.39, 1.175, 0.49, 1.2725, 0.5875, 1.37, 0.685, 0, 0.7825, 0.0975, 0.88, 0.195, 0.98, 0.2925, 1.0775, 0.39, 1.175, 0.49, 1.2725, 0.5875, 1.37, 0.685, 0, 0.7825, 0.0975, 0.88, 0.195, 0.98, 0.2925, 1.0775, 0.39, 1.175, 0.49, 1.2725, 0.5875, 1.37, 0.685, 0, 0.7825, 0.0975, 0.88, 0.195, 0.98, 0.2925, 1.0775, 0.39, 1.175, 0.49, 1.2725, 0.5875, 1.37, 0.685],
  "SoftwareVersions": "syngo_MR_E11",
  "SpacingBetweenSlices": 2,
  "StationName": "MRC35049",
  "TaskName": "things",
  "TotalReadoutTime": 0.0576811,
  "TxRefAmp": 248.001,
  "WipMemBlock": "d5dc8098-d59b-4d31-a95c-de522210abad||Sequence: R016 ve11c/master r/e634e98; Dec 19 2017 11:00:25 by eja",
  "dcmmeta_affine": [
    [-1.9996562004089355, 0.003141106106340885, 0.036950770765542984, 108.21681213378906],
    [-0.005960514768958092, 1.9396791458129883, -0.4874517619609833, -73.78596496582031],
    [0.03660188615322113, 0.487478107213974, 1.9393362998962402, -52.09556579589844],
    [0.0, 0.0, 0.0, 1.0]
],
  "dcmmeta_reorient_transform": [
    [0.0, -1.0, 0.0, 103.0],
    [1.0, 0.0, 0.0, 0.0],
    [0.0, 0.0, 1.0, 0.0],
    [0.0, 0.0, 0.0, 1.0]
],
  "dcmmeta_shape": [104, 104, 60, 190],
  "dcmmeta_slice_dim": 2,
  "dcmmeta_version": 0.6,
  "global": {
    "const": {
      "AcquisitionMatrix": [104, 0, 0, 104],
      "AngioFlag": "N",
      "BitsAllocated": 16,
      "BitsStored": 16,
      "BodyPartExamined": "BRAIN",
      "Columns": 832,
      "EchoNumbers": 1,
      "EchoTime": 37.0,
      "EchoTrainLength": 104,
      "FlipAngle": 52.0,
      "HighBit": 15,
      "ImageOrientationPatient": [0.99982808198007, 0.00298025748569, 0.01830094394756, 0.00157055307512, 0.96983957838178, -0.2437390521999],
      "ImagePositionPatient": [-837.55855372063, -834.21382599118, 162.23362303979],
      "ImageType": [
        "ORIGINAL",
        "PRIMARY",
        "P",
        "MB",
        "ND",
        "MOSAIC"
],
      "ImagedNucleus": "1H",
      "ImagingFrequency": 123.25895,
      "InPlanePhaseEncodingDirection": "COL",
      "LargestImagePixelValue": 4095,
      "MRAcquisitionType": "2D",
      "MagneticFieldStrength": 3.0,
      "Manufacturer": "SIEMENS",
      "ManufacturerModelName": "Prisma_fit",
      "Modality": "MR",
      "NumberOfAverages": 1.0,
      "NumberOfPhaseEncodingSteps": 104,
      "PercentPhaseFieldOfView": 100.0,
      "PercentSampling": 100.0,
      "PerformedProcedureStepStartTime": "124848.386000",
      "PhotometricInterpretation": "MONOCHROME2",
      "PixelBandwidth": 2290.0,
      "PixelRepresentation": 0,
      "PixelSpacing": [2.0, 2.0],
      "ProtocolName": "func_task-things_run-3",
      "RepetitionTime": 1490.0,
      "RescaleIntercept": -4096.0,
      "RescaleSlope": 2.0,
      "RescaleType": "US",
      "Rows": 832,
      "SAR": 0.05580134116485,
      "SamplesPerPixel": 1,
      "ScanOptions": "FS",
      "ScanningSequence": "EP",
      "SequenceName": "epfid2d1_104",
      "SequenceVariant": [
        "SK",
        "SS"
],
      "SeriesDescription": "func_task-things_run-3",
      "SeriesNumber": 17,
      "SeriesTime": "133531.107000",
      "SliceLocation": -30.532512401496,
      "SliceThickness": 2.0,
      "SmallestImagePixelValue": 0,
      "SoftwareVersions": "syngo MR E11",
      "SpacingBetweenSlices": 1.9999999636167,
      "SpecificCharacterSet": "ISO_IR 100",
      "StudyID": "1",
      "StudyTime": "124848.268000",
      "TransmitCoilName": "Body",
      "VariableFlipAngleFlag": "N",
      "WindowCenterWidthExplanation": "Algo1",
      "dBdt": 0.0},
    "slices": {}
  },
  "time": {
    "samples": {
      "AcquisitionNumber": [1, 2, 3, 4, 5, 6, 7, 8, 9, 10, 11, 12, 13, 14, 15, 16, 17, 18, 19, 20, 21, 22, 23, 24, 25, 26, 27, 28, 29, 30, 31, 32, 33, 34, 35, 36, 37, 38, 39, 40, 41, 42, 43, 44, 45, 46, 47, 48, 49, 50, 51, 52, 53, 54, 55, 56, 57, 58, 59, 60, 61, 62, 63, 64, 65, 66, 67, 68, 69, 70, 71, 72, 73, 74, 75, 76, 77, 78, 79, 80, 81, 82, 83, 84, 85, 86, 87, 88, 89, 90, 91, 92, 93, 94, 95, 96, 97, 98, 99, 100, 101, 102, 103, 104, 105, 106, 107, 108, 109, 110, 111, 112, 113, 114, 115, 116, 117, 118, 119, 120, 121, 122, 123, 124, 125, 126, 127, 128, 129, 130, 131, 132, 133, 134, 135, 136, 137, 138, 139, 140, 141, 142, 143, 144, 145, 146, 147, 148, 149, 150, 151, 152, 153, 154, 155, 156, 157, 158, 159, 160, 161, 162, 163, 164, 165, 166, 167, 168, 169, 170, 171, 172, 173, 174, 175, 176, 177, 178, 179, 180, 181, 182, 183, 184, 185, 186, 187, 188, 189, 190],
      "AcquisitionTime": ["133416.745000", "133418.235000", "133419.725000", "133421.215000", "133422.705000", "133424.195000", "133425.685000", "133427.175000", "133428.665000", "133430.155000", "133431.645000", "133433.135000", "133434.625000", "133436.115000", "133437.605000", "133439.095000", "133440.585000", "133442.075000", "133443.565000", "133445.055000", "133446.545000", "133448.035000", "133449.525000", "133451.015000", "133452.505000", "133453.995000", "133455.485000", "133456.975000", "133458.465000", "133459.955000", "133501.445000", "133502.935000", "133504.425000", "133505.915000", "133507.405000", "133508.895000", "133510.385000", "133511.875000", "133513.365000", "133514.855000", "133516.345000", "133517.835000", "133519.325000", "133520.815000", "133522.305000", "133523.795000", "133525.285000", "133526.775000", "133528.265000", "133529.755000", "133531.245000", "133532.735000", "133534.225000", "133535.715000", "133537.205000", "133538.695000", "133540.185000", "133541.675000", "133543.165000", "133544.655000", "133546.145000", "133547.635000", "133549.125000", "133550.615000", "133552.105000", "133553.595000", "133555.085000", "133556.575000", "133558.065000", "133559.555000", "133601.045000", "133602.535000", "133604.025000", "133605.515000", "133607.005000", "133608.495000", "133609.985000", "133611.475000", "133612.965000", "133614.455000", "133615.945000", "133617.435000", "133618.925000", "133620.415000", "133621.905000", "133623.395000", "133624.885000", "133626.375000", "133627.865000", "133629.355000", "133630.845000", "133632.335000", "133633.825000", "133635.315000", "133636.805000", "133638.295000", "133639.785000", "133641.275000", "133642.765000", "133644.255000", "133645.745000", "133647.235000", "133648.725000", "133650.215000", "133651.705000", "133653.195000", "133654.685000", "133656.175000", "133657.665000", "133659.155000", "133700.645000", "133702.135000", "133703.625000", "133705.115000", "133706.605000", "133708.095000", "133709.585000", "133711.075000", "133712.565000", "133714.055000", "133715.545000", "133717.035000", "133718.525000", "133720.015000", "133721.505000", "133722.995000", "133724.485000", "133725.975000", "133727.465000", "133728.955000", "133730.445000", "133731.935000", "133733.425000", "133734.915000", "133736.405000", "133737.895000", "133739.385000", "133740.875000", "133742.365000", "133743.855000", "133745.345000", "133746.835000", "133748.325000", "133749.815000", "133751.305000", "133752.795000", "133754.285000", "133755.775000", "133757.265000", "133758.755000", "133800.245000", "133801.735000", "133803.225000", "133804.715000", "133806.205000", "133807.695000", "133809.185000", "133810.675000", "133812.165000", "133813.655000", "133815.145000", "133816.635000", "133818.125000", "133819.615000", "133821.105000", "133822.595000", "133824.085000", "133825.575000", "133827.065000", "133828.555000", "133830.045000", "133831.535000", "133833.025000", "133834.515000", "133836.005000", "133837.495000", "133838.985000", "133840.475000", "133841.965000", "133843.455000", "133844.945000", "133846.435000", "133847.925000", "133849.415000", "133850.905000", "133852.395000", "133853.885000", "133855.375000", "133856.865000", "133858.355000"],
      "ContentTime": ["133531.109000", "133531.111000", "133531.114000", "133531.116000", "133531.119000", "133531.121000", "133531.124000", "133531.126000", "133531.129000", "133531.131000", "133531.134000", "133531.136000", "133531.139000", "133531.141000", "133531.144000", "133531.146000", "133531.149000", "133531.151000", "133531.154000", "133551.034000", "133551.037000", "133551.039000", "133551.042000", "133551.044000", "133551.047000", "133551.049000", "133551.052000", "133551.054000", "133551.057000", "133551.059000", "133551.062000", "133551.064000", "133551.067000", "133551.069000", "133551.072000", "133551.074000", "133551.077000", "133551.079000", "133551.082000", "133551.084000", "133611.015000", "133611.017000", "133611.020000", "133611.022000", "133611.025000", "133611.027000", "133611.030000", "133611.032000", "133611.035000", "133611.037000", "133611.040000", "133611.042000", "133611.045000", "133611.047000", "133611.050000", "133611.052000", "133611.055000", "133611.057000", "133611.060000", "133611.062000", "133631.036000", "133631.039000", "133631.041000", "133631.044000", "133631.046000", "133631.049000", "133631.051000", "133631.054000", "133631.056000", "133631.059000", "133631.062000", "133631.064000", "133631.067000", "133631.069000", "133631.072000", "133631.074000", "133631.077000", "133631.079000", "133631.082000", "133631.084000", "133651.012000", "133651.015000", "133651.018000", "133651.020000", "133651.023000", "133651.025000", "133651.028000", "133651.030000", "133651.033000", "133651.035000", "133651.038000", "133651.040000", "133651.043000", "133651.045000", "133651.048000", "133651.050000", "133651.053000", "133651.055000", "133651.058000", "133651.060000", "133731.067000", "133731.070000", "133731.073000", "133731.075000", "133731.078000", "133731.081000", "133731.083000", "133731.086000", "133731.088000", "133731.091000", "133731.093000", "133731.096000", "133731.098000", "133731.101000", "133731.104000", "133731.107000", "133731.109000", "133731.112000", "133731.114000", "133731.118000", "133731.120000", "133731.123000", "133731.126000", "133731.128000", "133731.131000", "133731.133000", "133731.136000", "133731.138000", "133731.141000", "133811.075000", "133811.078000", "133811.080000", "133811.083000", "133811.085000", "133811.088000", "133811.092000", "133811.094000", "133811.097000", "133811.099000", "133811.102000", "133811.104000", "133811.107000", "133811.110000", "133811.113000", "133811.115000", "133811.118000", "133811.120000", "133811.123000", "133811.125000", "133811.128000", "133811.130000", "133811.133000", "133811.135000", "133811.138000", "133811.140000", "133811.143000", "133851.466000", "133851.470000", "133851.473000", "133851.475000", "133851.478000", "133851.481000", "133851.483000", "133851.486000", "133851.488000", "133851.491000", "133851.493000", "133851.496000", "133851.499000", "133851.501000", "133851.504000", "133851.506000", "133851.509000", "133851.511000", "133851.514000", "133851.516000", "133851.519000", "133851.521000", "133851.524000", "133851.526000", "133851.534000", "133851.536000", "133851.539000", "133900.526000", "133900.529000", "133900.531000", "133900.534000", "133900.537000", "133900.539000", "133900.542000"],
      "InstanceCreationTime": ["133531.109000", "133531.111000", "133531.114000", "133531.116000", "133531.119000", "133531.121000", "133531.124000", "133531.126000", "133531.129000", "133531.131000", "133531.134000", "133531.136000", "133531.139000", "133531.141000", "133531.144000", "133531.146000", "133531.149000", "133531.151000", "133531.154000", "133551.034000", "133551.037000", "133551.039000", "133551.042000", "133551.044000", "133551.047000", "133551.049000", "133551.052000", "133551.054000", "133551.057000", "133551.059000", "133551.062000", "133551.064000", "133551.067000", "133551.069000", "133551.072000", "133551.074000", "133551.077000", "133551.079000", "133551.082000", "133551.084000", "133611.015000", "133611.017000", "133611.020000", "133611.022000", "133611.025000", "133611.027000", "133611.030000", "133611.032000", "133611.035000", "133611.037000", "133611.040000", "133611.042000", "133611.045000", "133611.047000", "133611.050000", "133611.052000", "133611.055000", "133611.057000", "133611.060000", "133611.062000", "133631.036000", "133631.039000", "133631.041000", "133631.044000", "133631.046000", "133631.049000", "133631.051000", "133631.054000", "133631.056000", "133631.059000", "133631.062000", "133631.064000", "133631.067000", "133631.069000", "133631.072000", "133631.074000", "133631.077000", "133631.079000", "133631.082000", "133631.084000", "133651.012000", "133651.015000", "133651.018000", "133651.020000", "133651.023000", "133651.025000", "133651.028000", "133651.030000", "133651.033000", "133651.035000", "133651.038000", "133651.040000", "133651.043000", "133651.045000", "133651.048000", "133651.050000", "133651.053000", "133651.055000", "133651.058000", "133651.060000", "133731.067000", "133731.070000", "133731.073000", "133731.075000", "133731.078000", "133731.081000", "133731.083000", "133731.086000", "133731.088000", "133731.091000", "133731.093000", "133731.096000", "133731.098000", "133731.101000", "133731.104000", "133731.107000", "133731.109000", "133731.112000", "133731.114000", "133731.118000", "133731.120000", "133731.123000", "133731.126000", "133731.128000", "133731.131000", "133731.133000", "133731.136000", "133731.138000", "133731.141000", "133811.075000", "133811.078000", "133811.080000", "133811.083000", "133811.085000", "133811.088000", "133811.092000", "133811.094000", "133811.097000", "133811.099000", "133811.102000", "133811.104000", "133811.107000", "133811.110000", "133811.113000", "133811.115000", "133811.118000", "133811.120000", "133811.123000", "133811.125000", "133811.128000", "133811.130000", "133811.133000", "133811.135000", "133811.138000", "133811.140000", "133811.143000", "133851.466000", "133851.470000", "133851.473000", "133851.475000", "133851.478000", "133851.481000", "133851.483000", "133851.486000", "133851.488000", "133851.491000", "133851.493000", "133851.496000", "133851.499000", "133851.501000", "133851.504000", "133851.506000", "133851.509000", "133851.511000", "133851.514000", "133851.516000", "133851.519000", "133851.521000", "133851.524000", "133851.526000", "133851.534000", "133851.536000", "133851.539000", "133900.526000", "133900.529000", "133900.531000", "133900.534000", "133900.537000", "133900.539000", "133900.542000"],
      "InstanceNumber": [1, 2, 3, 4, 5, 6, 7, 8, 9, 10, 11, 12, 13, 14, 15, 16, 17, 18, 19, 20, 21, 22, 23, 24, 25, 26, 27, 28, 29, 30, 31, 32, 33, 34, 35, 36, 37, 38, 39, 40, 41, 42, 43, 44, 45, 46, 47, 48, 49, 50, 51, 52, 53, 54, 55, 56, 57, 58, 59, 60, 61, 62, 63, 64, 65, 66, 67, 68, 69, 70, 71, 72, 73, 74, 75, 76, 77, 78, 79, 80, 81, 82, 83, 84, 85, 86, 87, 88, 89, 90, 91, 92, 93, 94, 95, 96, 97, 98, 99, 100, 101, 102, 103, 104, 105, 106, 107, 108, 109, 110, 111, 112, 113, 114, 115, 116, 117, 118, 119, 120, 121, 122, 123, 124, 125, 126, 127, 128, 129, 130, 131, 132, 133, 134, 135, 136, 137, 138, 139, 140, 141, 142, 143, 144, 145, 146, 147, 148, 149, 150, 151, 152, 153, 154, 155, 156, 157, 158, 159, 160, 161, 162, 163, 164, 165, 166, 167, 168, 169, 170, 171, 172, 173, 174, 175, 176, 177, 178, 179, 180, 181, 182, 183, 184, 185, 186, 187, 188, 189, 190],
      "WindowCenter": [4748.0, 4746.0, 4748.0, 4744.0, 4744.0, 4748.0, 4750.0, 4750.0, 4750.0, 4748.0, 4746.0, 4748.0, 4748.0, 4748.0, 4746.0, 4750.0, 4746.0, 4752.0, 4746.0, 4748.0, 4750.0, 4748.0, 4746.0, 4746.0, 4748.0, 4746.0, 4748.0, 4750.0, 4750.0, 4750.0, 4748.0, 4748.0, 4748.0, 4748.0, 4750.0, 4748.0, 4748.0, 4746.0, 4750.0, 4752.0, 4748.0, 4748.0, 4746.0, 4750.0, 4748.0, 4748.0, 4750.0, 4746.0, 4748.0, 4746.0, 4748.0, 4748.0, 4748.0, 4748.0, 4748.0, 4750.0, 4748.0, 4748.0, 4750.0, 4748.0, 4750.0, 4750.0, 4750.0, 4746.0, 4746.0, 4748.0, 4750.0, 4746.0, 4748.0, 4748.0, 4752.0, 4744.0, 4746.0, 4748.0, 4748.0, 4746.0, 4748.0, 4746.0, 4748.0, 4748.0, 4746.0, 4744.0, 4746.0, 4748.0, 4750.0, 4746.0, 4748.0, 4748.0, 4750.0, 4748.0, 4748.0, 4748.0, 4746.0, 4748.0, 4748.0, 4748.0, 4748.0, 4744.0, 4748.0, 4748.0, 4746.0, 4746.0, 4748.0, 4754.0, 4746.0, 4748.0, 4750.0, 4748.0, 4750.0, 4748.0, 4750.0, 4748.0, 4748.0, 4744.0, 4746.0, 4748.0, 4750.0, 4750.0, 4744.0, 4748.0, 4746.0, 4750.0, 4752.0, 4748.0, 4746.0, 4748.0, 4746.0, 4748.0, 4746.0, 4750.0, 4748.0, 4746.0, 4748.0, 4750.0, 4748.0, 4742.0, 4746.0, 4748.0, 4748.0, 4746.0, 4750.0, 4748.0, 4746.0, 4750.0, 4748.0, 4750.0, 4746.0, 4748.0, 4748.0, 4750.0, 4748.0, 4748.0, 4744.0, 4748.0, 4744.0, 4750.0, 4750.0, 4746.0, 4750.0, 4748.0, 4748.0, 4748.0, 4744.0, 4746.0, 4748.0, 4748.0, 4748.0, 4746.0, 4748.0, 4750.0, 4744.0, 4748.0, 4750.0, 4748.0, 4748.0, 4746.0, 4750.0, 4750.0, 4750.0, 4750.0, 4750.0, 4746.0, 4746.0, 4746.0, 4750.0, 4744.0, 4750.0, 4744.0, 4750.0, 4748.0],
      "WindowWidth": [18532.0, 18538.0, 18532.0, 18534.0, 18526.0, 18530.0, 18532.0, 18530.0, 18532.0, 18526.0, 18532.0, 18532.0, 18528.0, 18532.0, 18528.0, 18532.0, 18530.0, 18536.0, 18528.0, 18530.0, 18532.0, 18530.0, 18526.0, 18524.0, 18530.0, 18528.0, 18530.0, 18530.0, 18530.0, 18534.0, 18528.0, 18534.0, 18532.0, 18534.0, 18538.0, 18528.0, 18528.0, 18532.0, 18530.0, 18534.0, 18528.0, 18526.0, 18532.0, 18532.0, 18532.0, 18536.0, 18536.0, 18528.0, 18530.0, 18534.0, 18528.0, 18530.0, 18530.0, 18528.0, 18526.0, 18534.0, 18524.0, 18530.0, 18532.0, 18530.0, 18532.0, 18532.0, 18530.0, 18530.0, 18532.0, 18534.0, 18530.0, 18522.0, 18528.0, 18530.0, 18536.0, 18524.0, 18532.0, 18530.0, 18526.0, 18530.0, 18530.0, 18534.0, 18526.0, 18530.0, 18526.0, 18528.0, 18532.0, 18522.0, 18534.0, 18528.0, 18528.0, 18532.0, 18538.0, 18526.0, 18530.0, 18532.0, 18528.0, 18526.0, 18530.0, 18522.0, 18530.0, 18522.0, 18526.0, 18526.0, 18526.0, 18532.0, 18530.0, 18536.0, 18524.0, 18530.0, 18532.0, 18528.0, 18530.0, 18526.0, 18526.0, 18524.0, 18532.0, 18522.0, 18528.0, 18530.0, 18532.0, 18526.0, 18526.0, 18528.0, 18530.0, 18530.0, 18528.0, 18528.0, 18528.0, 18526.0, 18532.0, 18528.0, 18524.0, 18528.0, 18522.0, 18524.0, 18526.0, 18528.0, 18530.0, 18526.0, 18528.0, 18530.0, 18532.0, 18524.0, 18532.0, 18520.0, 18530.0, 18520.0, 18526.0, 18530.0, 18526.0, 18526.0, 18528.0, 18532.0, 18528.0, 18526.0, 18522.0, 18530.0, 18528.0, 18528.0, 18532.0, 18520.0, 18530.0, 18526.0, 18524.0, 18528.0, 18524.0, 18528.0, 18532.0, 18526.0, 18528.0, 18526.0, 18530.0, 18530.0, 18524.0, 18534.0, 18530.0, 18532.0, 18524.0, 18526.0, 18528.0, 18532.0, 18530.0, 18526.0, 18524.0, 18522.0, 18524.0, 18526.0, 18526.0, 18530.0, 18524.0, 18528.0, 18534.0, 18524.0]
    },
    "slices": {}
  }
}