{
  "AcquisitionMatrixPE": 104,
  "AcquisitionNumber": 1,
  "AcquisitionTime": "13:21:42.690000",
  "BandwidthPerPixelPhaseEncode": 17.17,
  "BaseResolution": 104,
  "BodyPartExamined": "BRAIN",
  "CoilString": "HC1-7;NC1_2",
  "ConsistencyInfo": "N4_VE11C_LATEST_20160120",
  "ConversionSoftware": "dcm2niix",
  "ConversionSoftwareVersion": "v1.0.20190902",
  "DerivedVendorReportedEchoSpacing": 0.000560011,
  "DeviceSerialNumber": "167006",
  "DwellTime": 2.1e-06,
  "EchoTime": 0.037,
  "EchoTrainLength": 104,
  "EffectiveEchoSpacing": 0.000560011,
  "FlipAngle": 52,
  "ImageComments": "Unaliased_MB4_PE3_LB",
  "ImageOrientationPatientDICOM": [0.999828, 0.00298026, 0.0183009, 0.00157055, 0.96984, -0.243739],
  "ImageType": [
    "ORIGINAL",
    "PRIMARY",
    "P",
    "MB",
    "ND",
    "MOSAIC"
],
  "ImagingFrequency": 123.259,
  "InPlanePhaseEncodingDirectionDICOM": "COL",
  "InstitutionAddress": "Chemin_Queen-Mary_4565_Montreal_District_CA_H3W_1W5",
  "InstitutionName": "IUGM",
  "InstitutionalDepartmentName": "Department",
  "MRAcquisitionType": "2D",
  "MagneticFieldStrength": 3,
  "Manufacturer": "Siemens",
  "ManufacturersModelName": "Prisma_fit",
  "Modality": "MR",
  "MultibandAccelerationFactor": 4,
  "PartialFourier": 1,
  "PatientPosition": "HFS",
  "PercentPhaseFOV": 100,
  "PhaseEncodingDirection": "j",
  "PhaseEncodingSteps": 104,
  "PhaseResolution": 1,
  "PixelBandwidth": 2290,
  "ProcedureStepDescription": "memory_things",
  "ProtocolName": "func_task-things_run-1",
  "PulseSequenceDetails": "%CustomerSeq%_cmrr_mbep2d_bold",
  "ReceiveCoilActiveElements": "HC1-7;NC1,2",
  "ReceiveCoilName": "HeadNeck_64",
  "ReconMatrixPE": 104,
  "RepetitionTime": 1.49,
  "SAR": 0.0558013,
  "ScanOptions": "FS",
  "ScanningSequence": "EP",
  "SequenceName": "epfid2d1_104",
  "SequenceVariant": "SK_SS",
  "SeriesDescription": "func_task-things_run-1",
  "SeriesNumber": 11,
  "ShimSetting": [641, -7197, -8757, 694, 67, 50, 78, -17],
  "SliceThickness": 2,
  "SliceTiming": [0, 0.785, 0.0975, 0.8825, 0.1975, 0.98, 0.295, 1.0775, 0.3925, 1.1775, 0.49, 1.275, 0.5875, 1.3725, 0.6875, 0, 0.785, 0.0975, 0.8825, 0.1975, 0.98, 0.295, 1.0775, 0.3925, 1.1775, 0.49, 1.275, 0.5875, 1.3725, 0.6875, 0, 0.785, 0.0975, 0.8825, 0.1975, 0.98, 0.295, 1.0775, 0.3925, 1.1775, 0.49, 1.275, 0.5875, 1.3725, 0.6875, 0, 0.785, 0.0975, 0.8825, 0.1975, 0.98, 0.295, 1.0775, 0.3925, 1.1775, 0.49, 1.275, 0.5875, 1.3725, 0.6875],
  "SoftwareVersions": "syngo_MR_E11",
  "SpacingBetweenSlices": 2,
  "StationName": "MRC35049",
  "TaskName": "things",
  "TotalReadoutTime": 0.0576811,
  "TxRefAmp": 248.001,
  "WipMemBlock": "f72d016a-f079-4532-81fa-49e6c999aa41||Sequence: R016 ve11c/master r/e634e98; Dec 19 2017 11:00:25 by eja",
  "dcmmeta_affine": [
    [-1.9996562004089355, 0.003141106106340885, 0.036950770765542984, 108.21681213378906],
    [-0.005960514768958092, 1.9396791458129883, -0.4874517619609833, -73.78596496582031],
    [0.03660188615322113, 0.487478107213974, 1.9393362998962402, -52.09556579589844],
    [0.0, 0.0, 0.0, 1.0]
],
  "dcmmeta_reorient_transform": [
    [0.0, -1.0, 0.0, 103.0],
    [1.0, 0.0, 0.0, 0.0],
    [0.0, 0.0, 1.0, 0.0],
    [0.0, 0.0, 0.0, 1.0]
],
  "dcmmeta_shape": [104, 104, 60, 190],
  "dcmmeta_slice_dim": 2,
  "dcmmeta_version": 0.6,
  "global": {
    "const": {
      "AcquisitionMatrix": [104, 0, 0, 104],
      "AngioFlag": "N",
      "BitsAllocated": 16,
      "BitsStored": 16,
      "BodyPartExamined": "BRAIN",
      "Columns": 832,
      "EchoNumbers": 1,
      "EchoTime": 37.0,
      "EchoTrainLength": 104,
      "FlipAngle": 52.0,
      "HighBit": 15,
      "ImageOrientationPatient": [0.99982808198007, 0.00298025748569, 0.01830094394756, 0.00157055307512, 0.96983957838178, -0.2437390521999],
      "ImagePositionPatient": [-837.55855372063, -834.21382599118, 162.23362303979],
      "ImageType": [
        "ORIGINAL",
        "PRIMARY",
        "P",
        "MB",
        "ND",
        "MOSAIC"
],
      "ImagedNucleus": "1H",
      "ImagingFrequency": 123.258941,
      "InPlanePhaseEncodingDirection": "COL",
      "LargestImagePixelValue": 4095,
      "MRAcquisitionType": "2D",
      "MagneticFieldStrength": 3.0,
      "Manufacturer": "SIEMENS",
      "ManufacturerModelName": "Prisma_fit",
      "Modality": "MR",
      "NumberOfAverages": 1.0,
      "NumberOfPhaseEncodingSteps": 104,
      "PercentPhaseFieldOfView": 100.0,
      "PercentSampling": 100.0,
      "PerformedProcedureStepStartTime": "124848.386000",
      "PhotometricInterpretation": "MONOCHROME2",
      "PixelBandwidth": 2290.0,
      "PixelRepresentation": 0,
      "PixelSpacing": [2.0, 2.0],
      "ProtocolName": "func_task-things_run-1",
      "RepetitionTime": 1490.0,
      "RescaleIntercept": -4096.0,
      "RescaleSlope": 2.0,
      "RescaleType": "US",
      "Rows": 832,
      "SAR": 0.05580134116485,
      "SamplesPerPixel": 1,
      "ScanOptions": "FS",
      "ScanningSequence": "EP",
      "SequenceName": "epfid2d1_104",
      "SequenceVariant": [
        "SK",
        "SS"
],
      "SeriesDescription": "func_task-things_run-1",
      "SeriesNumber": 11,
      "SeriesTime": "132306.628000",
      "SliceLocation": -30.532512401496,
      "SliceThickness": 2.0,
      "SmallestImagePixelValue": 0,
      "SoftwareVersions": "syngo MR E11",
      "SpacingBetweenSlices": 1.9999999636167,
      "SpecificCharacterSet": "ISO_IR 100",
      "StudyID": "1",
      "StudyTime": "124848.268000",
      "TransmitCoilName": "Body",
      "VariableFlipAngleFlag": "N",
      "WindowCenterWidthExplanation": "Algo1",
      "dBdt": 0.0},
    "slices": {}
  },
  "time": {
    "samples": {
      "AcquisitionNumber": [1, 2, 3, 4, 5, 6, 7, 8, 9, 10, 11, 12, 13, 14, 15, 16, 17, 18, 19, 20, 21, 22, 23, 24, 25, 26, 27, 28, 29, 30, 31, 32, 33, 34, 35, 36, 37, 38, 39, 40, 41, 42, 43, 44, 45, 46, 47, 48, 49, 50, 51, 52, 53, 54, 55, 56, 57, 58, 59, 60, 61, 62, 63, 64, 65, 66, 67, 68, 69, 70, 71, 72, 73, 74, 75, 76, 77, 78, 79, 80, 81, 82, 83, 84, 85, 86, 87, 88, 89, 90, 91, 92, 93, 94, 95, 96, 97, 98, 99, 100, 101, 102, 103, 104, 105, 106, 107, 108, 109, 110, 111, 112, 113, 114, 115, 116, 117, 118, 119, 120, 121, 122, 123, 124, 125, 126, 127, 128, 129, 130, 131, 132, 133, 134, 135, 136, 137, 138, 139, 140, 141, 142, 143, 144, 145, 146, 147, 148, 149, 150, 151, 152, 153, 154, 155, 156, 157, 158, 159, 160, 161, 162, 163, 164, 165, 166, 167, 168, 169, 170, 171, 172, 173, 174, 175, 176, 177, 178, 179, 180, 181, 182, 183, 184, 185, 186, 187, 188, 189, 190],
      "AcquisitionTime": ["132142.690000", "132144.180000", "132145.670000", "132147.160000", "132148.650000", "132150.140000", "132151.630000", "132153.120000", "132154.610000", "132156.100000", "132157.590000", "132159.080000", "132200.570000", "132202.060000", "132203.550000", "132205.040000", "132206.530000", "132208.020000", "132209.510000", "132211.000000", "132212.490000", "132213.980000", "132215.470000", "132216.960000", "132218.450000", "132219.940000", "132221.430000", "132222.920000", "132224.410000", "132225.900000", "132227.390000", "132228.880000", "132230.370000", "132231.860000", "132233.350000", "132234.840000", "132236.330000", "132237.820000", "132239.310000", "132240.800000", "132242.290000", "132243.780000", "132245.270000", "132246.760000", "132248.250000", "132249.740000", "132251.230000", "132252.720000", "132254.210000", "132255.700000", "132257.190000", "132258.680000", "132300.170000", "132301.660000", "132303.150000", "132304.640000", "132306.130000", "132307.620000", "132309.110000", "132310.600000", "132312.090000", "132313.580000", "132315.070000", "132316.560000", "132318.050000", "132319.540000", "132321.030000", "132322.520000", "132324.010000", "132325.500000", "132326.990000", "132328.480000", "132329.970000", "132331.460000", "132332.950000", "132334.440000", "132335.930000", "132337.420000", "132338.910000", "132340.400000", "132341.890000", "132343.380000", "132344.870000", "132346.360000", "132347.850000", "132349.340000", "132350.830000", "132352.320000", "132353.810000", "132355.300000", "132356.790000", "132358.280000", "132359.770000", "132401.260000", "132402.750000", "132404.240000", "132405.730000", "132407.220000", "132408.710000", "132410.200000", "132411.690000", "132413.180000", "132414.670000", "132416.160000", "132417.650000", "132419.140000", "132420.630000", "132422.120000", "132423.610000", "132425.100000", "132426.590000", "132428.080000", "132429.570000", "132431.060000", "132432.550000", "132434.040000", "132435.530000", "132437.020000", "132438.510000", "132440.000000", "132441.490000", "132442.980000", "132444.470000", "132445.960000", "132447.450000", "132448.940000", "132450.430000", "132451.920000", "132453.410000", "132454.900000", "132456.390000", "132457.880000", "132459.370000", "132500.860000", "132502.350000", "132503.840000", "132505.330000", "132506.820000", "132508.310000", "132509.800000", "132511.290000", "132512.780000", "132514.270000", "132515.760000", "132517.250000", "132518.740000", "132520.230000", "132521.720000", "132523.210000", "132524.700000", "132526.190000", "132527.680000", "132529.170000", "132530.660000", "132532.150000", "132533.640000", "132535.130000", "132536.620000", "132538.110000", "132539.600000", "132541.090000", "132542.580000", "132544.070000", "132545.560000", "132547.050000", "132548.540000", "132550.030000", "132551.520000", "132553.010000", "132554.500000", "132555.990000", "132557.480000", "132558.970000", "132600.460000", "132601.950000", "132603.440000", "132604.930000", "132606.420000", "132607.910000", "132609.400000", "132610.890000", "132612.380000", "132613.870000", "132615.360000", "132616.850000", "132618.340000", "132619.830000", "132621.320000", "132622.810000", "132624.300000"],
      "ContentTime": ["132306.630000", "132306.633000", "132306.635000", "132306.638000", "132306.640000", "132306.643000", "132306.645000", "132306.648000", "132306.650000", "132306.653000", "132306.655000", "132306.658000", "132306.660000", "132306.663000", "132306.665000", "132306.668000", "132306.670000", "132306.673000", "132306.675000", "132306.678000", "132306.680000", "132306.683000", "132306.685000", "132306.688000", "132306.690000", "132306.693000", "132306.695000", "132306.698000", "132306.700000", "132326.576000", "132326.579000", "132326.582000", "132326.584000", "132326.587000", "132326.589000", "132326.592000", "132326.594000", "132326.597000", "132326.599000", "132326.602000", "132326.604000", "132326.607000", "132326.609000", "132326.612000", "132326.614000", "132326.617000", "132326.619000", "132326.622000", "132326.624000", "132346.575000", "132346.578000", "132346.580000", "132346.583000", "132346.585000", "132346.588000", "132346.590000", "132346.593000", "132346.597000", "132346.599000", "132346.602000", "132346.604000", "132346.607000", "132346.609000", "132346.612000", "132346.614000", "132346.617000", "132346.619000", "132346.622000", "132346.625000", "132406.574000", "132406.577000", "132406.579000", "132406.582000", "132406.584000", "132406.587000", "132406.589000", "132406.592000", "132406.595000", "132406.597000", "132406.600000", "132406.602000", "132406.605000", "132406.607000", "132406.610000", "132406.612000", "132406.615000", "132406.617000", "132406.620000", "132406.622000", "132427.183000", "132427.186000", "132427.189000", "132427.191000", "132427.194000", "132427.196000", "132427.199000", "132427.201000", "132427.204000", "132427.206000", "132427.209000", "132427.211000", "132427.214000", "132427.216000", "132427.219000", "132427.221000", "132427.224000", "132427.226000", "132427.229000", "132427.231000", "132506.599000", "132506.602000", "132506.604000", "132506.607000", "132506.609000", "132506.612000", "132506.614000", "132506.617000", "132506.620000", "132506.623000", "132506.625000", "132506.628000", "132506.630000", "132506.633000", "132506.635000", "132506.638000", "132506.641000", "132506.643000", "132506.646000", "132506.648000", "132506.651000", "132506.653000", "132506.656000", "132506.659000", "132506.661000", "132506.664000", "132506.666000", "132526.540000", "132526.543000", "132526.546000", "132526.548000", "132526.551000", "132526.554000", "132526.557000", "132526.560000", "132526.562000", "132526.566000", "132526.569000", "132526.574000", "132526.578000", "132606.593000", "132606.596000", "132606.598000", "132606.601000", "132606.603000", "132606.606000", "132606.608000", "132606.611000", "132606.614000", "132606.616000", "132606.619000", "132606.621000", "132606.624000", "132606.626000", "132606.629000", "132606.631000", "132606.634000", "132606.636000", "132606.639000", "132606.641000", "132606.644000", "132606.646000", "132606.649000", "132606.651000", "132606.654000", "132606.657000", "132606.660000", "132626.323000", "132626.326000", "132626.329000", "132626.331000", "132626.334000", "132626.336000", "132626.339000", "132626.342000", "132626.344000", "132626.347000", "132626.349000", "132626.352000", "132626.355000", "132626.357000"],
      "InstanceCreationTime": ["132306.630000", "132306.633000", "132306.635000", "132306.638000", "132306.640000", "132306.643000", "132306.645000", "132306.648000", "132306.650000", "132306.653000", "132306.655000", "132306.658000", "132306.660000", "132306.663000", "132306.665000", "132306.668000", "132306.670000", "132306.673000", "132306.675000", "132306.678000", "132306.680000", "132306.683000", "132306.685000", "132306.688000", "132306.690000", "132306.693000", "132306.695000", "132306.698000", "132306.700000", "132326.576000", "132326.579000", "132326.582000", "132326.584000", "132326.587000", "132326.589000", "132326.592000", "132326.594000", "132326.597000", "132326.599000", "132326.602000", "132326.604000", "132326.607000", "132326.609000", "132326.612000", "132326.614000", "132326.617000", "132326.619000", "132326.622000", "132326.624000", "132346.575000", "132346.578000", "132346.580000", "132346.583000", "132346.585000", "132346.588000", "132346.590000", "132346.593000", "132346.597000", "132346.599000", "132346.602000", "132346.604000", "132346.607000", "132346.609000", "132346.612000", "132346.614000", "132346.617000", "132346.619000", "132346.622000", "132346.625000", "132406.574000", "132406.577000", "132406.579000", "132406.582000", "132406.584000", "132406.587000", "132406.589000", "132406.592000", "132406.595000", "132406.597000", "132406.600000", "132406.602000", "132406.605000", "132406.607000", "132406.610000", "132406.612000", "132406.615000", "132406.617000", "132406.620000", "132406.622000", "132427.183000", "132427.186000", "132427.189000", "132427.191000", "132427.194000", "132427.196000", "132427.199000", "132427.201000", "132427.204000", "132427.206000", "132427.209000", "132427.211000", "132427.214000", "132427.216000", "132427.219000", "132427.221000", "132427.224000", "132427.226000", "132427.229000", "132427.231000", "132506.599000", "132506.602000", "132506.604000", "132506.607000", "132506.609000", "132506.612000", "132506.614000", "132506.617000", "132506.620000", "132506.623000", "132506.625000", "132506.628000", "132506.630000", "132506.633000", "132506.635000", "132506.638000", "132506.641000", "132506.643000", "132506.646000", "132506.648000", "132506.651000", "132506.653000", "132506.656000", "132506.659000", "132506.661000", "132506.664000", "132506.666000", "132526.540000", "132526.543000", "132526.546000", "132526.548000", "132526.551000", "132526.554000", "132526.557000", "132526.560000", "132526.562000", "132526.566000", "132526.569000", "132526.574000", "132526.578000", "132606.593000", "132606.596000", "132606.598000", "132606.601000", "132606.603000", "132606.606000", "132606.608000", "132606.611000", "132606.614000", "132606.616000", "132606.619000", "132606.621000", "132606.624000", "132606.626000", "132606.629000", "132606.631000", "132606.634000", "132606.636000", "132606.639000", "132606.641000", "132606.644000", "132606.646000", "132606.649000", "132606.651000", "132606.654000", "132606.657000", "132606.660000", "132626.323000", "132626.326000", "132626.329000", "132626.331000", "132626.334000", "132626.336000", "132626.339000", "132626.342000", "132626.344000", "132626.347000", "132626.349000", "132626.352000", "132626.355000", "132626.357000"],
      "InstanceNumber": [1, 2, 3, 4, 5, 6, 7, 8, 9, 10, 11, 12, 13, 14, 15, 16, 17, 18, 19, 20, 21, 22, 23, 24, 25, 26, 27, 28, 29, 30, 31, 32, 33, 34, 35, 36, 37, 38, 39, 40, 41, 42, 43, 44, 45, 46, 47, 48, 49, 50, 51, 52, 53, 54, 55, 56, 57, 58, 59, 60, 61, 62, 63, 64, 65, 66, 67, 68, 69, 70, 71, 72, 73, 74, 75, 76, 77, 78, 79, 80, 81, 82, 83, 84, 85, 86, 87, 88, 89, 90, 91, 92, 93, 94, 95, 96, 97, 98, 99, 100, 101, 102, 103, 104, 105, 106, 107, 108, 109, 110, 111, 112, 113, 114, 115, 116, 117, 118, 119, 120, 121, 122, 123, 124, 125, 126, 127, 128, 129, 130, 131, 132, 133, 134, 135, 136, 137, 138, 139, 140, 141, 142, 143, 144, 145, 146, 147, 148, 149, 150, 151, 152, 153, 154, 155, 156, 157, 158, 159, 160, 161, 162, 163, 164, 165, 166, 167, 168, 169, 170, 171, 172, 173, 174, 175, 176, 177, 178, 179, 180, 181, 182, 183, 184, 185, 186, 187, 188, 189, 190],
      "WindowCenter": [4752.0, 4750.0, 4752.0, 4754.0, 4756.0, 4754.0, 4754.0, 4754.0, 4754.0, 4752.0, 4756.0, 4754.0, 4754.0, 4756.0, 4754.0, 4754.0, 4754.0, 4750.0, 4752.0, 4754.0, 4752.0, 4752.0, 4756.0, 4754.0, 4758.0, 4754.0, 4756.0, 4756.0, 4756.0, 4752.0, 4756.0, 4756.0, 4780.0, 4756.0, 4756.0, 4754.0, 4758.0, 4754.0, 4754.0, 4754.0, 4756.0, 4754.0, 4756.0, 4756.0, 4752.0, 4754.0, 4758.0, 4756.0, 4758.0, 4754.0, 4756.0, 4756.0, 4752.0, 4752.0, 4758.0, 4756.0, 4754.0, 4758.0, 4752.0, 4758.0, 4758.0, 4756.0, 4754.0, 4760.0, 4754.0, 4758.0, 4754.0, 4754.0, 4754.0, 4758.0, 4752.0, 4756.0, 4756.0, 4756.0, 4754.0, 4758.0, 4756.0, 4754.0, 4756.0, 4754.0, 4754.0, 4758.0, 4758.0, 4758.0, 4756.0, 4758.0, 4754.0, 4758.0, 4758.0, 4750.0, 4756.0, 4754.0, 4756.0, 4754.0, 4756.0, 4758.0, 4754.0, 4760.0, 4756.0, 4756.0, 4754.0, 4756.0, 4756.0, 4754.0, 4758.0, 4756.0, 4756.0, 4758.0, 4758.0, 4756.0, 4758.0, 4758.0, 4760.0, 4756.0, 4760.0, 4756.0, 4756.0, 4756.0, 4760.0, 4760.0, 4756.0, 4758.0, 4758.0, 4760.0, 4756.0, 4758.0, 4758.0, 4756.0, 4756.0, 4754.0, 4756.0, 4756.0, 4754.0, 4756.0, 4756.0, 4758.0, 4758.0, 4760.0, 4758.0, 4760.0, 4754.0, 4758.0, 4760.0, 4758.0, 4760.0, 4754.0, 4756.0, 4756.0, 4758.0, 4754.0, 4756.0, 4758.0, 4760.0, 4756.0, 4758.0, 4756.0, 4758.0, 4760.0, 4758.0, 4758.0, 4760.0, 4754.0, 4758.0, 4754.0, 4756.0, 4754.0, 4758.0, 4756.0, 4758.0, 4758.0, 4756.0, 4760.0, 4756.0, 4758.0, 4758.0, 4756.0, 4754.0, 4756.0, 4762.0, 4756.0, 4760.0, 4758.0, 4758.0, 4758.0, 4760.0, 4760.0, 4756.0, 4760.0, 4758.0, 4754.0],
      "WindowWidth": [18526.0, 18528.0, 18534.0, 18528.0, 18530.0, 18528.0, 18530.0, 18528.0, 18532.0, 18526.0, 18532.0, 18526.0, 18528.0, 18532.0, 18530.0, 18524.0, 18526.0, 18522.0, 18528.0, 18528.0, 18524.0, 18528.0, 18534.0, 18530.0, 18528.0, 18530.0, 18530.0, 18532.0, 18526.0, 18528.0, 18530.0, 18526.0, 18562.0, 18526.0, 18526.0, 18524.0, 18528.0, 18528.0, 18526.0, 18534.0, 18526.0, 18526.0, 18526.0, 18534.0, 18526.0, 18530.0, 18528.0, 18524.0, 18528.0, 18528.0, 18532.0, 18528.0, 18528.0, 18528.0, 18536.0, 18526.0, 18526.0, 18528.0, 18528.0, 18530.0, 18530.0, 18530.0, 18522.0, 18536.0, 18528.0, 18530.0, 18530.0, 18530.0, 18530.0, 18530.0, 18528.0, 18524.0, 18532.0, 18534.0, 18528.0, 18530.0, 18528.0, 18524.0, 18526.0, 18526.0, 18528.0, 18532.0, 18526.0, 18528.0, 18530.0, 18530.0, 18526.0, 18538.0, 18528.0, 18524.0, 18530.0, 18534.0, 18528.0, 18528.0, 18528.0, 18528.0, 18530.0, 18532.0, 18528.0, 18528.0, 18528.0, 18530.0, 18532.0, 18532.0, 18526.0, 18530.0, 18528.0, 18534.0, 18530.0, 18530.0, 18530.0, 18532.0, 18530.0, 18526.0, 18534.0, 18530.0, 18528.0, 18526.0, 18538.0, 18534.0, 18526.0, 18524.0, 18528.0, 18532.0, 18526.0, 18528.0, 18534.0, 18530.0, 18528.0, 18526.0, 18528.0, 18530.0, 18532.0, 18526.0, 18528.0, 18532.0, 18532.0, 18528.0, 18532.0, 18534.0, 18528.0, 18534.0, 18532.0, 18526.0, 18530.0, 18526.0, 18520.0, 18534.0, 18532.0, 18530.0, 18528.0, 18528.0, 18532.0, 18530.0, 18530.0, 18528.0, 18526.0, 18530.0, 18532.0, 18528.0, 18530.0, 18528.0, 18532.0, 18532.0, 18530.0, 18524.0, 18528.0, 18520.0, 18532.0, 18524.0, 18530.0, 18532.0, 18528.0, 18526.0, 18536.0, 18526.0, 18528.0, 18528.0, 18530.0, 18526.0, 18532.0, 18530.0, 18526.0, 18534.0, 18528.0, 18530.0, 18526.0, 18528.0, 18528.0, 18530.0]
    },
    "slices": {}
  }
}