{
  "AcquisitionMatrixPE": 104,
  "AcquisitionNumber": 1,
  "AcquisitionTime": "13:34:16.745000",
  "BandwidthPerPixelPhaseEncode": 17.17,
  "BaseResolution": 104,
  "BodyPartExamined": "BRAIN",
  "CoilString": "HC1-7;NC1_2",
  "ConsistencyInfo": "N4_VE11C_LATEST_20160120",
  "ConversionSoftware": "dcm2niix",
  "ConversionSoftwareVersion": "v1.0.20190902",
  "DerivedVendorReportedEchoSpacing": 0.000560011,
  "DeviceSerialNumber": "167006",
  "DwellTime": 2.1e-06,
  "EchoTime": 0.037,
  "EchoTrainLength": 104,
  "EffectiveEchoSpacing": 0.000560011,
  "FlipAngle": 52,
  "ImageComments": "Unaliased_MB4_PE3_LB",
  "ImageOrientationPatientDICOM": [0.999828, 0.00298026, 0.0183009, 0.00157055, 0.96984, -0.243739],
  "ImageType": [
    "ORIGINAL",
    "PRIMARY",
    "M",
    "MB",
    "ND",
    "MOSAIC"
],
  "ImagingFrequency": 123.259,
  "InPlanePhaseEncodingDirectionDICOM": "COL",
  "InstitutionAddress": "Chemin_Queen-Mary_4565_Montreal_District_CA_H3W_1W5",
  "InstitutionName": "IUGM",
  "InstitutionalDepartmentName": "Department",
  "MRAcquisitionType": "2D",
  "MagneticFieldStrength": 3,
  "Manufacturer": "Siemens",
  "ManufacturersModelName": "Prisma_fit",
  "Modality": "MR",
  "MultibandAccelerationFactor": 4,
  "PartialFourier": 1,
  "PatientPosition": "HFS",
  "PercentPhaseFOV": 100,
  "PhaseEncodingDirection": "j",
  "PhaseEncodingSteps": 104,
  "PhaseResolution": 1,
  "PixelBandwidth": 2290,
  "ProcedureStepDescription": "memory_things",
  "ProtocolName": "func_task-things_run-3",
  "PulseSequenceDetails": "%CustomerSeq%_cmrr_mbep2d_bold",
  "ReceiveCoilActiveElements": "HC1-7;NC1,2",
  "ReceiveCoilName": "HeadNeck_64",
  "ReconMatrixPE": 104,
  "RepetitionTime": 1.49,
  "SAR": 0.0558013,
  "ScanOptions": "FS",
  "ScanningSequence": "EP",
  "SequenceName": "epfid2d1_104",
  "SequenceVariant": "SK_SS",
  "SeriesDescription": "func_task-things_run-3",
  "SeriesNumber": 16,
  "ShimSetting": [641, -7197, -8757, 694, 67, 50, 78, -17],
  "SliceThickness": 2,
  "SliceTiming": [0, 0.7825, 0.0975, 0.88, 0.195, 0.98, 0.2925, 1.0775, 0.39, 1.175, 0.49, 1.2725, 0.5875, 1.37, 0.685, 0, 0.7825, 0.0975, 0.88, 0.195, 0.98, 0.2925, 1.0775, 0.39, 1.175, 0.49, 1.2725, 0.5875, 1.37, 0.685, 0, 0.7825, 0.0975, 0.88, 0.195, 0.98, 0.2925, 1.0775, 0.39, 1.175, 0.49, 1.2725, 0.5875, 1.37, 0.685, 0, 0.7825, 0.0975, 0.88, 0.195, 0.98, 0.2925, 1.0775, 0.39, 1.175, 0.49, 1.2725, 0.5875, 1.37, 0.685],
  "SoftwareVersions": "syngo_MR_E11",
  "SpacingBetweenSlices": 2,
  "StationName": "MRC35049",
  "TaskName": "things",
  "TotalReadoutTime": 0.0576811,
  "TxRefAmp": 248.001,
  "WipMemBlock": "d5dc8098-d59b-4d31-a95c-de522210abad||Sequence: R016 ve11c/master r/e634e98; Dec 19 2017 11:00:25 by eja",
  "dcmmeta_affine": [
    [-1.9996562004089355, 0.003141106106340885, 0.036950770765542984, 108.21681213378906],
    [-0.005960514768958092, 1.9396791458129883, -0.4874517619609833, -73.78596496582031],
    [0.03660188615322113, 0.487478107213974, 1.9393362998962402, -52.09556579589844],
    [0.0, 0.0, 0.0, 1.0]
],
  "dcmmeta_reorient_transform": [
    [0.0, -1.0, 0.0, 103.0],
    [1.0, 0.0, 0.0, 0.0],
    [0.0, 0.0, 1.0, 0.0],
    [0.0, 0.0, 0.0, 1.0]
],
  "dcmmeta_shape": [104, 104, 60, 190],
  "dcmmeta_slice_dim": 2,
  "dcmmeta_version": 0.6,
  "global": {
    "const": {
      "AcquisitionMatrix": [104, 0, 0, 104],
      "AngioFlag": "N",
      "BitsAllocated": 16,
      "BitsStored": 16,
      "BodyPartExamined": "BRAIN",
      "Columns": 832,
      "EchoNumbers": 1,
      "EchoTime": 37.0,
      "EchoTrainLength": 104,
      "FlipAngle": 52.0,
      "HighBit": 15,
      "ImageOrientationPatient": [0.99982808198007, 0.00298025748569, 0.01830094394756, 0.00157055307512, 0.96983957838178, -0.2437390521999],
      "ImagePositionPatient": [-837.55855372063, -834.21382599118, 162.23362303979],
      "ImageType": [
        "ORIGINAL",
        "PRIMARY",
        "M",
        "MB",
        "ND",
        "MOSAIC"
],
      "ImagedNucleus": "1H",
      "ImagingFrequency": 123.25895,
      "InPlanePhaseEncodingDirection": "COL",
      "MRAcquisitionType": "2D",
      "MagneticFieldStrength": 3.0,
      "Manufacturer": "SIEMENS",
      "ManufacturerModelName": "Prisma_fit",
      "Modality": "MR",
      "NumberOfAverages": 1.0,
      "NumberOfPhaseEncodingSteps": 104,
      "PercentPhaseFieldOfView": 100.0,
      "PercentSampling": 100.0,
      "PerformedProcedureStepStartTime": "124848.386000",
      "PhotometricInterpretation": "MONOCHROME2",
      "PixelBandwidth": 2290.0,
      "PixelRepresentation": 0,
      "PixelSpacing": [2.0, 2.0],
      "ProtocolName": "func_task-things_run-3",
      "RepetitionTime": 1490.0,
      "Rows": 832,
      "SAR": 0.05580134116485,
      "SamplesPerPixel": 1,
      "ScanOptions": "FS",
      "ScanningSequence": "EP",
      "SequenceName": "epfid2d1_104",
      "SequenceVariant": [
        "SK",
        "SS"
],
      "SeriesDescription": "func_task-things_run-3",
      "SeriesNumber": 16,
      "SeriesTime": "133530.967000",
      "SliceLocation": -30.532512401496,
      "SliceThickness": 2.0,
      "SmallestImagePixelValue": 0,
      "SoftwareVersions": "syngo MR E11",
      "SpacingBetweenSlices": 1.9999999636167,
      "SpecificCharacterSet": "ISO_IR 100",
      "StudyID": "1",
      "StudyTime": "124848.268000",
      "TransmitCoilName": "Body",
      "VariableFlipAngleFlag": "N",
      "WindowCenterWidthExplanation": "Algo1",
      "dBdt": 0.0},
    "slices": {}
  },
  "time": {
    "samples": {
      "AcquisitionNumber": [1, 2, 3, 4, 5, 6, 7, 8, 9, 10, 11, 12, 13, 14, 15, 16, 17, 18, 19, 20, 21, 22, 23, 24, 25, 26, 27, 28, 29, 30, 31, 32, 33, 34, 35, 36, 37, 38, 39, 40, 41, 42, 43, 44, 45, 46, 47, 48, 49, 50, 51, 52, 53, 54, 55, 56, 57, 58, 59, 60, 61, 62, 63, 64, 65, 66, 67, 68, 69, 70, 71, 72, 73, 74, 75, 76, 77, 78, 79, 80, 81, 82, 83, 84, 85, 86, 87, 88, 89, 90, 91, 92, 93, 94, 95, 96, 97, 98, 99, 100, 101, 102, 103, 104, 105, 106, 107, 108, 109, 110, 111, 112, 113, 114, 115, 116, 117, 118, 119, 120, 121, 122, 123, 124, 125, 126, 127, 128, 129, 130, 131, 132, 133, 134, 135, 136, 137, 138, 139, 140, 141, 142, 143, 144, 145, 146, 147, 148, 149, 150, 151, 152, 153, 154, 155, 156, 157, 158, 159, 160, 161, 162, 163, 164, 165, 166, 167, 168, 169, 170, 171, 172, 173, 174, 175, 176, 177, 178, 179, 180, 181, 182, 183, 184, 185, 186, 187, 188, 189, 190],
      "AcquisitionTime": ["133416.745000", "133418.235000", "133419.725000", "133421.215000", "133422.705000", "133424.195000", "133425.685000", "133427.175000", "133428.665000", "133430.155000", "133431.645000", "133433.135000", "133434.625000", "133436.115000", "133437.605000", "133439.095000", "133440.585000", "133442.075000", "133443.565000", "133445.055000", "133446.545000", "133448.035000", "133449.525000", "133451.015000", "133452.505000", "133453.995000", "133455.485000", "133456.975000", "133458.465000", "133459.955000", "133501.445000", "133502.935000", "133504.425000", "133505.915000", "133507.405000", "133508.895000", "133510.385000", "133511.875000", "133513.365000", "133514.855000", "133516.345000", "133517.835000", "133519.325000", "133520.815000", "133522.305000", "133523.795000", "133525.285000", "133526.775000", "133528.265000", "133529.755000", "133531.245000", "133532.735000", "133534.225000", "133535.715000", "133537.205000", "133538.695000", "133540.185000", "133541.675000", "133543.165000", "133544.655000", "133546.145000", "133547.635000", "133549.125000", "133550.615000", "133552.105000", "133553.595000", "133555.085000", "133556.575000", "133558.065000", "133559.555000", "133601.045000", "133602.535000", "133604.025000", "133605.515000", "133607.005000", "133608.495000", "133609.985000", "133611.475000", "133612.965000", "133614.455000", "133615.945000", "133617.435000", "133618.925000", "133620.415000", "133621.905000", "133623.395000", "133624.885000", "133626.375000", "133627.865000", "133629.355000", "133630.845000", "133632.335000", "133633.825000", "133635.315000", "133636.805000", "133638.295000", "133639.785000", "133641.275000", "133642.765000", "133644.255000", "133645.745000", "133647.235000", "133648.725000", "133650.215000", "133651.705000", "133653.195000", "133654.685000", "133656.175000", "133657.665000", "133659.155000", "133700.645000", "133702.135000", "133703.625000", "133705.115000", "133706.605000", "133708.095000", "133709.585000", "133711.075000", "133712.565000", "133714.055000", "133715.545000", "133717.035000", "133718.525000", "133720.015000", "133721.505000", "133722.995000", "133724.485000", "133725.975000", "133727.465000", "133728.955000", "133730.445000", "133731.935000", "133733.425000", "133734.915000", "133736.405000", "133737.895000", "133739.385000", "133740.875000", "133742.365000", "133743.855000", "133745.345000", "133746.835000", "133748.325000", "133749.815000", "133751.305000", "133752.795000", "133754.285000", "133755.775000", "133757.265000", "133758.755000", "133800.245000", "133801.735000", "133803.225000", "133804.715000", "133806.205000", "133807.695000", "133809.185000", "133810.675000", "133812.165000", "133813.655000", "133815.145000", "133816.635000", "133818.125000", "133819.615000", "133821.105000", "133822.595000", "133824.085000", "133825.575000", "133827.065000", "133828.555000", "133830.045000", "133831.535000", "133833.025000", "133834.515000", "133836.005000", "133837.495000", "133838.985000", "133840.475000", "133841.965000", "133843.455000", "133844.945000", "133846.435000", "133847.925000", "133849.415000", "133850.905000", "133852.395000", "133853.885000", "133855.375000", "133856.865000", "133858.355000"],
      "ContentTime": ["133530.970000", "133530.974000", "133530.978000", "133530.981000", "133530.984000", "133530.988000", "133530.991000", "133530.994000", "133530.998000", "133531.002000", "133531.006000", "133531.009000", "133531.012000", "133531.016000", "133531.019000", "133531.022000", "133531.026000", "133531.029000", "133531.040000", "133550.906000", "133550.910000", "133550.913000", "133550.921000", "133550.924000", "133550.927000", "133550.931000", "133550.934000", "133550.937000", "133550.941000", "133550.944000", "133550.948000", "133550.951000", "133550.954000", "133550.958000", "133550.961000", "133550.964000", "133550.967000", "133550.971000", "133550.974000", "133550.977000", "133610.906000", "133610.910000", "133610.913000", "133610.916000", "133610.920000", "133610.923000", "133610.926000", "133610.930000", "133610.933000", "133610.936000", "133610.940000", "133610.943000", "133610.946000", "133610.950000", "133610.953000", "133610.956000", "133610.960000", "133610.963000", "133610.966000", "133610.970000", "133630.905000", "133630.909000", "133630.912000", "133630.915000", "133630.927000", "133630.931000", "133630.934000", "133630.938000", "133630.941000", "133630.944000", "133630.948000", "133630.951000", "133630.954000", "133630.958000", "133630.961000", "133630.964000", "133630.968000", "133630.971000", "133630.974000", "133630.977000", "133650.905000", "133650.909000", "133650.912000", "133650.916000", "133650.919000", "133650.922000", "133650.926000", "133650.929000", "133650.932000", "133650.936000", "133650.939000", "133650.942000", "133650.946000", "133650.949000", "133650.952000", "133650.956000", "133650.959000", "133650.963000", "133650.966000", "133650.969000", "133730.906000", "133730.910000", "133730.914000", "133730.918000", "133730.921000", "133730.925000", "133730.928000", "133730.932000", "133730.935000", "133730.938000", "133730.942000", "133730.945000", "133730.948000", "133730.952000", "133730.955000", "133730.959000", "133730.962000", "133730.966000", "133730.970000", "133730.973000", "133730.977000", "133730.981000", "133730.985000", "133730.988000", "133730.991000", "133730.995000", "133730.999000", "133731.003000", "133731.007000", "133810.906000", "133810.910000", "133810.913000", "133810.917000", "133810.920000", "133810.923000", "133810.927000", "133810.930000", "133810.933000", "133810.937000", "133810.940000", "133810.943000", "133810.947000", "133810.950000", "133810.953000", "133810.957000", "133810.960000", "133810.963000", "133810.967000", "133810.970000", "133810.973000", "133810.977000", "133810.993000", "133810.997000", "133811.002000", "133811.005000", "133811.008000", "133850.905000", "133850.909000", "133850.912000", "133850.916000", "133850.919000", "133850.922000", "133850.926000", "133850.929000", "133850.932000", "133850.936000", "133850.939000", "133850.942000", "133850.946000", "133850.949000", "133850.953000", "133850.956000", "133850.959000", "133850.963000", "133850.966000", "133850.969000", "133850.973000", "133850.976000", "133850.979000", "133850.983000", "133850.986000", "133850.989000", "133850.993000", "133900.464000", "133900.468000", "133900.471000", "133900.475000", "133900.479000", "133900.482000", "133900.486000"],
      "InstanceCreationTime": ["133530.970000", "133530.974000", "133530.978000", "133530.981000", "133530.984000", "133530.988000", "133530.991000", "133530.994000", "133530.998000", "133531.002000", "133531.006000", "133531.009000", "133531.012000", "133531.016000", "133531.019000", "133531.022000", "133531.026000", "133531.029000", "133531.040000", "133550.906000", "133550.910000", "133550.913000", "133550.921000", "133550.924000", "133550.927000", "133550.931000", "133550.934000", "133550.937000", "133550.941000", "133550.944000", "133550.948000", "133550.951000", "133550.954000", "133550.958000", "133550.961000", "133550.964000", "133550.967000", "133550.971000", "133550.974000", "133550.977000", "133610.906000", "133610.910000", "133610.913000", "133610.916000", "133610.920000", "133610.923000", "133610.926000", "133610.930000", "133610.933000", "133610.936000", "133610.940000", "133610.943000", "133610.946000", "133610.950000", "133610.953000", "133610.956000", "133610.960000", "133610.963000", "133610.966000", "133610.970000", "133630.905000", "133630.909000", "133630.912000", "133630.915000", "133630.927000", "133630.931000", "133630.934000", "133630.938000", "133630.941000", "133630.944000", "133630.948000", "133630.951000", "133630.954000", "133630.958000", "133630.961000", "133630.964000", "133630.968000", "133630.971000", "133630.974000", "133630.977000", "133650.905000", "133650.909000", "133650.912000", "133650.916000", "133650.919000", "133650.922000", "133650.926000", "133650.929000", "133650.932000", "133650.936000", "133650.939000", "133650.942000", "133650.946000", "133650.949000", "133650.952000", "133650.956000", "133650.959000", "133650.963000", "133650.966000", "133650.969000", "133730.906000", "133730.910000", "133730.914000", "133730.918000", "133730.921000", "133730.925000", "133730.928000", "133730.932000", "133730.935000", "133730.938000", "133730.942000", "133730.945000", "133730.948000", "133730.952000", "133730.955000", "133730.959000", "133730.962000", "133730.966000", "133730.970000", "133730.973000", "133730.977000", "133730.981000", "133730.985000", "133730.988000", "133730.991000", "133730.995000", "133730.999000", "133731.003000", "133731.007000", "133810.906000", "133810.910000", "133810.913000", "133810.917000", "133810.920000", "133810.923000", "133810.927000", "133810.930000", "133810.933000", "133810.937000", "133810.940000", "133810.943000", "133810.947000", "133810.950000", "133810.953000", "133810.957000", "133810.960000", "133810.963000", "133810.967000", "133810.970000", "133810.973000", "133810.977000", "133810.993000", "133810.997000", "133811.002000", "133811.005000", "133811.008000", "133850.905000", "133850.909000", "133850.912000", "133850.916000", "133850.919000", "133850.922000", "133850.926000", "133850.929000", "133850.932000", "133850.936000", "133850.939000", "133850.942000", "133850.946000", "133850.949000", "133850.953000", "133850.956000", "133850.959000", "133850.963000", "133850.966000", "133850.969000", "133850.973000", "133850.976000", "133850.979000", "133850.983000", "133850.986000", "133850.989000", "133850.993000", "133900.464000", "133900.468000", "133900.471000", "133900.475000", "133900.479000", "133900.482000", "133900.486000"],
      "InstanceNumber": [1, 2, 3, 4, 5, 6, 7, 8, 9, 10, 11, 12, 13, 14, 15, 16, 17, 18, 19, 20, 21, 22, 23, 24, 25, 26, 27, 28, 29, 30, 31, 32, 33, 34, 35, 36, 37, 38, 39, 40, 41, 42, 43, 44, 45, 46, 47, 48, 49, 50, 51, 52, 53, 54, 55, 56, 57, 58, 59, 60, 61, 62, 63, 64, 65, 66, 67, 68, 69, 70, 71, 72, 73, 74, 75, 76, 77, 78, 79, 80, 81, 82, 83, 84, 85, 86, 87, 88, 89, 90, 91, 92, 93, 94, 95, 96, 97, 98, 99, 100, 101, 102, 103, 104, 105, 106, 107, 108, 109, 110, 111, 112, 113, 114, 115, 116, 117, 118, 119, 120, 121, 122, 123, 124, 125, 126, 127, 128, 129, 130, 131, 132, 133, 134, 135, 136, 137, 138, 139, 140, 141, 142, 143, 144, 145, 146, 147, 148, 149, 150, 151, 152, 153, 154, 155, 156, 157, 158, 159, 160, 161, 162, 163, 164, 165, 166, 167, 168, 169, 170, 171, 172, 173, 174, 175, 176, 177, 178, 179, 180, 181, 182, 183, 184, 185, 186, 187, 188, 189, 190],
      "LargestImagePixelValue": [42955, 41383, 40710, 39977, 40037, 39615, 40042, 39606, 39481, 39842, 39351, 39835, 39345, 40177, 39919, 40078, 39464, 40100, 39919, 39614, 39800, 39927, 39827, 39763, 39746, 39513, 39698, 39505, 39404, 39721, 39809, 39247, 39588, 39227, 39805, 39598, 39614, 39758, 39267, 39531, 39455, 39501, 39365, 39367, 39428, 39295, 39660, 39506, 39251, 39498, 39545, 39527, 39581, 39327, 39521, 39357, 39690, 39391, 39846, 39268, 39743, 39540, 39227, 39574, 39421, 39027, 39464, 39266, 39097, 39584, 39203, 39390, 39608, 39162, 39207, 39466, 39381, 39602, 39375, 39401, 39239, 39449, 39246, 39354, 39717, 39521, 39169, 39414, 39387, 39210, 39900, 39595, 39337, 39639, 39274, 39541, 39334, 39323, 39338, 39326, 39359, 39245, 39181, 39374, 39194, 39229, 39143, 39276, 39416, 39028, 39096, 39097, 39000, 39396, 39092, 39343, 39134, 39411, 39222, 39013, 39401, 39206, 39238, 39427, 39208, 39114, 39712, 39000, 39110, 38992, 39151, 39199, 39331, 39603, 39231, 39059, 39097, 39222, 38975, 39129, 39420, 39224, 39738, 39778, 39287, 39238, 39429, 39333, 38985, 39357, 39318, 39183, 39085, 39089, 39388, 39019, 39188, 39077, 39240, 39112, 39122, 39226, 39097, 39091, 39228, 39144, 39204, 39136, 39113, 39314, 39645, 39263, 39186, 38917, 38835, 38936, 39091, 39021, 39733, 39225, 39175, 39278, 39137, 39292, 39207, 39312, 39120, 38970, 39041, 39000],
      "WindowCenter": [10204.0, 10172.0, 10161.0, 10134.0, 10116.0, 10105.0, 10103.0, 10106.0, 10106.0, 10118.0, 10106.0, 10107.0, 10109.0, 10127.0, 10117.0, 10122.0, 10116.0, 10124.0, 10138.0, 10126.0, 10118.0, 10114.0, 10114.0, 10116.0, 10122.0, 10124.0, 10123.0, 10115.0, 10115.0, 10123.0, 10132.0, 10125.0, 10123.0, 10107.0, 10099.0, 10103.0, 10096.0, 10111.0, 10106.0, 10106.0, 10099.0, 10105.0, 10106.0, 10107.0, 10116.0, 10107.0, 10114.0, 10100.0, 10098.0, 10097.0, 10113.0, 10116.0, 10117.0, 10107.0, 10099.0, 10097.0, 10111.0, 10116.0, 10123.0, 10117.0, 10108.0, 10105.0, 10105.0, 10128.0, 10125.0, 10118.0, 10111.0, 10099.0, 10098.0, 10105.0, 10114.0, 10115.0, 10108.0, 10100.0, 10109.0, 10106.0, 10108.0, 10107.0, 10111.0, 10110.0, 10111.0, 10109.0, 10106.0, 10107.0, 10114.0, 10131.0, 10121.0, 10105.0, 10086.0, 10090.0, 10094.0, 10097.0, 10107.0, 10124.0, 10119.0, 10127.0, 10111.0, 10125.0, 10136.0, 10139.0, 10137.0, 10128.0, 10113.0, 10117.0, 10118.0, 10111.0, 10113.0, 10119.0, 10125.0, 10119.0, 10120.0, 10121.0, 10119.0, 10117.0, 10109.0, 10125.0, 10121.0, 10122.0, 10111.0, 10102.0, 10093.0, 10101.0, 10119.0, 10120.0, 10126.0, 10114.0, 10118.0, 10106.0, 10114.0, 10104.0, 10111.0, 10111.0, 10108.0, 10108.0, 10117.0, 10129.0, 10133.0, 10130.0, 10105.0, 10088.0, 10075.0, 10075.0, 10088.0, 10108.0, 10111.0, 10112.0, 10102.0, 10096.0, 10108.0, 10120.0, 10121.0, 10111.0, 10103.0, 10102.0, 10127.0, 10138.0, 10133.0, 10122.0, 10113.0, 10118.0, 10113.0, 10120.0, 10113.0, 10114.0, 10127.0, 10129.0, 10137.0, 10133.0, 10130.0, 10119.0, 10126.0, 10144.0, 10155.0, 10135.0, 10111.0, 10089.0, 10079.0, 10083.0, 10107.0, 10110.0, 10111.0, 10102.0, 10103.0, 10103.0, 10117.0, 10126.0, 10144.0, 10133.0, 10123.0, 10105.0],
      "WindowWidth": [21764.0, 21669.0, 21630.0, 21559.0, 21510.0, 21486.0, 21480.0, 21489.0, 21486.0, 21510.0, 21483.0, 21490.0, 21495.0, 21530.0, 21515.0, 21521.0, 21512.0, 21525.0, 21557.0, 21530.0, 21515.0, 21501.0, 21502.0, 21509.0, 21522.0, 21527.0, 21523.0, 21506.0, 21506.0, 21523.0, 21545.0, 21530.0, 21522.0, 21486.0, 21468.0, 21474.0, 21460.0, 21492.0, 21485.0, 21484.0, 21469.0, 21481.0, 21485.0, 21487.0, 21508.0, 21486.0, 21501.0, 21471.0, 21466.0, 21462.0, 21500.0, 21507.0, 21511.0, 21485.0, 21466.0, 21464.0, 21493.0, 21509.0, 21522.0, 21510.0, 21488.0, 21482.0, 21483.0, 21532.0, 21525.0, 21514.0, 21499.0, 21468.0, 21464.0, 21482.0, 21502.0, 21504.0, 21489.0, 21470.0, 21491.0, 21483.0, 21490.0, 21485.0, 21497.0, 21493.0, 21497.0, 21489.0, 21481.0, 21485.0, 21499.0, 21537.0, 21518.0, 21481.0, 21436.0, 21444.0, 21449.0, 21461.0, 21484.0, 21523.0, 21516.0, 21532.0, 21495.0, 21526.0, 21554.0, 21564.0, 21556.0, 21533.0, 21502.0, 21504.0, 21510.0, 21493.0, 21500.0, 21510.0, 21525.0, 21512.0, 21516.0, 21518.0, 21511.0, 21509.0, 21489.0, 21522.0, 21517.0, 21523.0, 21493.0, 21473.0, 21452.0, 21470.0, 21514.0, 21518.0, 21528.0, 21504.0, 21511.0, 21487.0, 21504.0, 21479.0, 21494.0, 21493.0, 21487.0, 21487.0, 21509.0, 21539.0, 21546.0, 21536.0, 21478.0, 21440.0, 21409.0, 21410.0, 21436.0, 21485.0, 21494.0, 21498.0, 21473.0, 21460.0, 21486.0, 21516.0, 21517.0, 21492.0, 21476.0, 21475.0, 21532.0, 21558.0, 21547.0, 21521.0, 21500.0, 21509.0, 21499.0, 21516.0, 21500.0, 21504.0, 21531.0, 21538.0, 21555.0, 21547.0, 21536.0, 21510.0, 21526.0, 21570.0, 21595.0, 21549.0, 21494.0, 21439.0, 21417.0, 21426.0, 21481.0, 21490.0, 21494.0, 21471.0, 21475.0, 21476.0, 21506.0, 21526.0, 21570.0, 21545.0, 21519.0, 21476.0]
    },
    "slices": {}
  }
}