{
  "AcquisitionMatrixPE": 104,
  "AcquisitionNumber": 1,
  "AcquisitionTime": "09:32:7.880000",
  "BandwidthPerPixelPhaseEncode": 17.17,
  "BaseResolution": 104,
  "BodyPartExamined": "BRAIN",
  "CoilString": "HC1-7;NC1_2",
  "ConsistencyInfo": "N4_VE11C_LATEST_20160120",
  "ConversionSoftware": "dcm2niix",
  "ConversionSoftwareVersion": "v1.0.20190902",
  "DerivedVendorReportedEchoSpacing": 0.000560011,
  "DeviceSerialNumber": "167006",
  "DwellTime": 2.1e-06,
  "EchoTime": 0.037,
  "EchoTrainLength": 104,
  "EffectiveEchoSpacing": 0.000560011,
  "FlipAngle": 52,
  "ImageComments": "Unaliased_MB4_PE3_LB",
  "ImageOrientationPatientDICOM": [0.996931, 0.0635196, 0.0457607, -0.044573, 0.941078, -0.335238],
  "ImageType": [
    "ORIGINAL",
    "PRIMARY",
    "M",
    "MB",
    "ND",
    "MOSAIC"
],
  "ImagingFrequency": 123.259,
  "InPlanePhaseEncodingDirectionDICOM": "COL",
  "InstitutionAddress": "Chemin_Queen-Mary_4565_Montreal_District_CA_H3W_1W5",
  "InstitutionName": "IUGM",
  "InstitutionalDepartmentName": "Department",
  "MRAcquisitionType": "2D",
  "MagneticFieldStrength": 3,
  "Manufacturer": "Siemens",
  "ManufacturersModelName": "Prisma_fit",
  "Modality": "MR",
  "MultibandAccelerationFactor": 4,
  "PartialFourier": 1,
  "PatientPosition": "HFS",
  "PercentPhaseFOV": 100,
  "PhaseEncodingDirection": "j",
  "PhaseEncodingSteps": 104,
  "PhaseResolution": 1,
  "PixelBandwidth": 2290,
  "ProcedureStepDescription": "memory_things",
  "ProtocolName": "func_task-things_run-1",
  "PulseSequenceDetails": "%CustomerSeq%_cmrr_mbep2d_bold",
  "ReceiveCoilActiveElements": "HC1-7;NC1,2",
  "ReceiveCoilName": "HeadNeck_64",
  "ReconMatrixPE": 104,
  "RepetitionTime": 1.49,
  "SAR": 0.0486313,
  "ScanOptions": "FS",
  "ScanningSequence": "EP",
  "SequenceName": "epfid2d1_104",
  "SequenceVariant": "SK_SS",
  "SeriesDescription": "func_task-things_run-1",
  "SeriesNumber": 10,
  "ShimSetting": [639, -7197, -8823, 662, 110, 14, -9, -1],
  "SliceThickness": 2,
  "SliceTiming": [0, 0.785, 0.1, 0.8825, 0.1975, 0.98, 0.295, 1.08, 0.3925, 1.1775, 0.49, 1.275, 0.59, 1.3725, 0.6875, 0, 0.785, 0.1, 0.8825, 0.1975, 0.98, 0.295, 1.08, 0.3925, 1.1775, 0.49, 1.275, 0.59, 1.3725, 0.6875, 0, 0.785, 0.1, 0.8825, 0.1975, 0.98, 0.295, 1.08, 0.3925, 1.1775, 0.49, 1.275, 0.59, 1.3725, 0.6875, 0, 0.785, 0.1, 0.8825, 0.1975, 0.98, 0.295, 1.08, 0.3925, 1.1775, 0.49, 1.275, 0.59, 1.3725, 0.6875],
  "SoftwareVersions": "syngo_MR_E11",
  "SpacingBetweenSlices": 2,
  "StationName": "MRC35049",
  "TaskName": "things",
  "TotalReadoutTime": 0.0576811,
  "TxRefAmp": 266.451,
  "WipMemBlock": "7703e83e-26fb-42c4-9758-b9b08aee1e97||Sequence: R016 ve11c/master r/e634e98; Dec 19 2017 11:00:25 by eja",
  "dcmmeta_affine": [
    [-1.9938617944717407, -0.08914592117071152, 0.12871727347373962, 107.85842895507812],
    [-0.12703916430473328, 1.8821568489074707, -0.6643392443656921, -54.82594680786133],
    [0.0915214866399765, 0.6704763770103455, 1.8820428848266602, -64.88219451904297],
    [0.0, 0.0, 0.0, 1.0]
],
  "dcmmeta_reorient_transform": [
    [0.0, -1.0, 0.0, 103.0],
    [1.0, 0.0, 0.0, 0.0],
    [0.0, 0.0, 1.0, 0.0],
    [0.0, 0.0, 0.0, 1.0]
],
  "dcmmeta_shape": [104, 104, 60, 190],
  "dcmmeta_slice_dim": 2,
  "dcmmeta_version": 0.6,
  "global": {
    "const": {
      "AcquisitionMatrix": [104, 0, 0, 104],
      "AngioFlag": "N",
      "BitsAllocated": 16,
      "BitsStored": 16,
      "BodyPartExamined": "BRAIN",
      "Columns": 832,
      "EchoNumbers": 1,
      "EchoTime": 37.0,
      "EchoTrainLength": 104,
      "FlipAngle": 52.0,
      "HighBit": 15,
      "ImageOrientationPatient": [0.99693089877756, 0.06351958361041, 0.04576074256966, -0.0445729595049, 0.941078423697, -0.3352382014821],
      "ImagePositionPatient": [-791.99297974115, -870.38355599578, 214.91646430573],
      "ImageType": [
        "ORIGINAL",
        "PRIMARY",
        "M",
        "MB",
        "ND",
        "MOSAIC"
],
      "ImagedNucleus": "1H",
      "ImagingFrequency": 123.258972,
      "InPlanePhaseEncodingDirection": "COL",
      "MRAcquisitionType": "2D",
      "MagneticFieldStrength": 3.0,
      "Manufacturer": "SIEMENS",
      "ManufacturerModelName": "Prisma_fit",
      "Modality": "MR",
      "NumberOfAverages": 1.0,
      "NumberOfPhaseEncodingSteps": 104,
      "PercentPhaseFieldOfView": 100.0,
      "PercentSampling": 100.0,
      "PerformedProcedureStepStartTime": "085725.854000",
      "PhotometricInterpretation": "MONOCHROME2",
      "PixelBandwidth": 2290.0,
      "PixelRepresentation": 0,
      "PixelSpacing": [2.0, 2.0],
      "ProtocolName": "func_task-things_run-1",
      "RepetitionTime": 1490.0,
      "Rows": 832,
      "SAR": 0.04863130243936,
      "SamplesPerPixel": 1,
      "ScanOptions": "FS",
      "ScanningSequence": "EP",
      "SequenceName": "epfid2d1_104",
      "SequenceVariant": [
        "SK",
        "SS"
],
      "SeriesDescription": "func_task-things_run-1",
      "SeriesNumber": 10,
      "SeriesTime": "093315.173000",
      "SliceLocation": -35.902398464977,
      "SliceThickness": 2.0,
      "SmallestImagePixelValue": 0,
      "SoftwareVersions": "syngo MR E11",
      "SpacingBetweenSlices": 2.0000000364407,
      "SpecificCharacterSet": "ISO_IR 100",
      "StudyID": "1",
      "StudyTime": "085725.709000",
      "TransmitCoilName": "Body",
      "VariableFlipAngleFlag": "N",
      "WindowCenterWidthExplanation": "Algo1",
      "dBdt": 0.0},
    "slices": {}
  },
  "time": {
    "samples": {
      "AcquisitionNumber": [1, 2, 3, 4, 5, 6, 7, 8, 9, 10, 11, 12, 13, 14, 15, 16, 17, 18, 19, 20, 21, 22, 23, 24, 25, 26, 27, 28, 29, 30, 31, 32, 33, 34, 35, 36, 37, 38, 39, 40, 41, 42, 43, 44, 45, 46, 47, 48, 49, 50, 51, 52, 53, 54, 55, 56, 57, 58, 59, 60, 61, 62, 63, 64, 65, 66, 67, 68, 69, 70, 71, 72, 73, 74, 75, 76, 77, 78, 79, 80, 81, 82, 83, 84, 85, 86, 87, 88, 89, 90, 91, 92, 93, 94, 95, 96, 97, 98, 99, 100, 101, 102, 103, 104, 105, 106, 107, 108, 109, 110, 111, 112, 113, 114, 115, 116, 117, 118, 119, 120, 121, 122, 123, 124, 125, 126, 127, 128, 129, 130, 131, 132, 133, 134, 135, 136, 137, 138, 139, 140, 141, 142, 143, 144, 145, 146, 147, 148, 149, 150, 151, 152, 153, 154, 155, 156, 157, 158, 159, 160, 161, 162, 163, 164, 165, 166, 167, 168, 169, 170, 171, 172, 173, 174, 175, 176, 177, 178, 179, 180, 181, 182, 183, 184, 185, 186, 187, 188, 189, 190],
      "AcquisitionTime": ["093207.880000", "093209.370000", "093210.860000", "093212.350000", "093213.840000", "093215.330000", "093216.820000", "093218.310000", "093219.800000", "093221.290000", "093222.780000", "093224.270000", "093225.760000", "093227.250000", "093228.740000", "093230.230000", "093231.720000", "093233.210000", "093234.700000", "093236.190000", "093237.680000", "093239.170000", "093240.660000", "093242.150000", "093243.640000", "093245.130000", "093246.620000", "093248.110000", "093249.600000", "093251.090000", "093252.580000", "093254.070000", "093255.560000", "093257.050000", "093258.540000", "093300.030000", "093301.520000", "093303.010000", "093304.500000", "093305.990000", "093307.480000", "093308.970000", "093310.460000", "093311.950000", "093313.440000", "093314.930000", "093316.420000", "093317.910000", "093319.400000", "093320.890000", "093322.380000", "093323.870000", "093325.360000", "093326.850000", "093328.340000", "093329.830000", "093331.320000", "093332.810000", "093334.300000", "093335.790000", "093337.280000", "093338.770000", "093340.260000", "093341.750000", "093343.240000", "093344.730000", "093346.220000", "093347.710000", "093349.200000", "093350.690000", "093352.180000", "093353.670000", "093355.160000", "093356.650000", "093358.140000", "093359.630000", "093401.120000", "093402.610000", "093404.100000", "093405.590000", "093407.080000", "093408.570000", "093410.060000", "093411.550000", "093413.040000", "093414.530000", "093416.020000", "093417.510000", "093419.000000", "093420.490000", "093421.980000", "093423.470000", "093424.960000", "093426.450000", "093427.940000", "093429.430000", "093430.920000", "093432.410000", "093433.900000", "093435.390000", "093436.880000", "093438.370000", "093439.860000", "093441.350000", "093442.840000", "093444.330000", "093445.820000", "093447.310000", "093448.800000", "093450.290000", "093451.780000", "093453.270000", "093454.760000", "093456.250000", "093457.740000", "093459.230000", "093500.720000", "093502.210000", "093503.700000", "093505.190000", "093506.680000", "093508.170000", "093509.660000", "093511.150000", "093512.640000", "093514.130000", "093515.620000", "093517.110000", "093518.600000", "093520.090000", "093521.580000", "093523.070000", "093524.560000", "093526.050000", "093527.540000", "093529.030000", "093530.520000", "093532.010000", "093533.500000", "093534.990000", "093536.480000", "093537.970000", "093539.460000", "093540.950000", "093542.440000", "093543.930000", "093545.420000", "093546.910000", "093548.400000", "093549.890000", "093551.380000", "093552.870000", "093554.360000", "093555.850000", "093557.340000", "093558.830000", "093600.320000", "093601.810000", "093603.300000", "093604.790000", "093606.280000", "093607.770000", "093609.260000", "093610.750000", "093612.240000", "093613.730000", "093615.220000", "093616.710000", "093618.200000", "093619.690000", "093621.180000", "093622.670000", "093624.160000", "093625.650000", "093627.140000", "093628.630000", "093630.120000", "093631.610000", "093633.100000", "093634.590000", "093636.080000", "093637.570000", "093639.060000", "093640.550000", "093642.040000", "093643.530000", "093645.020000", "093646.510000", "093648.000000", "093649.490000"],
      "ContentTime": ["093315.177000", "093315.180000", "093315.183000", "093315.187000", "093315.194000", "093315.197000", "093315.200000", "093315.203000", "093315.207000", "093315.210000", "093315.221000", "093315.225000", "093355.128000", "093355.134000", "093355.137000", "093355.141000", "093355.144000", "093355.147000", "093355.150000", "093355.154000", "093355.157000", "093355.160000", "093355.164000", "093355.167000", "093355.170000", "093355.173000", "093355.177000", "093355.180000", "093355.183000", "093355.186000", "093355.190000", "093355.193000", "093355.196000", "093355.199000", "093355.203000", "093355.206000", "093355.209000", "093355.212000", "093355.216000", "093355.219000", "093355.222000", "093355.235000", "093355.239000", "093355.242000", "093355.245000", "093355.249000", "093355.252000", "093355.255000", "093355.258000", "093355.262000", "093355.265000", "093415.128000", "093415.132000", "093415.135000", "093415.138000", "093415.142000", "093415.146000", "093415.150000", "093415.156000", "093415.159000", "093415.163000", "093415.167000", "093415.170000", "093415.174000", "093415.177000", "093415.180000", "093415.184000", "093415.187000", "093415.190000", "093415.193000", "093415.197000", "093435.128000", "093435.132000", "093435.135000", "093435.138000", "093435.141000", "093435.145000", "093435.148000", "093435.151000", "093435.154000", "093435.158000", "093435.161000", "093435.164000", "093435.168000", "093435.171000", "093435.174000", "093435.177000", "093435.181000", "093435.184000", "093435.187000", "093435.190000", "093435.194000", "093515.128000", "093515.132000", "093515.135000", "093515.138000", "093515.142000", "093515.145000", "093515.148000", "093515.152000", "093515.155000", "093515.158000", "093515.161000", "093515.165000", "093515.168000", "093515.171000", "093515.174000", "093515.178000", "093515.181000", "093515.184000", "093515.188000", "093515.191000", "093515.194000", "093515.197000", "093515.201000", "093515.204000", "093515.207000", "093515.210000", "093515.214000", "093515.217000", "093515.220000", "093515.223000", "093515.227000", "093515.230000", "093515.233000", "093555.128000", "093555.132000", "093555.135000", "093555.138000", "093555.142000", "093555.145000", "093555.148000", "093555.151000", "093555.155000", "093555.158000", "093555.161000", "093555.164000", "093555.168000", "093555.171000", "093555.174000", "093555.178000", "093555.181000", "093555.184000", "093555.188000", "093555.192000", "093555.195000", "093555.199000", "093555.202000", "093555.205000", "093555.209000", "093555.212000", "093635.128000", "093635.132000", "093635.135000", "093635.138000", "093635.142000", "093635.145000", "093635.148000", "093635.151000", "093635.155000", "093635.158000", "093635.161000", "093635.164000", "093635.168000", "093635.171000", "093635.174000", "093635.177000", "093635.181000", "093635.184000", "093635.187000", "093635.190000", "093635.194000", "093635.197000", "093635.200000", "093635.203000", "093635.207000", "093635.210000", "093635.213000", "093652.031000", "093652.035000", "093652.038000", "093652.042000", "093652.045000", "093652.048000", "093652.052000", "093652.055000", "093652.058000", "093652.062000", "093652.065000", "093652.069000"],
      "InstanceCreationTime": ["093315.177000", "093315.180000", "093315.183000", "093315.187000", "093315.194000", "093315.197000", "093315.200000", "093315.203000", "093315.207000", "093315.210000", "093315.221000", "093315.225000", "093355.128000", "093355.134000", "093355.137000", "093355.141000", "093355.144000", "093355.147000", "093355.150000", "093355.154000", "093355.157000", "093355.160000", "093355.164000", "093355.167000", "093355.170000", "093355.173000", "093355.177000", "093355.180000", "093355.183000", "093355.186000", "093355.190000", "093355.193000", "093355.196000", "093355.199000", "093355.203000", "093355.206000", "093355.209000", "093355.212000", "093355.216000", "093355.219000", "093355.222000", "093355.235000", "093355.239000", "093355.242000", "093355.245000", "093355.249000", "093355.252000", "093355.255000", "093355.258000", "093355.262000", "093355.265000", "093415.128000", "093415.132000", "093415.135000", "093415.138000", "093415.142000", "093415.146000", "093415.150000", "093415.156000", "093415.159000", "093415.163000", "093415.167000", "093415.170000", "093415.174000", "093415.177000", "093415.180000", "093415.184000", "093415.187000", "093415.190000", "093415.193000", "093415.197000", "093435.128000", "093435.132000", "093435.135000", "093435.138000", "093435.141000", "093435.145000", "093435.148000", "093435.151000", "093435.154000", "093435.158000", "093435.161000", "093435.164000", "093435.168000", "093435.171000", "093435.174000", "093435.177000", "093435.181000", "093435.184000", "093435.187000", "093435.190000", "093435.194000", "093515.128000", "093515.132000", "093515.135000", "093515.138000", "093515.142000", "093515.145000", "093515.148000", "093515.152000", "093515.155000", "093515.158000", "093515.161000", "093515.165000", "093515.168000", "093515.171000", "093515.174000", "093515.178000", "093515.181000", "093515.184000", "093515.188000", "093515.191000", "093515.194000", "093515.197000", "093515.201000", "093515.204000", "093515.207000", "093515.210000", "093515.214000", "093515.217000", "093515.220000", "093515.223000", "093515.227000", "093515.230000", "093515.233000", "093555.128000", "093555.132000", "093555.135000", "093555.138000", "093555.142000", "093555.145000", "093555.148000", "093555.151000", "093555.155000", "093555.158000", "093555.161000", "093555.164000", "093555.168000", "093555.171000", "093555.174000", "093555.178000", "093555.181000", "093555.184000", "093555.188000", "093555.192000", "093555.195000", "093555.199000", "093555.202000", "093555.205000", "093555.209000", "093555.212000", "093635.128000", "093635.132000", "093635.135000", "093635.138000", "093635.142000", "093635.145000", "093635.148000", "093635.151000", "093635.155000", "093635.158000", "093635.161000", "093635.164000", "093635.168000", "093635.171000", "093635.174000", "093635.177000", "093635.181000", "093635.184000", "093635.187000", "093635.190000", "093635.194000", "093635.197000", "093635.200000", "093635.203000", "093635.207000", "093635.210000", "093635.213000", "093652.031000", "093652.035000", "093652.038000", "093652.042000", "093652.045000", "093652.048000", "093652.052000", "093652.055000", "093652.058000", "093652.062000", "093652.065000", "093652.069000"],
      "InstanceNumber": [1, 2, 3, 4, 5, 6, 7, 8, 9, 10, 11, 12, 13, 14, 15, 16, 17, 18, 19, 20, 21, 22, 23, 24, 25, 26, 27, 28, 29, 30, 31, 32, 33, 34, 35, 36, 37, 38, 39, 40, 41, 42, 43, 44, 45, 46, 47, 48, 49, 50, 51, 52, 53, 54, 55, 56, 57, 58, 59, 60, 61, 62, 63, 64, 65, 66, 67, 68, 69, 70, 71, 72, 73, 74, 75, 76, 77, 78, 79, 80, 81, 82, 83, 84, 85, 86, 87, 88, 89, 90, 91, 92, 93, 94, 95, 96, 97, 98, 99, 100, 101, 102, 103, 104, 105, 106, 107, 108, 109, 110, 111, 112, 113, 114, 115, 116, 117, 118, 119, 120, 121, 122, 123, 124, 125, 126, 127, 128, 129, 130, 131, 132, 133, 134, 135, 136, 137, 138, 139, 140, 141, 142, 143, 144, 145, 146, 147, 148, 149, 150, 151, 152, 153, 154, 155, 156, 157, 158, 159, 160, 161, 162, 163, 164, 165, 166, 167, 168, 169, 170, 171, 172, 173, 174, 175, 176, 177, 178, 179, 180, 181, 182, 183, 184, 185, 186, 187, 188, 189, 190],
      "LargestImagePixelValue": [45448, 44162, 43474, 42539, 43044, 43483, 42895, 43129, 43566, 44042, 44389, 43936, 43499, 43329, 43356, 43594, 43414, 44271, 43182, 42732, 43089, 43611, 43915, 43374, 42678, 43071, 43209, 43125, 42981, 42771, 42746, 43955, 44217, 44015, 43898, 43175, 43775, 43821, 44564, 43759, 43308, 43327, 44048, 44062, 43165, 43053, 43091, 43063, 42776, 42759, 42359, 42120, 41866, 41165, 42067, 40560, 40919, 41055, 39765, 40900, 40475, 40362, 39574, 39259, 39097, 39139, 39383, 39531, 39602, 39944, 39430, 40009, 39488, 39430, 39598, 39828, 40007, 39672, 40035, 40261, 39595, 39957, 39706, 40019, 40447, 40049, 40185, 40224, 39628, 40293, 39952, 39974, 40406, 40398, 40533, 40269, 39895, 39955, 40246, 40510, 40030, 39971, 40248, 40635, 40731, 40949, 40181, 39819, 40490, 40248, 40623, 40908, 40418, 40286, 40159, 40731, 41041, 40674, 40171, 40174, 40332, 40141, 39926, 40413, 40496, 40105, 40052, 40186, 40157, 40283, 40661, 40122, 40133, 39682, 40924, 40983, 40307, 40390, 40196, 40254, 41175, 40370, 40100, 40215, 40176, 40170, 40742, 40517, 40055, 40033, 40066, 40500, 40632, 40497, 40063, 40358, 40139, 39945, 40487, 40420, 40229, 40257, 40232, 40346, 40635, 40154, 40082, 40600, 40523, 40775, 40384, 40128, 40505, 40439, 40598, 40550, 40419, 40736, 40441, 40684, 40975, 40626, 40647, 40526, 40348, 40663, 40932, 40588, 40099, 40542],
      "WindowCenter": [10636.0, 10599.0, 10570.0, 10550.0, 10550.0, 10556.0, 10570.0, 10613.0, 10616.0, 10609.0, 10590.0, 10569.0, 10583.0, 10610.0, 10606.0, 10595.0, 10579.0, 10581.0, 10569.0, 10596.0, 10606.0, 10595.0, 10579.0, 10568.0, 10589.0, 10606.0, 10604.0, 10587.0, 10585.0, 10613.0, 10618.0, 10615.0, 10593.0, 10589.0, 10589.0, 10621.0, 10639.0, 10621.0, 10609.0, 10583.0, 10597.0, 10616.0, 10611.0, 10585.0, 10595.0, 10617.0, 10608.0, 10588.0, 10577.0, 10566.0, 10542.0, 10555.0, 10551.0, 10531.0, 10535.0, 10522.0, 10563.0, 10576.0, 10539.0, 10541.0, 10512.0, 10524.0, 10541.0, 10535.0, 10506.0, 10493.0, 10483.0, 10482.0, 10503.0, 10545.0, 10514.0, 10497.0, 10470.0, 10464.0, 10489.0, 10517.0, 10509.0, 10500.0, 10505.0, 10494.0, 10497.0, 10507.0, 10499.0, 10489.0, 10494.0, 10485.0, 10509.0, 10545.0, 10536.0, 10516.0, 10497.0, 10487.0, 10502.0, 10530.0, 10517.0, 10503.0, 10489.0, 10487.0, 10491.0, 10506.0, 10503.0, 10489.0, 10503.0, 10505.0, 10523.0, 10537.0, 10531.0, 10502.0, 10496.0, 10502.0, 10508.0, 10534.0, 10533.0, 10516.0, 10501.0, 10511.0, 10534.0, 10539.0, 10514.0, 10497.0, 10483.0, 10469.0, 10494.0, 10528.0, 10515.0, 10486.0, 10472.0, 10458.0, 10456.0, 10482.0, 10509.0, 10503.0, 10479.0, 10456.0, 10462.0, 10494.0, 10498.0, 10483.0, 10468.0, 10464.0, 10501.0, 10505.0, 10488.0, 10475.0, 10476.0, 10492.0, 10515.0, 10513.0, 10487.0, 10470.0, 10467.0, 10463.0, 10472.0, 10490.0, 10469.0, 10471.0, 10459.0, 10467.0, 10497.0, 10511.0, 10503.0, 10485.0, 10466.0, 10464.0, 10487.0, 10486.0, 10477.0, 10481.0, 10519.0, 10520.0, 10495.0, 10471.0, 10472.0, 10489.0, 10501.0, 10491.0, 10476.0, 10475.0, 10466.0, 10473.0, 10496.0, 10483.0, 10468.0, 10465.0, 10465.0, 10490.0, 10526.0, 10517.0, 10495.0, 10483.0],
      "WindowWidth": [22617.0, 22519.0, 22441.0, 22392.0, 22385.0, 22396.0, 22436.0, 22536.0, 22542.0, 22518.0, 22471.0, 22424.0, 22460.0, 22527.0, 22516.0, 22490.0, 22451.0, 22453.0, 22430.0, 22497.0, 22521.0, 22492.0, 22454.0, 22427.0, 22482.0, 22520.0, 22512.0, 22472.0, 22466.0, 22540.0, 22552.0, 22542.0, 22485.0, 22474.0, 22480.0, 22561.0, 22601.0, 22555.0, 22524.0, 22463.0, 22502.0, 22546.0, 22529.0, 22465.0, 22492.0, 22553.0, 22521.0, 22473.0, 22452.0, 22423.0, 22367.0, 22401.0, 22393.0, 22348.0, 22358.0, 22332.0, 22430.0, 22460.0, 22371.0, 22370.0, 22309.0, 22338.0, 22386.0, 22372.0, 22299.0, 22266.0, 22239.0, 22238.0, 22288.0, 22390.0, 22318.0, 22269.0, 22217.0, 22201.0, 22265.0, 22331.0, 22307.0, 22284.0, 22294.0, 22264.0, 22278.0, 22303.0, 22282.0, 22260.0, 22266.0, 22249.0, 22303.0, 22389.0, 22370.0, 22319.0, 22273.0, 22253.0, 22292.0, 22358.0, 22325.0, 22291.0, 22258.0, 22251.0, 22259.0, 22293.0, 22288.0, 22257.0, 22287.0, 22289.0, 22333.0, 22373.0, 22355.0, 22289.0, 22273.0, 22286.0, 22300.0, 22364.0, 22364.0, 22320.0, 22288.0, 22306.0, 22363.0, 22379.0, 22316.0, 22275.0, 22241.0, 22209.0, 22272.0, 22351.0, 22317.0, 22246.0, 22214.0, 22180.0, 22175.0, 22242.0, 22307.0, 22289.0, 22234.0, 22182.0, 22190.0, 22266.0, 22276.0, 22238.0, 22205.0, 22196.0, 22281.0, 22296.0, 22259.0, 22222.0, 22226.0, 22265.0, 22319.0, 22318.0, 22250.0, 22210.0, 22204.0, 22191.0, 22213.0, 22256.0, 22210.0, 22207.0, 22185.0, 22205.0, 22278.0, 22311.0, 22286.0, 22243.0, 22195.0, 22194.0, 22246.0, 22248.0, 22225.0, 22234.0, 22327.0, 22327.0, 22265.0, 22209.0, 22210.0, 22255.0, 22283.0, 22255.0, 22222.0, 22220.0, 22198.0, 22215.0, 22269.0, 22239.0, 22207.0, 22196.0, 22200.0, 22259.0, 22342.0, 22324.0, 22273.0, 22241.0]
    },
    "slices": {}
  }
}