{
  "AcquisitionMatrixPE": 104,
  "AcquisitionNumber": 1,
  "AcquisitionTime": "09:44:41.817500",
  "BandwidthPerPixelPhaseEncode": 17.17,
  "BaseResolution": 104,
  "BodyPartExamined": "BRAIN",
  "CoilString": "HC1-7;NC1_2",
  "ConsistencyInfo": "N4_VE11C_LATEST_20160120",
  "ConversionSoftware": "dcm2niix",
  "ConversionSoftwareVersion": "v1.0.20190902",
  "DerivedVendorReportedEchoSpacing": 0.000560011,
  "DeviceSerialNumber": "167006",
  "DwellTime": 2.1e-06,
  "EchoTime": 0.037,
  "EchoTrainLength": 104,
  "EffectiveEchoSpacing": 0.000560011,
  "FlipAngle": 52,
  "ImageComments": "Unaliased_MB4_PE3_LB",
  "ImageOrientationPatientDICOM": [0.996931, 0.0635196, 0.0457607, -0.044573, 0.941078, -0.335238],
  "ImageType": [
    "ORIGINAL",
    "PRIMARY",
    "M",
    "MB",
    "ND",
    "MOSAIC"
],
  "ImagingFrequency": 123.259,
  "InPlanePhaseEncodingDirectionDICOM": "COL",
  "InstitutionAddress": "Chemin_Queen-Mary_4565_Montreal_District_CA_H3W_1W5",
  "InstitutionName": "IUGM",
  "InstitutionalDepartmentName": "Department",
  "MRAcquisitionType": "2D",
  "MagneticFieldStrength": 3,
  "Manufacturer": "Siemens",
  "ManufacturersModelName": "Prisma_fit",
  "Modality": "MR",
  "MultibandAccelerationFactor": 4,
  "PartialFourier": 1,
  "PatientPosition": "HFS",
  "PercentPhaseFOV": 100,
  "PhaseEncodingDirection": "j",
  "PhaseEncodingSteps": 104,
  "PhaseResolution": 1,
  "PixelBandwidth": 2290,
  "ProcedureStepDescription": "memory_things",
  "ProtocolName": "func_task-things_run-3",
  "PulseSequenceDetails": "%CustomerSeq%_cmrr_mbep2d_bold",
  "ReceiveCoilActiveElements": "HC1-7;NC1,2",
  "ReceiveCoilName": "HeadNeck_64",
  "ReconMatrixPE": 104,
  "RepetitionTime": 1.49,
  "SAR": 0.0486313,
  "ScanOptions": "FS",
  "ScanningSequence": "EP",
  "SequenceName": "epfid2d1_104",
  "SequenceVariant": "SK_SS",
  "SeriesDescription": "func_task-things_run-3",
  "SeriesNumber": 16,
  "ShimSetting": [639, -7197, -8823, 662, 110, 14, -9, -1],
  "SliceThickness": 2,
  "SliceTiming": [0, 0.785, 0.0975, 0.8825, 0.195, 0.98, 0.295, 1.0775, 0.3925, 1.175, 0.49, 1.275, 0.5875, 1.3725, 0.685, 0, 0.785, 0.0975, 0.8825, 0.195, 0.98, 0.295, 1.0775, 0.3925, 1.175, 0.49, 1.275, 0.5875, 1.3725, 0.685, 0, 0.785, 0.0975, 0.8825, 0.195, 0.98, 0.295, 1.0775, 0.3925, 1.175, 0.49, 1.275, 0.5875, 1.3725, 0.685, 0, 0.785, 0.0975, 0.8825, 0.195, 0.98, 0.295, 1.0775, 0.3925, 1.175, 0.49, 1.275, 0.5875, 1.3725, 0.685],
  "SoftwareVersions": "syngo_MR_E11",
  "SpacingBetweenSlices": 2,
  "StationName": "MRC35049",
  "TaskName": "things",
  "TotalReadoutTime": 0.0576811,
  "TxRefAmp": 266.451,
  "WipMemBlock": "ec0ddd4b-4bf8-4689-9047-9f66d2e20940||Sequence: R016 ve11c/master r/e634e98; Dec 19 2017 11:00:25 by eja",
  "dcmmeta_affine": [
    [-1.9938617944717407, -0.08914592117071152, 0.12871727347373962, 107.85842895507812],
    [-0.12703916430473328, 1.8821568489074707, -0.6643392443656921, -54.82594680786133],
    [0.0915214866399765, 0.6704763770103455, 1.8820428848266602, -64.88219451904297],
    [0.0, 0.0, 0.0, 1.0]
],
  "dcmmeta_reorient_transform": [
    [0.0, -1.0, 0.0, 103.0],
    [1.0, 0.0, 0.0, 0.0],
    [0.0, 0.0, 1.0, 0.0],
    [0.0, 0.0, 0.0, 1.0]
],
  "dcmmeta_shape": [104, 104, 60, 190],
  "dcmmeta_slice_dim": 2,
  "dcmmeta_version": 0.6,
  "global": {
    "const": {
      "AcquisitionMatrix": [104, 0, 0, 104],
      "AngioFlag": "N",
      "BitsAllocated": 16,
      "BitsStored": 16,
      "BodyPartExamined": "BRAIN",
      "Columns": 832,
      "EchoNumbers": 1,
      "EchoTime": 37.0,
      "EchoTrainLength": 104,
      "FlipAngle": 52.0,
      "HighBit": 15,
      "ImageOrientationPatient": [0.99693089877756, 0.06351958361041, 0.04576074256966, -0.0445729595049, 0.941078423697, -0.3352382014821],
      "ImagePositionPatient": [-791.99297974115, -870.38355599578, 214.91646430573],
      "ImageType": [
        "ORIGINAL",
        "PRIMARY",
        "M",
        "MB",
        "ND",
        "MOSAIC"
],
      "ImagedNucleus": "1H",
      "ImagingFrequency": 123.258982,
      "InPlanePhaseEncodingDirection": "COL",
      "MRAcquisitionType": "2D",
      "MagneticFieldStrength": 3.0,
      "Manufacturer": "SIEMENS",
      "ManufacturerModelName": "Prisma_fit",
      "Modality": "MR",
      "NumberOfAverages": 1.0,
      "NumberOfPhaseEncodingSteps": 104,
      "PercentPhaseFieldOfView": 100.0,
      "PercentSampling": 100.0,
      "PerformedProcedureStepStartTime": "085725.854000",
      "PhotometricInterpretation": "MONOCHROME2",
      "PixelBandwidth": 2290.0,
      "PixelRepresentation": 0,
      "PixelSpacing": [2.0, 2.0],
      "ProtocolName": "func_task-things_run-3",
      "RepetitionTime": 1490.0,
      "Rows": 832,
      "SAR": 0.04863130243936,
      "SamplesPerPixel": 1,
      "ScanOptions": "FS",
      "ScanningSequence": "EP",
      "SequenceName": "epfid2d1_104",
      "SequenceVariant": [
        "SK",
        "SS"
],
      "SeriesDescription": "func_task-things_run-3",
      "SeriesNumber": 16,
      "SeriesTime": "094606.984000",
      "SliceLocation": -35.902398464977,
      "SliceThickness": 2.0,
      "SmallestImagePixelValue": 0,
      "SoftwareVersions": "syngo MR E11",
      "SpacingBetweenSlices": 2.0000000364407,
      "SpecificCharacterSet": "ISO_IR 100",
      "StudyID": "1",
      "StudyTime": "085725.709000",
      "TransmitCoilName": "Body",
      "VariableFlipAngleFlag": "N",
      "WindowCenterWidthExplanation": "Algo1",
      "dBdt": 0.0},
    "slices": {}
  },
  "time": {
    "samples": {
      "AcquisitionNumber": [1, 2, 3, 4, 5, 6, 7, 8, 9, 10, 11, 12, 13, 14, 15, 16, 17, 18, 19, 20, 21, 22, 23, 24, 25, 26, 27, 28, 29, 30, 31, 32, 33, 34, 35, 36, 37, 38, 39, 40, 41, 42, 43, 44, 45, 46, 47, 48, 49, 50, 51, 52, 53, 54, 55, 56, 57, 58, 59, 60, 61, 62, 63, 64, 65, 66, 67, 68, 69, 70, 71, 72, 73, 74, 75, 76, 77, 78, 79, 80, 81, 82, 83, 84, 85, 86, 87, 88, 89, 90, 91, 92, 93, 94, 95, 96, 97, 98, 99, 100, 101, 102, 103, 104, 105, 106, 107, 108, 109, 110, 111, 112, 113, 114, 115, 116, 117, 118, 119, 120, 121, 122, 123, 124, 125, 126, 127, 128, 129, 130, 131, 132, 133, 134, 135, 136, 137, 138, 139, 140, 141, 142, 143, 144, 145, 146, 147, 148, 149, 150, 151, 152, 153, 154, 155, 156, 157, 158, 159, 160, 161, 162, 163, 164, 165, 166, 167, 168, 169, 170, 171, 172, 173, 174, 175, 176, 177, 178, 179, 180, 181, 182, 183, 184, 185, 186, 187, 188, 189, 190],
      "AcquisitionTime": ["094441.817500", "094443.307500", "094444.797500", "094446.287500", "094447.777500", "094449.267500", "094450.757500", "094452.247500", "094453.737500", "094455.227500", "094456.717500", "094458.207500", "094459.697500", "094501.187500", "094502.677500", "094504.167500", "094505.657500", "094507.147500", "094508.637500", "094510.127500", "094511.617500", "094513.107500", "094514.597500", "094516.087500", "094517.577500", "094519.067500", "094520.557500", "094522.047500", "094523.537500", "094525.027500", "094526.517500", "094528.007500", "094529.497500", "094530.987500", "094532.477500", "094533.967500", "094535.457500", "094536.947500", "094538.437500", "094539.927500", "094541.417500", "094542.907500", "094544.397500", "094545.887500", "094547.377500", "094548.867500", "094550.357500", "094551.847500", "094553.337500", "094554.827500", "094556.317500", "094557.807500", "094559.297500", "094600.787500", "094602.277500", "094603.767500", "094605.257500", "094606.747500", "094608.237500", "094609.727500", "094611.217500", "094612.707500", "094614.197500", "094615.687500", "094617.177500", "094618.667500", "094620.157500", "094621.647500", "094623.137500", "094624.627500", "094626.117500", "094627.607500", "094629.097500", "094630.587500", "094632.077500", "094633.567500", "094635.057500", "094636.547500", "094638.037500", "094639.527500", "094641.017500", "094642.507500", "094643.997500", "094645.487500", "094646.977500", "094648.467500", "094649.957500", "094651.447500", "094652.937500", "094654.427500", "094655.917500", "094657.407500", "094658.897500", "094700.387500", "094701.877500", "094703.367500", "094704.857500", "094706.347500", "094707.837500", "094709.327500", "094710.817500", "094712.307500", "094713.797500", "094715.287500", "094716.777500", "094718.267500", "094719.757500", "094721.247500", "094722.737500", "094724.227500", "094725.717500", "094727.207500", "094728.697500", "094730.187500", "094731.677500", "094733.167500", "094734.657500", "094736.147500", "094737.637500", "094739.127500", "094740.617500", "094742.107500", "094743.597500", "094745.087500", "094746.577500", "094748.067500", "094749.557500", "094751.047500", "094752.537500", "094754.027500", "094755.517500", "094757.007500", "094758.497500", "094759.987500", "094801.477500", "094802.967500", "094804.457500", "094805.947500", "094807.437500", "094808.927500", "094810.417500", "094811.907500", "094813.397500", "094814.887500", "094816.377500", "094817.867500", "094819.357500", "094820.847500", "094822.337500", "094823.827500", "094825.317500", "094826.807500", "094828.297500", "094829.787500", "094831.277500", "094832.767500", "094834.257500", "094835.747500", "094837.237500", "094838.727500", "094840.217500", "094841.707500", "094843.197500", "094844.687500", "094846.177500", "094847.667500", "094849.157500", "094850.647500", "094852.137500", "094853.627500", "094855.117500", "094856.607500", "094858.097500", "094859.587500", "094901.077500", "094902.567500", "094904.057500", "094905.547500", "094907.037500", "094908.527500", "094910.017500", "094911.507500", "094912.997500", "094914.487500", "094915.977500", "094917.467500", "094918.957500", "094920.447500", "094921.937500", "094923.427500"],
      "ContentTime": ["094606.987000", "094606.991000", "094606.994000", "094606.997000", "094607.000000", "094607.004000", "094607.007000", "094607.010000", "094607.014000", "094607.017000", "094607.020000", "094607.023000", "094607.027000", "094607.030000", "094607.033000", "094607.043000", "094607.046000", "094607.050000", "094607.053000", "094607.056000", "094607.060000", "094607.063000", "094607.066000", "094607.069000", "094607.073000", "094607.076000", "094607.079000", "094607.082000", "094607.086000", "094607.089000", "094607.092000", "094607.096000", "094607.100000", "094626.950000", "094626.954000", "094626.957000", "094626.960000", "094626.964000", "094626.967000", "094626.970000", "094626.974000", "094626.977000", "094626.980000", "094626.984000", "094626.987000", "094626.990000", "094626.994000", "094626.997000", "094627.000000", "094627.003000", "094627.007000", "094627.010000", "094627.013000", "094646.950000", "094646.954000", "094646.957000", "094646.960000", "094646.964000", "094646.967000", "094646.970000", "094646.973000", "094646.977000", "094646.980000", "094646.983000", "094646.986000", "094647.003000", "094647.006000", "094647.010000", "094647.013000", "094647.016000", "094647.020000", "094647.023000", "094647.026000", "094706.950000", "094706.954000", "094706.957000", "094706.960000", "094706.964000", "094706.967000", "094706.970000", "094706.973000", "094706.977000", "094706.980000", "094706.983000", "094706.987000", "094706.990000", "094706.993000", "094706.997000", "094707.000000", "094707.003000", "094707.007000", "094707.010000", "094707.013000", "094746.950000", "094746.954000", "094746.957000", "094746.960000", "094746.964000", "094746.967000", "094746.970000", "094746.974000", "094746.977000", "094746.980000", "094746.984000", "094746.987000", "094746.991000", "094746.994000", "094746.997000", "094747.001000", "094747.005000", "094747.008000", "094747.012000", "094747.015000", "094747.018000", "094747.022000", "094747.025000", "094747.028000", "094747.031000", "094747.035000", "094747.038000", "094747.041000", "094747.045000", "094747.048000", "094826.950000", "094826.954000", "094826.957000", "094826.960000", "094826.964000", "094826.967000", "094826.970000", "094826.974000", "094826.977000", "094826.980000", "094826.984000", "094826.987000", "094826.990000", "094826.993000", "094826.997000", "094827.000000", "094827.003000", "094827.007000", "094827.010000", "094827.013000", "094827.017000", "094827.020000", "094827.023000", "094827.026000", "094827.030000", "094827.033000", "094827.036000", "094906.950000", "094906.954000", "094906.957000", "094906.960000", "094906.964000", "094906.967000", "094906.970000", "094906.974000", "094906.977000", "094906.980000", "094906.984000", "094906.987000", "094906.990000", "094906.993000", "094906.997000", "094907.000000", "094907.003000", "094907.007000", "094907.010000", "094907.013000", "094907.029000", "094907.032000", "094907.036000", "094907.039000", "094907.042000", "094907.045000", "094907.049000", "094925.459000", "094925.462000", "094925.466000", "094925.469000", "094925.473000", "094925.476000", "094925.479000", "094925.483000", "094925.487000", "094925.490000", "094925.493000", "094925.496000", "094925.500000"],
      "InstanceCreationTime": ["094606.987000", "094606.991000", "094606.994000", "094606.997000", "094607.000000", "094607.004000", "094607.007000", "094607.010000", "094607.014000", "094607.017000", "094607.020000", "094607.023000", "094607.027000", "094607.030000", "094607.033000", "094607.043000", "094607.046000", "094607.050000", "094607.053000", "094607.056000", "094607.060000", "094607.063000", "094607.066000", "094607.069000", "094607.073000", "094607.076000", "094607.079000", "094607.082000", "094607.086000", "094607.089000", "094607.092000", "094607.096000", "094607.100000", "094626.950000", "094626.954000", "094626.957000", "094626.960000", "094626.964000", "094626.967000", "094626.970000", "094626.974000", "094626.977000", "094626.980000", "094626.984000", "094626.987000", "094626.990000", "094626.994000", "094626.997000", "094627.000000", "094627.003000", "094627.007000", "094627.010000", "094627.013000", "094646.950000", "094646.954000", "094646.957000", "094646.960000", "094646.964000", "094646.967000", "094646.970000", "094646.973000", "094646.977000", "094646.980000", "094646.983000", "094646.986000", "094647.003000", "094647.006000", "094647.010000", "094647.013000", "094647.016000", "094647.020000", "094647.023000", "094647.026000", "094706.950000", "094706.954000", "094706.957000", "094706.960000", "094706.964000", "094706.967000", "094706.970000", "094706.973000", "094706.977000", "094706.980000", "094706.983000", "094706.987000", "094706.990000", "094706.993000", "094706.997000", "094707.000000", "094707.003000", "094707.007000", "094707.010000", "094707.013000", "094746.950000", "094746.954000", "094746.957000", "094746.960000", "094746.964000", "094746.967000", "094746.970000", "094746.974000", "094746.977000", "094746.980000", "094746.984000", "094746.987000", "094746.991000", "094746.994000", "094746.997000", "094747.001000", "094747.005000", "094747.008000", "094747.012000", "094747.015000", "094747.018000", "094747.022000", "094747.025000", "094747.028000", "094747.031000", "094747.035000", "094747.038000", "094747.041000", "094747.045000", "094747.048000", "094826.950000", "094826.954000", "094826.957000", "094826.960000", "094826.964000", "094826.967000", "094826.970000", "094826.974000", "094826.977000", "094826.980000", "094826.984000", "094826.987000", "094826.990000", "094826.993000", "094826.997000", "094827.000000", "094827.003000", "094827.007000", "094827.010000", "094827.013000", "094827.017000", "094827.020000", "094827.023000", "094827.026000", "094827.030000", "094827.033000", "094827.036000", "094906.950000", "094906.954000", "094906.957000", "094906.960000", "094906.964000", "094906.967000", "094906.970000", "094906.974000", "094906.977000", "094906.980000", "094906.984000", "094906.987000", "094906.990000", "094906.993000", "094906.997000", "094907.000000", "094907.003000", "094907.007000", "094907.010000", "094907.013000", "094907.029000", "094907.032000", "094907.036000", "094907.039000", "094907.042000", "094907.045000", "094907.049000", "094925.459000", "094925.462000", "094925.466000", "094925.469000", "094925.473000", "094925.476000", "094925.479000", "094925.483000", "094925.487000", "094925.490000", "094925.493000", "094925.496000", "094925.500000"],
      "InstanceNumber": [1, 2, 3, 4, 5, 6, 7, 8, 9, 10, 11, 12, 13, 14, 15, 16, 17, 18, 19, 20, 21, 22, 23, 24, 25, 26, 27, 28, 29, 30, 31, 32, 33, 34, 35, 36, 37, 38, 39, 40, 41, 42, 43, 44, 45, 46, 47, 48, 49, 50, 51, 52, 53, 54, 55, 56, 57, 58, 59, 60, 61, 62, 63, 64, 65, 66, 67, 68, 69, 70, 71, 72, 73, 74, 75, 76, 77, 78, 79, 80, 81, 82, 83, 84, 85, 86, 87, 88, 89, 90, 91, 92, 93, 94, 95, 96, 97, 98, 99, 100, 101, 102, 103, 104, 105, 106, 107, 108, 109, 110, 111, 112, 113, 114, 115, 116, 117, 118, 119, 120, 121, 122, 123, 124, 125, 126, 127, 128, 129, 130, 131, 132, 133, 134, 135, 136, 137, 138, 139, 140, 141, 142, 143, 144, 145, 146, 147, 148, 149, 150, 151, 152, 153, 154, 155, 156, 157, 158, 159, 160, 161, 162, 163, 164, 165, 166, 167, 168, 169, 170, 171, 172, 173, 174, 175, 176, 177, 178, 179, 180, 181, 182, 183, 184, 185, 186, 187, 188, 189, 190],
      "LargestImagePixelValue": [44051, 41587, 40461, 41283, 40108, 40725, 39964, 40550, 40268, 39824, 40191, 40058, 39933, 40135, 39498, 39556, 39514, 39653, 40013, 40834, 40405, 40131, 39290, 40226, 40036, 40711, 39934, 39725, 39993, 39767, 39990, 40020, 39128, 39378, 39140, 39578, 39413, 39145, 39786, 39657, 39564, 39515, 39678, 39754, 39902, 39796, 40053, 39447, 39354, 39874, 39898, 40003, 40093, 39529, 39392, 39593, 39374, 39614, 39396, 39542, 39515, 39612, 39980, 39248, 39128, 39919, 40082, 39991, 40062, 39220, 38931, 39832, 40246, 39808, 39975, 39428, 39051, 39215, 39946, 40483, 39762, 39193, 39679, 39630, 40007, 39739, 39713, 39131, 39250, 39380, 39503, 38949, 38798, 39133, 39090, 39121, 38436, 38714, 38994, 38867, 38707, 38566, 38902, 38796, 39228, 38807, 38541, 38729, 38327, 39012, 38713, 38538, 38811, 39162, 38954, 39088, 38752, 38663, 38729, 38991, 38521, 38906, 38762, 39004, 38903, 38555, 38573, 38525, 38716, 38811, 38688, 38388, 38659, 38454, 38904, 38512, 38619, 38714, 38496, 38868, 38631, 38425, 38700, 38754, 38915, 38757, 38703, 38510, 38874, 38723, 38762, 38769, 39418, 38240, 39496, 38235, 38927, 39050, 39453, 39039, 38509, 38822, 38500, 39155, 39340, 38468, 38796, 38047, 38741, 38600, 38945, 39166, 38488, 38620, 37753, 39489, 38603, 38110, 38687, 38385, 38804, 38603, 39275, 38883, 38755, 38742, 38123, 39096, 39418, 39215],
      "WindowCenter": [10467.0, 10405.0, 10408.0, 10439.0, 10407.0, 10404.0, 10399.0, 10433.0, 10453.0, 10461.0, 10446.0, 10430.0, 10418.0, 10427.0, 10450.0, 10452.0, 10424.0, 10407.0, 10399.0, 10411.0, 10394.0, 10417.0, 10414.0, 10418.0, 10407.0, 10411.0, 10405.0, 10428.0, 10439.0, 10423.0, 10411.0, 10399.0, 10386.0, 10409.0, 10398.0, 10393.0, 10376.0, 10381.0, 10415.0, 10426.0, 10393.0, 10367.0, 10354.0, 10354.0, 10382.0, 10388.0, 10384.0, 10363.0, 10355.0, 10374.0, 10405.0, 10405.0, 10380.0, 10365.0, 10364.0, 10359.0, 10390.0, 10417.0, 10404.0, 10391.0, 10374.0, 10366.0, 10382.0, 10389.0, 10386.0, 10396.0, 10425.0, 10426.0, 10410.0, 10386.0, 10376.0, 10377.0, 10418.0, 10435.0, 10428.0, 10398.0, 10378.0, 10374.0, 10396.0, 10402.0, 10388.0, 10370.0, 10369.0, 10369.0, 10402.0, 10409.0, 10410.0, 10390.0, 10383.0, 10397.0, 10412.0, 10403.0, 10397.0, 10399.0, 10419.0, 10425.0, 10405.0, 10391.0, 10394.0, 10412.0, 10408.0, 10406.0, 10397.0, 10405.0, 10436.0, 10415.0, 10384.0, 10368.0, 10344.0, 10364.0, 10382.0, 10387.0, 10377.0, 10375.0, 10372.0, 10398.0, 10406.0, 10416.0, 10397.0, 10379.0, 10354.0, 10370.0, 10396.0, 10412.0, 10411.0, 10403.0, 10406.0, 10420.0, 10416.0, 10398.0, 10378.0, 10368.0, 10375.0, 10399.0, 10437.0, 10418.0, 10396.0, 10381.0, 10371.0, 10374.0, 10394.0, 10407.0, 10403.0, 10403.0, 10396.0, 10393.0, 10421.0, 10421.0, 10396.0, 10377.0, 10361.0, 10362.0, 10400.0, 10404.0, 10399.0, 10371.0, 10365.0, 10376.0, 10404.0, 10398.0, 10377.0, 10378.0, 10362.0, 10364.0, 10404.0, 10397.0, 10378.0, 10361.0, 10359.0, 10359.0, 10373.0, 10398.0, 10389.0, 10377.0, 10347.0, 10378.0, 10387.0, 10377.0, 10358.0, 10351.0, 10362.0, 10354.0, 10378.0, 10376.0, 10357.0, 10345.0, 10332.0, 10348.0, 10366.0, 10395.0],
      "WindowWidth": [22221.0, 22069.0, 22076.0, 22138.0, 22065.0, 22051.0, 22042.0, 22127.0, 22173.0, 22193.0, 22152.0, 22117.0, 22088.0, 22111.0, 22171.0, 22176.0, 22105.0, 22066.0, 22044.0, 22066.0, 22030.0, 22086.0, 22085.0, 22090.0, 22060.0, 22066.0, 22055.0, 22119.0, 22145.0, 22104.0, 22074.0, 22042.0, 22018.0, 22073.0, 22051.0, 22031.0, 21995.0, 22004.0, 22088.0, 22109.0, 22029.0, 21966.0, 21934.0, 21935.0, 22004.0, 22019.0, 22005.0, 21958.0, 21940.0, 21984.0, 22065.0, 22061.0, 22002.0, 21968.0, 21965.0, 21952.0, 22029.0, 22093.0, 22060.0, 22025.0, 21985.0, 21965.0, 22005.0, 22027.0, 22025.0, 22042.0, 22115.0, 22114.0, 22074.0, 22019.0, 21994.0, 21993.0, 22090.0, 22132.0, 22110.0, 22042.0, 21994.0, 21986.0, 22039.0, 22050.0, 22022.0, 21985.0, 21974.0, 21975.0, 22053.0, 22073.0, 22073.0, 22031.0, 22009.0, 22043.0, 22081.0, 22061.0, 22045.0, 22049.0, 22098.0, 22118.0, 22073.0, 22034.0, 22039.0, 22084.0, 22073.0, 22068.0, 22048.0, 22066.0, 22136.0, 22090.0, 22019.0, 21975.0, 21923.0, 21969.0, 22010.0, 22025.0, 21997.0, 21992.0, 21984.0, 22048.0, 22070.0, 22093.0, 22046.0, 22001.0, 21946.0, 21980.0, 22046.0, 22080.0, 22077.0, 22064.0, 22067.0, 22099.0, 22094.0, 22047.0, 21998.0, 21977.0, 21993.0, 22050.0, 22141.0, 22096.0, 22042.0, 22012.0, 21986.0, 21994.0, 22044.0, 22078.0, 22062.0, 22058.0, 22041.0, 22032.0, 22103.0, 22107.0, 22041.0, 21997.0, 21960.0, 21961.0, 22049.0, 22065.0, 22046.0, 21984.0, 21967.0, 21989.0, 22057.0, 22042.0, 21994.0, 22001.0, 21965.0, 21964.0, 22060.0, 22049.0, 22000.0, 21961.0, 21957.0, 21957.0, 21988.0, 22048.0, 22028.0, 21999.0, 21931.0, 21998.0, 22028.0, 22002.0, 21953.0, 21937.0, 21961.0, 21943.0, 21996.0, 21995.0, 21945.0, 21917.0, 21894.0, 21924.0, 21971.0, 22041.0]
    },
    "slices": {}
  }
}