{
  "AcquisitionMatrixPE": 104,
  "AcquisitionNumber": 1,
  "AcquisitionTime": "16:00:53.625000",
  "BandwidthPerPixelPhaseEncode": 17.17,
  "BaseResolution": 104,
  "BodyPartExamined": "BRAIN",
  "CoilString": "HC1-7;NC1_2",
  "ConsistencyInfo": "N4_VE11C_LATEST_20160120",
  "ConversionSoftware": "dcm2niix",
  "ConversionSoftwareVersion": "v1.0.20190902",
  "DerivedVendorReportedEchoSpacing": 0.000560011,
  "DeviceSerialNumber": "167006",
  "DwellTime": 2.1e-06,
  "EchoTime": 0.037,
  "EchoTrainLength": 104,
  "EffectiveEchoSpacing": 0.000560011,
  "FlipAngle": 52,
  "HeudiconvVersion": "0.10.0",
  "ImageComments": "Unaliased_MB4_PE3_LB",
  "ImageOrientationPatientDICOM": [0.999429, -0.0298643, 0.0157796, 0.0333291, 0.947758, -0.317245],
  "ImageType": [
    "ORIGINAL",
    "PRIMARY",
    "M",
    "MB",
    "ND",
    "MOSAIC"
],
  "ImagingFrequency": 123.259,
  "InPlanePhaseEncodingDirectionDICOM": "COL",
  "InstitutionAddress": "Chemin_Queen-Mary_4565_Montreal_District_CA_H3W_1W5",
  "InstitutionName": "IUGM",
  "InstitutionalDepartmentName": "Department",
  "MRAcquisitionType": "2D",
  "MagneticFieldStrength": 3,
  "Manufacturer": "Siemens",
  "ManufacturersModelName": "Prisma_fit",
  "Modality": "MR",
  "MultibandAccelerationFactor": 4,
  "PartialFourier": 1,
  "PatientPosition": "HFS",
  "PercentPhaseFOV": 100,
  "PhaseEncodingDirection": "j",
  "PhaseEncodingSteps": 104,
  "PhaseResolution": 1,
  "PixelBandwidth": 2290,
  "ProcedureStepDescription": "memory_things",
  "ProtocolName": "func_task-things_run-5",
  "PulseSequenceDetails": "%CustomerSeq%_cmrr_mbep2d_bold",
  "ReceiveCoilActiveElements": "HC1-7;NC1,2",
  "ReceiveCoilName": "HeadNeck_64",
  "ReconMatrixPE": 104,
  "RepetitionTime": 1.49,
  "SAR": 0.0334012,
  "ScanOptions": "FS",
  "ScanningSequence": "EP",
  "SequenceName": "epfid2d1_104",
  "SequenceVariant": "SK_SS",
  "SeriesDescription": "func_task-things_run-5",
  "SeriesNumber": 22,
  "ShimSetting": [624, -7247, -8817, 610, 1, -186, -54, -7],
  "SliceThickness": 2,
  "SliceTiming": [0, 0.7825, 0.0975, 0.8825, 0.195, 0.98, 0.2925, 1.0775, 0.3925, 1.175, 0.49, 1.2725, 0.5875, 1.37, 0.685, 0, 0.7825, 0.0975, 0.8825, 0.195, 0.98, 0.2925, 1.0775, 0.3925, 1.175, 0.49, 1.2725, 0.5875, 1.37, 0.685, 0, 0.7825, 0.0975, 0.8825, 0.195, 0.98, 0.2925, 1.0775, 0.3925, 1.175, 0.49, 1.2725, 0.5875, 1.37, 0.685, 0, 0.7825, 0.0975, 0.8825, 0.195, 0.98, 0.2925, 1.0775, 0.3925, 1.175, 0.49, 1.2725, 0.5875, 1.37, 0.685],
  "SoftwareVersions": "syngo_MR_E11",
  "SpacingBetweenSlices": 2,
  "StationName": "MRC35049",
  "TaskName": "things",
  "TotalReadoutTime": 0.0576811,
  "TxRefAmp": 228.364,
  "WipMemBlock": "d8c29c0a-2819-4245-ba6b-d546c3847256||Sequence: R016 ve11c/master r/e634e98; Dec 19 2017 11:00:25 by eja",
  "dcmmeta_affine": [
    [-1.9988588094711304, 0.06665823608636856, 0.010961816646158695, 103.72669219970703],
    [0.05972859263420105, 1.8955157995224, -0.6351790428161621, -68.99198150634766],
    [0.03155910223722458, 0.6344892382621765, 1.8964250087738037, -64.30989837646484],
    [0.0, 0.0, 0.0, 1.0]
],
  "dcmmeta_reorient_transform": [
    [0.0, -1.0, 0.0, 103.0],
    [1.0, 0.0, 0.0, 0.0],
    [0.0, 0.0, 1.0, 0.0],
    [0.0, 0.0, 0.0, 1.0]
],
  "dcmmeta_shape": [104, 104, 60, 190],
  "dcmmeta_slice_dim": 2,
  "dcmmeta_version": 0.6,
  "global": {
    "const": {
      "AcquisitionMatrix": [104, 0, 0, 104],
      "AngioFlag": "N",
      "BitsAllocated": 16,
      "BitsStored": 16,
      "BodyPartExamined": "BRAIN",
      "Columns": 832,
      "EchoNumbers": 1,
      "EchoTime": 37.0,
      "EchoTrainLength": 104,
      "FlipAngle": 52.0,
      "HighBit": 15,
      "ImageOrientationPatient": [0.99942940200347, -0.0298642956169, 0.01577955190428, 0.03332911726313, 0.94775789497796, -0.3172446098036],
      "ImagePositionPatient": [-862.44069450946, -794.47268241683, 220.50905649861],
      "ImageType": [
        "ORIGINAL",
        "PRIMARY",
        "M",
        "MB",
        "ND",
        "MOSAIC"
],
      "ImagedNucleus": "1H",
      "ImagingFrequency": 123.259068,
      "InPlanePhaseEncodingDirection": "COL",
      "MRAcquisitionType": "2D",
      "MagneticFieldStrength": 3.0,
      "Manufacturer": "SIEMENS",
      "ManufacturerModelName": "Prisma_fit",
      "Modality": "MR",
      "NumberOfAverages": 1.0,
      "NumberOfPhaseEncodingSteps": 104,
      "PercentPhaseFieldOfView": 100.0,
      "PercentSampling": 100.0,
      "PerformedProcedureStepStartTime": "141829.212000",
      "PhotometricInterpretation": "MONOCHROME2",
      "PixelBandwidth": 2290.0,
      "PixelRepresentation": 0,
      "PixelSpacing": [2.0, 2.0],
      "ProtocolName": "func_task-things_run-5",
      "RepetitionTime": 1490.0,
      "Rows": 832,
      "SAR": 0.03340115777615,
      "SamplesPerPixel": 1,
      "ScanOptions": "FS",
      "ScanningSequence": "EP",
      "SequenceName": "epfid2d1_104",
      "SequenceVariant": [
        "SK",
        "SS"
],
      "SeriesDescription": "func_task-things_run-5",
      "SeriesNumber": 22,
      "SeriesTime": "160212.102000",
      "SliceLocation": -38.499796889028,
      "SliceThickness": 2.0,
      "SmallestImagePixelValue": 0,
      "SoftwareVersions": "syngo MR E11",
      "SpacingBetweenSlices": 2.0000000481654,
      "SpecificCharacterSet": "ISO_IR 100",
      "StudyID": "1",
      "StudyTime": "141829.125000",
      "TransmitCoilName": "Body",
      "VariableFlipAngleFlag": "N",
      "WindowCenterWidthExplanation": "Algo1",
      "dBdt": 0.0},
    "slices": {}
  },
  "time": {
    "samples": {
      "AcquisitionNumber": [1, 2, 3, 4, 5, 6, 7, 8, 9, 10, 11, 12, 13, 14, 15, 16, 17, 18, 19, 20, 21, 22, 23, 24, 25, 26, 27, 28, 29, 30, 31, 32, 33, 34, 35, 36, 37, 38, 39, 40, 41, 42, 43, 44, 45, 46, 47, 48, 49, 50, 51, 52, 53, 54, 55, 56, 57, 58, 59, 60, 61, 62, 63, 64, 65, 66, 67, 68, 69, 70, 71, 72, 73, 74, 75, 76, 77, 78, 79, 80, 81, 82, 83, 84, 85, 86, 87, 88, 89, 90, 91, 92, 93, 94, 95, 96, 97, 98, 99, 100, 101, 102, 103, 104, 105, 106, 107, 108, 109, 110, 111, 112, 113, 114, 115, 116, 117, 118, 119, 120, 121, 122, 123, 124, 125, 126, 127, 128, 129, 130, 131, 132, 133, 134, 135, 136, 137, 138, 139, 140, 141, 142, 143, 144, 145, 146, 147, 148, 149, 150, 151, 152, 153, 154, 155, 156, 157, 158, 159, 160, 161, 162, 163, 164, 165, 166, 167, 168, 169, 170, 171, 172, 173, 174, 175, 176, 177, 178, 179, 180, 181, 182, 183, 184, 185, 186, 187, 188, 189, 190],
      "AcquisitionTime": ["160053.625000", "160055.115000", "160056.605000", "160058.095000", "160059.585000", "160101.075000", "160102.565000", "160104.055000", "160105.545000", "160107.035000", "160108.525000", "160110.015000", "160111.505000", "160112.995000", "160114.485000", "160115.975000", "160117.465000", "160118.955000", "160120.445000", "160121.935000", "160123.425000", "160124.915000", "160126.405000", "160127.895000", "160129.385000", "160130.875000", "160132.365000", "160133.855000", "160135.345000", "160136.835000", "160138.325000", "160139.815000", "160141.305000", "160142.795000", "160144.285000", "160145.775000", "160147.265000", "160148.755000", "160150.245000", "160151.735000", "160153.225000", "160154.715000", "160156.205000", "160157.695000", "160159.185000", "160200.675000", "160202.165000", "160203.655000", "160205.145000", "160206.635000", "160208.125000", "160209.615000", "160211.105000", "160212.595000", "160214.085000", "160215.575000", "160217.065000", "160218.555000", "160220.045000", "160221.535000", "160223.025000", "160224.515000", "160226.005000", "160227.495000", "160228.985000", "160230.475000", "160231.965000", "160233.455000", "160234.945000", "160236.435000", "160237.925000", "160239.415000", "160240.905000", "160242.395000", "160243.885000", "160245.375000", "160246.865000", "160248.355000", "160249.845000", "160251.335000", "160252.825000", "160254.315000", "160255.805000", "160257.295000", "160258.785000", "160300.275000", "160301.765000", "160303.255000", "160304.745000", "160306.235000", "160307.725000", "160309.215000", "160310.705000", "160312.195000", "160313.685000", "160315.175000", "160316.665000", "160318.155000", "160319.645000", "160321.135000", "160322.625000", "160324.115000", "160325.605000", "160327.095000", "160328.585000", "160330.075000", "160331.565000", "160333.055000", "160334.545000", "160336.035000", "160337.525000", "160339.015000", "160340.505000", "160341.995000", "160343.485000", "160344.975000", "160346.465000", "160347.955000", "160349.445000", "160350.935000", "160352.425000", "160353.915000", "160355.405000", "160356.895000", "160358.385000", "160359.875000", "160401.365000", "160402.855000", "160404.345000", "160405.835000", "160407.325000", "160408.815000", "160410.305000", "160411.795000", "160413.285000", "160414.775000", "160416.265000", "160417.755000", "160419.245000", "160420.735000", "160422.225000", "160423.715000", "160425.205000", "160426.695000", "160428.185000", "160429.675000", "160431.165000", "160432.655000", "160434.145000", "160435.635000", "160437.125000", "160438.615000", "160440.105000", "160441.595000", "160443.085000", "160444.575000", "160446.065000", "160447.555000", "160449.045000", "160450.535000", "160452.025000", "160453.515000", "160455.005000", "160456.495000", "160457.985000", "160459.475000", "160500.965000", "160502.455000", "160503.945000", "160505.435000", "160506.925000", "160508.415000", "160509.905000", "160511.395000", "160512.885000", "160514.375000", "160515.865000", "160517.355000", "160518.845000", "160520.335000", "160521.825000", "160523.315000", "160524.805000", "160526.295000", "160527.785000", "160529.275000", "160530.765000", "160532.255000", "160533.745000", "160535.235000"],
      "ContentTime": ["160212.106000", "160212.109000", "160212.117000", "160212.120000", "160212.123000", "160212.126000", "160212.130000", "160212.133000", "160212.136000", "160212.140000", "160212.143000", "160212.146000", "160212.149000", "160212.153000", "160212.156000", "160212.159000", "160212.162000", "160212.166000", "160212.169000", "160212.172000", "160212.175000", "160212.179000", "160212.182000", "160212.185000", "160212.189000", "160232.062000", "160232.066000", "160232.069000", "160232.072000", "160232.075000", "160232.079000", "160232.082000", "160232.085000", "160232.089000", "160232.092000", "160232.095000", "160232.098000", "160232.102000", "160232.105000", "160232.117000", "160232.120000", "160232.123000", "160232.126000", "160232.130000", "160232.133000", "160252.062000", "160252.066000", "160252.069000", "160252.072000", "160252.076000", "160252.079000", "160252.098000", "160252.101000", "160252.104000", "160252.108000", "160252.111000", "160252.114000", "160252.118000", "160252.121000", "160252.124000", "160252.127000", "160252.137000", "160252.140000", "160252.143000", "160252.147000", "160312.062000", "160312.066000", "160312.069000", "160312.072000", "160312.076000", "160312.079000", "160312.082000", "160312.086000", "160312.089000", "160312.092000", "160312.096000", "160312.099000", "160312.102000", "160312.106000", "160312.109000", "160312.113000", "160312.116000", "160312.119000", "160312.122000", "160312.126000", "160312.129000", "160332.063000", "160332.067000", "160332.070000", "160332.073000", "160332.077000", "160332.080000", "160332.083000", "160332.087000", "160332.090000", "160332.093000", "160332.097000", "160332.104000", "160332.108000", "160332.111000", "160332.114000", "160332.117000", "160332.121000", "160332.124000", "160332.127000", "160332.131000", "160412.063000", "160412.067000", "160412.070000", "160412.074000", "160412.077000", "160412.080000", "160412.084000", "160412.088000", "160412.095000", "160412.098000", "160412.102000", "160412.105000", "160412.108000", "160412.112000", "160412.115000", "160412.118000", "160412.122000", "160412.125000", "160412.128000", "160412.132000", "160412.135000", "160412.138000", "160412.141000", "160412.145000", "160412.155000", "160412.159000", "160452.062000", "160452.066000", "160452.069000", "160452.072000", "160452.076000", "160452.079000", "160452.083000", "160452.086000", "160452.089000", "160452.093000", "160452.096000", "160452.099000", "160452.103000", "160452.106000", "160452.109000", "160452.113000", "160452.116000", "160452.119000", "160452.123000", "160452.126000", "160452.130000", "160452.133000", "160452.136000", "160452.139000", "160452.143000", "160452.146000", "160452.155000", "160532.062000", "160532.066000", "160532.069000", "160532.073000", "160532.076000", "160532.079000", "160532.083000", "160532.086000", "160532.089000", "160532.093000", "160532.096000", "160532.099000", "160532.103000", "160532.106000", "160532.110000", "160532.113000", "160532.117000", "160532.120000", "160532.123000", "160532.127000", "160532.130000", "160532.133000", "160532.137000", "160532.140000", "160532.143000", "160532.147000", "160532.150000", "160537.212000", "160537.216000", "160537.220000", "160537.223000"],
      "InstanceCreationTime": ["160212.106000", "160212.109000", "160212.117000", "160212.120000", "160212.123000", "160212.126000", "160212.130000", "160212.133000", "160212.136000", "160212.140000", "160212.143000", "160212.146000", "160212.149000", "160212.153000", "160212.156000", "160212.159000", "160212.162000", "160212.166000", "160212.169000", "160212.172000", "160212.175000", "160212.179000", "160212.182000", "160212.185000", "160212.189000", "160232.062000", "160232.066000", "160232.069000", "160232.072000", "160232.075000", "160232.079000", "160232.082000", "160232.085000", "160232.089000", "160232.092000", "160232.095000", "160232.098000", "160232.102000", "160232.105000", "160232.117000", "160232.120000", "160232.123000", "160232.126000", "160232.130000", "160232.133000", "160252.062000", "160252.066000", "160252.069000", "160252.072000", "160252.076000", "160252.079000", "160252.098000", "160252.101000", "160252.104000", "160252.108000", "160252.111000", "160252.114000", "160252.118000", "160252.121000", "160252.124000", "160252.127000", "160252.137000", "160252.140000", "160252.143000", "160252.147000", "160312.062000", "160312.066000", "160312.069000", "160312.072000", "160312.076000", "160312.079000", "160312.082000", "160312.086000", "160312.089000", "160312.092000", "160312.096000", "160312.099000", "160312.102000", "160312.106000", "160312.109000", "160312.113000", "160312.116000", "160312.119000", "160312.122000", "160312.126000", "160312.129000", "160332.063000", "160332.067000", "160332.070000", "160332.073000", "160332.077000", "160332.080000", "160332.083000", "160332.087000", "160332.090000", "160332.093000", "160332.097000", "160332.104000", "160332.108000", "160332.111000", "160332.114000", "160332.117000", "160332.121000", "160332.124000", "160332.127000", "160332.131000", "160412.063000", "160412.067000", "160412.070000", "160412.074000", "160412.077000", "160412.080000", "160412.084000", "160412.088000", "160412.095000", "160412.098000", "160412.102000", "160412.105000", "160412.108000", "160412.112000", "160412.115000", "160412.118000", "160412.122000", "160412.125000", "160412.128000", "160412.132000", "160412.135000", "160412.138000", "160412.141000", "160412.145000", "160412.155000", "160412.159000", "160452.062000", "160452.066000", "160452.069000", "160452.072000", "160452.076000", "160452.079000", "160452.083000", "160452.086000", "160452.089000", "160452.093000", "160452.096000", "160452.099000", "160452.103000", "160452.106000", "160452.109000", "160452.113000", "160452.116000", "160452.119000", "160452.123000", "160452.126000", "160452.130000", "160452.133000", "160452.136000", "160452.139000", "160452.143000", "160452.146000", "160452.155000", "160532.062000", "160532.066000", "160532.069000", "160532.073000", "160532.076000", "160532.079000", "160532.083000", "160532.086000", "160532.089000", "160532.093000", "160532.096000", "160532.099000", "160532.103000", "160532.106000", "160532.110000", "160532.113000", "160532.117000", "160532.120000", "160532.123000", "160532.127000", "160532.130000", "160532.133000", "160532.137000", "160532.140000", "160532.143000", "160532.147000", "160532.150000", "160537.212000", "160537.216000", "160537.220000", "160537.223000"],
      "InstanceNumber": [1, 2, 3, 4, 5, 6, 7, 8, 9, 10, 11, 12, 13, 14, 15, 16, 17, 18, 19, 20, 21, 22, 23, 24, 25, 26, 27, 28, 29, 30, 31, 32, 33, 34, 35, 36, 37, 38, 39, 40, 41, 42, 43, 44, 45, 46, 47, 48, 49, 50, 51, 52, 53, 54, 55, 56, 57, 58, 59, 60, 61, 62, 63, 64, 65, 66, 67, 68, 69, 70, 71, 72, 73, 74, 75, 76, 77, 78, 79, 80, 81, 82, 83, 84, 85, 86, 87, 88, 89, 90, 91, 92, 93, 94, 95, 96, 97, 98, 99, 100, 101, 102, 103, 104, 105, 106, 107, 108, 109, 110, 111, 112, 113, 114, 115, 116, 117, 118, 119, 120, 121, 122, 123, 124, 125, 126, 127, 128, 129, 130, 131, 132, 133, 134, 135, 136, 137, 138, 139, 140, 141, 142, 143, 144, 145, 146, 147, 148, 149, 150, 151, 152, 153, 154, 155, 156, 157, 158, 159, 160, 161, 162, 163, 164, 165, 166, 167, 168, 169, 170, 171, 172, 173, 174, 175, 176, 177, 178, 179, 180, 181, 182, 183, 184, 185, 186, 187, 188, 189, 190],
      "LargestImagePixelValue": [43526, 41794, 41345, 39369, 40023, 41531, 41319, 41017, 41227, 40734, 39693, 41258, 41099, 41239, 41428, 41501, 41295, 41450, 41341, 41101, 40774, 41202, 40680, 40708, 40951, 40368, 41121, 41923, 41146, 41374, 41128, 40550, 40622, 41498, 41234, 40596, 41190, 41328, 40629, 41611, 41252, 41092, 41395, 41041, 41550, 41587, 40965, 40724, 41260, 40650, 41087, 41502, 40667, 41381, 40241, 40924, 41356, 41057, 41458, 40954, 41138, 41107, 41148, 41614, 41600, 40541, 41292, 40254, 41328, 41967, 41330, 41636, 41431, 40403, 41355, 40932, 40299, 41272, 40612, 41200, 42111, 41286, 41168, 41384, 40872, 41396, 40779, 40968, 41601, 40754, 41612, 41039, 41408, 41812, 41084, 41277, 41191, 40423, 40801, 40788, 41234, 40773, 41661, 40789, 41480, 41648, 40763, 41497, 40674, 42304, 41069, 41734, 41792, 41878, 40839, 42217, 42624, 41459, 42637, 42062, 41724, 41858, 42220, 42426, 40067, 41595, 41482, 41190, 41310, 41623, 41360, 41880, 41811, 42247, 41502, 41302, 40426, 41790, 41691, 42067, 41444, 41316, 42024, 41739, 42175, 41833, 41950, 41515, 42242, 41916, 42032, 41506, 41636, 42043, 41623, 41934, 42020, 41417, 41347, 41943, 41167, 41578, 42132, 41075, 41596, 41005, 39187, 41004, 40932, 40910, 41685, 41109, 41343, 41120, 40606, 41769, 41138, 41731, 41776, 41211, 41823, 41506, 41510, 41606, 41441, 41162, 41573, 41110, 40898, 41614],
      "WindowCenter": [10369.0, 10310.0, 10282.0, 10247.0, 10257.0, 10289.0, 10268.0, 10240.0, 10235.0, 10229.0, 10217.0, 10211.0, 10182.0, 10176.0, 10197.0, 10217.0, 10218.0, 10222.0, 10234.0, 10243.0, 10237.0, 10241.0, 10251.0, 10254.0, 10255.0, 10241.0, 10255.0, 10280.0, 10277.0, 10261.0, 10247.0, 10213.0, 10247.0, 10296.0, 10279.0, 10243.0, 10219.0, 10199.0, 10186.0, 10210.0, 10208.0, 10209.0, 10209.0, 10208.0, 10228.0, 10253.0, 10263.0, 10256.0, 10245.0, 10241.0, 10241.0, 10256.0, 10261.0, 10276.0, 10266.0, 10254.0, 10237.0, 10220.0, 10221.0, 10220.0, 10218.0, 10218.0, 10224.0, 10224.0, 10230.0, 10226.0, 10252.0, 10280.0, 10296.0, 10279.0, 10237.0, 10225.0, 10219.0, 10222.0, 10251.0, 10228.0, 10230.0, 10251.0, 10232.0, 10226.0, 10227.0, 10216.0, 10202.0, 10206.0, 10215.0, 10224.0, 10230.0, 10229.0, 10226.0, 10220.0, 10225.0, 10224.0, 10223.0, 10230.0, 10243.0, 10252.0, 10253.0, 10233.0, 10236.0, 10238.0, 10236.0, 10238.0, 10249.0, 10246.0, 10256.0, 10272.0, 10266.0, 10260.0, 10232.0, 10223.0, 10211.0, 10230.0, 10253.0, 10255.0, 10229.0, 10220.0, 10217.0, 10222.0, 10251.0, 10244.0, 10256.0, 10254.0, 10252.0, 10229.0, 10177.0, 10196.0, 10222.0, 10239.0, 10234.0, 10217.0, 10193.0, 10185.0, 10226.0, 10260.0, 10261.0, 10272.0, 10260.0, 10231.0, 10206.0, 10221.0, 10213.0, 10184.0, 10157.0, 10152.0, 10187.0, 10197.0, 10190.0, 10181.0, 10207.0, 10238.0, 10251.0, 10251.0, 10251.0, 10239.0, 10211.0, 10199.0, 10213.0, 10224.0, 10231.0, 10246.0, 10251.0, 10257.0, 10264.0, 10237.0, 10232.0, 10243.0, 10248.0, 10269.0, 10232.0, 10205.0, 10213.0, 10227.0, 10249.0, 10259.0, 10235.0, 10224.0, 10213.0, 10213.0, 10222.0, 10222.0, 10206.0, 10196.0, 10209.0, 10227.0, 10222.0, 10209.0, 10214.0, 10222.0, 10224.0, 10259.0],
      "WindowWidth": [22428.0, 22252.0, 22164.0, 22076.0, 22086.0, 22149.0, 22102.0, 22040.0, 22022.0, 22008.0, 21984.0, 21963.0, 21900.0, 21885.0, 21932.0, 21980.0, 21984.0, 21991.0, 22018.0, 22039.0, 22026.0, 22034.0, 22057.0, 22067.0, 22067.0, 22038.0, 22066.0, 22122.0, 22121.0, 22082.0, 22052.0, 21975.0, 22050.0, 22159.0, 22124.0, 22044.0, 21984.0, 21938.0, 21913.0, 21961.0, 21961.0, 21961.0, 21963.0, 21960.0, 22008.0, 22062.0, 22091.0, 22074.0, 22044.0, 22036.0, 22036.0, 22069.0, 22087.0, 22119.0, 22101.0, 22069.0, 22028.0, 21993.0, 21993.0, 21994.0, 21986.0, 21984.0, 21997.0, 21999.0, 22011.0, 22007.0, 22064.0, 22132.0, 22167.0, 22127.0, 22034.0, 22002.0, 21991.0, 22000.0, 22061.0, 22010.0, 22018.0, 22063.0, 22022.0, 22004.0, 22002.0, 21982.0, 21949.0, 21956.0, 21979.0, 21997.0, 22015.0, 22011.0, 22003.0, 21994.0, 22001.0, 21997.0, 21992.0, 22009.0, 22044.0, 22065.0, 22067.0, 22024.0, 22029.0, 22035.0, 22029.0, 22036.0, 22053.0, 22052.0, 22071.0, 22106.0, 22098.0, 22079.0, 22020.0, 21993.0, 21971.0, 22011.0, 22063.0, 22067.0, 22013.0, 21989.0, 21978.0, 21994.0, 22058.0, 22043.0, 22067.0, 22065.0, 22056.0, 22008.0, 21896.0, 21926.0, 21990.0, 22029.0, 22022.0, 21980.0, 21930.0, 21907.0, 21999.0, 22076.0, 22078.0, 22115.0, 22085.0, 22007.0, 21949.0, 21984.0, 21967.0, 21903.0, 21841.0, 21828.0, 21904.0, 21934.0, 21918.0, 21898.0, 21949.0, 22022.0, 22054.0, 22054.0, 22055.0, 22027.0, 21965.0, 21936.0, 21968.0, 21996.0, 22011.0, 22044.0, 22058.0, 22069.0, 22083.0, 22028.0, 22013.0, 22039.0, 22056.0, 22096.0, 22013.0, 21954.0, 21967.0, 22004.0, 22054.0, 22077.0, 22027.0, 21993.0, 21968.0, 21967.0, 21989.0, 21989.0, 21954.0, 21931.0, 21958.0, 21999.0, 21992.0, 21964.0, 21974.0, 21994.0, 22001.0, 22073.0]
    },
    "slices": {}
  }
}