{
  "AcquisitionMatrixPE": 104,
  "AcquisitionNumber": 1,
  "AcquisitionTime": "16:00:53.625000",
  "BandwidthPerPixelPhaseEncode": 17.17,
  "BaseResolution": 104,
  "BodyPartExamined": "BRAIN",
  "CoilString": "HC1-7;NC1_2",
  "ConsistencyInfo": "N4_VE11C_LATEST_20160120",
  "ConversionSoftware": "dcm2niix",
  "ConversionSoftwareVersion": "v1.0.20190902",
  "DerivedVendorReportedEchoSpacing": 0.000560011,
  "DeviceSerialNumber": "167006",
  "DwellTime": 2.1e-06,
  "EchoTime": 0.037,
  "EchoTrainLength": 104,
  "EffectiveEchoSpacing": 0.000560011,
  "FlipAngle": 52,
  "HeudiconvVersion": "0.10.0",
  "ImageComments": "Unaliased_MB4_PE3_LB",
  "ImageOrientationPatientDICOM": [0.999429, -0.0298643, 0.0157796, 0.0333291, 0.947758, -0.317245],
  "ImageType": [
    "ORIGINAL",
    "PRIMARY",
    "P",
    "MB",
    "ND",
    "MOSAIC"
],
  "ImagingFrequency": 123.259,
  "InPlanePhaseEncodingDirectionDICOM": "COL",
  "InstitutionAddress": "Chemin_Queen-Mary_4565_Montreal_District_CA_H3W_1W5",
  "InstitutionName": "IUGM",
  "InstitutionalDepartmentName": "Department",
  "MRAcquisitionType": "2D",
  "MagneticFieldStrength": 3,
  "Manufacturer": "Siemens",
  "ManufacturersModelName": "Prisma_fit",
  "Modality": "MR",
  "MultibandAccelerationFactor": 4,
  "PartialFourier": 1,
  "PatientPosition": "HFS",
  "PercentPhaseFOV": 100,
  "PhaseEncodingDirection": "j",
  "PhaseEncodingSteps": 104,
  "PhaseResolution": 1,
  "PixelBandwidth": 2290,
  "ProcedureStepDescription": "memory_things",
  "ProtocolName": "func_task-things_run-5",
  "PulseSequenceDetails": "%CustomerSeq%_cmrr_mbep2d_bold",
  "ReceiveCoilActiveElements": "HC1-7;NC1,2",
  "ReceiveCoilName": "HeadNeck_64",
  "ReconMatrixPE": 104,
  "RepetitionTime": 1.49,
  "SAR": 0.0334012,
  "ScanOptions": "FS",
  "ScanningSequence": "EP",
  "SequenceName": "epfid2d1_104",
  "SequenceVariant": "SK_SS",
  "SeriesDescription": "func_task-things_run-5",
  "SeriesNumber": 23,
  "ShimSetting": [624, -7247, -8817, 610, 1, -186, -54, -7],
  "SliceThickness": 2,
  "SliceTiming": [0, 0.7825, 0.0975, 0.8825, 0.195, 0.98, 0.2925, 1.0775, 0.3925, 1.175, 0.49, 1.2725, 0.5875, 1.37, 0.685, 0, 0.7825, 0.0975, 0.8825, 0.195, 0.98, 0.2925, 1.0775, 0.3925, 1.175, 0.49, 1.2725, 0.5875, 1.37, 0.685, 0, 0.7825, 0.0975, 0.8825, 0.195, 0.98, 0.2925, 1.0775, 0.3925, 1.175, 0.49, 1.2725, 0.5875, 1.37, 0.685, 0, 0.7825, 0.0975, 0.8825, 0.195, 0.98, 0.2925, 1.0775, 0.3925, 1.175, 0.49, 1.2725, 0.5875, 1.37, 0.685],
  "SoftwareVersions": "syngo_MR_E11",
  "SpacingBetweenSlices": 2,
  "StationName": "MRC35049",
  "TaskName": "things",
  "TotalReadoutTime": 0.0576811,
  "TxRefAmp": 228.364,
  "WipMemBlock": "d8c29c0a-2819-4245-ba6b-d546c3847256||Sequence: R016 ve11c/master r/e634e98; Dec 19 2017 11:00:25 by eja",
  "dcmmeta_affine": [
    [-1.9988588094711304, 0.06665823608636856, 0.010961816646158695, 103.72669219970703],
    [0.05972859263420105, 1.8955157995224, -0.6351790428161621, -68.99198150634766],
    [0.03155910223722458, 0.6344892382621765, 1.8964250087738037, -64.30989837646484],
    [0.0, 0.0, 0.0, 1.0]
],
  "dcmmeta_reorient_transform": [
    [0.0, -1.0, 0.0, 103.0],
    [1.0, 0.0, 0.0, 0.0],
    [0.0, 0.0, 1.0, 0.0],
    [0.0, 0.0, 0.0, 1.0]
],
  "dcmmeta_shape": [104, 104, 60, 190],
  "dcmmeta_slice_dim": 2,
  "dcmmeta_version": 0.6,
  "global": {
    "const": {
      "AcquisitionMatrix": [104, 0, 0, 104],
      "AngioFlag": "N",
      "BitsAllocated": 16,
      "BitsStored": 16,
      "BodyPartExamined": "BRAIN",
      "Columns": 832,
      "EchoNumbers": 1,
      "EchoTime": 37.0,
      "EchoTrainLength": 104,
      "FlipAngle": 52.0,
      "HighBit": 15,
      "ImageOrientationPatient": [0.99942940200347, -0.0298642956169, 0.01577955190428, 0.03332911726313, 0.94775789497796, -0.3172446098036],
      "ImagePositionPatient": [-862.44069450946, -794.47268241683, 220.50905649861],
      "ImageType": [
        "ORIGINAL",
        "PRIMARY",
        "P",
        "MB",
        "ND",
        "MOSAIC"
],
      "ImagedNucleus": "1H",
      "ImagingFrequency": 123.259068,
      "InPlanePhaseEncodingDirection": "COL",
      "LargestImagePixelValue": 4095,
      "MRAcquisitionType": "2D",
      "MagneticFieldStrength": 3.0,
      "Manufacturer": "SIEMENS",
      "ManufacturerModelName": "Prisma_fit",
      "Modality": "MR",
      "NumberOfAverages": 1.0,
      "NumberOfPhaseEncodingSteps": 104,
      "PercentPhaseFieldOfView": 100.0,
      "PercentSampling": 100.0,
      "PerformedProcedureStepStartTime": "141829.212000",
      "PhotometricInterpretation": "MONOCHROME2",
      "PixelBandwidth": 2290.0,
      "PixelRepresentation": 0,
      "PixelSpacing": [2.0, 2.0],
      "ProtocolName": "func_task-things_run-5",
      "RepetitionTime": 1490.0,
      "RescaleIntercept": -4096.0,
      "RescaleSlope": 2.0,
      "RescaleType": "US",
      "Rows": 832,
      "SAR": 0.03340115777615,
      "SamplesPerPixel": 1,
      "ScanOptions": "FS",
      "ScanningSequence": "EP",
      "SequenceName": "epfid2d1_104",
      "SequenceVariant": [
        "SK",
        "SS"
],
      "SeriesDescription": "func_task-things_run-5",
      "SeriesNumber": 23,
      "SeriesTime": "160212.225000",
      "SliceLocation": -38.499796889028,
      "SliceThickness": 2.0,
      "SmallestImagePixelValue": 0,
      "SoftwareVersions": "syngo MR E11",
      "SpacingBetweenSlices": 2.0000000481654,
      "SpecificCharacterSet": "ISO_IR 100",
      "StudyID": "1",
      "StudyTime": "141829.125000",
      "TransmitCoilName": "Body",
      "VariableFlipAngleFlag": "N",
      "WindowCenterWidthExplanation": "Algo1",
      "dBdt": 0.0},
    "slices": {}
  },
  "time": {
    "samples": {
      "AcquisitionNumber": [1, 2, 3, 4, 5, 6, 7, 8, 9, 10, 11, 12, 13, 14, 15, 16, 17, 18, 19, 20, 21, 22, 23, 24, 25, 26, 27, 28, 29, 30, 31, 32, 33, 34, 35, 36, 37, 38, 39, 40, 41, 42, 43, 44, 45, 46, 47, 48, 49, 50, 51, 52, 53, 54, 55, 56, 57, 58, 59, 60, 61, 62, 63, 64, 65, 66, 67, 68, 69, 70, 71, 72, 73, 74, 75, 76, 77, 78, 79, 80, 81, 82, 83, 84, 85, 86, 87, 88, 89, 90, 91, 92, 93, 94, 95, 96, 97, 98, 99, 100, 101, 102, 103, 104, 105, 106, 107, 108, 109, 110, 111, 112, 113, 114, 115, 116, 117, 118, 119, 120, 121, 122, 123, 124, 125, 126, 127, 128, 129, 130, 131, 132, 133, 134, 135, 136, 137, 138, 139, 140, 141, 142, 143, 144, 145, 146, 147, 148, 149, 150, 151, 152, 153, 154, 155, 156, 157, 158, 159, 160, 161, 162, 163, 164, 165, 166, 167, 168, 169, 170, 171, 172, 173, 174, 175, 176, 177, 178, 179, 180, 181, 182, 183, 184, 185, 186, 187, 188, 189, 190],
      "AcquisitionTime": ["160053.625000", "160055.115000", "160056.605000", "160058.095000", "160059.585000", "160101.075000", "160102.565000", "160104.055000", "160105.545000", "160107.035000", "160108.525000", "160110.015000", "160111.505000", "160112.995000", "160114.485000", "160115.975000", "160117.465000", "160118.955000", "160120.445000", "160121.935000", "160123.425000", "160124.915000", "160126.405000", "160127.895000", "160129.385000", "160130.875000", "160132.365000", "160133.855000", "160135.345000", "160136.835000", "160138.325000", "160139.815000", "160141.305000", "160142.795000", "160144.285000", "160145.775000", "160147.265000", "160148.755000", "160150.245000", "160151.735000", "160153.225000", "160154.715000", "160156.205000", "160157.695000", "160159.185000", "160200.675000", "160202.165000", "160203.655000", "160205.145000", "160206.635000", "160208.125000", "160209.615000", "160211.105000", "160212.595000", "160214.085000", "160215.575000", "160217.065000", "160218.555000", "160220.045000", "160221.535000", "160223.025000", "160224.515000", "160226.005000", "160227.495000", "160228.985000", "160230.475000", "160231.965000", "160233.455000", "160234.945000", "160236.435000", "160237.925000", "160239.415000", "160240.905000", "160242.395000", "160243.885000", "160245.375000", "160246.865000", "160248.355000", "160249.845000", "160251.335000", "160252.825000", "160254.315000", "160255.805000", "160257.295000", "160258.785000", "160300.275000", "160301.765000", "160303.255000", "160304.745000", "160306.235000", "160307.725000", "160309.215000", "160310.705000", "160312.195000", "160313.685000", "160315.175000", "160316.665000", "160318.155000", "160319.645000", "160321.135000", "160322.625000", "160324.115000", "160325.605000", "160327.095000", "160328.585000", "160330.075000", "160331.565000", "160333.055000", "160334.545000", "160336.035000", "160337.525000", "160339.015000", "160340.505000", "160341.995000", "160343.485000", "160344.975000", "160346.465000", "160347.955000", "160349.445000", "160350.935000", "160352.425000", "160353.915000", "160355.405000", "160356.895000", "160358.385000", "160359.875000", "160401.365000", "160402.855000", "160404.345000", "160405.835000", "160407.325000", "160408.815000", "160410.305000", "160411.795000", "160413.285000", "160414.775000", "160416.265000", "160417.755000", "160419.245000", "160420.735000", "160422.225000", "160423.715000", "160425.205000", "160426.695000", "160428.185000", "160429.675000", "160431.165000", "160432.655000", "160434.145000", "160435.635000", "160437.125000", "160438.615000", "160440.105000", "160441.595000", "160443.085000", "160444.575000", "160446.065000", "160447.555000", "160449.045000", "160450.535000", "160452.025000", "160453.515000", "160455.005000", "160456.495000", "160457.985000", "160459.475000", "160500.965000", "160502.455000", "160503.945000", "160505.435000", "160506.925000", "160508.415000", "160509.905000", "160511.395000", "160512.885000", "160514.375000", "160515.865000", "160517.355000", "160518.845000", "160520.335000", "160521.825000", "160523.315000", "160524.805000", "160526.295000", "160527.785000", "160529.275000", "160530.765000", "160532.255000", "160533.745000", "160535.235000"],
      "ContentTime": ["160212.227000", "160212.230000", "160212.233000", "160212.235000", "160212.238000", "160212.245000", "160212.247000", "160212.250000", "160212.252000", "160212.255000", "160212.257000", "160212.260000", "160212.262000", "160212.265000", "160212.267000", "160212.270000", "160212.272000", "160212.275000", "160212.277000", "160212.280000", "160212.282000", "160212.285000", "160212.287000", "160212.290000", "160212.292000", "160232.168000", "160232.170000", "160232.173000", "160232.175000", "160232.178000", "160232.180000", "160232.183000", "160232.185000", "160232.188000", "160232.190000", "160232.193000", "160232.195000", "160232.198000", "160232.200000", "160232.203000", "160232.205000", "160232.208000", "160232.210000", "160232.212000", "160232.215000", "160252.190000", "160252.193000", "160252.195000", "160252.198000", "160252.200000", "160252.203000", "160252.205000", "160252.208000", "160252.210000", "160252.213000", "160252.215000", "160252.218000", "160252.220000", "160252.222000", "160252.225000", "160252.227000", "160252.230000", "160252.232000", "160252.235000", "160252.237000", "160312.165000", "160312.167000", "160312.177000", "160312.179000", "160312.182000", "160312.184000", "160312.187000", "160312.189000", "160312.192000", "160312.194000", "160312.197000", "160312.199000", "160312.202000", "160312.204000", "160312.207000", "160312.209000", "160312.212000", "160312.214000", "160312.217000", "160312.219000", "160312.222000", "160332.176000", "160332.179000", "160332.181000", "160332.184000", "160332.187000", "160332.189000", "160332.192000", "160332.194000", "160332.196000", "160332.199000", "160332.201000", "160332.204000", "160332.206000", "160332.209000", "160332.211000", "160332.214000", "160332.216000", "160332.219000", "160332.221000", "160332.224000", "160412.201000", "160412.203000", "160412.207000", "160412.209000", "160412.212000", "160412.214000", "160412.217000", "160412.220000", "160412.223000", "160412.226000", "160412.228000", "160412.231000", "160412.234000", "160412.237000", "160412.240000", "160412.243000", "160412.245000", "160412.248000", "160412.250000", "160412.253000", "160412.255000", "160412.258000", "160412.261000", "160412.263000", "160412.266000", "160412.268000", "160452.208000", "160452.211000", "160452.213000", "160452.216000", "160452.219000", "160452.221000", "160452.224000", "160452.226000", "160452.229000", "160452.231000", "160452.234000", "160452.237000", "160452.239000", "160452.242000", "160452.244000", "160452.247000", "160452.249000", "160452.252000", "160452.254000", "160452.257000", "160452.259000", "160452.262000", "160452.264000", "160452.267000", "160452.269000", "160452.272000", "160452.275000", "160532.204000", "160532.207000", "160532.210000", "160532.212000", "160532.215000", "160532.217000", "160532.220000", "160532.222000", "160532.225000", "160532.227000", "160532.230000", "160532.233000", "160532.235000", "160532.238000", "160532.240000", "160532.243000", "160532.245000", "160532.248000", "160532.250000", "160532.253000", "160532.255000", "160532.258000", "160532.260000", "160532.263000", "160532.265000", "160532.268000", "160532.270000", "160537.248000", "160537.251000", "160537.253000", "160537.256000"],
      "InstanceCreationTime": ["160212.227000", "160212.230000", "160212.233000", "160212.235000", "160212.238000", "160212.245000", "160212.247000", "160212.250000", "160212.252000", "160212.255000", "160212.257000", "160212.260000", "160212.262000", "160212.265000", "160212.267000", "160212.270000", "160212.272000", "160212.275000", "160212.277000", "160212.280000", "160212.282000", "160212.285000", "160212.287000", "160212.290000", "160212.292000", "160232.168000", "160232.170000", "160232.173000", "160232.175000", "160232.178000", "160232.180000", "160232.183000", "160232.185000", "160232.188000", "160232.190000", "160232.193000", "160232.195000", "160232.198000", "160232.200000", "160232.203000", "160232.205000", "160232.208000", "160232.210000", "160232.212000", "160232.215000", "160252.190000", "160252.193000", "160252.195000", "160252.198000", "160252.200000", "160252.203000", "160252.205000", "160252.208000", "160252.210000", "160252.213000", "160252.215000", "160252.218000", "160252.220000", "160252.222000", "160252.225000", "160252.227000", "160252.230000", "160252.232000", "160252.235000", "160252.237000", "160312.165000", "160312.167000", "160312.177000", "160312.179000", "160312.182000", "160312.184000", "160312.187000", "160312.189000", "160312.192000", "160312.194000", "160312.197000", "160312.199000", "160312.202000", "160312.204000", "160312.207000", "160312.209000", "160312.212000", "160312.214000", "160312.217000", "160312.219000", "160312.222000", "160332.176000", "160332.179000", "160332.181000", "160332.184000", "160332.187000", "160332.189000", "160332.192000", "160332.194000", "160332.196000", "160332.199000", "160332.201000", "160332.204000", "160332.206000", "160332.209000", "160332.211000", "160332.214000", "160332.216000", "160332.219000", "160332.221000", "160332.224000", "160412.201000", "160412.203000", "160412.207000", "160412.209000", "160412.212000", "160412.214000", "160412.217000", "160412.220000", "160412.223000", "160412.226000", "160412.228000", "160412.231000", "160412.234000", "160412.237000", "160412.240000", "160412.243000", "160412.245000", "160412.248000", "160412.250000", "160412.253000", "160412.255000", "160412.258000", "160412.261000", "160412.263000", "160412.266000", "160412.268000", "160452.208000", "160452.211000", "160452.213000", "160452.216000", "160452.219000", "160452.221000", "160452.224000", "160452.226000", "160452.229000", "160452.231000", "160452.234000", "160452.237000", "160452.239000", "160452.242000", "160452.244000", "160452.247000", "160452.249000", "160452.252000", "160452.254000", "160452.257000", "160452.259000", "160452.262000", "160452.264000", "160452.267000", "160452.269000", "160452.272000", "160452.275000", "160532.204000", "160532.207000", "160532.210000", "160532.212000", "160532.215000", "160532.217000", "160532.220000", "160532.222000", "160532.225000", "160532.227000", "160532.230000", "160532.233000", "160532.235000", "160532.238000", "160532.240000", "160532.243000", "160532.245000", "160532.248000", "160532.250000", "160532.253000", "160532.255000", "160532.258000", "160532.260000", "160532.263000", "160532.265000", "160532.268000", "160532.270000", "160537.248000", "160537.251000", "160537.253000", "160537.256000"],
      "InstanceNumber": [1, 2, 3, 4, 5, 6, 7, 8, 9, 10, 11, 12, 13, 14, 15, 16, 17, 18, 19, 20, 21, 22, 23, 24, 25, 26, 27, 28, 29, 30, 31, 32, 33, 34, 35, 36, 37, 38, 39, 40, 41, 42, 43, 44, 45, 46, 47, 48, 49, 50, 51, 52, 53, 54, 55, 56, 57, 58, 59, 60, 61, 62, 63, 64, 65, 66, 67, 68, 69, 70, 71, 72, 73, 74, 75, 76, 77, 78, 79, 80, 81, 82, 83, 84, 85, 86, 87, 88, 89, 90, 91, 92, 93, 94, 95, 96, 97, 98, 99, 100, 101, 102, 103, 104, 105, 106, 107, 108, 109, 110, 111, 112, 113, 114, 115, 116, 117, 118, 119, 120, 121, 122, 123, 124, 125, 126, 127, 128, 129, 130, 131, 132, 133, 134, 135, 136, 137, 138, 139, 140, 141, 142, 143, 144, 145, 146, 147, 148, 149, 150, 151, 152, 153, 154, 155, 156, 157, 158, 159, 160, 161, 162, 163, 164, 165, 166, 167, 168, 169, 170, 171, 172, 173, 174, 175, 176, 177, 178, 179, 180, 181, 182, 183, 184, 185, 186, 187, 188, 189, 190],
      "WindowCenter": [4820.0, 4820.0, 4820.0, 4820.0, 4824.0, 4794.0, 4818.0, 4808.0, 4782.0, 4816.0, 4822.0, 4820.0, 4816.0, 4818.0, 4792.0, 4816.0, 4816.0, 4820.0, 4818.0, 4816.0, 4822.0, 4818.0, 4816.0, 4816.0, 4818.0, 4818.0, 4818.0, 4820.0, 4818.0, 4824.0, 4820.0, 4818.0, 4818.0, 4820.0, 4818.0, 4822.0, 4820.0, 4818.0, 4820.0, 4818.0, 4818.0, 4820.0, 4818.0, 4814.0, 4816.0, 4816.0, 4820.0, 4818.0, 4820.0, 4820.0, 4818.0, 4818.0, 4794.0, 4822.0, 4818.0, 4818.0, 4818.0, 4818.0, 4820.0, 4818.0, 4818.0, 4822.0, 4818.0, 4816.0, 4818.0, 4846.0, 4816.0, 4818.0, 4818.0, 4816.0, 4820.0, 4818.0, 4818.0, 4820.0, 4816.0, 4814.0, 4818.0, 4822.0, 4816.0, 4820.0, 4822.0, 4818.0, 4818.0, 4822.0, 4818.0, 4818.0, 4818.0, 4816.0, 4822.0, 4822.0, 4820.0, 4818.0, 4818.0, 4822.0, 4818.0, 4816.0, 4818.0, 4818.0, 4818.0, 4816.0, 4818.0, 4816.0, 4818.0, 4816.0, 4816.0, 4816.0, 4820.0, 4822.0, 4820.0, 4820.0, 4818.0, 4816.0, 4816.0, 4818.0, 4820.0, 4814.0, 4816.0, 4816.0, 4822.0, 4818.0, 4818.0, 4818.0, 4822.0, 4818.0, 4818.0, 4822.0, 4818.0, 4818.0, 4814.0, 4814.0, 4816.0, 4818.0, 4818.0, 4818.0, 4824.0, 4820.0, 4818.0, 4810.0, 4818.0, 4820.0, 4818.0, 4816.0, 4818.0, 4818.0, 4816.0, 4816.0, 4820.0, 4816.0, 4820.0, 4818.0, 4814.0, 4812.0, 4816.0, 4816.0, 4818.0, 4814.0, 4818.0, 4818.0, 4818.0, 4818.0, 4816.0, 4820.0, 4816.0, 4820.0, 4816.0, 4816.0, 4816.0, 4820.0, 4812.0, 4820.0, 4816.0, 4820.0, 4818.0, 4816.0, 4816.0, 4820.0, 4818.0, 4818.0, 4816.0, 4818.0, 4818.0, 4818.0, 4820.0, 4816.0, 4820.0, 4818.0, 4816.0, 4814.0, 4814.0, 4816.0],
      "WindowWidth": [18612.0, 18610.0, 18626.0, 18602.0, 18574.0, 18554.0, 18622.0, 18610.0, 18576.0, 18626.0, 18618.0, 18610.0, 18600.0, 18590.0, 18558.0, 18606.0, 18608.0, 18614.0, 18624.0, 18618.0, 18618.0, 18626.0, 18610.0, 18608.0, 18612.0, 18604.0, 18592.0, 18616.0, 18614.0, 18620.0, 18624.0, 18614.0, 18590.0, 18610.0, 18620.0, 18622.0, 18620.0, 18620.0, 18608.0, 18616.0, 18612.0, 18612.0, 18618.0, 18614.0, 18600.0, 18612.0, 18624.0, 18616.0, 18630.0, 18610.0, 18618.0, 18610.0, 18556.0, 18614.0, 18608.0, 18616.0, 18620.0, 18610.0, 18624.0, 18616.0, 18612.0, 18618.0, 18604.0, 18612.0, 18612.0, 18648.0, 18616.0, 18600.0, 18592.0, 18618.0, 18610.0, 18614.0, 18622.0, 18610.0, 18612.0, 18610.0, 18604.0, 18622.0, 18612.0, 18598.0, 18622.0, 18614.0, 18624.0, 18626.0, 18604.0, 18616.0, 18614.0, 18604.0, 18620.0, 18612.0, 18620.0, 18616.0, 18612.0, 18620.0, 18602.0, 18614.0, 18624.0, 18612.0, 18622.0, 18610.0, 18620.0, 18606.0, 18618.0, 18612.0, 18606.0, 18616.0, 18602.0, 18626.0, 18614.0, 18618.0, 18606.0, 18618.0, 18612.0, 18616.0, 18614.0, 18606.0, 18610.0, 18596.0, 18614.0, 18612.0, 18612.0, 18588.0, 18610.0, 18624.0, 18614.0, 18626.0, 18618.0, 18602.0, 18598.0, 18606.0, 18590.0, 18594.0, 18622.0, 18626.0, 18622.0, 18584.0, 18594.0, 18612.0, 18626.0, 18624.0, 18624.0, 18616.0, 18610.0, 18584.0, 18590.0, 18610.0, 18624.0, 18608.0, 18622.0, 18628.0, 18620.0, 18614.0, 18588.0, 18608.0, 18610.0, 18608.0, 18618.0, 18610.0, 18608.0, 18614.0, 18598.0, 18614.0, 18618.0, 18616.0, 18616.0, 18608.0, 18602.0, 18620.0, 18616.0, 18618.0, 18620.0, 18608.0, 18604.0, 18620.0, 18608.0, 18616.0, 18616.0, 18610.0, 18612.0, 18612.0, 18614.0, 18610.0, 18606.0, 18614.0, 18614.0, 18610.0, 18614.0, 18610.0, 18602.0, 18614.0]
    },
    "slices": {}
  }
}