{
  "AcquisitionMatrixPE": 104,
  "AcquisitionNumber": 1,
  "AcquisitionTime": "15:41:37.055000",
  "BandwidthPerPixelPhaseEncode": 17.17,
  "BaseResolution": 104,
  "BodyPartExamined": "BRAIN",
  "CoilString": "HC1-7;NC1_2",
  "ConsistencyInfo": "N4_VE11C_LATEST_20160120",
  "ConversionSoftware": "dcm2niix",
  "ConversionSoftwareVersion": "v1.0.20190902",
  "DerivedVendorReportedEchoSpacing": 0.000560011,
  "DeviceSerialNumber": "167006",
  "DwellTime": 2.1e-06,
  "EchoTime": 0.037,
  "EchoTrainLength": 104,
  "EffectiveEchoSpacing": 0.000560011,
  "FlipAngle": 52,
  "HeudiconvVersion": "0.10.0",
  "ImageComments": "Unaliased_MB4_PE3_LB",
  "ImageOrientationPatientDICOM": [0.999429, -0.0298643, 0.0157796, 0.0333291, 0.947758, -0.317245],
  "ImageType": [
    "ORIGINAL",
    "PRIMARY",
    "M",
    "MB",
    "ND",
    "MOSAIC"
],
  "ImagingFrequency": 123.259,
  "InPlanePhaseEncodingDirectionDICOM": "COL",
  "InstitutionAddress": "Chemin_Queen-Mary_4565_Montreal_District_CA_H3W_1W5",
  "InstitutionName": "IUGM",
  "InstitutionalDepartmentName": "Department",
  "MRAcquisitionType": "2D",
  "MagneticFieldStrength": 3,
  "Manufacturer": "Siemens",
  "ManufacturersModelName": "Prisma_fit",
  "Modality": "MR",
  "MultibandAccelerationFactor": 4,
  "PartialFourier": 1,
  "PatientPosition": "HFS",
  "PercentPhaseFOV": 100,
  "PhaseEncodingDirection": "j",
  "PhaseEncodingSteps": 104,
  "PhaseResolution": 1,
  "PixelBandwidth": 2290,
  "ProcedureStepDescription": "memory_things",
  "ProtocolName": "func_task-things_run-2",
  "PulseSequenceDetails": "%CustomerSeq%_cmrr_mbep2d_bold",
  "ReceiveCoilActiveElements": "HC1-7;NC1,2",
  "ReceiveCoilName": "HeadNeck_64",
  "ReconMatrixPE": 104,
  "RepetitionTime": 1.49,
  "SAR": 0.0334012,
  "ScanOptions": "FS",
  "ScanningSequence": "EP",
  "SequenceName": "epfid2d1_104",
  "SequenceVariant": "SK_SS",
  "SeriesDescription": "func_task-things_run-2",
  "SeriesNumber": 13,
  "ShimSetting": [624, -7247, -8817, 610, 1, -186, -54, -7],
  "SliceThickness": 2,
  "SliceTiming": [0, 0.785, 0.1, 0.8825, 0.1975, 0.98, 0.295, 1.0775, 0.3925, 1.1775, 0.49, 1.275, 0.59, 1.3725, 0.6875, 0, 0.785, 0.1, 0.8825, 0.1975, 0.98, 0.295, 1.0775, 0.3925, 1.1775, 0.49, 1.275, 0.59, 1.3725, 0.6875, 0, 0.785, 0.1, 0.8825, 0.1975, 0.98, 0.295, 1.0775, 0.3925, 1.1775, 0.49, 1.275, 0.59, 1.3725, 0.6875, 0, 0.785, 0.1, 0.8825, 0.1975, 0.98, 0.295, 1.0775, 0.3925, 1.1775, 0.49, 1.275, 0.59, 1.3725, 0.6875],
  "SoftwareVersions": "syngo_MR_E11",
  "SpacingBetweenSlices": 2,
  "StationName": "MRC35049",
  "TaskName": "things",
  "TotalReadoutTime": 0.0576811,
  "TxRefAmp": 228.364,
  "WipMemBlock": "a45edbc0-968f-473e-9e4c-2e2fbc681be2||Sequence: R016 ve11c/master r/e634e98; Dec 19 2017 11:00:25 by eja",
  "dcmmeta_affine": [
    [-1.9988588094711304, 0.06665823608636856, 0.010961816646158695, 103.72669219970703],
    [0.05972859263420105, 1.8955157995224, -0.6351790428161621, -68.99198150634766],
    [0.03155910223722458, 0.6344892382621765, 1.8964250087738037, -64.30989837646484],
    [0.0, 0.0, 0.0, 1.0]
],
  "dcmmeta_reorient_transform": [
    [0.0, -1.0, 0.0, 103.0],
    [1.0, 0.0, 0.0, 0.0],
    [0.0, 0.0, 1.0, 0.0],
    [0.0, 0.0, 0.0, 1.0]
],
  "dcmmeta_shape": [104, 104, 60, 190],
  "dcmmeta_slice_dim": 2,
  "dcmmeta_version": 0.6,
  "global": {
    "const": {
      "AcquisitionMatrix": [104, 0, 0, 104],
      "AngioFlag": "N",
      "BitsAllocated": 16,
      "BitsStored": 16,
      "BodyPartExamined": "BRAIN",
      "Columns": 832,
      "EchoNumbers": 1,
      "EchoTime": 37.0,
      "EchoTrainLength": 104,
      "FlipAngle": 52.0,
      "HighBit": 15,
      "ImageOrientationPatient": [0.99942940200347, -0.0298642956169, 0.01577955190428, 0.03332911726313, 0.94775789497796, -0.3172446098036],
      "ImagePositionPatient": [-862.44069450946, -794.47268241683, 220.50905649861],
      "ImageType": [
        "ORIGINAL",
        "PRIMARY",
        "M",
        "MB",
        "ND",
        "MOSAIC"
],
      "ImagedNucleus": "1H",
      "ImagingFrequency": 123.259061,
      "InPlanePhaseEncodingDirection": "COL",
      "MRAcquisitionType": "2D",
      "MagneticFieldStrength": 3.0,
      "Manufacturer": "SIEMENS",
      "ManufacturerModelName": "Prisma_fit",
      "Modality": "MR",
      "NumberOfAverages": 1.0,
      "NumberOfPhaseEncodingSteps": 104,
      "PercentPhaseFieldOfView": 100.0,
      "PercentSampling": 100.0,
      "PerformedProcedureStepStartTime": "141829.212000",
      "PhotometricInterpretation": "MONOCHROME2",
      "PixelBandwidth": 2290.0,
      "PixelRepresentation": 0,
      "PixelSpacing": [2.0, 2.0],
      "ProtocolName": "func_task-things_run-2",
      "RepetitionTime": 1490.0,
      "Rows": 832,
      "SAR": 0.03340115777615,
      "SamplesPerPixel": 1,
      "ScanOptions": "FS",
      "ScanningSequence": "EP",
      "SequenceName": "epfid2d1_104",
      "SequenceVariant": [
        "SK",
        "SS"
],
      "SeriesDescription": "func_task-things_run-2",
      "SeriesNumber": 13,
      "SeriesTime": "154232.094000",
      "SliceLocation": -38.499796889028,
      "SliceThickness": 2.0,
      "SmallestImagePixelValue": 0,
      "SoftwareVersions": "syngo MR E11",
      "SpacingBetweenSlices": 2.0000000481654,
      "SpecificCharacterSet": "ISO_IR 100",
      "StudyID": "1",
      "StudyTime": "141829.125000",
      "TransmitCoilName": "Body",
      "VariableFlipAngleFlag": "N",
      "WindowCenterWidthExplanation": "Algo1",
      "dBdt": 0.0},
    "slices": {}
  },
  "time": {
    "samples": {
      "AcquisitionNumber": [1, 2, 3, 4, 5, 6, 7, 8, 9, 10, 11, 12, 13, 14, 15, 16, 17, 18, 19, 20, 21, 22, 23, 24, 25, 26, 27, 28, 29, 30, 31, 32, 33, 34, 35, 36, 37, 38, 39, 40, 41, 42, 43, 44, 45, 46, 47, 48, 49, 50, 51, 52, 53, 54, 55, 56, 57, 58, 59, 60, 61, 62, 63, 64, 65, 66, 67, 68, 69, 70, 71, 72, 73, 74, 75, 76, 77, 78, 79, 80, 81, 82, 83, 84, 85, 86, 87, 88, 89, 90, 91, 92, 93, 94, 95, 96, 97, 98, 99, 100, 101, 102, 103, 104, 105, 106, 107, 108, 109, 110, 111, 112, 113, 114, 115, 116, 117, 118, 119, 120, 121, 122, 123, 124, 125, 126, 127, 128, 129, 130, 131, 132, 133, 134, 135, 136, 137, 138, 139, 140, 141, 142, 143, 144, 145, 146, 147, 148, 149, 150, 151, 152, 153, 154, 155, 156, 157, 158, 159, 160, 161, 162, 163, 164, 165, 166, 167, 168, 169, 170, 171, 172, 173, 174, 175, 176, 177, 178, 179, 180, 181, 182, 183, 184, 185, 186, 187, 188, 189, 190],
      "AcquisitionTime": ["154137.055000", "154138.545000", "154140.035000", "154141.525000", "154143.015000", "154144.505000", "154145.995000", "154147.485000", "154148.975000", "154150.465000", "154151.955000", "154153.445000", "154154.935000", "154156.425000", "154157.915000", "154159.405000", "154200.895000", "154202.385000", "154203.875000", "154205.365000", "154206.855000", "154208.345000", "154209.835000", "154211.325000", "154212.815000", "154214.305000", "154215.795000", "154217.285000", "154218.775000", "154220.265000", "154221.755000", "154223.245000", "154224.735000", "154226.225000", "154227.715000", "154229.205000", "154230.695000", "154232.185000", "154233.675000", "154235.165000", "154236.655000", "154238.145000", "154239.635000", "154241.125000", "154242.615000", "154244.105000", "154245.595000", "154247.085000", "154248.575000", "154250.065000", "154251.555000", "154253.045000", "154254.535000", "154256.025000", "154257.515000", "154259.005000", "154300.495000", "154301.985000", "154303.475000", "154304.965000", "154306.455000", "154307.945000", "154309.435000", "154310.925000", "154312.415000", "154313.905000", "154315.395000", "154316.885000", "154318.375000", "154319.865000", "154321.355000", "154322.845000", "154324.335000", "154325.825000", "154327.315000", "154328.805000", "154330.295000", "154331.785000", "154333.275000", "154334.765000", "154336.255000", "154337.745000", "154339.235000", "154340.725000", "154342.215000", "154343.705000", "154345.195000", "154346.685000", "154348.175000", "154349.665000", "154351.155000", "154352.645000", "154354.135000", "154355.625000", "154357.115000", "154358.605000", "154400.095000", "154401.585000", "154403.075000", "154404.565000", "154406.055000", "154407.545000", "154409.035000", "154410.525000", "154412.015000", "154413.505000", "154414.995000", "154416.485000", "154417.975000", "154419.465000", "154420.955000", "154422.445000", "154423.935000", "154425.425000", "154426.915000", "154428.405000", "154429.895000", "154431.385000", "154432.875000", "154434.365000", "154435.855000", "154437.345000", "154438.835000", "154440.325000", "154441.815000", "154443.305000", "154444.795000", "154446.285000", "154447.775000", "154449.265000", "154450.755000", "154452.245000", "154453.735000", "154455.225000", "154456.715000", "154458.205000", "154459.695000", "154501.185000", "154502.675000", "154504.165000", "154505.655000", "154507.145000", "154508.635000", "154510.125000", "154511.615000", "154513.105000", "154514.595000", "154516.085000", "154517.575000", "154519.065000", "154520.555000", "154522.045000", "154523.535000", "154525.025000", "154526.515000", "154528.005000", "154529.495000", "154530.985000", "154532.475000", "154533.965000", "154535.455000", "154536.945000", "154538.435000", "154539.925000", "154541.415000", "154542.905000", "154544.395000", "154545.885000", "154547.375000", "154548.865000", "154550.355000", "154551.845000", "154553.335000", "154554.825000", "154556.315000", "154557.805000", "154559.295000", "154600.785000", "154602.275000", "154603.765000", "154605.255000", "154606.745000", "154608.235000", "154609.725000", "154611.215000", "154612.705000", "154614.195000", "154615.685000", "154617.175000", "154618.665000"],
      "ContentTime": ["154232.097000", "154252.064000", "154252.069000", "154252.072000", "154252.076000", "154252.080000", "154252.084000", "154252.088000", "154252.091000", "154252.109000", "154252.113000", "154252.116000", "154252.119000", "154252.123000", "154252.126000", "154252.130000", "154252.133000", "154252.136000", "154252.140000", "154252.143000", "154252.146000", "154312.063000", "154312.067000", "154312.073000", "154312.076000", "154312.080000", "154312.083000", "154312.086000", "154312.089000", "154312.093000", "154312.096000", "154312.099000", "154312.102000", "154312.106000", "154312.109000", "154312.112000", "154312.115000", "154312.119000", "154312.122000", "154312.125000", "154312.128000", "154312.132000", "154332.063000", "154332.067000", "154332.070000", "154332.073000", "154332.077000", "154332.080000", "154332.083000", "154332.087000", "154332.090000", "154332.093000", "154332.115000", "154332.118000", "154332.121000", "154332.124000", "154332.128000", "154332.131000", "154332.134000", "154332.138000", "154332.141000", "154332.144000", "154352.062000", "154352.066000", "154352.069000", "154352.073000", "154352.076000", "154352.079000", "154352.089000", "154352.092000", "154352.095000", "154352.099000", "154352.102000", "154352.105000", "154352.109000", "154352.112000", "154352.115000", "154352.119000", "154352.122000", "154352.125000", "154352.129000", "154352.132000", "154352.135000", "154412.063000", "154412.066000", "154412.070000", "154412.073000", "154412.076000", "154412.080000", "154412.083000", "154412.086000", "154412.090000", "154412.093000", "154412.096000", "154412.100000", "154412.103000", "154412.106000", "154412.110000", "154412.113000", "154412.117000", "154412.120000", "154412.123000", "154412.127000", "154452.062000", "154452.066000", "154452.069000", "154452.072000", "154452.076000", "154452.079000", "154452.083000", "154452.086000", "154452.089000", "154452.093000", "154452.096000", "154452.099000", "154452.103000", "154452.106000", "154452.109000", "154452.113000", "154452.116000", "154452.119000", "154452.123000", "154452.126000", "154452.129000", "154452.133000", "154452.136000", "154452.139000", "154452.143000", "154452.146000", "154452.149000", "154532.063000", "154532.067000", "154532.070000", "154532.073000", "154532.076000", "154532.080000", "154532.083000", "154532.087000", "154532.090000", "154532.094000", "154532.097000", "154532.100000", "154532.103000", "154532.107000", "154532.110000", "154532.113000", "154532.117000", "154532.120000", "154532.123000", "154532.126000", "154532.130000", "154532.145000", "154532.148000", "154532.151000", "154532.154000", "154532.158000", "154532.161000", "154612.062000", "154612.066000", "154612.069000", "154612.072000", "154612.076000", "154612.079000", "154612.082000", "154612.086000", "154612.089000", "154612.092000", "154612.096000", "154612.099000", "154612.102000", "154612.106000", "154612.109000", "154612.112000", "154612.115000", "154612.119000", "154612.122000", "154612.125000", "154612.129000", "154612.132000", "154612.135000", "154612.139000", "154612.142000", "154612.145000", "154612.148000", "154620.394000", "154620.398000", "154620.401000", "154620.405000", "154620.408000", "154620.412000"],
      "InstanceCreationTime": ["154232.097000", "154252.064000", "154252.069000", "154252.072000", "154252.076000", "154252.080000", "154252.084000", "154252.088000", "154252.091000", "154252.109000", "154252.113000", "154252.116000", "154252.119000", "154252.123000", "154252.126000", "154252.130000", "154252.133000", "154252.136000", "154252.140000", "154252.143000", "154252.146000", "154312.063000", "154312.067000", "154312.073000", "154312.076000", "154312.080000", "154312.083000", "154312.086000", "154312.089000", "154312.093000", "154312.096000", "154312.099000", "154312.102000", "154312.106000", "154312.109000", "154312.112000", "154312.115000", "154312.119000", "154312.122000", "154312.125000", "154312.128000", "154312.132000", "154332.063000", "154332.067000", "154332.070000", "154332.073000", "154332.077000", "154332.080000", "154332.083000", "154332.087000", "154332.090000", "154332.093000", "154332.115000", "154332.118000", "154332.121000", "154332.124000", "154332.128000", "154332.131000", "154332.134000", "154332.138000", "154332.141000", "154332.144000", "154352.062000", "154352.066000", "154352.069000", "154352.073000", "154352.076000", "154352.079000", "154352.089000", "154352.092000", "154352.095000", "154352.099000", "154352.102000", "154352.105000", "154352.109000", "154352.112000", "154352.115000", "154352.119000", "154352.122000", "154352.125000", "154352.129000", "154352.132000", "154352.135000", "154412.063000", "154412.066000", "154412.070000", "154412.073000", "154412.076000", "154412.080000", "154412.083000", "154412.086000", "154412.090000", "154412.093000", "154412.096000", "154412.100000", "154412.103000", "154412.106000", "154412.110000", "154412.113000", "154412.117000", "154412.120000", "154412.123000", "154412.127000", "154452.062000", "154452.066000", "154452.069000", "154452.072000", "154452.076000", "154452.079000", "154452.083000", "154452.086000", "154452.089000", "154452.093000", "154452.096000", "154452.099000", "154452.103000", "154452.106000", "154452.109000", "154452.113000", "154452.116000", "154452.119000", "154452.123000", "154452.126000", "154452.129000", "154452.133000", "154452.136000", "154452.139000", "154452.143000", "154452.146000", "154452.149000", "154532.063000", "154532.067000", "154532.070000", "154532.073000", "154532.076000", "154532.080000", "154532.083000", "154532.087000", "154532.090000", "154532.094000", "154532.097000", "154532.100000", "154532.103000", "154532.107000", "154532.110000", "154532.113000", "154532.117000", "154532.120000", "154532.123000", "154532.126000", "154532.130000", "154532.145000", "154532.148000", "154532.151000", "154532.154000", "154532.158000", "154532.161000", "154612.062000", "154612.066000", "154612.069000", "154612.072000", "154612.076000", "154612.079000", "154612.082000", "154612.086000", "154612.089000", "154612.092000", "154612.096000", "154612.099000", "154612.102000", "154612.106000", "154612.109000", "154612.112000", "154612.115000", "154612.119000", "154612.122000", "154612.125000", "154612.129000", "154612.132000", "154612.135000", "154612.139000", "154612.142000", "154612.145000", "154612.148000", "154620.394000", "154620.398000", "154620.401000", "154620.405000", "154620.408000", "154620.412000"],
      "InstanceNumber": [1, 2, 3, 4, 5, 6, 7, 8, 9, 10, 11, 12, 13, 14, 15, 16, 17, 18, 19, 20, 21, 22, 23, 24, 25, 26, 27, 28, 29, 30, 31, 32, 33, 34, 35, 36, 37, 38, 39, 40, 41, 42, 43, 44, 45, 46, 47, 48, 49, 50, 51, 52, 53, 54, 55, 56, 57, 58, 59, 60, 61, 62, 63, 64, 65, 66, 67, 68, 69, 70, 71, 72, 73, 74, 75, 76, 77, 78, 79, 80, 81, 82, 83, 84, 85, 86, 87, 88, 89, 90, 91, 92, 93, 94, 95, 96, 97, 98, 99, 100, 101, 102, 103, 104, 105, 106, 107, 108, 109, 110, 111, 112, 113, 114, 115, 116, 117, 118, 119, 120, 121, 122, 123, 124, 125, 126, 127, 128, 129, 130, 131, 132, 133, 134, 135, 136, 137, 138, 139, 140, 141, 142, 143, 144, 145, 146, 147, 148, 149, 150, 151, 152, 153, 154, 155, 156, 157, 158, 159, 160, 161, 162, 163, 164, 165, 166, 167, 168, 169, 170, 171, 172, 173, 174, 175, 176, 177, 178, 179, 180, 181, 182, 183, 184, 185, 186, 187, 188, 189, 190],
      "LargestImagePixelValue": [43748, 42425, 41058, 41100, 40771, 40824, 41091, 40602, 40421, 40552, 40250, 40622, 40785, 40545, 40617, 40468, 40174, 40112, 40382, 40568, 40854, 40664, 40527, 40669, 40600, 40460, 40764, 40298, 40161, 40346, 40460, 40657, 40273, 40497, 40344, 40458, 40453, 40298, 39622, 40241, 40142, 40745, 39966, 40630, 40568, 40195, 40476, 40245, 40947, 40115, 40771, 40628, 40177, 40715, 40297, 40665, 40583, 40228, 40383, 40342, 40534, 40329, 40229, 40669, 40065, 40638, 40414, 40068, 40164, 40321, 40340, 41003, 40208, 40229, 40428, 39891, 40132, 40910, 40017, 40192, 40597, 40260, 40139, 40286, 40692, 40035, 40118, 40594, 40176, 40149, 40379, 40088, 40600, 39860, 39866, 40149, 39875, 40315, 39890, 39770, 39752, 39779, 40107, 39857, 40447, 39976, 40282, 40247, 39865, 40091, 40163, 40251, 40482, 40620, 40201, 40187, 40650, 40413, 39663, 40031, 39728, 39965, 39944, 39638, 39975, 39990, 39831, 40308, 40204, 40087, 40382, 40209, 39944, 39559, 39619, 39773, 39735, 39759, 39917, 40480, 40334, 39731, 40368, 39967, 40033, 40309, 40083, 40204, 39890, 39815, 39894, 39689, 40922, 39735, 40766, 39917, 39935, 40721, 39976, 40308, 39617, 40127, 40256, 39705, 40404, 40001, 40445, 40342, 39629, 40248, 39990, 39759, 40023, 39806, 40644, 39833, 40330, 40491, 40705, 40767, 40171, 40564, 40295, 40750, 39997, 40518, 40595, 39787, 39739, 39633],
      "WindowCenter": [10419.0, 10375.0, 10339.0, 10333.0, 10315.0, 10324.0, 10319.0, 10326.0, 10328.0, 10320.0, 10306.0, 10303.0, 10308.0, 10310.0, 10303.0, 10310.0, 10313.0, 10307.0, 10296.0, 10287.0, 10300.0, 10300.0, 10301.0, 10306.0, 10296.0, 10286.0, 10301.0, 10303.0, 10309.0, 10321.0, 10320.0, 10318.0, 10313.0, 10312.0, 10321.0, 10321.0, 10323.0, 10308.0, 10305.0, 10312.0, 10298.0, 10309.0, 10294.0, 10275.0, 10321.0, 10344.0, 10348.0, 10316.0, 10282.0, 10255.0, 10259.0, 10275.0, 10290.0, 10292.0, 10300.0, 10295.0, 10288.0, 10272.0, 10270.0, 10287.0, 10294.0, 10302.0, 10303.0, 10295.0, 10296.0, 10310.0, 10315.0, 10315.0, 10314.0, 10321.0, 10327.0, 10333.0, 10306.0, 10290.0, 10297.0, 10297.0, 10294.0, 10321.0, 10306.0, 10291.0, 10281.0, 10271.0, 10271.0, 10295.0, 10296.0, 10283.0, 10281.0, 10282.0, 10288.0, 10296.0, 10308.0, 10303.0, 10311.0, 10300.0, 10286.0, 10298.0, 10300.0, 10306.0, 10310.0, 10303.0, 10295.0, 10292.0, 10291.0, 10299.0, 10299.0, 10291.0, 10288.0, 10311.0, 10315.0, 10309.0, 10299.0, 10285.0, 10304.0, 10314.0, 10323.0, 10322.0, 10321.0, 10319.0, 10294.0, 10282.0, 10276.0, 10276.0, 10269.0, 10252.0, 10251.0, 10266.0, 10269.0, 10274.0, 10267.0, 10261.0, 10276.0, 10283.0, 10286.0, 10282.0, 10287.0, 10297.0, 10291.0, 10284.0, 10284.0, 10288.0, 10304.0, 10297.0, 10287.0, 10285.0, 10285.0, 10300.0, 10308.0, 10303.0, 10306.0, 10307.0, 10304.0, 10297.0, 10293.0, 10283.0, 10293.0, 10296.0, 10296.0, 10301.0, 10276.0, 10271.0, 10272.0, 10287.0, 10294.0, 10274.0, 10276.0, 10279.0, 10285.0, 10295.0, 10291.0, 10295.0, 10296.0, 10284.0, 10279.0, 10265.0, 10267.0, 10272.0, 10286.0, 10284.0, 10267.0, 10273.0, 10291.0, 10301.0, 10302.0, 10281.0, 10259.0, 10259.0, 10273.0, 10283.0, 10291.0, 10285.0],
      "WindowWidth": [22562.0, 22418.0, 22317.0, 22287.0, 22238.0, 22248.0, 22237.0, 22251.0, 22258.0, 22236.0, 22206.0, 22199.0, 22209.0, 22214.0, 22198.0, 22215.0, 22220.0, 22208.0, 22184.0, 22163.0, 22191.0, 22193.0, 22193.0, 22206.0, 22186.0, 22158.0, 22190.0, 22200.0, 22211.0, 22242.0, 22238.0, 22233.0, 22223.0, 22221.0, 22241.0, 22242.0, 22246.0, 22213.0, 22205.0, 22217.0, 22188.0, 22210.0, 22187.0, 22134.0, 22236.0, 22293.0, 22303.0, 22232.0, 22148.0, 22089.0, 22097.0, 22133.0, 22170.0, 22173.0, 22191.0, 22179.0, 22164.0, 22129.0, 22125.0, 22163.0, 22176.0, 22196.0, 22200.0, 22179.0, 22185.0, 22213.0, 22226.0, 22229.0, 22222.0, 22240.0, 22252.0, 22263.0, 22207.0, 22168.0, 22183.0, 22184.0, 22177.0, 22234.0, 22207.0, 22170.0, 22146.0, 22124.0, 22125.0, 22178.0, 22180.0, 22154.0, 22146.0, 22149.0, 22165.0, 22183.0, 22211.0, 22202.0, 22215.0, 22193.0, 22160.0, 22185.0, 22194.0, 22205.0, 22216.0, 22201.0, 22184.0, 22174.0, 22172.0, 22189.0, 22188.0, 22172.0, 22162.0, 22212.0, 22224.0, 22212.0, 22191.0, 22158.0, 22200.0, 22222.0, 22244.0, 22242.0, 22238.0, 22237.0, 22181.0, 22148.0, 22138.0, 22136.0, 22121.0, 22084.0, 22080.0, 22115.0, 22122.0, 22133.0, 22119.0, 22107.0, 22139.0, 22153.0, 22163.0, 22155.0, 22162.0, 22186.0, 22175.0, 22161.0, 22155.0, 22161.0, 22200.0, 22187.0, 22159.0, 22156.0, 22155.0, 22188.0, 22207.0, 22198.0, 22207.0, 22207.0, 22200.0, 22185.0, 22173.0, 22155.0, 22173.0, 22185.0, 22184.0, 22192.0, 22140.0, 22122.0, 22128.0, 22161.0, 22176.0, 22134.0, 22135.0, 22146.0, 22155.0, 22179.0, 22175.0, 22179.0, 22182.0, 22158.0, 22145.0, 22115.0, 22114.0, 22130.0, 22158.0, 22154.0, 22119.0, 22125.0, 22168.0, 22190.0, 22195.0, 22151.0, 22104.0, 22098.0, 22131.0, 22159.0, 22175.0, 22166.0]
    },
    "slices": {}
  }
}