{
  "AcquisitionMatrixPE": 104,
  "AcquisitionNumber": 1,
  "AcquisitionTime": "15:48:22.057500",
  "BandwidthPerPixelPhaseEncode": 17.17,
  "BaseResolution": 104,
  "BodyPartExamined": "BRAIN",
  "CoilString": "HC1-7;NC1_2",
  "ConsistencyInfo": "N4_VE11C_LATEST_20160120",
  "ConversionSoftware": "dcm2niix",
  "ConversionSoftwareVersion": "v1.0.20190902",
  "DerivedVendorReportedEchoSpacing": 0.000560011,
  "DeviceSerialNumber": "167006",
  "DwellTime": 2.1e-06,
  "EchoTime": 0.037,
  "EchoTrainLength": 104,
  "EffectiveEchoSpacing": 0.000560011,
  "FlipAngle": 52,
  "HeudiconvVersion": "0.10.0",
  "ImageComments": "Unaliased_MB4_PE3_LB",
  "ImageOrientationPatientDICOM": [0.999429, -0.0298643, 0.0157796, 0.0333291, 0.947758, -0.317245],
  "ImageType": [
    "ORIGINAL",
    "PRIMARY",
    "M",
    "MB",
    "ND",
    "MOSAIC"
],
  "ImagingFrequency": 123.259,
  "InPlanePhaseEncodingDirectionDICOM": "COL",
  "InstitutionAddress": "Chemin_Queen-Mary_4565_Montreal_District_CA_H3W_1W5",
  "InstitutionName": "IUGM",
  "InstitutionalDepartmentName": "Department",
  "MRAcquisitionType": "2D",
  "MagneticFieldStrength": 3,
  "Manufacturer": "Siemens",
  "ManufacturersModelName": "Prisma_fit",
  "Modality": "MR",
  "MultibandAccelerationFactor": 4,
  "PartialFourier": 1,
  "PatientPosition": "HFS",
  "PercentPhaseFOV": 100,
  "PhaseEncodingDirection": "j",
  "PhaseEncodingSteps": 104,
  "PhaseResolution": 1,
  "PixelBandwidth": 2290,
  "ProcedureStepDescription": "memory_things",
  "ProtocolName": "func_task-things_run-3",
  "PulseSequenceDetails": "%CustomerSeq%_cmrr_mbep2d_bold",
  "ReceiveCoilActiveElements": "HC1-7;NC1,2",
  "ReceiveCoilName": "HeadNeck_64",
  "ReconMatrixPE": 104,
  "RepetitionTime": 1.49,
  "SAR": 0.0334012,
  "ScanOptions": "FS",
  "ScanningSequence": "EP",
  "SequenceName": "epfid2d1_104",
  "SequenceVariant": "SK_SS",
  "SeriesDescription": "func_task-things_run-3",
  "SeriesNumber": 16,
  "ShimSetting": [624, -7247, -8817, 610, 1, -186, -54, -7],
  "SliceThickness": 2,
  "SliceTiming": [0, 0.7825, 0.0975, 0.88, 0.195, 0.98, 0.2925, 1.0775, 0.39, 1.175, 0.49, 1.2725, 0.5875, 1.37, 0.685, 0, 0.7825, 0.0975, 0.88, 0.195, 0.98, 0.2925, 1.0775, 0.39, 1.175, 0.49, 1.2725, 0.5875, 1.37, 0.685, 0, 0.7825, 0.0975, 0.88, 0.195, 0.98, 0.2925, 1.0775, 0.39, 1.175, 0.49, 1.2725, 0.5875, 1.37, 0.685, 0, 0.7825, 0.0975, 0.88, 0.195, 0.98, 0.2925, 1.0775, 0.39, 1.175, 0.49, 1.2725, 0.5875, 1.37, 0.685],
  "SoftwareVersions": "syngo_MR_E11",
  "SpacingBetweenSlices": 2,
  "StationName": "MRC35049",
  "TaskName": "things",
  "TotalReadoutTime": 0.0576811,
  "TxRefAmp": 228.364,
  "WipMemBlock": "acd4daf8-92cd-4167-abd5-d5237cad24d9||Sequence: R016 ve11c/master r/e634e98; Dec 19 2017 11:00:25 by eja",
  "dcmmeta_affine": [
    [-1.9988588094711304, 0.06665823608636856, 0.010961816646158695, 103.72669219970703],
    [0.05972859263420105, 1.8955157995224, -0.6351790428161621, -68.99198150634766],
    [0.03155910223722458, 0.6344892382621765, 1.8964250087738037, -64.30989837646484],
    [0.0, 0.0, 0.0, 1.0]
],
  "dcmmeta_reorient_transform": [
    [0.0, -1.0, 0.0, 103.0],
    [1.0, 0.0, 0.0, 0.0],
    [0.0, 0.0, 1.0, 0.0],
    [0.0, 0.0, 0.0, 1.0]
],
  "dcmmeta_shape": [104, 104, 60, 190],
  "dcmmeta_slice_dim": 2,
  "dcmmeta_version": 0.6,
  "global": {
    "const": {
      "AcquisitionMatrix": [104, 0, 0, 104],
      "AngioFlag": "N",
      "BitsAllocated": 16,
      "BitsStored": 16,
      "BodyPartExamined": "BRAIN",
      "Columns": 832,
      "EchoNumbers": 1,
      "EchoTime": 37.0,
      "EchoTrainLength": 104,
      "FlipAngle": 52.0,
      "HighBit": 15,
      "ImageOrientationPatient": [0.99942940200347, -0.0298642956169, 0.01577955190428, 0.03332911726313, 0.94775789497796, -0.3172446098036],
      "ImagePositionPatient": [-862.44069450946, -794.47268241683, 220.50905649861],
      "ImageType": [
        "ORIGINAL",
        "PRIMARY",
        "M",
        "MB",
        "ND",
        "MOSAIC"
],
      "ImagedNucleus": "1H",
      "ImagingFrequency": 123.259063,
      "InPlanePhaseEncodingDirection": "COL",
      "MRAcquisitionType": "2D",
      "MagneticFieldStrength": 3.0,
      "Manufacturer": "SIEMENS",
      "ManufacturerModelName": "Prisma_fit",
      "Modality": "MR",
      "NumberOfAverages": 1.0,
      "NumberOfPhaseEncodingSteps": 104,
      "PercentPhaseFieldOfView": 100.0,
      "PercentSampling": 100.0,
      "PerformedProcedureStepStartTime": "141829.212000",
      "PhotometricInterpretation": "MONOCHROME2",
      "PixelBandwidth": 2290.0,
      "PixelRepresentation": 0,
      "PixelSpacing": [2.0, 2.0],
      "ProtocolName": "func_task-things_run-3",
      "RepetitionTime": 1490.0,
      "Rows": 832,
      "SAR": 0.03340115777615,
      "SamplesPerPixel": 1,
      "ScanOptions": "FS",
      "ScanningSequence": "EP",
      "SequenceName": "epfid2d1_104",
      "SequenceVariant": [
        "SK",
        "SS"
],
      "SeriesDescription": "func_task-things_run-3",
      "SeriesNumber": 16,
      "SeriesTime": "154933.181000",
      "SliceLocation": -38.499796889028,
      "SliceThickness": 2.0,
      "SmallestImagePixelValue": 0,
      "SoftwareVersions": "syngo MR E11",
      "SpacingBetweenSlices": 2.0000000481654,
      "SpecificCharacterSet": "ISO_IR 100",
      "StudyID": "1",
      "StudyTime": "141829.125000",
      "TransmitCoilName": "Body",
      "VariableFlipAngleFlag": "N",
      "WindowCenterWidthExplanation": "Algo1",
      "dBdt": 0.0},
    "slices": {}
  },
  "time": {
    "samples": {
      "AcquisitionNumber": [1, 2, 3, 4, 5, 6, 7, 8, 9, 10, 11, 12, 13, 14, 15, 16, 17, 18, 19, 20, 21, 22, 23, 24, 25, 26, 27, 28, 29, 30, 31, 32, 33, 34, 35, 36, 37, 38, 39, 40, 41, 42, 43, 44, 45, 46, 47, 48, 49, 50, 51, 52, 53, 54, 55, 56, 57, 58, 59, 60, 61, 62, 63, 64, 65, 66, 67, 68, 69, 70, 71, 72, 73, 74, 75, 76, 77, 78, 79, 80, 81, 82, 83, 84, 85, 86, 87, 88, 89, 90, 91, 92, 93, 94, 95, 96, 97, 98, 99, 100, 101, 102, 103, 104, 105, 106, 107, 108, 109, 110, 111, 112, 113, 114, 115, 116, 117, 118, 119, 120, 121, 122, 123, 124, 125, 126, 127, 128, 129, 130, 131, 132, 133, 134, 135, 136, 137, 138, 139, 140, 141, 142, 143, 144, 145, 146, 147, 148, 149, 150, 151, 152, 153, 154, 155, 156, 157, 158, 159, 160, 161, 162, 163, 164, 165, 166, 167, 168, 169, 170, 171, 172, 173, 174, 175, 176, 177, 178, 179, 180, 181, 182, 183, 184, 185, 186, 187, 188, 189, 190],
      "AcquisitionTime": ["154822.057500", "154823.547500", "154825.037500", "154826.527500", "154828.017500", "154829.507500", "154830.997500", "154832.487500", "154833.977500", "154835.467500", "154836.957500", "154838.447500", "154839.937500", "154841.427500", "154842.917500", "154844.407500", "154845.897500", "154847.387500", "154848.877500", "154850.367500", "154851.857500", "154853.347500", "154854.837500", "154856.327500", "154857.817500", "154859.307500", "154900.797500", "154902.287500", "154903.777500", "154905.267500", "154906.757500", "154908.247500", "154909.737500", "154911.227500", "154912.717500", "154914.207500", "154915.697500", "154917.187500", "154918.677500", "154920.167500", "154921.657500", "154923.147500", "154924.637500", "154926.127500", "154927.617500", "154929.107500", "154930.597500", "154932.087500", "154933.577500", "154935.067500", "154936.557500", "154938.047500", "154939.537500", "154941.027500", "154942.517500", "154944.007500", "154945.497500", "154946.987500", "154948.477500", "154949.967500", "154951.457500", "154952.947500", "154954.437500", "154955.927500", "154957.417500", "154958.907500", "155000.397500", "155001.887500", "155003.377500", "155004.867500", "155006.357500", "155007.847500", "155009.337500", "155010.827500", "155012.317500", "155013.807500", "155015.297500", "155016.787500", "155018.277500", "155019.767500", "155021.257500", "155022.747500", "155024.237500", "155025.727500", "155027.217500", "155028.707500", "155030.197500", "155031.687500", "155033.177500", "155034.667500", "155036.157500", "155037.647500", "155039.137500", "155040.627500", "155042.117500", "155043.607500", "155045.097500", "155046.587500", "155048.077500", "155049.567500", "155051.057500", "155052.547500", "155054.037500", "155055.527500", "155057.017500", "155058.507500", "155059.997500", "155101.487500", "155102.977500", "155104.467500", "155105.957500", "155107.447500", "155108.937500", "155110.427500", "155111.917500", "155113.407500", "155114.897500", "155116.387500", "155117.877500", "155119.367500", "155120.857500", "155122.347500", "155123.837500", "155125.327500", "155126.817500", "155128.307500", "155129.797500", "155131.287500", "155132.777500", "155134.267500", "155135.757500", "155137.247500", "155138.737500", "155140.227500", "155141.717500", "155143.207500", "155144.697500", "155146.187500", "155147.677500", "155149.167500", "155150.657500", "155152.147500", "155153.637500", "155155.127500", "155156.617500", "155158.107500", "155159.597500", "155201.087500", "155202.577500", "155204.067500", "155205.557500", "155207.047500", "155208.537500", "155210.027500", "155211.517500", "155213.007500", "155214.497500", "155215.987500", "155217.477500", "155218.967500", "155220.457500", "155221.947500", "155223.437500", "155224.927500", "155226.417500", "155227.907500", "155229.397500", "155230.887500", "155232.377500", "155233.867500", "155235.357500", "155236.847500", "155238.337500", "155239.827500", "155241.317500", "155242.807500", "155244.297500", "155245.787500", "155247.277500", "155248.767500", "155250.257500", "155251.747500", "155253.237500", "155254.727500", "155256.217500", "155257.707500", "155259.197500", "155300.687500", "155302.177500", "155303.667500"],
      "ContentTime": ["154933.184000", "154933.188000", "154933.191000", "154933.194000", "154933.198000", "154933.201000", "154933.204000", "154933.208000", "154933.218000", "154933.221000", "154933.224000", "154933.228000", "154933.231000", "154933.234000", "154933.237000", "154933.241000", "154953.096000", "154953.100000", "154953.103000", "154953.106000", "154953.109000", "154953.113000", "154953.116000", "154953.119000", "154953.122000", "154953.126000", "154953.129000", "154953.132000", "154953.136000", "154953.139000", "154953.142000", "154953.145000", "154953.148000", "154953.152000", "154953.155000", "154953.158000", "155013.095000", "155013.099000", "155013.102000", "155013.105000", "155013.109000", "155013.112000", "155013.116000", "155013.120000", "155013.123000", "155013.127000", "155013.130000", "155013.134000", "155013.138000", "155013.141000", "155013.144000", "155013.147000", "155013.151000", "155013.154000", "155013.157000", "155013.161000", "155033.095000", "155033.111000", "155033.114000", "155033.118000", "155033.121000", "155033.124000", "155033.128000", "155033.131000", "155033.134000", "155033.137000", "155033.141000", "155033.144000", "155033.147000", "155033.150000", "155033.154000", "155033.157000", "155033.160000", "155033.164000", "155033.167000", "155033.170000", "155033.174000", "155053.095000", "155053.099000", "155053.102000", "155053.105000", "155053.109000", "155053.112000", "155053.115000", "155053.119000", "155053.122000", "155053.125000", "155053.129000", "155053.132000", "155053.135000", "155053.139000", "155053.142000", "155053.145000", "155053.149000", "155053.152000", "155053.155000", "155053.158000", "155133.095000", "155133.099000", "155133.102000", "155133.105000", "155133.109000", "155133.112000", "155133.115000", "155133.119000", "155133.123000", "155133.126000", "155133.130000", "155133.133000", "155133.136000", "155133.139000", "155133.143000", "155133.146000", "155133.150000", "155133.153000", "155133.157000", "155133.160000", "155133.163000", "155133.167000", "155133.170000", "155133.174000", "155133.177000", "155133.180000", "155133.184000", "155133.187000", "155133.190000", "155133.194000", "155213.096000", "155213.100000", "155213.103000", "155213.107000", "155213.110000", "155213.113000", "155213.117000", "155213.120000", "155213.123000", "155213.127000", "155213.130000", "155213.134000", "155213.137000", "155213.140000", "155213.144000", "155213.147000", "155213.150000", "155213.153000", "155213.157000", "155213.160000", "155213.164000", "155213.167000", "155213.170000", "155213.173000", "155213.188000", "155213.192000", "155213.195000", "155253.095000", "155253.099000", "155253.102000", "155253.105000", "155253.109000", "155253.112000", "155253.116000", "155253.119000", "155253.123000", "155253.126000", "155253.129000", "155253.132000", "155253.136000", "155253.139000", "155253.143000", "155253.147000", "155253.150000", "155253.154000", "155253.157000", "155253.160000", "155253.164000", "155253.167000", "155253.170000", "155253.174000", "155253.177000", "155253.180000", "155253.184000", "155305.700000", "155305.703000", "155305.707000", "155305.710000", "155305.714000", "155305.717000", "155305.721000", "155305.724000", "155305.728000"],
      "InstanceCreationTime": ["154933.184000", "154933.188000", "154933.191000", "154933.194000", "154933.198000", "154933.201000", "154933.204000", "154933.208000", "154933.218000", "154933.221000", "154933.224000", "154933.228000", "154933.231000", "154933.234000", "154933.237000", "154933.241000", "154953.096000", "154953.100000", "154953.103000", "154953.106000", "154953.109000", "154953.113000", "154953.116000", "154953.119000", "154953.122000", "154953.126000", "154953.129000", "154953.132000", "154953.136000", "154953.139000", "154953.142000", "154953.145000", "154953.148000", "154953.152000", "154953.155000", "154953.158000", "155013.095000", "155013.099000", "155013.102000", "155013.105000", "155013.109000", "155013.112000", "155013.116000", "155013.120000", "155013.123000", "155013.127000", "155013.130000", "155013.134000", "155013.138000", "155013.141000", "155013.144000", "155013.147000", "155013.151000", "155013.154000", "155013.157000", "155013.161000", "155033.095000", "155033.111000", "155033.114000", "155033.118000", "155033.121000", "155033.124000", "155033.128000", "155033.131000", "155033.134000", "155033.137000", "155033.141000", "155033.144000", "155033.147000", "155033.150000", "155033.154000", "155033.157000", "155033.160000", "155033.164000", "155033.167000", "155033.170000", "155033.174000", "155053.095000", "155053.099000", "155053.102000", "155053.105000", "155053.109000", "155053.112000", "155053.115000", "155053.119000", "155053.122000", "155053.125000", "155053.129000", "155053.132000", "155053.135000", "155053.139000", "155053.142000", "155053.145000", "155053.149000", "155053.152000", "155053.155000", "155053.158000", "155133.095000", "155133.099000", "155133.102000", "155133.105000", "155133.109000", "155133.112000", "155133.115000", "155133.119000", "155133.123000", "155133.126000", "155133.130000", "155133.133000", "155133.136000", "155133.139000", "155133.143000", "155133.146000", "155133.150000", "155133.153000", "155133.157000", "155133.160000", "155133.163000", "155133.167000", "155133.170000", "155133.174000", "155133.177000", "155133.180000", "155133.184000", "155133.187000", "155133.190000", "155133.194000", "155213.096000", "155213.100000", "155213.103000", "155213.107000", "155213.110000", "155213.113000", "155213.117000", "155213.120000", "155213.123000", "155213.127000", "155213.130000", "155213.134000", "155213.137000", "155213.140000", "155213.144000", "155213.147000", "155213.150000", "155213.153000", "155213.157000", "155213.160000", "155213.164000", "155213.167000", "155213.170000", "155213.173000", "155213.188000", "155213.192000", "155213.195000", "155253.095000", "155253.099000", "155253.102000", "155253.105000", "155253.109000", "155253.112000", "155253.116000", "155253.119000", "155253.123000", "155253.126000", "155253.129000", "155253.132000", "155253.136000", "155253.139000", "155253.143000", "155253.147000", "155253.150000", "155253.154000", "155253.157000", "155253.160000", "155253.164000", "155253.167000", "155253.170000", "155253.174000", "155253.177000", "155253.180000", "155253.184000", "155305.700000", "155305.703000", "155305.707000", "155305.710000", "155305.714000", "155305.717000", "155305.721000", "155305.724000", "155305.728000"],
      "InstanceNumber": [1, 2, 3, 4, 5, 6, 7, 8, 9, 10, 11, 12, 13, 14, 15, 16, 17, 18, 19, 20, 21, 22, 23, 24, 25, 26, 27, 28, 29, 30, 31, 32, 33, 34, 35, 36, 37, 38, 39, 40, 41, 42, 43, 44, 45, 46, 47, 48, 49, 50, 51, 52, 53, 54, 55, 56, 57, 58, 59, 60, 61, 62, 63, 64, 65, 66, 67, 68, 69, 70, 71, 72, 73, 74, 75, 76, 77, 78, 79, 80, 81, 82, 83, 84, 85, 86, 87, 88, 89, 90, 91, 92, 93, 94, 95, 96, 97, 98, 99, 100, 101, 102, 103, 104, 105, 106, 107, 108, 109, 110, 111, 112, 113, 114, 115, 116, 117, 118, 119, 120, 121, 122, 123, 124, 125, 126, 127, 128, 129, 130, 131, 132, 133, 134, 135, 136, 137, 138, 139, 140, 141, 142, 143, 144, 145, 146, 147, 148, 149, 150, 151, 152, 153, 154, 155, 156, 157, 158, 159, 160, 161, 162, 163, 164, 165, 166, 167, 168, 169, 170, 171, 172, 173, 174, 175, 176, 177, 178, 179, 180, 181, 182, 183, 184, 185, 186, 187, 188, 189, 190],
      "LargestImagePixelValue": [43500, 42272, 41608, 40895, 40902, 41203, 40953, 41336, 41115, 41194, 40969, 41429, 41051, 41109, 41510, 40939, 39412, 39548, 40933, 41223, 41250, 41405, 41374, 41442, 41057, 41087, 41025, 41345, 41426, 42088, 41338, 41476, 41448, 41389, 41891, 41450, 41626, 41905, 41446, 41775, 41774, 41817, 41390, 41418, 41634, 41578, 41537, 41836, 41666, 41417, 41455, 41710, 41675, 41753, 41779, 41146, 41721, 41480, 41269, 41263, 41513, 41588, 41195, 41162, 41617, 41615, 41805, 41493, 41744, 41541, 41453, 41465, 41368, 41244, 41574, 41422, 41287, 41895, 41566, 40407, 41542, 41617, 41431, 41278, 41564, 41470, 41182, 41627, 41516, 41907, 41541, 41680, 41846, 41764, 40374, 41069, 41225, 41071, 40824, 41107, 41272, 41382, 41055, 41063, 40962, 40851, 40587, 41407, 41158, 40638, 40467, 41193, 41603, 41689, 41454, 41151, 41503, 41462, 42095, 41818, 41498, 42024, 41501, 41269, 40953, 41319, 40733, 40607, 40110, 40847, 41194, 41692, 42056, 41913, 41686, 41750, 41180, 41498, 41326, 41053, 41401, 41420, 41562, 41673, 41723, 41342, 41127, 41094, 40517, 41059, 40780, 41566, 41408, 41254, 42096, 41760, 41398, 41600, 41518, 40973, 42176, 40988, 41263, 41295, 41454, 41872, 41702, 41437, 41346, 41410, 41625, 41659, 40959, 42214, 41363, 40929, 41313, 41362, 40816, 41045, 40955, 41643, 40726, 41272, 41224, 41452, 41556, 41489, 41472, 40314],
      "WindowCenter": [10411.0, 10378.0, 10360.0, 10350.0, 10356.0, 10345.0, 10317.0, 10304.0, 10303.0, 10312.0, 10310.0, 10311.0, 10303.0, 10285.0, 10297.0, 10336.0, 10316.0, 10290.0, 10254.0, 10224.0, 10199.0, 10198.0, 10200.0, 10264.0, 10316.0, 10319.0, 10292.0, 10276.0, 10274.0, 10316.0, 10333.0, 10338.0, 10310.0, 10285.0, 10279.0, 10281.0, 10292.0, 10292.0, 10296.0, 10287.0, 10277.0, 10293.0, 10293.0, 10284.0, 10287.0, 10286.0, 10278.0, 10287.0, 10294.0, 10281.0, 10280.0, 10278.0, 10275.0, 10251.0, 10304.0, 10298.0, 10279.0, 10268.0, 10248.0, 10245.0, 10240.0, 10249.0, 10276.0, 10282.0, 10269.0, 10267.0, 10298.0, 10309.0, 10314.0, 10304.0, 10279.0, 10275.0, 10275.0, 10277.0, 10288.0, 10274.0, 10262.0, 10271.0, 10272.0, 10265.0, 10289.0, 10304.0, 10280.0, 10263.0, 10255.0, 10252.0, 10251.0, 10251.0, 10259.0, 10259.0, 10258.0, 10270.0, 10295.0, 10286.0, 10260.0, 10263.0, 10272.0, 10267.0, 10278.0, 10294.0, 10301.0, 10273.0, 10241.0, 10230.0, 10245.0, 10255.0, 10247.0, 10280.0, 10319.0, 10306.0, 10311.0, 10280.0, 10250.0, 10210.0, 10170.0, 10169.0, 10209.0, 10251.0, 10277.0, 10272.0, 10256.0, 10259.0, 10278.0, 10285.0, 10279.0, 10284.0, 10269.0, 10252.0, 10244.0, 10279.0, 10301.0, 10303.0, 10284.0, 10250.0, 10234.0, 10257.0, 10276.0, 10298.0, 10298.0, 10284.0, 10273.0, 10248.0, 10229.0, 10228.0, 10244.0, 10259.0, 10257.0, 10249.0, 10240.0, 10254.0, 10264.0, 10273.0, 10273.0, 10255.0, 10256.0, 10274.0, 10277.0, 10270.0, 10252.0, 10228.0, 10247.0, 10263.0, 10263.0, 10255.0, 10250.0, 10250.0, 10250.0, 10242.0, 10245.0, 10265.0, 10267.0, 10273.0, 10269.0, 10295.0, 10281.0, 10258.0, 10245.0, 10236.0, 10230.0, 10231.0, 10216.0, 10217.0, 10209.0, 10233.0, 10273.0, 10293.0, 10289.0, 10250.0, 10220.0, 10200.0],
      "WindowWidth": [22541.0, 22424.0, 22362.0, 22326.0, 22334.0, 22306.0, 22237.0, 22200.0, 22197.0, 22215.0, 22214.0, 22212.0, 22196.0, 22155.0, 22189.0, 22286.0, 22243.0, 22172.0, 22084.0, 22014.0, 21958.0, 21954.0, 21956.0, 22100.0, 22223.0, 22232.0, 22176.0, 22138.0, 22131.0, 22220.0, 22264.0, 22272.0, 22212.0, 22154.0, 22136.0, 22143.0, 22168.0, 22167.0, 22179.0, 22161.0, 22135.0, 22170.0, 22176.0, 22153.0, 22158.0, 22156.0, 22137.0, 22159.0, 22173.0, 22143.0, 22142.0, 22142.0, 22132.0, 22079.0, 22195.0, 22184.0, 22143.0, 22113.0, 22073.0, 22062.0, 22050.0, 22070.0, 22132.0, 22149.0, 22122.0, 22114.0, 22185.0, 22211.0, 22225.0, 22202.0, 22143.0, 22132.0, 22132.0, 22138.0, 22166.0, 22137.0, 22106.0, 22127.0, 22126.0, 22113.0, 22164.0, 22199.0, 22146.0, 22107.0, 22086.0, 22081.0, 22076.0, 22075.0, 22093.0, 22095.0, 22095.0, 22122.0, 22177.0, 22155.0, 22101.0, 22105.0, 22127.0, 22115.0, 22139.0, 22174.0, 22192.0, 22127.0, 22055.0, 22030.0, 22062.0, 22086.0, 22070.0, 22144.0, 22239.0, 22214.0, 22226.0, 22143.0, 22066.0, 21976.0, 21884.0, 21880.0, 21972.0, 22068.0, 22126.0, 22120.0, 22088.0, 22090.0, 22134.0, 22149.0, 22136.0, 22146.0, 22114.0, 22075.0, 22056.0, 22130.0, 22183.0, 22190.0, 22145.0, 22070.0, 22033.0, 22082.0, 22126.0, 22174.0, 22176.0, 22147.0, 22119.0, 22066.0, 22023.0, 22021.0, 22059.0, 22089.0, 22088.0, 22072.0, 22050.0, 22079.0, 22106.0, 22124.0, 22125.0, 22085.0, 22079.0, 22122.0, 22130.0, 22116.0, 22075.0, 22020.0, 22057.0, 22099.0, 22099.0, 22082.0, 22069.0, 22068.0, 22068.0, 22051.0, 22060.0, 22101.0, 22108.0, 22122.0, 22114.0, 22169.0, 22143.0, 22090.0, 22059.0, 22038.0, 22025.0, 22029.0, 21996.0, 21994.0, 21978.0, 22028.0, 22118.0, 22170.0, 22160.0, 22075.0, 22005.0, 21960.0]
    },
    "slices": {}
  }
}