{
  "AcquisitionMatrixPE": 104,
  "AcquisitionNumber": 1,
  "AcquisitionTime": "16:07:10.345000",
  "BandwidthPerPixelPhaseEncode": 17.17,
  "BaseResolution": 104,
  "BodyPartExamined": "BRAIN",
  "CoilString": "HC1-7;NC1_2",
  "ConsistencyInfo": "N4_VE11C_LATEST_20160120",
  "ConversionSoftware": "dcm2niix",
  "ConversionSoftwareVersion": "v1.0.20190902",
  "DerivedVendorReportedEchoSpacing": 0.000560011,
  "DeviceSerialNumber": "167006",
  "DwellTime": 2.1e-06,
  "EchoTime": 0.037,
  "EchoTrainLength": 104,
  "EffectiveEchoSpacing": 0.000560011,
  "FlipAngle": 52,
  "HeudiconvVersion": "0.10.0",
  "ImageComments": "Unaliased_MB4_PE3_LB",
  "ImageOrientationPatientDICOM": [0.999429, -0.0298643, 0.0157796, 0.0333291, 0.947758, -0.317245],
  "ImageType": [
    "ORIGINAL",
    "PRIMARY",
    "P",
    "MB",
    "ND",
    "MOSAIC"
],
  "ImagingFrequency": 123.259,
  "InPlanePhaseEncodingDirectionDICOM": "COL",
  "InstitutionAddress": "Chemin_Queen-Mary_4565_Montreal_District_CA_H3W_1W5",
  "InstitutionName": "IUGM",
  "InstitutionalDepartmentName": "Department",
  "MRAcquisitionType": "2D",
  "MagneticFieldStrength": 3,
  "Manufacturer": "Siemens",
  "ManufacturersModelName": "Prisma_fit",
  "Modality": "MR",
  "MultibandAccelerationFactor": 4,
  "PartialFourier": 1,
  "PatientPosition": "HFS",
  "PercentPhaseFOV": 100,
  "PhaseEncodingDirection": "j",
  "PhaseEncodingSteps": 104,
  "PhaseResolution": 1,
  "PixelBandwidth": 2290,
  "ProcedureStepDescription": "memory_things",
  "ProtocolName": "func_task-things_run-6",
  "PulseSequenceDetails": "%CustomerSeq%_cmrr_mbep2d_bold",
  "ReceiveCoilActiveElements": "HC1-7;NC1,2",
  "ReceiveCoilName": "HeadNeck_64",
  "ReconMatrixPE": 104,
  "RepetitionTime": 1.49,
  "SAR": 0.0334012,
  "ScanOptions": "FS",
  "ScanningSequence": "EP",
  "SequenceName": "epfid2d1_104",
  "SequenceVariant": "SK_SS",
  "SeriesDescription": "func_task-things_run-6",
  "SeriesNumber": 26,
  "ShimSetting": [624, -7247, -8817, 610, 1, -186, -54, -7],
  "SliceThickness": 2,
  "SliceTiming": [0, 0.785, 0.0975, 0.8825, 0.1975, 0.98, 0.295, 1.0775, 0.3925, 1.175, 0.49, 1.275, 0.5875, 1.3725, 0.6875, 0, 0.785, 0.0975, 0.8825, 0.1975, 0.98, 0.295, 1.0775, 0.3925, 1.175, 0.49, 1.275, 0.5875, 1.3725, 0.6875, 0, 0.785, 0.0975, 0.8825, 0.1975, 0.98, 0.295, 1.0775, 0.3925, 1.175, 0.49, 1.275, 0.5875, 1.3725, 0.6875, 0, 0.785, 0.0975, 0.8825, 0.1975, 0.98, 0.295, 1.0775, 0.3925, 1.175, 0.49, 1.275, 0.5875, 1.3725, 0.6875],
  "SoftwareVersions": "syngo_MR_E11",
  "SpacingBetweenSlices": 2,
  "StationName": "MRC35049",
  "TaskName": "things",
  "TotalReadoutTime": 0.0576811,
  "TxRefAmp": 228.364,
  "WipMemBlock": "4c52ab9d-42a7-41e6-8bcd-df5c29a49200||Sequence: R016 ve11c/master r/e634e98; Dec 19 2017 11:00:25 by eja",
  "dcmmeta_affine": [
    [-1.9988588094711304, 0.06665823608636856, 0.010961816646158695, 103.72669219970703],
    [0.05972859263420105, 1.8955157995224, -0.6351790428161621, -68.99198150634766],
    [0.03155910223722458, 0.6344892382621765, 1.8964250087738037, -64.30989837646484],
    [0.0, 0.0, 0.0, 1.0]
],
  "dcmmeta_reorient_transform": [
    [0.0, -1.0, 0.0, 103.0],
    [1.0, 0.0, 0.0, 0.0],
    [0.0, 0.0, 1.0, 0.0],
    [0.0, 0.0, 0.0, 1.0]
],
  "dcmmeta_shape": [104, 104, 60, 190],
  "dcmmeta_slice_dim": 2,
  "dcmmeta_version": 0.6,
  "global": {
    "const": {
      "AcquisitionMatrix": [104, 0, 0, 104],
      "AngioFlag": "N",
      "BitsAllocated": 16,
      "BitsStored": 16,
      "BodyPartExamined": "BRAIN",
      "Columns": 832,
      "EchoNumbers": 1,
      "EchoTime": 37.0,
      "EchoTrainLength": 104,
      "FlipAngle": 52.0,
      "HighBit": 15,
      "ImageOrientationPatient": [0.99942940200347, -0.0298642956169, 0.01577955190428, 0.03332911726313, 0.94775789497796, -0.3172446098036],
      "ImagePositionPatient": [-862.44069450946, -794.47268241683, 220.50905649861],
      "ImageType": [
        "ORIGINAL",
        "PRIMARY",
        "P",
        "MB",
        "ND",
        "MOSAIC"
],
      "ImagedNucleus": "1H",
      "ImagingFrequency": 123.259069,
      "InPlanePhaseEncodingDirection": "COL",
      "LargestImagePixelValue": 4095,
      "MRAcquisitionType": "2D",
      "MagneticFieldStrength": 3.0,
      "Manufacturer": "SIEMENS",
      "ManufacturerModelName": "Prisma_fit",
      "Modality": "MR",
      "NumberOfAverages": 1.0,
      "NumberOfPhaseEncodingSteps": 104,
      "PercentPhaseFieldOfView": 100.0,
      "PercentSampling": 100.0,
      "PerformedProcedureStepStartTime": "141829.212000",
      "PhotometricInterpretation": "MONOCHROME2",
      "PixelBandwidth": 2290.0,
      "PixelRepresentation": 0,
      "PixelSpacing": [2.0, 2.0],
      "ProtocolName": "func_task-things_run-6",
      "RepetitionTime": 1490.0,
      "RescaleIntercept": -4096.0,
      "RescaleSlope": 2.0,
      "RescaleType": "US",
      "Rows": 832,
      "SAR": 0.03340115777615,
      "SamplesPerPixel": 1,
      "ScanOptions": "FS",
      "ScanningSequence": "EP",
      "SequenceName": "epfid2d1_104",
      "SequenceVariant": [
        "SK",
        "SS"
],
      "SeriesDescription": "func_task-things_run-6",
      "SeriesNumber": 26,
      "SeriesTime": "160813.190000",
      "SliceLocation": -38.499796889028,
      "SliceThickness": 2.0,
      "SmallestImagePixelValue": 0,
      "SoftwareVersions": "syngo MR E11",
      "SpacingBetweenSlices": 2.0000000481654,
      "SpecificCharacterSet": "ISO_IR 100",
      "StudyID": "1",
      "StudyTime": "141829.125000",
      "TransmitCoilName": "Body",
      "VariableFlipAngleFlag": "N",
      "WindowCenterWidthExplanation": "Algo1",
      "dBdt": 0.0},
    "slices": {}
  },
  "time": {
    "samples": {
      "AcquisitionNumber": [1, 2, 3, 4, 5, 6, 7, 8, 9, 10, 11, 12, 13, 14, 15, 16, 17, 18, 19, 20, 21, 22, 23, 24, 25, 26, 27, 28, 29, 30, 31, 32, 33, 34, 35, 36, 37, 38, 39, 40, 41, 42, 43, 44, 45, 46, 47, 48, 49, 50, 51, 52, 53, 54, 55, 56, 57, 58, 59, 60, 61, 62, 63, 64, 65, 66, 67, 68, 69, 70, 71, 72, 73, 74, 75, 76, 77, 78, 79, 80, 81, 82, 83, 84, 85, 86, 87, 88, 89, 90, 91, 92, 93, 94, 95, 96, 97, 98, 99, 100, 101, 102, 103, 104, 105, 106, 107, 108, 109, 110, 111, 112, 113, 114, 115, 116, 117, 118, 119, 120, 121, 122, 123, 124, 125, 126, 127, 128, 129, 130, 131, 132, 133, 134, 135, 136, 137, 138, 139, 140, 141, 142, 143, 144, 145, 146, 147, 148, 149, 150, 151, 152, 153, 154, 155, 156, 157, 158, 159, 160, 161, 162, 163, 164, 165, 166, 167, 168, 169, 170, 171, 172, 173, 174, 175, 176, 177, 178, 179, 180, 181, 182, 183, 184, 185, 186, 187, 188, 189, 190],
      "AcquisitionTime": ["160710.345000", "160711.835000", "160713.325000", "160714.815000", "160716.305000", "160717.795000", "160719.285000", "160720.775000", "160722.265000", "160723.755000", "160725.245000", "160726.735000", "160728.225000", "160729.715000", "160731.205000", "160732.695000", "160734.185000", "160735.675000", "160737.165000", "160738.655000", "160740.145000", "160741.635000", "160743.125000", "160744.615000", "160746.105000", "160747.595000", "160749.085000", "160750.575000", "160752.065000", "160753.555000", "160755.045000", "160756.535000", "160758.025000", "160759.515000", "160801.005000", "160802.495000", "160803.985000", "160805.475000", "160806.965000", "160808.455000", "160809.945000", "160811.435000", "160812.925000", "160814.415000", "160815.905000", "160817.395000", "160818.885000", "160820.375000", "160821.865000", "160823.355000", "160824.845000", "160826.335000", "160827.825000", "160829.315000", "160830.805000", "160832.295000", "160833.785000", "160835.275000", "160836.765000", "160838.255000", "160839.745000", "160841.235000", "160842.725000", "160844.215000", "160845.705000", "160847.195000", "160848.685000", "160850.175000", "160851.665000", "160853.155000", "160854.645000", "160856.135000", "160857.625000", "160859.115000", "160900.605000", "160902.095000", "160903.585000", "160905.075000", "160906.565000", "160908.055000", "160909.545000", "160911.035000", "160912.525000", "160914.015000", "160915.505000", "160916.995000", "160918.485000", "160919.975000", "160921.465000", "160922.955000", "160924.445000", "160925.935000", "160927.425000", "160928.915000", "160930.405000", "160931.895000", "160933.385000", "160934.875000", "160936.365000", "160937.855000", "160939.345000", "160940.835000", "160942.325000", "160943.815000", "160945.305000", "160946.795000", "160948.285000", "160949.775000", "160951.265000", "160952.755000", "160954.245000", "160955.735000", "160957.225000", "160958.715000", "161000.205000", "161001.695000", "161003.185000", "161004.675000", "161006.165000", "161007.655000", "161009.145000", "161010.635000", "161012.125000", "161013.615000", "161015.105000", "161016.595000", "161018.085000", "161019.575000", "161021.065000", "161022.555000", "161024.045000", "161025.535000", "161027.025000", "161028.515000", "161030.005000", "161031.495000", "161032.985000", "161034.475000", "161035.965000", "161037.455000", "161038.945000", "161040.435000", "161041.925000", "161043.415000", "161044.905000", "161046.395000", "161047.885000", "161049.375000", "161050.865000", "161052.355000", "161053.845000", "161055.335000", "161056.825000", "161058.315000", "161059.805000", "161101.295000", "161102.785000", "161104.275000", "161105.765000", "161107.255000", "161108.745000", "161110.235000", "161111.725000", "161113.215000", "161114.705000", "161116.195000", "161117.685000", "161119.175000", "161120.665000", "161122.155000", "161123.645000", "161125.135000", "161126.625000", "161128.115000", "161129.605000", "161131.095000", "161132.585000", "161134.075000", "161135.565000", "161137.055000", "161138.545000", "161140.035000", "161141.525000", "161143.015000", "161144.505000", "161145.995000", "161147.485000", "161148.975000", "161150.465000", "161151.955000"],
      "ContentTime": ["160813.192000", "160813.194000", "160813.197000", "160813.199000", "160813.202000", "160813.204000", "160813.213000", "160813.215000", "160813.218000", "160833.207000", "160833.210000", "160833.213000", "160833.216000", "160833.218000", "160833.221000", "160833.224000", "160833.227000", "160833.229000", "160833.232000", "160833.234000", "160833.237000", "160833.257000", "160833.259000", "160833.262000", "160833.264000", "160833.267000", "160833.269000", "160833.272000", "160833.274000", "160853.212000", "160853.215000", "160853.217000", "160853.220000", "160853.222000", "160853.225000", "160853.227000", "160853.230000", "160853.232000", "160853.235000", "160853.237000", "160853.240000", "160853.243000", "160853.245000", "160853.248000", "160853.250000", "160853.253000", "160853.255000", "160853.258000", "160853.260000", "160853.263000", "160913.222000", "160913.225000", "160913.227000", "160913.230000", "160913.232000", "160913.235000", "160913.238000", "160913.240000", "160913.243000", "160913.245000", "160913.248000", "160913.250000", "160913.253000", "160913.255000", "160913.258000", "160913.261000", "160913.263000", "160913.266000", "160913.268000", "160913.271000", "160933.215000", "160933.218000", "160933.221000", "160933.223000", "160933.226000", "160933.228000", "160933.231000", "160933.233000", "160933.236000", "160933.238000", "160933.241000", "160933.243000", "160933.245000", "160933.248000", "160933.250000", "160933.253000", "160933.256000", "160933.258000", "160933.261000", "160933.263000", "161013.264000", "161013.266000", "161013.269000", "161013.271000", "161013.274000", "161013.276000", "161013.285000", "161013.288000", "161013.290000", "161013.293000", "161013.295000", "161013.298000", "161013.300000", "161013.303000", "161013.306000", "161013.308000", "161013.311000", "161013.313000", "161013.316000", "161013.318000", "161013.321000", "161013.323000", "161013.326000", "161013.328000", "161013.331000", "161013.333000", "161013.336000", "161013.338000", "161013.341000", "161013.343000", "161013.346000", "161013.348000", "161053.238000", "161053.241000", "161053.243000", "161053.246000", "161053.248000", "161053.251000", "161053.253000", "161053.256000", "161053.258000", "161053.261000", "161053.263000", "161053.266000", "161053.268000", "161053.271000", "161053.273000", "161053.276000", "161053.278000", "161053.281000", "161053.283000", "161053.286000", "161053.288000", "161053.291000", "161053.293000", "161053.296000", "161053.298000", "161053.301000", "161053.303000", "161133.513000", "161133.516000", "161133.519000", "161133.521000", "161133.524000", "161133.526000", "161133.529000", "161133.531000", "161133.534000", "161133.537000", "161133.539000", "161133.542000", "161133.544000", "161133.547000", "161133.549000", "161133.552000", "161133.554000", "161133.557000", "161133.559000", "161133.562000", "161133.564000", "161133.567000", "161133.570000", "161133.572000", "161133.575000", "161133.578000", "161133.580000", "161153.715000", "161153.718000", "161153.720000", "161153.723000", "161153.730000", "161153.732000", "161153.735000", "161153.737000", "161153.740000", "161153.742000", "161153.745000", "161153.747000", "161153.750000", "161153.753000"],
      "InstanceCreationTime": ["160813.192000", "160813.194000", "160813.197000", "160813.199000", "160813.202000", "160813.204000", "160813.213000", "160813.215000", "160813.218000", "160833.207000", "160833.210000", "160833.213000", "160833.216000", "160833.218000", "160833.221000", "160833.224000", "160833.227000", "160833.229000", "160833.232000", "160833.234000", "160833.237000", "160833.257000", "160833.259000", "160833.262000", "160833.264000", "160833.267000", "160833.269000", "160833.272000", "160833.274000", "160853.212000", "160853.215000", "160853.217000", "160853.220000", "160853.222000", "160853.225000", "160853.227000", "160853.230000", "160853.232000", "160853.235000", "160853.237000", "160853.240000", "160853.243000", "160853.245000", "160853.248000", "160853.250000", "160853.253000", "160853.255000", "160853.258000", "160853.260000", "160853.263000", "160913.222000", "160913.225000", "160913.227000", "160913.230000", "160913.232000", "160913.235000", "160913.238000", "160913.240000", "160913.243000", "160913.245000", "160913.248000", "160913.250000", "160913.253000", "160913.255000", "160913.258000", "160913.261000", "160913.263000", "160913.266000", "160913.268000", "160913.271000", "160933.215000", "160933.218000", "160933.221000", "160933.223000", "160933.226000", "160933.228000", "160933.231000", "160933.233000", "160933.236000", "160933.238000", "160933.241000", "160933.243000", "160933.245000", "160933.248000", "160933.250000", "160933.253000", "160933.256000", "160933.258000", "160933.261000", "160933.263000", "161013.264000", "161013.266000", "161013.269000", "161013.271000", "161013.274000", "161013.276000", "161013.285000", "161013.288000", "161013.290000", "161013.293000", "161013.295000", "161013.298000", "161013.300000", "161013.303000", "161013.306000", "161013.308000", "161013.311000", "161013.313000", "161013.316000", "161013.318000", "161013.321000", "161013.323000", "161013.326000", "161013.328000", "161013.331000", "161013.333000", "161013.336000", "161013.338000", "161013.341000", "161013.343000", "161013.346000", "161013.348000", "161053.238000", "161053.241000", "161053.243000", "161053.246000", "161053.248000", "161053.251000", "161053.253000", "161053.256000", "161053.258000", "161053.261000", "161053.263000", "161053.266000", "161053.268000", "161053.271000", "161053.273000", "161053.276000", "161053.278000", "161053.281000", "161053.283000", "161053.286000", "161053.288000", "161053.291000", "161053.293000", "161053.296000", "161053.298000", "161053.301000", "161053.303000", "161133.513000", "161133.516000", "161133.519000", "161133.521000", "161133.524000", "161133.526000", "161133.529000", "161133.531000", "161133.534000", "161133.537000", "161133.539000", "161133.542000", "161133.544000", "161133.547000", "161133.549000", "161133.552000", "161133.554000", "161133.557000", "161133.559000", "161133.562000", "161133.564000", "161133.567000", "161133.570000", "161133.572000", "161133.575000", "161133.578000", "161133.580000", "161153.715000", "161153.718000", "161153.720000", "161153.723000", "161153.730000", "161153.732000", "161153.735000", "161153.737000", "161153.740000", "161153.742000", "161153.745000", "161153.747000", "161153.750000", "161153.753000"],
      "InstanceNumber": [1, 2, 3, 4, 5, 6, 7, 8, 9, 10, 11, 12, 13, 14, 15, 16, 17, 18, 19, 20, 21, 22, 23, 24, 25, 26, 27, 28, 29, 30, 31, 32, 33, 34, 35, 36, 37, 38, 39, 40, 41, 42, 43, 44, 45, 46, 47, 48, 49, 50, 51, 52, 53, 54, 55, 56, 57, 58, 59, 60, 61, 62, 63, 64, 65, 66, 67, 68, 69, 70, 71, 72, 73, 74, 75, 76, 77, 78, 79, 80, 81, 82, 83, 84, 85, 86, 87, 88, 89, 90, 91, 92, 93, 94, 95, 96, 97, 98, 99, 100, 101, 102, 103, 104, 105, 106, 107, 108, 109, 110, 111, 112, 113, 114, 115, 116, 117, 118, 119, 120, 121, 122, 123, 124, 125, 126, 127, 128, 129, 130, 131, 132, 133, 134, 135, 136, 137, 138, 139, 140, 141, 142, 143, 144, 145, 146, 147, 148, 149, 150, 151, 152, 153, 154, 155, 156, 157, 158, 159, 160, 161, 162, 163, 164, 165, 166, 167, 168, 169, 170, 171, 172, 173, 174, 175, 176, 177, 178, 179, 180, 181, 182, 183, 184, 185, 186, 187, 188, 189, 190],
      "WindowCenter": [4816.0, 4818.0, 4820.0, 4822.0, 4818.0, 4820.0, 4818.0, 4816.0, 4818.0, 4818.0, 4814.0, 4818.0, 4790.0, 4814.0, 4814.0, 4818.0, 4820.0, 4818.0, 4822.0, 4816.0, 4818.0, 4820.0, 4812.0, 4816.0, 4818.0, 4816.0, 4818.0, 4818.0, 4818.0, 4820.0, 4818.0, 4820.0, 4818.0, 4820.0, 4816.0, 4816.0, 4816.0, 4816.0, 4820.0, 4816.0, 4816.0, 4816.0, 4818.0, 4816.0, 4814.0, 4818.0, 4816.0, 4820.0, 4816.0, 4816.0, 4814.0, 4818.0, 4818.0, 4814.0, 4820.0, 4816.0, 4816.0, 4820.0, 4822.0, 4818.0, 4818.0, 4818.0, 4816.0, 4816.0, 4816.0, 4814.0, 4814.0, 4818.0, 4820.0, 4818.0, 4818.0, 4814.0, 4818.0, 4816.0, 4816.0, 4818.0, 4816.0, 4818.0, 4820.0, 4824.0, 4814.0, 4820.0, 4808.0, 4818.0, 4818.0, 4824.0, 4818.0, 4812.0, 4790.0, 4818.0, 4814.0, 4818.0, 4818.0, 4840.0, 4818.0, 4816.0, 4818.0, 4816.0, 4816.0, 4816.0, 4818.0, 4816.0, 4818.0, 4814.0, 4814.0, 4814.0, 4818.0, 4816.0, 4816.0, 4818.0, 4814.0, 4814.0, 4814.0, 4814.0, 4812.0, 4816.0, 4818.0, 4814.0, 4816.0, 4822.0, 4820.0, 4822.0, 4820.0, 4818.0, 4814.0, 4818.0, 4812.0, 4822.0, 4814.0, 4814.0, 4814.0, 4816.0, 4816.0, 4818.0, 4816.0, 4816.0, 4814.0, 4816.0, 4816.0, 4822.0, 4816.0, 4818.0, 4814.0, 4820.0, 4818.0, 4820.0, 4818.0, 4818.0, 4818.0, 4816.0, 4816.0, 4816.0, 4820.0, 4818.0, 4814.0, 4818.0, 4818.0, 4814.0, 4816.0, 4816.0, 4816.0, 4816.0, 4818.0, 4814.0, 4820.0, 4844.0, 4820.0, 4816.0, 4818.0, 4814.0, 4816.0, 4820.0, 4818.0, 4822.0, 4816.0, 4816.0, 4816.0, 4820.0, 4816.0, 4814.0, 4818.0, 4818.0, 4814.0, 4816.0, 4816.0, 4814.0, 4812.0, 4812.0, 4814.0, 4814.0],
      "WindowWidth": [18600.0, 18618.0, 18612.0, 18580.0, 18582.0, 18616.0, 18626.0, 18616.0, 18624.0, 18618.0, 18602.0, 18578.0, 18558.0, 18594.0, 18584.0, 18612.0, 18616.0, 18610.0, 18626.0, 18608.0, 18610.0, 18608.0, 18588.0, 18596.0, 18610.0, 18592.0, 18608.0, 18612.0, 18602.0, 18616.0, 18618.0, 18618.0, 18620.0, 18618.0, 18606.0, 18608.0, 18608.0, 18590.0, 18612.0, 18600.0, 18610.0, 18620.0, 18608.0, 18618.0, 18608.0, 18612.0, 18606.0, 18608.0, 18606.0, 18598.0, 18604.0, 18612.0, 18602.0, 18620.0, 18606.0, 18582.0, 18608.0, 18614.0, 18624.0, 18618.0, 18612.0, 18590.0, 18588.0, 18600.0, 18602.0, 18594.0, 18610.0, 18608.0, 18612.0, 18624.0, 18610.0, 18592.0, 18614.0, 18610.0, 18606.0, 18620.0, 18614.0, 18604.0, 18572.0, 18576.0, 18592.0, 18630.0, 18610.0, 18622.0, 18626.0, 18622.0, 18606.0, 18596.0, 18566.0, 18596.0, 18602.0, 18616.0, 18614.0, 18658.0, 18616.0, 18594.0, 18622.0, 18614.0, 18612.0, 18616.0, 18606.0, 18610.0, 18616.0, 18606.0, 18610.0, 18608.0, 18610.0, 18618.0, 18618.0, 18614.0, 18622.0, 18606.0, 18610.0, 18604.0, 18598.0, 18610.0, 18596.0, 18596.0, 18614.0, 18608.0, 18624.0, 18616.0, 18622.0, 18614.0, 18606.0, 18616.0, 18596.0, 18616.0, 18606.0, 18602.0, 18616.0, 18614.0, 18614.0, 18622.0, 18614.0, 18612.0, 18606.0, 18610.0, 18600.0, 18586.0, 18590.0, 18628.0, 18610.0, 18628.0, 18624.0, 18602.0, 18606.0, 18594.0, 18600.0, 18596.0, 18610.0, 18610.0, 18616.0, 18622.0, 18604.0, 18612.0, 18610.0, 18602.0, 18604.0, 18604.0, 18594.0, 18602.0, 18606.0, 18598.0, 18608.0, 18646.0, 18604.0, 18612.0, 18596.0, 18598.0, 18600.0, 18612.0, 18610.0, 18614.0, 18614.0, 18596.0, 18610.0, 18590.0, 18600.0, 18610.0, 18618.0, 18614.0, 18608.0, 18606.0, 18608.0, 18608.0, 18602.0, 18602.0, 18610.0, 18592.0]
    },
    "slices": {}
  }
}