{
  "AcquisitionMatrixPE": 104,
  "AcquisitionNumber": 1,
  "AcquisitionTime": "15:48:22.057500",
  "BandwidthPerPixelPhaseEncode": 17.17,
  "BaseResolution": 104,
  "BodyPartExamined": "BRAIN",
  "CoilString": "HC1-7;NC1_2",
  "ConsistencyInfo": "N4_VE11C_LATEST_20160120",
  "ConversionSoftware": "dcm2niix",
  "ConversionSoftwareVersion": "v1.0.20190902",
  "DerivedVendorReportedEchoSpacing": 0.000560011,
  "DeviceSerialNumber": "167006",
  "DwellTime": 2.1e-06,
  "EchoTime": 0.037,
  "EchoTrainLength": 104,
  "EffectiveEchoSpacing": 0.000560011,
  "FlipAngle": 52,
  "HeudiconvVersion": "0.10.0",
  "ImageComments": "Unaliased_MB4_PE3_LB",
  "ImageOrientationPatientDICOM": [0.999429, -0.0298643, 0.0157796, 0.0333291, 0.947758, -0.317245],
  "ImageType": [
    "ORIGINAL",
    "PRIMARY",
    "P",
    "MB",
    "ND",
    "MOSAIC"
],
  "ImagingFrequency": 123.259,
  "InPlanePhaseEncodingDirectionDICOM": "COL",
  "InstitutionAddress": "Chemin_Queen-Mary_4565_Montreal_District_CA_H3W_1W5",
  "InstitutionName": "IUGM",
  "InstitutionalDepartmentName": "Department",
  "MRAcquisitionType": "2D",
  "MagneticFieldStrength": 3,
  "Manufacturer": "Siemens",
  "ManufacturersModelName": "Prisma_fit",
  "Modality": "MR",
  "MultibandAccelerationFactor": 4,
  "PartialFourier": 1,
  "PatientPosition": "HFS",
  "PercentPhaseFOV": 100,
  "PhaseEncodingDirection": "j",
  "PhaseEncodingSteps": 104,
  "PhaseResolution": 1,
  "PixelBandwidth": 2290,
  "ProcedureStepDescription": "memory_things",
  "ProtocolName": "func_task-things_run-3",
  "PulseSequenceDetails": "%CustomerSeq%_cmrr_mbep2d_bold",
  "ReceiveCoilActiveElements": "HC1-7;NC1,2",
  "ReceiveCoilName": "HeadNeck_64",
  "ReconMatrixPE": 104,
  "RepetitionTime": 1.49,
  "SAR": 0.0334012,
  "ScanOptions": "FS",
  "ScanningSequence": "EP",
  "SequenceName": "epfid2d1_104",
  "SequenceVariant": "SK_SS",
  "SeriesDescription": "func_task-things_run-3",
  "SeriesNumber": 17,
  "ShimSetting": [624, -7247, -8817, 610, 1, -186, -54, -7],
  "SliceThickness": 2,
  "SliceTiming": [0, 0.7825, 0.0975, 0.88, 0.195, 0.98, 0.2925, 1.0775, 0.39, 1.175, 0.49, 1.2725, 0.5875, 1.37, 0.685, 0, 0.7825, 0.0975, 0.88, 0.195, 0.98, 0.2925, 1.0775, 0.39, 1.175, 0.49, 1.2725, 0.5875, 1.37, 0.685, 0, 0.7825, 0.0975, 0.88, 0.195, 0.98, 0.2925, 1.0775, 0.39, 1.175, 0.49, 1.2725, 0.5875, 1.37, 0.685, 0, 0.7825, 0.0975, 0.88, 0.195, 0.98, 0.2925, 1.0775, 0.39, 1.175, 0.49, 1.2725, 0.5875, 1.37, 0.685],
  "SoftwareVersions": "syngo_MR_E11",
  "SpacingBetweenSlices": 2,
  "StationName": "MRC35049",
  "TaskName": "things",
  "TotalReadoutTime": 0.0576811,
  "TxRefAmp": 228.364,
  "WipMemBlock": "acd4daf8-92cd-4167-abd5-d5237cad24d9||Sequence: R016 ve11c/master r/e634e98; Dec 19 2017 11:00:25 by eja",
  "dcmmeta_affine": [
    [-1.9988588094711304, 0.06665823608636856, 0.010961816646158695, 103.72669219970703],
    [0.05972859263420105, 1.8955157995224, -0.6351790428161621, -68.99198150634766],
    [0.03155910223722458, 0.6344892382621765, 1.8964250087738037, -64.30989837646484],
    [0.0, 0.0, 0.0, 1.0]
],
  "dcmmeta_reorient_transform": [
    [0.0, -1.0, 0.0, 103.0],
    [1.0, 0.0, 0.0, 0.0],
    [0.0, 0.0, 1.0, 0.0],
    [0.0, 0.0, 0.0, 1.0]
],
  "dcmmeta_shape": [104, 104, 60, 190],
  "dcmmeta_slice_dim": 2,
  "dcmmeta_version": 0.6,
  "global": {
    "const": {
      "AcquisitionMatrix": [104, 0, 0, 104],
      "AngioFlag": "N",
      "BitsAllocated": 16,
      "BitsStored": 16,
      "BodyPartExamined": "BRAIN",
      "Columns": 832,
      "EchoNumbers": 1,
      "EchoTime": 37.0,
      "EchoTrainLength": 104,
      "FlipAngle": 52.0,
      "HighBit": 15,
      "ImageOrientationPatient": [0.99942940200347, -0.0298642956169, 0.01577955190428, 0.03332911726313, 0.94775789497796, -0.3172446098036],
      "ImagePositionPatient": [-862.44069450946, -794.47268241683, 220.50905649861],
      "ImageType": [
        "ORIGINAL",
        "PRIMARY",
        "P",
        "MB",
        "ND",
        "MOSAIC"
],
      "ImagedNucleus": "1H",
      "ImagingFrequency": 123.259063,
      "InPlanePhaseEncodingDirection": "COL",
      "LargestImagePixelValue": 4095,
      "MRAcquisitionType": "2D",
      "MagneticFieldStrength": 3.0,
      "Manufacturer": "SIEMENS",
      "ManufacturerModelName": "Prisma_fit",
      "Modality": "MR",
      "NumberOfAverages": 1.0,
      "NumberOfPhaseEncodingSteps": 104,
      "PercentPhaseFieldOfView": 100.0,
      "PercentSampling": 100.0,
      "PerformedProcedureStepStartTime": "141829.212000",
      "PhotometricInterpretation": "MONOCHROME2",
      "PixelBandwidth": 2290.0,
      "PixelRepresentation": 0,
      "PixelSpacing": [2.0, 2.0],
      "ProtocolName": "func_task-things_run-3",
      "RepetitionTime": 1490.0,
      "RescaleIntercept": -4096.0,
      "RescaleSlope": 2.0,
      "RescaleType": "US",
      "Rows": 832,
      "SAR": 0.03340115777615,
      "SamplesPerPixel": 1,
      "ScanOptions": "FS",
      "ScanningSequence": "EP",
      "SequenceName": "epfid2d1_104",
      "SequenceVariant": [
        "SK",
        "SS"
],
      "SeriesDescription": "func_task-things_run-3",
      "SeriesNumber": 17,
      "SeriesTime": "154933.279000",
      "SliceLocation": -38.499796889028,
      "SliceThickness": 2.0,
      "SmallestImagePixelValue": 0,
      "SoftwareVersions": "syngo MR E11",
      "SpacingBetweenSlices": 2.0000000481654,
      "SpecificCharacterSet": "ISO_IR 100",
      "StudyID": "1",
      "StudyTime": "141829.125000",
      "TransmitCoilName": "Body",
      "VariableFlipAngleFlag": "N",
      "WindowCenterWidthExplanation": "Algo1",
      "dBdt": 0.0},
    "slices": {}
  },
  "time": {
    "samples": {
      "AcquisitionNumber": [1, 2, 3, 4, 5, 6, 7, 8, 9, 10, 11, 12, 13, 14, 15, 16, 17, 18, 19, 20, 21, 22, 23, 24, 25, 26, 27, 28, 29, 30, 31, 32, 33, 34, 35, 36, 37, 38, 39, 40, 41, 42, 43, 44, 45, 46, 47, 48, 49, 50, 51, 52, 53, 54, 55, 56, 57, 58, 59, 60, 61, 62, 63, 64, 65, 66, 67, 68, 69, 70, 71, 72, 73, 74, 75, 76, 77, 78, 79, 80, 81, 82, 83, 84, 85, 86, 87, 88, 89, 90, 91, 92, 93, 94, 95, 96, 97, 98, 99, 100, 101, 102, 103, 104, 105, 106, 107, 108, 109, 110, 111, 112, 113, 114, 115, 116, 117, 118, 119, 120, 121, 122, 123, 124, 125, 126, 127, 128, 129, 130, 131, 132, 133, 134, 135, 136, 137, 138, 139, 140, 141, 142, 143, 144, 145, 146, 147, 148, 149, 150, 151, 152, 153, 154, 155, 156, 157, 158, 159, 160, 161, 162, 163, 164, 165, 166, 167, 168, 169, 170, 171, 172, 173, 174, 175, 176, 177, 178, 179, 180, 181, 182, 183, 184, 185, 186, 187, 188, 189, 190],
      "AcquisitionTime": ["154822.057500", "154823.547500", "154825.037500", "154826.527500", "154828.017500", "154829.507500", "154830.997500", "154832.487500", "154833.977500", "154835.467500", "154836.957500", "154838.447500", "154839.937500", "154841.427500", "154842.917500", "154844.407500", "154845.897500", "154847.387500", "154848.877500", "154850.367500", "154851.857500", "154853.347500", "154854.837500", "154856.327500", "154857.817500", "154859.307500", "154900.797500", "154902.287500", "154903.777500", "154905.267500", "154906.757500", "154908.247500", "154909.737500", "154911.227500", "154912.717500", "154914.207500", "154915.697500", "154917.187500", "154918.677500", "154920.167500", "154921.657500", "154923.147500", "154924.637500", "154926.127500", "154927.617500", "154929.107500", "154930.597500", "154932.087500", "154933.577500", "154935.067500", "154936.557500", "154938.047500", "154939.537500", "154941.027500", "154942.517500", "154944.007500", "154945.497500", "154946.987500", "154948.477500", "154949.967500", "154951.457500", "154952.947500", "154954.437500", "154955.927500", "154957.417500", "154958.907500", "155000.397500", "155001.887500", "155003.377500", "155004.867500", "155006.357500", "155007.847500", "155009.337500", "155010.827500", "155012.317500", "155013.807500", "155015.297500", "155016.787500", "155018.277500", "155019.767500", "155021.257500", "155022.747500", "155024.237500", "155025.727500", "155027.217500", "155028.707500", "155030.197500", "155031.687500", "155033.177500", "155034.667500", "155036.157500", "155037.647500", "155039.137500", "155040.627500", "155042.117500", "155043.607500", "155045.097500", "155046.587500", "155048.077500", "155049.567500", "155051.057500", "155052.547500", "155054.037500", "155055.527500", "155057.017500", "155058.507500", "155059.997500", "155101.487500", "155102.977500", "155104.467500", "155105.957500", "155107.447500", "155108.937500", "155110.427500", "155111.917500", "155113.407500", "155114.897500", "155116.387500", "155117.877500", "155119.367500", "155120.857500", "155122.347500", "155123.837500", "155125.327500", "155126.817500", "155128.307500", "155129.797500", "155131.287500", "155132.777500", "155134.267500", "155135.757500", "155137.247500", "155138.737500", "155140.227500", "155141.717500", "155143.207500", "155144.697500", "155146.187500", "155147.677500", "155149.167500", "155150.657500", "155152.147500", "155153.637500", "155155.127500", "155156.617500", "155158.107500", "155159.597500", "155201.087500", "155202.577500", "155204.067500", "155205.557500", "155207.047500", "155208.537500", "155210.027500", "155211.517500", "155213.007500", "155214.497500", "155215.987500", "155217.477500", "155218.967500", "155220.457500", "155221.947500", "155223.437500", "155224.927500", "155226.417500", "155227.907500", "155229.397500", "155230.887500", "155232.377500", "155233.867500", "155235.357500", "155236.847500", "155238.337500", "155239.827500", "155241.317500", "155242.807500", "155244.297500", "155245.787500", "155247.277500", "155248.767500", "155250.257500", "155251.747500", "155253.237500", "155254.727500", "155256.217500", "155257.707500", "155259.197500", "155300.687500", "155302.177500", "155303.667500"],
      "ContentTime": ["154933.281000", "154933.284000", "154933.287000", "154933.289000", "154933.292000", "154933.294000", "154933.297000", "154933.299000", "154933.302000", "154933.304000", "154933.307000", "154933.309000", "154933.311000", "154933.314000", "154933.316000", "154933.319000", "154953.199000", "154953.202000", "154953.204000", "154953.207000", "154953.209000", "154953.212000", "154953.214000", "154953.217000", "154953.219000", "154953.222000", "154953.224000", "154953.233000", "154953.235000", "154953.238000", "154953.240000", "154953.243000", "154953.245000", "154953.248000", "154953.250000", "154953.253000", "155013.204000", "155013.207000", "155013.209000", "155013.212000", "155013.214000", "155013.217000", "155013.219000", "155013.221000", "155013.224000", "155013.226000", "155013.229000", "155013.231000", "155013.234000", "155013.236000", "155013.239000", "155013.241000", "155013.244000", "155013.246000", "155013.249000", "155013.251000", "155033.214000", "155033.217000", "155033.219000", "155033.222000", "155033.225000", "155033.227000", "155033.229000", "155033.232000", "155033.234000", "155033.237000", "155033.239000", "155033.242000", "155033.244000", "155033.247000", "155033.249000", "155033.252000", "155033.254000", "155033.257000", "155033.259000", "155033.262000", "155033.264000", "155053.202000", "155053.205000", "155053.207000", "155053.210000", "155053.212000", "155053.215000", "155053.217000", "155053.220000", "155053.222000", "155053.225000", "155053.232000", "155053.235000", "155053.237000", "155053.240000", "155053.243000", "155053.245000", "155053.248000", "155053.250000", "155053.253000", "155053.255000", "155133.245000", "155133.247000", "155133.250000", "155133.253000", "155133.256000", "155133.259000", "155133.261000", "155133.264000", "155133.267000", "155133.269000", "155133.272000", "155133.275000", "155133.278000", "155133.280000", "155133.283000", "155133.285000", "155133.288000", "155133.290000", "155133.293000", "155133.295000", "155133.298000", "155133.300000", "155133.303000", "155133.305000", "155133.308000", "155133.310000", "155133.313000", "155133.315000", "155133.318000", "155133.320000", "155213.235000", "155213.238000", "155213.241000", "155213.243000", "155213.246000", "155213.248000", "155213.251000", "155213.253000", "155213.256000", "155213.258000", "155213.261000", "155213.263000", "155213.266000", "155213.268000", "155213.271000", "155213.274000", "155213.276000", "155213.279000", "155213.281000", "155213.284000", "155213.286000", "155213.289000", "155213.291000", "155213.294000", "155213.296000", "155213.299000", "155213.301000", "155253.231000", "155253.234000", "155253.237000", "155253.239000", "155253.242000", "155253.244000", "155253.247000", "155253.249000", "155253.252000", "155253.255000", "155253.257000", "155253.260000", "155253.262000", "155253.265000", "155253.267000", "155253.270000", "155253.272000", "155253.275000", "155253.278000", "155253.280000", "155253.283000", "155253.285000", "155253.288000", "155253.290000", "155253.293000", "155253.295000", "155253.298000", "155305.769000", "155305.772000", "155305.775000", "155305.777000", "155305.780000", "155305.783000", "155305.785000", "155305.788000", "155305.790000"],
      "InstanceCreationTime": ["154933.281000", "154933.284000", "154933.287000", "154933.289000", "154933.292000", "154933.294000", "154933.297000", "154933.299000", "154933.302000", "154933.304000", "154933.307000", "154933.309000", "154933.311000", "154933.314000", "154933.316000", "154933.319000", "154953.199000", "154953.202000", "154953.204000", "154953.207000", "154953.209000", "154953.212000", "154953.214000", "154953.217000", "154953.219000", "154953.222000", "154953.224000", "154953.233000", "154953.235000", "154953.238000", "154953.240000", "154953.243000", "154953.245000", "154953.248000", "154953.250000", "154953.253000", "155013.204000", "155013.207000", "155013.209000", "155013.212000", "155013.214000", "155013.217000", "155013.219000", "155013.221000", "155013.224000", "155013.226000", "155013.229000", "155013.231000", "155013.234000", "155013.236000", "155013.239000", "155013.241000", "155013.244000", "155013.246000", "155013.249000", "155013.251000", "155033.214000", "155033.217000", "155033.219000", "155033.222000", "155033.225000", "155033.227000", "155033.229000", "155033.232000", "155033.234000", "155033.237000", "155033.239000", "155033.242000", "155033.244000", "155033.247000", "155033.249000", "155033.252000", "155033.254000", "155033.257000", "155033.259000", "155033.262000", "155033.264000", "155053.202000", "155053.205000", "155053.207000", "155053.210000", "155053.212000", "155053.215000", "155053.217000", "155053.220000", "155053.222000", "155053.225000", "155053.232000", "155053.235000", "155053.237000", "155053.240000", "155053.243000", "155053.245000", "155053.248000", "155053.250000", "155053.253000", "155053.255000", "155133.245000", "155133.247000", "155133.250000", "155133.253000", "155133.256000", "155133.259000", "155133.261000", "155133.264000", "155133.267000", "155133.269000", "155133.272000", "155133.275000", "155133.278000", "155133.280000", "155133.283000", "155133.285000", "155133.288000", "155133.290000", "155133.293000", "155133.295000", "155133.298000", "155133.300000", "155133.303000", "155133.305000", "155133.308000", "155133.310000", "155133.313000", "155133.315000", "155133.318000", "155133.320000", "155213.235000", "155213.238000", "155213.241000", "155213.243000", "155213.246000", "155213.248000", "155213.251000", "155213.253000", "155213.256000", "155213.258000", "155213.261000", "155213.263000", "155213.266000", "155213.268000", "155213.271000", "155213.274000", "155213.276000", "155213.279000", "155213.281000", "155213.284000", "155213.286000", "155213.289000", "155213.291000", "155213.294000", "155213.296000", "155213.299000", "155213.301000", "155253.231000", "155253.234000", "155253.237000", "155253.239000", "155253.242000", "155253.244000", "155253.247000", "155253.249000", "155253.252000", "155253.255000", "155253.257000", "155253.260000", "155253.262000", "155253.265000", "155253.267000", "155253.270000", "155253.272000", "155253.275000", "155253.278000", "155253.280000", "155253.283000", "155253.285000", "155253.288000", "155253.290000", "155253.293000", "155253.295000", "155253.298000", "155305.769000", "155305.772000", "155305.775000", "155305.777000", "155305.780000", "155305.783000", "155305.785000", "155305.788000", "155305.790000"],
      "InstanceNumber": [1, 2, 3, 4, 5, 6, 7, 8, 9, 10, 11, 12, 13, 14, 15, 16, 17, 18, 19, 20, 21, 22, 23, 24, 25, 26, 27, 28, 29, 30, 31, 32, 33, 34, 35, 36, 37, 38, 39, 40, 41, 42, 43, 44, 45, 46, 47, 48, 49, 50, 51, 52, 53, 54, 55, 56, 57, 58, 59, 60, 61, 62, 63, 64, 65, 66, 67, 68, 69, 70, 71, 72, 73, 74, 75, 76, 77, 78, 79, 80, 81, 82, 83, 84, 85, 86, 87, 88, 89, 90, 91, 92, 93, 94, 95, 96, 97, 98, 99, 100, 101, 102, 103, 104, 105, 106, 107, 108, 109, 110, 111, 112, 113, 114, 115, 116, 117, 118, 119, 120, 121, 122, 123, 124, 125, 126, 127, 128, 129, 130, 131, 132, 133, 134, 135, 136, 137, 138, 139, 140, 141, 142, 143, 144, 145, 146, 147, 148, 149, 150, 151, 152, 153, 154, 155, 156, 157, 158, 159, 160, 161, 162, 163, 164, 165, 166, 167, 168, 169, 170, 171, 172, 173, 174, 175, 176, 177, 178, 179, 180, 181, 182, 183, 184, 185, 186, 187, 188, 189, 190],
      "WindowCenter": [4816.0, 4812.0, 4814.0, 4816.0, 4794.0, 4812.0, 4808.0, 4814.0, 4814.0, 4814.0, 4818.0, 4816.0, 4814.0, 4816.0, 4796.0, 4798.0, 4812.0, 4774.0, 4772.0, 4776.0, 4804.0, 4816.0, 4818.0, 4822.0, 4788.0, 4814.0, 4816.0, 4816.0, 4814.0, 4810.0, 4818.0, 4814.0, 4818.0, 4818.0, 4820.0, 4814.0, 4818.0, 4816.0, 4814.0, 4816.0, 4818.0, 4814.0, 4814.0, 4816.0, 4814.0, 4818.0, 4816.0, 4814.0, 4818.0, 4814.0, 4818.0, 4820.0, 4790.0, 4794.0, 4820.0, 4814.0, 4820.0, 4818.0, 4816.0, 4820.0, 4814.0, 4816.0, 4816.0, 4818.0, 4814.0, 4816.0, 4818.0, 4820.0, 4814.0, 4820.0, 4820.0, 4816.0, 4818.0, 4816.0, 4820.0, 4814.0, 4820.0, 4818.0, 4816.0, 4818.0, 4794.0, 4816.0, 4814.0, 4816.0, 4814.0, 4816.0, 4818.0, 4816.0, 4818.0, 4818.0, 4816.0, 4818.0, 4814.0, 4812.0, 4822.0, 4818.0, 4816.0, 4816.0, 4816.0, 4794.0, 4816.0, 4816.0, 4812.0, 4810.0, 4806.0, 4810.0, 4820.0, 4822.0, 4824.0, 4796.0, 4810.0, 4774.0, 4772.0, 4768.0, 4804.0, 4814.0, 4814.0, 4792.0, 4816.0, 4822.0, 4818.0, 4822.0, 4812.0, 4808.0, 4812.0, 4810.0, 4816.0, 4822.0, 4818.0, 4820.0, 4816.0, 4820.0, 4822.0, 4820.0, 4812.0, 4808.0, 4822.0, 4822.0, 4818.0, 4792.0, 4816.0, 4816.0, 4818.0, 4820.0, 4816.0, 4818.0, 4818.0, 4818.0, 4820.0, 4818.0, 4816.0, 4820.0, 4820.0, 4818.0, 4820.0, 4818.0, 4818.0, 4818.0, 4818.0, 4820.0, 4820.0, 4818.0, 4820.0, 4818.0, 4818.0, 4820.0, 4814.0, 4822.0, 4818.0, 4818.0, 4820.0, 4820.0, 4814.0, 4818.0, 4818.0, 4818.0, 4814.0, 4816.0, 4820.0, 4820.0, 4816.0, 4818.0, 4816.0, 4816.0, 4816.0, 4814.0, 4820.0, 4818.0, 4818.0, 4818.0],
      "WindowWidth": [18624.0, 18622.0, 18622.0, 18614.0, 18562.0, 18620.0, 18620.0, 18620.0, 18620.0, 18622.0, 18612.0, 18622.0, 18624.0, 18612.0, 18548.0, 18556.0, 18618.0, 18570.0, 18564.0, 18566.0, 18612.0, 18626.0, 18600.0, 18580.0, 18562.0, 18610.0, 18624.0, 18624.0, 18620.0, 18620.0, 18626.0, 18622.0, 18630.0, 18622.0, 18620.0, 18620.0, 18608.0, 18614.0, 18622.0, 18624.0, 18628.0, 18626.0, 18620.0, 18618.0, 18624.0, 18620.0, 18610.0, 18620.0, 18626.0, 18618.0, 18628.0, 18628.0, 18574.0, 18570.0, 18624.0, 18626.0, 18628.0, 18628.0, 18626.0, 18628.0, 18616.0, 18608.0, 18618.0, 18626.0, 18602.0, 18622.0, 18622.0, 18622.0, 18624.0, 18624.0, 18626.0, 18630.0, 18614.0, 18608.0, 18628.0, 18618.0, 18626.0, 18630.0, 18622.0, 18594.0, 18576.0, 18624.0, 18622.0, 18622.0, 18622.0, 18622.0, 18614.0, 18608.0, 18614.0, 18616.0, 18606.0, 18620.0, 18618.0, 18620.0, 18626.0, 18626.0, 18622.0, 18624.0, 18604.0, 18556.0, 18608.0, 18626.0, 18618.0, 18612.0, 18612.0, 18622.0, 18608.0, 18576.0, 18576.0, 18552.0, 18620.0, 18568.0, 18556.0, 18554.0, 18606.0, 18620.0, 18602.0, 18550.0, 18584.0, 18608.0, 18614.0, 18616.0, 18616.0, 18608.0, 18616.0, 18614.0, 18620.0, 18626.0, 18618.0, 18610.0, 18594.0, 18598.0, 18624.0, 18620.0, 18610.0, 18608.0, 18622.0, 18626.0, 18624.0, 18570.0, 18608.0, 18618.0, 18616.0, 18630.0, 18624.0, 18628.0, 18630.0, 18622.0, 18628.0, 18624.0, 18612.0, 18614.0, 18630.0, 18616.0, 18624.0, 18628.0, 18626.0, 18626.0, 18624.0, 18620.0, 18628.0, 18618.0, 18622.0, 18622.0, 18622.0, 18628.0, 18616.0, 18630.0, 18622.0, 18616.0, 18626.0, 18624.0, 18602.0, 18620.0, 18626.0, 18630.0, 18622.0, 18620.0, 18628.0, 18628.0, 18618.0, 18624.0, 18618.0, 18620.0, 18610.0, 18598.0, 18620.0, 18626.0, 18624.0, 18626.0]
    },
    "slices": {}
  }
}