{
  "AcquisitionMatrixPE": 104,
  "AcquisitionNumber": 1,
  "AcquisitionTime": "10:52:49.797500",
  "BandwidthPerPixelPhaseEncode": 17.17,
  "BaseResolution": 104,
  "BodyPartExamined": "BRAIN",
  "CoilString": "HC1-7;NC1_2",
  "ConsistencyInfo": "N4_VE11C_LATEST_20160120",
  "ConversionSoftware": "dcm2niix",
  "ConversionSoftwareVersion": "v1.0.20190902",
  "DerivedVendorReportedEchoSpacing": 0.000560011,
  "DeviceSerialNumber": "167006",
  "DwellTime": 2.1e-06,
  "EchoTime": 0.037,
  "EchoTrainLength": 104,
  "EffectiveEchoSpacing": 0.000560011,
  "FlipAngle": 52,
  "ImageComments": "Unaliased_MB4_PE3_LB",
  "ImageOrientationPatientDICOM": [0.999423, 0.0100666, 0.0324332, 0.00732627, 0.868651, -0.49537],
  "ImageType": [
    "ORIGINAL",
    "PRIMARY",
    "M",
    "MB",
    "ND",
    "MOSAIC"
],
  "ImagingFrequency": 123.259,
  "InPlanePhaseEncodingDirectionDICOM": "COL",
  "InstitutionAddress": "Chemin_Queen-Mary_4565_Montreal_District_CA_H3W_1W5",
  "InstitutionName": "IUGM",
  "InstitutionalDepartmentName": "Department",
  "MRAcquisitionType": "2D",
  "MagneticFieldStrength": 3,
  "Manufacturer": "Siemens",
  "ManufacturersModelName": "Prisma_fit",
  "Modality": "MR",
  "MultibandAccelerationFactor": 4,
  "PartialFourier": 1,
  "PatientPosition": "HFS",
  "PercentPhaseFOV": 100,
  "PhaseEncodingDirection": "j",
  "PhaseEncodingSteps": 104,
  "PhaseResolution": 1,
  "PixelBandwidth": 2290,
  "ProcedureStepDescription": "memory_things",
  "ProtocolName": "func_task-things_run-1",
  "PulseSequenceDetails": "%CustomerSeq%_cmrr_mbep2d_bold",
  "ReceiveCoilActiveElements": "HC1-7;NC1,2",
  "ReceiveCoilName": "HeadNeck_64",
  "ReconMatrixPE": 104,
  "RepetitionTime": 1.49,
  "SAR": 0.0523423,
  "ScanOptions": "FS",
  "ScanningSequence": "EP",
  "SequenceName": "epfid2d1_104",
  "SequenceVariant": "SK_SS",
  "SeriesDescription": "func_task-things_run-1",
  "SeriesNumber": 13,
  "ShimSetting": [613, -7177, -8854, 299, -31, -116, -16, -26],
  "SliceThickness": 2,
  "SliceTiming": [0, 0.7825, 0.0975, 0.8825, 0.195, 0.98, 0.2925, 1.0775, 0.3925, 1.175, 0.49, 1.2725, 0.5875, 1.3725, 0.685, 0, 0.7825, 0.0975, 0.8825, 0.195, 0.98, 0.2925, 1.0775, 0.3925, 1.175, 0.49, 1.2725, 0.5875, 1.3725, 0.685, 0, 0.7825, 0.0975, 0.8825, 0.195, 0.98, 0.2925, 1.0775, 0.3925, 1.175, 0.49, 1.2725, 0.5875, 1.3725, 0.685, 0, 0.7825, 0.0975, 0.8825, 0.195, 0.98, 0.2925, 1.0775, 0.3925, 1.175, 0.49, 1.2725, 0.5875, 1.3725, 0.685],
  "SoftwareVersions": "syngo_MR_E11",
  "SpacingBetweenSlices": 2,
  "StationName": "MRC35049",
  "TaskName": "things",
  "TotalReadoutTime": 0.0576811,
  "TxRefAmp": 281.88,
  "WipMemBlock": "ddca905c-c8c0-42f4-97df-6e94648ca5dd||Sequence: R016 ve11c/master r/e634e98; Dec 19 2017 11:00:25 by eja",
  "dcmmeta_affine": [
    [-1.998846411705017, 0.01465254183858633, 0.06631970405578613, 104.52155303955078],
    [-0.020133260637521744, 1.7373024225234985, -0.9906436800956726, -52.258304595947266],
    [0.06486641615629196, 0.9907398819923401, 1.7361528873443604, -91.62046813964844],
    [0.0, 0.0, 0.0, 1.0]
],
  "dcmmeta_reorient_transform": [
    [0.0, -1.0, 0.0, 103.0],
    [1.0, 0.0, 0.0, 0.0],
    [0.0, 0.0, 1.0, 0.0],
    [0.0, 0.0, 0.0, 1.0]
],
  "dcmmeta_shape": [104, 104, 60, 190],
  "dcmmeta_slice_dim": 2,
  "dcmmeta_version": 0.6,
  "global": {
    "const": {
      "AcquisitionMatrix": [104, 0, 0, 104],
      "AngioFlag": "N",
      "BitsAllocated": 16,
      "BitsStored": 16,
      "BodyPartExamined": "BRAIN",
      "Columns": 832,
      "EchoNumbers": 1,
      "EchoTime": 37.0,
      "EchoTrainLength": 104,
      "FlipAngle": 52.0,
      "HighBit": 15,
      "ImageOrientationPatient": [0.99942320867487, 0.01006663016697, 0.03243320704315, 0.00732627110143, 0.86865122127289, -0.4953699441154],
      "ImagePositionPatient": [-838.94438275329, -766.39044401784, 347.44368827265],
      "ImageType": [
        "ORIGINAL",
        "PRIMARY",
        "M",
        "MB",
        "ND",
        "MOSAIC"
],
      "ImagedNucleus": "1H",
      "ImagingFrequency": 123.258903,
      "InPlanePhaseEncodingDirection": "COL",
      "MRAcquisitionType": "2D",
      "MagneticFieldStrength": 3.0,
      "Manufacturer": "SIEMENS",
      "ManufacturerModelName": "Prisma_fit",
      "Modality": "MR",
      "NumberOfAverages": 1.0,
      "NumberOfPhaseEncodingSteps": 104,
      "PercentPhaseFieldOfView": 100.0,
      "PercentSampling": 100.0,
      "PerformedProcedureStepStartTime": "104247.479000",
      "PhotometricInterpretation": "MONOCHROME2",
      "PixelBandwidth": 2290.0,
      "PixelRepresentation": 0,
      "PixelSpacing": [2.0, 2.0],
      "ProtocolName": "func_task-things_run-1",
      "RepetitionTime": 1490.0,
      "Rows": 832,
      "SAR": 0.05234234766813,
      "SamplesPerPixel": 1,
      "ScanOptions": "FS",
      "ScanningSequence": "EP",
      "SequenceName": "epfid2d1_104",
      "SequenceVariant": [
        "SK",
        "SS"
],
      "SeriesDescription": "func_task-things_run-1",
      "SeriesNumber": 13,
      "SeriesTime": "105419.155000",
      "SliceLocation": -50.182969244279,
      "SliceThickness": 2.0,
      "SmallestImagePixelValue": 0,
      "SoftwareVersions": "syngo MR E11",
      "SpacingBetweenSlices": 1.999999990066,
      "SpecificCharacterSet": "ISO_IR 100",
      "StudyID": "1",
      "StudyTime": "104247.416000",
      "TransmitCoilName": "Body",
      "VariableFlipAngleFlag": "N",
      "WindowCenterWidthExplanation": "Algo1",
      "dBdt": 0.0},
    "slices": {}
  },
  "time": {
    "samples": {
      "AcquisitionNumber": [1, 2, 3, 4, 5, 6, 7, 8, 9, 10, 11, 12, 13, 14, 15, 16, 17, 18, 19, 20, 21, 22, 23, 24, 25, 26, 27, 28, 29, 30, 31, 32, 33, 34, 35, 36, 37, 38, 39, 40, 41, 42, 43, 44, 45, 46, 47, 48, 49, 50, 51, 52, 53, 54, 55, 56, 57, 58, 59, 60, 61, 62, 63, 64, 65, 66, 67, 68, 69, 70, 71, 72, 73, 74, 75, 76, 77, 78, 79, 80, 81, 82, 83, 84, 85, 86, 87, 88, 89, 90, 91, 92, 93, 94, 95, 96, 97, 98, 99, 100, 101, 102, 103, 104, 105, 106, 107, 108, 109, 110, 111, 112, 113, 114, 115, 116, 117, 118, 119, 120, 121, 122, 123, 124, 125, 126, 127, 128, 129, 130, 131, 132, 133, 134, 135, 136, 137, 138, 139, 140, 141, 142, 143, 144, 145, 146, 147, 148, 149, 150, 151, 152, 153, 154, 155, 156, 157, 158, 159, 160, 161, 162, 163, 164, 165, 166, 167, 168, 169, 170, 171, 172, 173, 174, 175, 176, 177, 178, 179, 180, 181, 182, 183, 184, 185, 186, 187, 188, 189, 190],
      "AcquisitionTime": ["105249.797500", "105251.287500", "105252.777500", "105254.267500", "105255.757500", "105257.247500", "105258.737500", "105300.227500", "105301.717500", "105303.207500", "105304.697500", "105306.187500", "105307.677500", "105309.167500", "105310.657500", "105312.147500", "105313.637500", "105315.127500", "105316.617500", "105318.107500", "105319.597500", "105321.087500", "105322.577500", "105324.067500", "105325.557500", "105327.047500", "105328.537500", "105330.027500", "105331.517500", "105333.007500", "105334.497500", "105335.987500", "105337.477500", "105338.967500", "105340.457500", "105341.947500", "105343.437500", "105344.927500", "105346.417500", "105347.907500", "105349.397500", "105350.887500", "105352.377500", "105353.867500", "105355.357500", "105356.847500", "105358.337500", "105359.827500", "105401.317500", "105402.807500", "105404.297500", "105405.787500", "105407.277500", "105408.767500", "105410.257500", "105411.747500", "105413.237500", "105414.727500", "105416.217500", "105417.707500", "105419.197500", "105420.687500", "105422.177500", "105423.667500", "105425.157500", "105426.647500", "105428.137500", "105429.627500", "105431.117500", "105432.607500", "105434.097500", "105435.587500", "105437.077500", "105438.567500", "105440.057500", "105441.547500", "105443.037500", "105444.527500", "105446.017500", "105447.507500", "105448.997500", "105450.487500", "105451.977500", "105453.467500", "105454.957500", "105456.447500", "105457.937500", "105459.427500", "105500.917500", "105502.407500", "105503.897500", "105505.387500", "105506.877500", "105508.367500", "105509.857500", "105511.347500", "105512.837500", "105514.327500", "105515.817500", "105517.307500", "105518.797500", "105520.287500", "105521.777500", "105523.267500", "105524.757500", "105526.247500", "105527.737500", "105529.227500", "105530.717500", "105532.207500", "105533.697500", "105535.187500", "105536.677500", "105538.167500", "105539.657500", "105541.147500", "105542.637500", "105544.127500", "105545.617500", "105547.107500", "105548.597500", "105550.087500", "105551.577500", "105553.067500", "105554.557500", "105556.047500", "105557.537500", "105559.027500", "105600.517500", "105602.007500", "105603.497500", "105604.987500", "105606.477500", "105607.967500", "105609.457500", "105610.947500", "105612.437500", "105613.927500", "105615.417500", "105616.907500", "105618.397500", "105619.887500", "105621.377500", "105622.867500", "105624.357500", "105625.847500", "105627.337500", "105628.827500", "105630.317500", "105631.807500", "105633.297500", "105634.787500", "105636.277500", "105637.767500", "105639.257500", "105640.747500", "105642.237500", "105643.727500", "105645.217500", "105646.707500", "105648.197500", "105649.687500", "105651.177500", "105652.667500", "105654.157500", "105655.647500", "105657.137500", "105658.627500", "105700.117500", "105701.607500", "105703.097500", "105704.587500", "105706.077500", "105707.567500", "105709.057500", "105710.547500", "105712.037500", "105713.527500", "105715.017500", "105716.507500", "105717.997500", "105719.487500", "105720.977500", "105722.467500", "105723.957500", "105725.447500", "105726.937500", "105728.427500", "105729.917500", "105731.407500"],
      "ContentTime": ["105419.158000", "105419.162000", "105419.165000", "105419.168000", "105419.172000", "105419.175000", "105419.186000", "105419.189000", "105419.193000", "105419.196000", "105419.199000", "105419.203000", "105419.206000", "105419.209000", "105419.213000", "105419.216000", "105419.220000", "105419.223000", "105419.226000", "105419.230000", "105459.124000", "105459.128000", "105459.131000", "105459.135000", "105459.138000", "105459.142000", "105459.145000", "105459.148000", "105459.152000", "105459.155000", "105459.158000", "105459.162000", "105459.165000", "105459.168000", "105459.172000", "105459.175000", "105459.178000", "105459.182000", "105459.185000", "105459.189000", "105459.192000", "105459.196000", "105459.199000", "105459.202000", "105459.205000", "105459.209000", "105459.212000", "105459.216000", "105459.219000", "105459.222000", "105459.226000", "105459.229000", "105459.232000", "105459.236000", "105459.239000", "105459.243000", "105459.246000", "105459.250000", "105459.253000", "105519.125000", "105519.129000", "105519.132000", "105519.136000", "105519.140000", "105519.144000", "105519.148000", "105519.152000", "105519.156000", "105519.160000", "105519.163000", "105519.167000", "105519.171000", "105519.175000", "105519.178000", "105519.182000", "105519.185000", "105519.189000", "105519.192000", "105519.196000", "105539.125000", "105539.129000", "105539.133000", "105539.136000", "105539.140000", "105539.143000", "105539.146000", "105539.150000", "105539.153000", "105539.156000", "105539.160000", "105539.163000", "105539.167000", "105539.170000", "105539.173000", "105539.177000", "105539.180000", "105539.184000", "105539.187000", "105539.190000", "105539.194000", "105559.125000", "105559.129000", "105559.132000", "105559.136000", "105559.139000", "105559.143000", "105559.146000", "105559.149000", "105559.153000", "105559.156000", "105559.170000", "105559.173000", "105559.177000", "105559.180000", "105559.183000", "105559.187000", "105559.190000", "105559.194000", "105559.197000", "105559.200000", "105619.125000", "105619.129000", "105619.133000", "105619.136000", "105619.139000", "105619.143000", "105619.146000", "105619.149000", "105619.153000", "105619.156000", "105619.160000", "105619.163000", "105619.166000", "105619.170000", "105619.173000", "105619.177000", "105619.180000", "105619.184000", "105619.187000", "105619.190000", "105659.125000", "105659.137000", "105659.140000", "105659.143000", "105659.147000", "105659.150000", "105659.154000", "105659.157000", "105659.160000", "105659.164000", "105659.167000", "105659.171000", "105659.174000", "105659.177000", "105659.181000", "105659.184000", "105659.187000", "105659.191000", "105659.194000", "105659.198000", "105659.201000", "105659.204000", "105659.208000", "105659.211000", "105659.215000", "105659.218000", "105659.221000", "105733.375000", "105733.379000", "105733.383000", "105733.393000", "105733.397000", "105733.400000", "105733.404000", "105733.407000", "105733.411000", "105733.414000", "105733.418000", "105733.421000", "105733.425000", "105733.428000", "105733.431000", "105733.435000", "105733.438000", "105733.442000", "105733.445000", "105733.449000", "105733.452000", "105733.456000", "105733.459000"],
      "InstanceCreationTime": ["105419.158000", "105419.162000", "105419.165000", "105419.168000", "105419.172000", "105419.175000", "105419.186000", "105419.189000", "105419.193000", "105419.196000", "105419.199000", "105419.203000", "105419.206000", "105419.209000", "105419.213000", "105419.216000", "105419.220000", "105419.223000", "105419.226000", "105419.230000", "105459.124000", "105459.128000", "105459.131000", "105459.135000", "105459.138000", "105459.142000", "105459.145000", "105459.148000", "105459.152000", "105459.155000", "105459.158000", "105459.162000", "105459.165000", "105459.168000", "105459.172000", "105459.175000", "105459.178000", "105459.182000", "105459.185000", "105459.189000", "105459.192000", "105459.196000", "105459.199000", "105459.202000", "105459.205000", "105459.209000", "105459.212000", "105459.216000", "105459.219000", "105459.222000", "105459.226000", "105459.229000", "105459.232000", "105459.236000", "105459.239000", "105459.243000", "105459.246000", "105459.250000", "105459.253000", "105519.125000", "105519.129000", "105519.132000", "105519.136000", "105519.140000", "105519.144000", "105519.148000", "105519.152000", "105519.156000", "105519.160000", "105519.163000", "105519.167000", "105519.171000", "105519.175000", "105519.178000", "105519.182000", "105519.185000", "105519.189000", "105519.192000", "105519.196000", "105539.125000", "105539.129000", "105539.133000", "105539.136000", "105539.140000", "105539.143000", "105539.146000", "105539.150000", "105539.153000", "105539.156000", "105539.160000", "105539.163000", "105539.167000", "105539.170000", "105539.173000", "105539.177000", "105539.180000", "105539.184000", "105539.187000", "105539.190000", "105539.194000", "105559.125000", "105559.129000", "105559.132000", "105559.136000", "105559.139000", "105559.143000", "105559.146000", "105559.149000", "105559.153000", "105559.156000", "105559.170000", "105559.173000", "105559.177000", "105559.180000", "105559.183000", "105559.187000", "105559.190000", "105559.194000", "105559.197000", "105559.200000", "105619.125000", "105619.129000", "105619.133000", "105619.136000", "105619.139000", "105619.143000", "105619.146000", "105619.149000", "105619.153000", "105619.156000", "105619.160000", "105619.163000", "105619.166000", "105619.170000", "105619.173000", "105619.177000", "105619.180000", "105619.184000", "105619.187000", "105619.190000", "105659.125000", "105659.137000", "105659.140000", "105659.143000", "105659.147000", "105659.150000", "105659.154000", "105659.157000", "105659.160000", "105659.164000", "105659.167000", "105659.171000", "105659.174000", "105659.177000", "105659.181000", "105659.184000", "105659.187000", "105659.191000", "105659.194000", "105659.198000", "105659.201000", "105659.204000", "105659.208000", "105659.211000", "105659.215000", "105659.218000", "105659.221000", "105733.375000", "105733.379000", "105733.383000", "105733.393000", "105733.397000", "105733.400000", "105733.404000", "105733.407000", "105733.411000", "105733.414000", "105733.418000", "105733.421000", "105733.425000", "105733.428000", "105733.431000", "105733.435000", "105733.438000", "105733.442000", "105733.445000", "105733.449000", "105733.452000", "105733.456000", "105733.459000"],
      "InstanceNumber": [1, 2, 3, 4, 5, 6, 7, 8, 9, 10, 11, 12, 13, 14, 15, 16, 17, 18, 19, 20, 21, 22, 23, 24, 25, 26, 27, 28, 29, 30, 31, 32, 33, 34, 35, 36, 37, 38, 39, 40, 41, 42, 43, 44, 45, 46, 47, 48, 49, 50, 51, 52, 53, 54, 55, 56, 57, 58, 59, 60, 61, 62, 63, 64, 65, 66, 67, 68, 69, 70, 71, 72, 73, 74, 75, 76, 77, 78, 79, 80, 81, 82, 83, 84, 85, 86, 87, 88, 89, 90, 91, 92, 93, 94, 95, 96, 97, 98, 99, 100, 101, 102, 103, 104, 105, 106, 107, 108, 109, 110, 111, 112, 113, 114, 115, 116, 117, 118, 119, 120, 121, 122, 123, 124, 125, 126, 127, 128, 129, 130, 131, 132, 133, 134, 135, 136, 137, 138, 139, 140, 141, 142, 143, 144, 145, 146, 147, 148, 149, 150, 151, 152, 153, 154, 155, 156, 157, 158, 159, 160, 161, 162, 163, 164, 165, 166, 167, 168, 169, 170, 171, 172, 173, 174, 175, 176, 177, 178, 179, 180, 181, 182, 183, 184, 185, 186, 187, 188, 189, 190],
      "LargestImagePixelValue": [51149, 51166, 49775, 49302, 49043, 48851, 48996, 49251, 49259, 48892, 48739, 49506, 48829, 49357, 49307, 49018, 48986, 49006, 49018, 49097, 48819, 49126, 49341, 48953, 49152, 47093, 48049, 47740, 48616, 48347, 49214, 48773, 49051, 48497, 48981, 48157, 48866, 47983, 48878, 48355, 48386, 48752, 48679, 48367, 49355, 49215, 48834, 49119, 48648, 48617, 48021, 48327, 48669, 47710, 47776, 46651, 47580, 46886, 47216, 46784, 47233, 46868, 47622, 46930, 47425, 46844, 47353, 47360, 47524, 47740, 47643, 47176, 46230, 47526, 46844, 47452, 46287, 47565, 47535, 47435, 46975, 46025, 47031, 46617, 46436, 45906, 46893, 47193, 46279, 47316, 47205, 46978, 47998, 46953, 47441, 46012, 46661, 45906, 47302, 46620, 46819, 48009, 46877, 48249, 46371, 47175, 46144, 46881, 46885, 46256, 47571, 46237, 47995, 47871, 48071, 45543, 46605, 47587, 47863, 47135, 46674, 45719, 47033, 45894, 46488, 46830, 46679, 46563, 46618, 46980, 46336, 47241, 45608, 46415, 47234, 46736, 46826, 46462, 46644, 46103, 47338, 46277, 46987, 46993, 46629, 46197, 46069, 45772, 46834, 46965, 47267, 46343, 47025, 46287, 46080, 47772, 46050, 47591, 46321, 46948, 45668, 47378, 46912, 46778, 45960, 46751, 45783, 46967, 46554, 45716, 46225, 46457, 46339, 45560, 46430, 45608, 46760, 46024, 46037, 46839, 46009, 46783, 45977, 46796, 45909, 46499, 46307, 46834, 46440, 46137],
      "WindowCenter": [11117.0, 11061.0, 11020.0, 11013.0, 11006.0, 10995.0, 11010.0, 11006.0, 10983.0, 10974.0, 10972.0, 11014.0, 11004.0, 10987.0, 10972.0, 11015.0, 11044.0, 11050.0, 11036.0, 11023.0, 11012.0, 11012.0, 11001.0, 10993.0, 10996.0, 10977.0, 10997.0, 10982.0, 10975.0, 10968.0, 10975.0, 10981.0, 10990.0, 10990.0, 10980.0, 10970.0, 10984.0, 10984.0, 10988.0, 10976.0, 10975.0, 10982.0, 10991.0, 10995.0, 11004.0, 10998.0, 10992.0, 10992.0, 10988.0, 10990.0, 10976.0, 10969.0, 10964.0, 10937.0, 10933.0, 10934.0, 10944.0, 10963.0, 10967.0, 10960.0, 10965.0, 10960.0, 10970.0, 10976.0, 10980.0, 10976.0, 11017.0, 11012.0, 10966.0, 10980.0, 10974.0, 10940.0, 10920.0, 10941.0, 10948.0, 10955.0, 10951.0, 10976.0, 11007.0, 10977.0, 10939.0, 10909.0, 10925.0, 10934.0, 10946.0, 10938.0, 10957.0, 10956.0, 10951.0, 10963.0, 10963.0, 10964.0, 10964.0, 10953.0, 10942.0, 10942.0, 10956.0, 10958.0, 10961.0, 10940.0, 10947.0, 10956.0, 10948.0, 10949.0, 10932.0, 10950.0, 10951.0, 10955.0, 10935.0, 10937.0, 10959.0, 10962.0, 10975.0, 10942.0, 10949.0, 10955.0, 10993.0, 11016.0, 10994.0, 10964.0, 10956.0, 10931.0, 10943.0, 10921.0, 10926.0, 10926.0, 10922.0, 10915.0, 10916.0, 10928.0, 10935.0, 10945.0, 10933.0, 10938.0, 10955.0, 10953.0, 10953.0, 10957.0, 10962.0, 10956.0, 10967.0, 10956.0, 10960.0, 10959.0, 10952.0, 10905.0, 10926.0, 10966.0, 10994.0, 10991.0, 10958.0, 10913.0, 10904.0, 10896.0, 10918.0, 10953.0, 10950.0, 10955.0, 10940.0, 10932.0, 10923.0, 10931.0, 10924.0, 10916.0, 10912.0, 10916.0, 10916.0, 10927.0, 10918.0, 10915.0, 10927.0, 10926.0, 10932.0, 10922.0, 10936.0, 10939.0, 10952.0, 10955.0, 10950.0, 10944.0, 10949.0, 10959.0, 10958.0, 10953.0, 10925.0, 10951.0, 10958.0, 10935.0, 10934.0, 10934.0],
      "WindowWidth": [23982.0, 23814.0, 23703.0, 23673.0, 23651.0, 23623.0, 23653.0, 23644.0, 23587.0, 23567.0, 23559.0, 23653.0, 23636.0, 23601.0, 23559.0, 23660.0, 23728.0, 23742.0, 23709.0, 23682.0, 23653.0, 23659.0, 23627.0, 23612.0, 23618.0, 23584.0, 23626.0, 23592.0, 23571.0, 23555.0, 23566.0, 23583.0, 23602.0, 23601.0, 23577.0, 23559.0, 23583.0, 23591.0, 23594.0, 23572.0, 23570.0, 23585.0, 23608.0, 23619.0, 23635.0, 23621.0, 23605.0, 23603.0, 23597.0, 23603.0, 23572.0, 23554.0, 23538.0, 23482.0, 23469.0, 23480.0, 23498.0, 23543.0, 23556.0, 23539.0, 23550.0, 23541.0, 23561.0, 23578.0, 23584.0, 23576.0, 23668.0, 23659.0, 23553.0, 23582.0, 23570.0, 23494.0, 23453.0, 23490.0, 23512.0, 23526.0, 23519.0, 23571.0, 23647.0, 23580.0, 23492.0, 23428.0, 23457.0, 23476.0, 23505.0, 23492.0, 23534.0, 23528.0, 23523.0, 23546.0, 23547.0, 23551.0, 23546.0, 23522.0, 23498.0, 23499.0, 23529.0, 23540.0, 23537.0, 23492.0, 23506.0, 23526.0, 23514.0, 23508.0, 23476.0, 23512.0, 23519.0, 23525.0, 23478.0, 23481.0, 23529.0, 23544.0, 23569.0, 23493.0, 23509.0, 23532.0, 23618.0, 23666.0, 23612.0, 23545.0, 23525.0, 23476.0, 23493.0, 23451.0, 23457.0, 23456.0, 23445.0, 23430.0, 23433.0, 23456.0, 23476.0, 23495.0, 23474.0, 23485.0, 23520.0, 23516.0, 23520.0, 23528.0, 23535.0, 23530.0, 23546.0, 23527.0, 23533.0, 23530.0, 23514.0, 23411.0, 23454.0, 23548.0, 23613.0, 23603.0, 23530.0, 23425.0, 23400.0, 23385.0, 23438.0, 23512.0, 23512.0, 23518.0, 23488.0, 23466.0, 23452.0, 23465.0, 23451.0, 23432.0, 23426.0, 23433.0, 23440.0, 23461.0, 23439.0, 23435.0, 23460.0, 23457.0, 23469.0, 23451.0, 23481.0, 23492.0, 23518.0, 23526.0, 23514.0, 23497.0, 23511.0, 23531.0, 23533.0, 23521.0, 23463.0, 23513.0, 23529.0, 23475.0, 23473.0, 23480.0]
    },
    "slices": {}
  }
}