{
  "AcquisitionMatrixPE": 104,
  "AcquisitionNumber": 1,
  "AcquisitionTime": "11:23:42.185000",
  "BandwidthPerPixelPhaseEncode": 17.17,
  "BaseResolution": 104,
  "BodyPartExamined": "BRAIN",
  "CoilString": "HC1-7;NC1_2",
  "ConsistencyInfo": "N4_VE11C_LATEST_20160120",
  "ConversionSoftware": "dcm2niix",
  "ConversionSoftwareVersion": "v1.0.20190902",
  "DerivedVendorReportedEchoSpacing": 0.000560011,
  "DeviceSerialNumber": "167006",
  "DwellTime": 2.1e-06,
  "EchoTime": 0.037,
  "EchoTrainLength": 104,
  "EffectiveEchoSpacing": 0.000560011,
  "FlipAngle": 52,
  "ImageComments": "Unaliased_MB4_PE3_LB",
  "ImageOrientationPatientDICOM": [0.999423, 0.0100666, 0.0324332, 0.00732627, 0.868651, -0.49537],
  "ImageType": [
    "ORIGINAL",
    "PRIMARY",
    "M",
    "MB",
    "ND",
    "MOSAIC"
],
  "ImagingFrequency": 123.259,
  "InPlanePhaseEncodingDirectionDICOM": "COL",
  "InstitutionAddress": "Chemin_Queen-Mary_4565_Montreal_District_CA_H3W_1W5",
  "InstitutionName": "IUGM",
  "InstitutionalDepartmentName": "Department",
  "MRAcquisitionType": "2D",
  "MagneticFieldStrength": 3,
  "Manufacturer": "Siemens",
  "ManufacturersModelName": "Prisma_fit",
  "Modality": "MR",
  "MultibandAccelerationFactor": 4,
  "PartialFourier": 1,
  "PatientPosition": "HFS",
  "PercentPhaseFOV": 100,
  "PhaseEncodingDirection": "j",
  "PhaseEncodingSteps": 104,
  "PhaseResolution": 1,
  "PixelBandwidth": 2290,
  "ProcedureStepDescription": "memory_things",
  "ProtocolName": "func_task-things_run-6",
  "PulseSequenceDetails": "%CustomerSeq%_cmrr_mbep2d_bold",
  "ReceiveCoilActiveElements": "HC1-7;NC1,2",
  "ReceiveCoilName": "HeadNeck_64",
  "ReconMatrixPE": 104,
  "RepetitionTime": 1.49,
  "SAR": 0.0523423,
  "ScanOptions": "FS",
  "ScanningSequence": "EP",
  "SequenceName": "epfid2d1_104",
  "SequenceVariant": "SK_SS",
  "SeriesDescription": "func_task-things_run-6",
  "SeriesNumber": 28,
  "ShimSetting": [613, -7177, -8854, 299, -31, -116, -16, -26],
  "SliceThickness": 2,
  "SliceTiming": [0, 0.7825, 0.0975, 0.8825, 0.195, 0.98, 0.2925, 1.0775, 0.3925, 1.175, 0.49, 1.2725, 0.5875, 1.3725, 0.685, 0, 0.7825, 0.0975, 0.8825, 0.195, 0.98, 0.2925, 1.0775, 0.3925, 1.175, 0.49, 1.2725, 0.5875, 1.3725, 0.685, 0, 0.7825, 0.0975, 0.8825, 0.195, 0.98, 0.2925, 1.0775, 0.3925, 1.175, 0.49, 1.2725, 0.5875, 1.3725, 0.685, 0, 0.7825, 0.0975, 0.8825, 0.195, 0.98, 0.2925, 1.0775, 0.3925, 1.175, 0.49, 1.2725, 0.5875, 1.3725, 0.685],
  "SoftwareVersions": "syngo_MR_E11",
  "SpacingBetweenSlices": 2,
  "StationName": "MRC35049",
  "TaskName": "things",
  "TotalReadoutTime": 0.0576811,
  "TxRefAmp": 281.88,
  "WipMemBlock": "40b23c17-4b21-4d61-b147-3ecaaeb13422||Sequence: R016 ve11c/master r/e634e98; Dec 19 2017 11:00:25 by eja",
  "dcmmeta_affine": [
    [-1.998846411705017, 0.01465254183858633, 0.06631970405578613, 104.52155303955078],
    [-0.020133260637521744, 1.7373024225234985, -0.9906436800956726, -52.258304595947266],
    [0.06486641615629196, 0.9907398819923401, 1.7361528873443604, -91.62046813964844],
    [0.0, 0.0, 0.0, 1.0]
],
  "dcmmeta_reorient_transform": [
    [0.0, -1.0, 0.0, 103.0],
    [1.0, 0.0, 0.0, 0.0],
    [0.0, 0.0, 1.0, 0.0],
    [0.0, 0.0, 0.0, 1.0]
],
  "dcmmeta_shape": [104, 104, 60, 190],
  "dcmmeta_slice_dim": 2,
  "dcmmeta_version": 0.6,
  "global": {
    "const": {
      "AcquisitionMatrix": [104, 0, 0, 104],
      "AngioFlag": "N",
      "BitsAllocated": 16,
      "BitsStored": 16,
      "BodyPartExamined": "BRAIN",
      "Columns": 832,
      "EchoNumbers": 1,
      "EchoTime": 37.0,
      "EchoTrainLength": 104,
      "FlipAngle": 52.0,
      "HighBit": 15,
      "ImageOrientationPatient": [0.99942320867487, 0.01006663016697, 0.03243320704315, 0.00732627110143, 0.86865122127289, -0.4953699441154],
      "ImagePositionPatient": [-838.94438275329, -766.39044401784, 347.44368827265],
      "ImageType": [
        "ORIGINAL",
        "PRIMARY",
        "M",
        "MB",
        "ND",
        "MOSAIC"
],
      "ImagedNucleus": "1H",
      "ImagingFrequency": 123.258919,
      "InPlanePhaseEncodingDirection": "COL",
      "MRAcquisitionType": "2D",
      "MagneticFieldStrength": 3.0,
      "Manufacturer": "SIEMENS",
      "ManufacturerModelName": "Prisma_fit",
      "Modality": "MR",
      "NumberOfAverages": 1.0,
      "NumberOfPhaseEncodingSteps": 104,
      "PercentPhaseFieldOfView": 100.0,
      "PercentSampling": 100.0,
      "PerformedProcedureStepStartTime": "104247.479000",
      "PhotometricInterpretation": "MONOCHROME2",
      "PixelBandwidth": 2290.0,
      "PixelRepresentation": 0,
      "PixelSpacing": [2.0, 2.0],
      "ProtocolName": "func_task-things_run-6",
      "RepetitionTime": 1490.0,
      "Rows": 832,
      "SAR": 0.05234234766813,
      "SamplesPerPixel": 1,
      "ScanOptions": "FS",
      "ScanningSequence": "EP",
      "SequenceName": "epfid2d1_104",
      "SequenceVariant": [
        "SK",
        "SS"
],
      "SeriesDescription": "func_task-things_run-6",
      "SeriesNumber": 28,
      "SeriesTime": "112457.670000",
      "SliceLocation": -50.182969244279,
      "SliceThickness": 2.0,
      "SmallestImagePixelValue": 0,
      "SoftwareVersions": "syngo MR E11",
      "SpacingBetweenSlices": 1.999999990066,
      "SpecificCharacterSet": "ISO_IR 100",
      "StudyID": "1",
      "StudyTime": "104247.416000",
      "TransmitCoilName": "Body",
      "VariableFlipAngleFlag": "N",
      "WindowCenterWidthExplanation": "Algo1",
      "dBdt": 0.0},
    "slices": {}
  },
  "time": {
    "samples": {
      "AcquisitionNumber": [1, 2, 3, 4, 5, 6, 7, 8, 9, 10, 11, 12, 13, 14, 15, 16, 17, 18, 19, 20, 21, 22, 23, 24, 25, 26, 27, 28, 29, 30, 31, 32, 33, 34, 35, 36, 37, 38, 39, 40, 41, 42, 43, 44, 45, 46, 47, 48, 49, 50, 51, 52, 53, 54, 55, 56, 57, 58, 59, 60, 61, 62, 63, 64, 65, 66, 67, 68, 69, 70, 71, 72, 73, 74, 75, 76, 77, 78, 79, 80, 81, 82, 83, 84, 85, 86, 87, 88, 89, 90, 91, 92, 93, 94, 95, 96, 97, 98, 99, 100, 101, 102, 103, 104, 105, 106, 107, 108, 109, 110, 111, 112, 113, 114, 115, 116, 117, 118, 119, 120, 121, 122, 123, 124, 125, 126, 127, 128, 129, 130, 131, 132, 133, 134, 135, 136, 137, 138, 139, 140, 141, 142, 143, 144, 145, 146, 147, 148, 149, 150, 151, 152, 153, 154, 155, 156, 157, 158, 159, 160, 161, 162, 163, 164, 165, 166, 167, 168, 169, 170, 171, 172, 173, 174, 175, 176, 177, 178, 179, 180, 181, 182, 183, 184, 185, 186, 187, 188, 189, 190],
      "AcquisitionTime": ["112342.185000", "112343.675000", "112345.165000", "112346.655000", "112348.145000", "112349.635000", "112351.125000", "112352.615000", "112354.105000", "112355.595000", "112357.085000", "112358.575000", "112400.065000", "112401.555000", "112403.045000", "112404.535000", "112406.025000", "112407.515000", "112409.005000", "112410.495000", "112411.985000", "112413.475000", "112414.965000", "112416.455000", "112417.945000", "112419.435000", "112420.925000", "112422.415000", "112423.905000", "112425.395000", "112426.885000", "112428.375000", "112429.865000", "112431.355000", "112432.845000", "112434.335000", "112435.825000", "112437.315000", "112438.805000", "112440.295000", "112441.785000", "112443.275000", "112444.765000", "112446.255000", "112447.745000", "112449.235000", "112450.725000", "112452.215000", "112453.705000", "112455.195000", "112456.685000", "112458.175000", "112459.665000", "112501.155000", "112502.645000", "112504.135000", "112505.625000", "112507.115000", "112508.605000", "112510.095000", "112511.585000", "112513.075000", "112514.565000", "112516.055000", "112517.545000", "112519.035000", "112520.525000", "112522.015000", "112523.505000", "112524.995000", "112526.485000", "112527.975000", "112529.465000", "112530.955000", "112532.445000", "112533.935000", "112535.425000", "112536.915000", "112538.405000", "112539.895000", "112541.385000", "112542.875000", "112544.365000", "112545.855000", "112547.345000", "112548.835000", "112550.325000", "112551.815000", "112553.305000", "112554.795000", "112556.285000", "112557.775000", "112559.265000", "112600.755000", "112602.245000", "112603.735000", "112605.225000", "112606.715000", "112608.205000", "112609.695000", "112611.185000", "112612.675000", "112614.165000", "112615.655000", "112617.145000", "112618.635000", "112620.125000", "112621.615000", "112623.105000", "112624.595000", "112626.085000", "112627.575000", "112629.065000", "112630.555000", "112632.045000", "112633.535000", "112635.025000", "112636.515000", "112638.005000", "112639.495000", "112640.985000", "112642.475000", "112643.965000", "112645.455000", "112646.945000", "112648.435000", "112649.925000", "112651.415000", "112652.905000", "112654.395000", "112655.885000", "112657.375000", "112658.865000", "112700.355000", "112701.845000", "112703.335000", "112704.825000", "112706.315000", "112707.805000", "112709.295000", "112710.785000", "112712.275000", "112713.765000", "112715.255000", "112716.745000", "112718.235000", "112719.725000", "112721.215000", "112722.705000", "112724.195000", "112725.685000", "112727.175000", "112728.665000", "112730.155000", "112731.645000", "112733.135000", "112734.625000", "112736.115000", "112737.605000", "112739.095000", "112740.585000", "112742.075000", "112743.565000", "112745.055000", "112746.545000", "112748.035000", "112749.525000", "112751.015000", "112752.505000", "112753.995000", "112755.485000", "112756.975000", "112758.465000", "112759.955000", "112801.445000", "112802.935000", "112804.425000", "112805.915000", "112807.405000", "112808.895000", "112810.385000", "112811.875000", "112813.365000", "112814.855000", "112816.345000", "112817.835000", "112819.325000", "112820.815000", "112822.305000", "112823.795000"],
      "ContentTime": ["112457.673000", "112457.677000", "112457.681000", "112457.684000", "112457.687000", "112457.691000", "112457.701000", "112457.705000", "112457.709000", "112457.714000", "112457.718000", "112457.723000", "112457.726000", "112457.730000", "112457.734000", "112457.738000", "112457.742000", "112457.745000", "112457.749000", "112457.753000", "112457.756000", "112457.760000", "112517.628000", "112517.632000", "112517.636000", "112517.639000", "112517.643000", "112517.646000", "112517.649000", "112517.653000", "112517.656000", "112517.659000", "112517.663000", "112517.666000", "112517.670000", "112517.673000", "112517.676000", "112517.680000", "112517.683000", "112517.686000", "112517.690000", "112517.693000", "112517.696000", "112537.629000", "112537.633000", "112537.636000", "112537.640000", "112537.643000", "112537.647000", "112537.650000", "112537.653000", "112537.656000", "112537.660000", "112537.663000", "112537.667000", "112537.670000", "112537.674000", "112537.677000", "112537.680000", "112537.683000", "112537.687000", "112537.690000", "112537.694000", "112557.629000", "112557.633000", "112557.636000", "112557.640000", "112557.643000", "112557.647000", "112557.650000", "112557.653000", "112557.657000", "112557.660000", "112557.664000", "112557.667000", "112557.671000", "112557.674000", "112557.678000", "112557.682000", "112557.686000", "112557.689000", "112557.693000", "112557.697000", "112617.628000", "112617.632000", "112617.635000", "112617.639000", "112617.642000", "112617.646000", "112617.649000", "112617.652000", "112617.656000", "112617.659000", "112617.662000", "112617.666000", "112617.670000", "112617.674000", "112617.677000", "112617.680000", "112617.684000", "112617.687000", "112617.690000", "112617.694000", "112657.628000", "112657.632000", "112657.635000", "112657.662000", "112657.665000", "112657.669000", "112657.672000", "112657.675000", "112657.679000", "112657.682000", "112657.686000", "112657.689000", "112657.692000", "112657.696000", "112657.699000", "112657.702000", "112657.706000", "112657.709000", "112657.713000", "112657.716000", "112657.719000", "112657.723000", "112657.726000", "112657.729000", "112657.740000", "112657.743000", "112657.746000", "112737.628000", "112737.632000", "112737.635000", "112737.639000", "112737.642000", "112737.646000", "112737.649000", "112737.653000", "112737.656000", "112737.659000", "112737.663000", "112737.666000", "112737.670000", "112737.673000", "112737.676000", "112737.680000", "112737.683000", "112737.686000", "112737.690000", "112737.694000", "112737.697000", "112737.701000", "112737.704000", "112737.708000", "112737.711000", "112737.714000", "112737.718000", "112817.629000", "112817.633000", "112817.636000", "112817.640000", "112817.643000", "112817.647000", "112817.650000", "112817.653000", "112817.657000", "112817.660000", "112817.664000", "112817.667000", "112817.670000", "112817.674000", "112817.677000", "112817.681000", "112817.684000", "112817.687000", "112817.691000", "112817.694000", "112817.697000", "112817.701000", "112817.704000", "112817.707000", "112817.711000", "112817.724000", "112817.728000", "112826.015000", "112826.018000", "112826.022000", "112826.032000", "112826.036000", "112826.039000"],
      "InstanceCreationTime": ["112457.673000", "112457.677000", "112457.681000", "112457.684000", "112457.687000", "112457.691000", "112457.701000", "112457.705000", "112457.709000", "112457.714000", "112457.718000", "112457.723000", "112457.726000", "112457.730000", "112457.734000", "112457.738000", "112457.742000", "112457.745000", "112457.749000", "112457.753000", "112457.756000", "112457.760000", "112517.628000", "112517.632000", "112517.636000", "112517.639000", "112517.643000", "112517.646000", "112517.649000", "112517.653000", "112517.656000", "112517.659000", "112517.663000", "112517.666000", "112517.670000", "112517.673000", "112517.676000", "112517.680000", "112517.683000", "112517.686000", "112517.690000", "112517.693000", "112517.696000", "112537.629000", "112537.633000", "112537.636000", "112537.640000", "112537.643000", "112537.647000", "112537.650000", "112537.653000", "112537.656000", "112537.660000", "112537.663000", "112537.667000", "112537.670000", "112537.674000", "112537.677000", "112537.680000", "112537.683000", "112537.687000", "112537.690000", "112537.694000", "112557.629000", "112557.633000", "112557.636000", "112557.640000", "112557.643000", "112557.647000", "112557.650000", "112557.653000", "112557.657000", "112557.660000", "112557.664000", "112557.667000", "112557.671000", "112557.674000", "112557.678000", "112557.682000", "112557.686000", "112557.689000", "112557.693000", "112557.697000", "112617.628000", "112617.632000", "112617.635000", "112617.639000", "112617.642000", "112617.646000", "112617.649000", "112617.652000", "112617.656000", "112617.659000", "112617.662000", "112617.666000", "112617.670000", "112617.674000", "112617.677000", "112617.680000", "112617.684000", "112617.687000", "112617.690000", "112617.694000", "112657.628000", "112657.632000", "112657.635000", "112657.662000", "112657.665000", "112657.669000", "112657.672000", "112657.675000", "112657.679000", "112657.682000", "112657.686000", "112657.689000", "112657.692000", "112657.696000", "112657.699000", "112657.702000", "112657.706000", "112657.709000", "112657.713000", "112657.716000", "112657.719000", "112657.723000", "112657.726000", "112657.729000", "112657.740000", "112657.743000", "112657.746000", "112737.628000", "112737.632000", "112737.635000", "112737.639000", "112737.642000", "112737.646000", "112737.649000", "112737.653000", "112737.656000", "112737.659000", "112737.663000", "112737.666000", "112737.670000", "112737.673000", "112737.676000", "112737.680000", "112737.683000", "112737.686000", "112737.690000", "112737.694000", "112737.697000", "112737.701000", "112737.704000", "112737.708000", "112737.711000", "112737.714000", "112737.718000", "112817.629000", "112817.633000", "112817.636000", "112817.640000", "112817.643000", "112817.647000", "112817.650000", "112817.653000", "112817.657000", "112817.660000", "112817.664000", "112817.667000", "112817.670000", "112817.674000", "112817.677000", "112817.681000", "112817.684000", "112817.687000", "112817.691000", "112817.694000", "112817.697000", "112817.701000", "112817.704000", "112817.707000", "112817.711000", "112817.724000", "112817.728000", "112826.015000", "112826.018000", "112826.022000", "112826.032000", "112826.036000", "112826.039000"],
      "InstanceNumber": [1, 2, 3, 4, 5, 6, 7, 8, 9, 10, 11, 12, 13, 14, 15, 16, 17, 18, 19, 20, 21, 22, 23, 24, 25, 26, 27, 28, 29, 30, 31, 32, 33, 34, 35, 36, 37, 38, 39, 40, 41, 42, 43, 44, 45, 46, 47, 48, 49, 50, 51, 52, 53, 54, 55, 56, 57, 58, 59, 60, 61, 62, 63, 64, 65, 66, 67, 68, 69, 70, 71, 72, 73, 74, 75, 76, 77, 78, 79, 80, 81, 82, 83, 84, 85, 86, 87, 88, 89, 90, 91, 92, 93, 94, 95, 96, 97, 98, 99, 100, 101, 102, 103, 104, 105, 106, 107, 108, 109, 110, 111, 112, 113, 114, 115, 116, 117, 118, 119, 120, 121, 122, 123, 124, 125, 126, 127, 128, 129, 130, 131, 132, 133, 134, 135, 136, 137, 138, 139, 140, 141, 142, 143, 144, 145, 146, 147, 148, 149, 150, 151, 152, 153, 154, 155, 156, 157, 158, 159, 160, 161, 162, 163, 164, 165, 166, 167, 168, 169, 170, 171, 172, 173, 174, 175, 176, 177, 178, 179, 180, 181, 182, 183, 184, 185, 186, 187, 188, 189, 190],
      "LargestImagePixelValue": [46041, 45379, 43423, 43895, 42702, 44391, 43492, 44937, 44363, 43376, 44704, 43578, 42637, 44574, 43068, 44352, 44203, 43329, 44156, 43293, 43956, 43905, 44245, 45067, 43642, 45547, 43579, 42403, 44566, 42998, 42727, 45054, 43779, 43116, 43996, 43010, 42466, 44478, 42742, 42607, 42996, 44056, 43333, 43640, 43019, 43679, 45177, 43193, 41352, 43122, 42433, 42501, 43489, 43330, 42320, 43266, 43126, 42812, 44031, 42880, 43033, 44113, 43186, 42604, 43433, 44331, 44979, 45530, 43458, 44186, 44182, 43014, 44439, 43450, 42659, 44521, 43427, 45242, 43698, 44293, 44718, 44594, 43702, 43951, 42330, 44705, 42943, 45052, 43197, 43476, 44299, 43718, 45081, 43309, 44100, 43303, 42733, 44312, 42585, 43344, 44299, 43878, 42436, 43705, 44046, 43314, 43120, 43273, 42791, 43458, 44230, 42569, 43359, 42231, 42758, 44125, 44934, 42098, 43652, 42051, 43878, 44766, 45210, 44354, 43841, 44647, 42799, 43414, 41886, 42881, 42020, 43467, 42314, 43474, 44806, 43160, 41708, 42486, 43405, 42751, 42438, 44328, 42134, 42920, 42318, 42440, 43255, 43677, 44796, 41727, 42012, 42358, 42993, 43109, 41938, 43453, 42378, 44642, 42822, 43510, 42742, 42406, 42856, 43567, 42152, 42620, 42479, 42463, 43499, 44099, 42417, 43621, 42201, 43581, 42453, 43690, 43332, 42716, 42694, 42006, 43626, 42919, 44759, 42400, 43838, 44412, 42398, 45382, 44210, 42748],
      "WindowCenter": [10915.0, 10869.0, 10824.0, 10825.0, 10752.0, 10759.0, 10762.0, 10802.0, 10797.0, 10784.0, 10819.0, 10836.0, 10799.0, 10809.0, 10789.0, 10780.0, 10786.0, 10784.0, 10778.0, 10758.0, 10752.0, 10773.0, 10754.0, 10760.0, 10745.0, 10783.0, 10781.0, 10770.0, 10791.0, 10768.0, 10760.0, 10785.0, 10784.0, 10782.0, 10798.0, 10787.0, 10772.0, 10783.0, 10758.0, 10764.0, 10770.0, 10776.0, 10759.0, 10753.0, 10750.0, 10773.0, 10810.0, 10798.0, 10761.0, 10761.0, 10761.0, 10790.0, 10812.0, 10811.0, 10798.0, 10789.0, 10771.0, 10763.0, 10771.0, 10756.0, 10754.0, 10770.0, 10778.0, 10782.0, 10767.0, 10782.0, 10799.0, 10824.0, 10798.0, 10792.0, 10781.0, 10771.0, 10796.0, 10795.0, 10791.0, 10806.0, 10793.0, 10794.0, 10776.0, 10772.0, 10786.0, 10794.0, 10794.0, 10795.0, 10771.0, 10796.0, 10776.0, 10803.0, 10787.0, 10795.0, 10799.0, 10791.0, 10801.0, 10783.0, 10791.0, 10773.0, 10766.0, 10775.0, 10721.0, 10724.0, 10770.0, 10786.0, 10759.0, 10758.0, 10764.0, 10770.0, 10771.0, 10775.0, 10765.0, 10776.0, 10813.0, 10776.0, 10762.0, 10725.0, 10729.0, 10771.0, 10814.0, 10784.0, 10743.0, 10713.0, 10730.0, 10744.0, 10775.0, 10779.0, 10759.0, 10747.0, 10711.0, 10718.0, 10729.0, 10767.0, 10760.0, 10768.0, 10739.0, 10781.0, 10822.0, 10810.0, 10787.0, 10787.0, 10789.0, 10773.0, 10766.0, 10790.0, 10758.0, 10753.0, 10748.0, 10737.0, 10748.0, 10764.0, 10787.0, 10758.0, 10755.0, 10744.0, 10743.0, 10749.0, 10740.0, 10772.0, 10774.0, 10802.0, 10779.0, 10784.0, 10763.0, 10764.0, 10770.0, 10775.0, 10757.0, 10753.0, 10746.0, 10749.0, 10771.0, 10785.0, 10767.0, 10769.0, 10739.0, 10754.0, 10754.0, 10779.0, 10776.0, 10772.0, 10758.0, 10752.0, 10765.0, 10753.0, 10767.0, 10738.0, 10746.0, 10768.0, 10760.0, 10777.0, 10723.0, 10682.0],
      "WindowWidth": [23508.0, 23370.0, 23253.0, 23243.0, 23079.0, 23077.0, 23087.0, 23174.0, 23161.0, 23137.0, 23205.0, 23256.0, 23174.0, 23189.0, 23148.0, 23125.0, 23133.0, 23135.0, 23121.0, 23080.0, 23061.0, 23112.0, 23065.0, 23071.0, 23049.0, 23120.0, 23125.0, 23106.0, 23143.0, 23102.0, 23083.0, 23129.0, 23131.0, 23133.0, 23166.0, 23145.0, 23115.0, 23126.0, 23079.0, 23093.0, 23106.0, 23112.0, 23079.0, 23064.0, 23060.0, 23108.0, 23187.0, 23169.0, 23100.0, 23087.0, 23088.0, 23153.0, 23198.0, 23198.0, 23174.0, 23147.0, 23106.0, 23092.0, 23103.0, 23076.0, 23073.0, 23098.0, 23120.0, 23132.0, 23096.0, 23120.0, 23156.0, 23214.0, 23165.0, 23147.0, 23119.0, 23101.0, 23152.0, 23158.0, 23151.0, 23175.0, 23149.0, 23146.0, 23113.0, 23105.0, 23129.0, 23149.0, 23155.0, 23154.0, 23108.0, 23153.0, 23119.0, 23166.0, 23138.0, 23155.0, 23163.0, 23145.0, 23160.0, 23130.0, 23142.0, 23104.0, 23090.0, 23111.0, 22992.0, 22998.0, 23093.0, 23134.0, 23081.0, 23068.0, 23083.0, 23098.0, 23102.0, 23113.0, 23090.0, 23109.0, 23194.0, 23121.0, 23085.0, 23004.0, 23010.0, 23095.0, 23193.0, 23143.0, 23040.0, 22980.0, 23003.0, 23035.0, 23102.0, 23118.0, 23074.0, 23045.0, 22976.0, 22983.0, 23019.0, 23099.0, 23090.0, 23104.0, 23042.0, 23127.0, 23214.0, 23197.0, 23152.0, 23144.0, 23147.0, 23114.0, 23100.0, 23150.0, 23083.0, 23068.0, 23061.0, 23034.0, 23052.0, 23091.0, 23135.0, 23087.0, 23078.0, 23054.0, 23049.0, 23062.0, 23045.0, 23108.0, 23119.0, 23169.0, 23126.0, 23135.0, 23091.0, 23095.0, 23106.0, 23113.0, 23079.0, 23069.0, 23055.0, 23058.0, 23101.0, 23131.0, 23100.0, 23105.0, 23040.0, 23065.0, 23078.0, 23125.0, 23120.0, 23114.0, 23083.0, 23071.0, 23086.0, 23065.0, 23088.0, 23031.0, 23043.0, 23093.0, 23086.0, 23114.0, 22999.0, 22906.0]
    },
    "slices": {}
  }
}