{
  "AcquisitionMatrixPE": 104,
  "AcquisitionNumber": 1,
  "AcquisitionTime": "11:04:55.325000",
  "BandwidthPerPixelPhaseEncode": 17.17,
  "BaseResolution": 104,
  "BodyPartExamined": "BRAIN",
  "CoilString": "HC1-7;NC1_2",
  "ConsistencyInfo": "N4_VE11C_LATEST_20160120",
  "ConversionSoftware": "dcm2niix",
  "ConversionSoftwareVersion": "v1.0.20190902",
  "DerivedVendorReportedEchoSpacing": 0.000560011,
  "DeviceSerialNumber": "167006",
  "DwellTime": 2.1e-06,
  "EchoTime": 0.037,
  "EchoTrainLength": 104,
  "EffectiveEchoSpacing": 0.000560011,
  "FlipAngle": 52,
  "ImageComments": "Unaliased_MB4_PE3_LB",
  "ImageOrientationPatientDICOM": [0.999423, 0.0100666, 0.0324332, 0.00732627, 0.868651, -0.49537],
  "ImageType": [
    "ORIGINAL",
    "PRIMARY",
    "M",
    "MB",
    "ND",
    "MOSAIC"
],
  "ImagingFrequency": 123.259,
  "InPlanePhaseEncodingDirectionDICOM": "COL",
  "InstitutionAddress": "Chemin_Queen-Mary_4565_Montreal_District_CA_H3W_1W5",
  "InstitutionName": "IUGM",
  "InstitutionalDepartmentName": "Department",
  "MRAcquisitionType": "2D",
  "MagneticFieldStrength": 3,
  "Manufacturer": "Siemens",
  "ManufacturersModelName": "Prisma_fit",
  "Modality": "MR",
  "MultibandAccelerationFactor": 4,
  "PartialFourier": 1,
  "PatientPosition": "HFS",
  "PercentPhaseFOV": 100,
  "PhaseEncodingDirection": "j",
  "PhaseEncodingSteps": 104,
  "PhaseResolution": 1,
  "PixelBandwidth": 2290,
  "ProcedureStepDescription": "memory_things",
  "ProtocolName": "func_task-things_run-3",
  "PulseSequenceDetails": "%CustomerSeq%_cmrr_mbep2d_bold",
  "ReceiveCoilActiveElements": "HC1-7;NC1,2",
  "ReceiveCoilName": "HeadNeck_64",
  "ReconMatrixPE": 104,
  "RepetitionTime": 1.49,
  "SAR": 0.0523423,
  "ScanOptions": "FS",
  "ScanningSequence": "EP",
  "SequenceName": "epfid2d1_104",
  "SequenceVariant": "SK_SS",
  "SeriesDescription": "func_task-things_run-3",
  "SeriesNumber": 19,
  "ShimSetting": [613, -7177, -8854, 299, -31, -116, -16, -26],
  "SliceThickness": 2,
  "SliceTiming": [0, 0.785, 0.0975, 0.8825, 0.195, 0.98, 0.295, 1.0775, 0.3925, 1.175, 0.49, 1.275, 0.5875, 1.3725, 0.685, 0, 0.785, 0.0975, 0.8825, 0.195, 0.98, 0.295, 1.0775, 0.3925, 1.175, 0.49, 1.275, 0.5875, 1.3725, 0.685, 0, 0.785, 0.0975, 0.8825, 0.195, 0.98, 0.295, 1.0775, 0.3925, 1.175, 0.49, 1.275, 0.5875, 1.3725, 0.685, 0, 0.785, 0.0975, 0.8825, 0.195, 0.98, 0.295, 1.0775, 0.3925, 1.175, 0.49, 1.275, 0.5875, 1.3725, 0.685],
  "SoftwareVersions": "syngo_MR_E11",
  "SpacingBetweenSlices": 2,
  "StationName": "MRC35049",
  "TaskName": "things",
  "TotalReadoutTime": 0.0576811,
  "TxRefAmp": 281.88,
  "WipMemBlock": "380b60f9-4a5f-4b2d-9c0d-c3651295a39c||Sequence: R016 ve11c/master r/e634e98; Dec 19 2017 11:00:25 by eja",
  "dcmmeta_affine": [
    [-1.998846411705017, 0.01465254183858633, 0.06631970405578613, 104.52155303955078],
    [-0.020133260637521744, 1.7373024225234985, -0.9906436800956726, -52.258304595947266],
    [0.06486641615629196, 0.9907398819923401, 1.7361528873443604, -91.62046813964844],
    [0.0, 0.0, 0.0, 1.0]
],
  "dcmmeta_reorient_transform": [
    [0.0, -1.0, 0.0, 103.0],
    [1.0, 0.0, 0.0, 0.0],
    [0.0, 0.0, 1.0, 0.0],
    [0.0, 0.0, 0.0, 1.0]
],
  "dcmmeta_shape": [104, 104, 60, 190],
  "dcmmeta_slice_dim": 2,
  "dcmmeta_version": 0.6,
  "global": {
    "const": {
      "AcquisitionMatrix": [104, 0, 0, 104],
      "AngioFlag": "N",
      "BitsAllocated": 16,
      "BitsStored": 16,
      "BodyPartExamined": "BRAIN",
      "Columns": 832,
      "EchoNumbers": 1,
      "EchoTime": 37.0,
      "EchoTrainLength": 104,
      "FlipAngle": 52.0,
      "HighBit": 15,
      "ImageOrientationPatient": [0.99942320867487, 0.01006663016697, 0.03243320704315, 0.00732627110143, 0.86865122127289, -0.4953699441154],
      "ImagePositionPatient": [-838.94438275329, -766.39044401784, 347.44368827265],
      "ImageType": [
        "ORIGINAL",
        "PRIMARY",
        "M",
        "MB",
        "ND",
        "MOSAIC"
],
      "ImagedNucleus": "1H",
      "ImagingFrequency": 123.258914,
      "InPlanePhaseEncodingDirection": "COL",
      "MRAcquisitionType": "2D",
      "MagneticFieldStrength": 3.0,
      "Manufacturer": "SIEMENS",
      "ManufacturerModelName": "Prisma_fit",
      "Modality": "MR",
      "NumberOfAverages": 1.0,
      "NumberOfPhaseEncodingSteps": 104,
      "PercentPhaseFieldOfView": 100.0,
      "PercentSampling": 100.0,
      "PerformedProcedureStepStartTime": "104247.479000",
      "PhotometricInterpretation": "MONOCHROME2",
      "PixelBandwidth": 2290.0,
      "PixelRepresentation": 0,
      "PixelSpacing": [2.0, 2.0],
      "ProtocolName": "func_task-things_run-3",
      "RepetitionTime": 1490.0,
      "Rows": 832,
      "SAR": 0.05234234766813,
      "SamplesPerPixel": 1,
      "ScanOptions": "FS",
      "ScanningSequence": "EP",
      "SequenceName": "epfid2d1_104",
      "SequenceVariant": [
        "SK",
        "SS"
],
      "SeriesDescription": "func_task-things_run-3",
      "SeriesNumber": 19,
      "SeriesTime": "110617.657000",
      "SliceLocation": -50.182969244279,
      "SliceThickness": 2.0,
      "SmallestImagePixelValue": 0,
      "SoftwareVersions": "syngo MR E11",
      "SpacingBetweenSlices": 1.999999990066,
      "SpecificCharacterSet": "ISO_IR 100",
      "StudyID": "1",
      "StudyTime": "104247.416000",
      "TransmitCoilName": "Body",
      "VariableFlipAngleFlag": "N",
      "WindowCenterWidthExplanation": "Algo1",
      "dBdt": 0.0},
    "slices": {}
  },
  "time": {
    "samples": {
      "AcquisitionNumber": [1, 2, 3, 4, 5, 6, 7, 8, 9, 10, 11, 12, 13, 14, 15, 16, 17, 18, 19, 20, 21, 22, 23, 24, 25, 26, 27, 28, 29, 30, 31, 32, 33, 34, 35, 36, 37, 38, 39, 40, 41, 42, 43, 44, 45, 46, 47, 48, 49, 50, 51, 52, 53, 54, 55, 56, 57, 58, 59, 60, 61, 62, 63, 64, 65, 66, 67, 68, 69, 70, 71, 72, 73, 74, 75, 76, 77, 78, 79, 80, 81, 82, 83, 84, 85, 86, 87, 88, 89, 90, 91, 92, 93, 94, 95, 96, 97, 98, 99, 100, 101, 102, 103, 104, 105, 106, 107, 108, 109, 110, 111, 112, 113, 114, 115, 116, 117, 118, 119, 120, 121, 122, 123, 124, 125, 126, 127, 128, 129, 130, 131, 132, 133, 134, 135, 136, 137, 138, 139, 140, 141, 142, 143, 144, 145, 146, 147, 148, 149, 150, 151, 152, 153, 154, 155, 156, 157, 158, 159, 160, 161, 162, 163, 164, 165, 166, 167, 168, 169, 170, 171, 172, 173, 174, 175, 176, 177, 178, 179, 180, 181, 182, 183, 184, 185, 186, 187, 188, 189, 190],
      "AcquisitionTime": ["110455.325000", "110456.815000", "110458.305000", "110459.795000", "110501.285000", "110502.775000", "110504.265000", "110505.755000", "110507.245000", "110508.735000", "110510.225000", "110511.715000", "110513.205000", "110514.695000", "110516.185000", "110517.675000", "110519.165000", "110520.655000", "110522.145000", "110523.635000", "110525.125000", "110526.615000", "110528.105000", "110529.595000", "110531.085000", "110532.575000", "110534.065000", "110535.555000", "110537.045000", "110538.535000", "110540.025000", "110541.515000", "110543.005000", "110544.495000", "110545.985000", "110547.475000", "110548.965000", "110550.455000", "110551.945000", "110553.435000", "110554.925000", "110556.415000", "110557.905000", "110559.395000", "110600.885000", "110602.375000", "110603.865000", "110605.355000", "110606.845000", "110608.335000", "110609.825000", "110611.315000", "110612.805000", "110614.295000", "110615.785000", "110617.275000", "110618.765000", "110620.255000", "110621.745000", "110623.235000", "110624.725000", "110626.215000", "110627.705000", "110629.195000", "110630.685000", "110632.175000", "110633.665000", "110635.155000", "110636.645000", "110638.135000", "110639.625000", "110641.115000", "110642.605000", "110644.095000", "110645.585000", "110647.075000", "110648.565000", "110650.055000", "110651.545000", "110653.035000", "110654.525000", "110656.015000", "110657.505000", "110658.995000", "110700.485000", "110701.975000", "110703.465000", "110704.955000", "110706.445000", "110707.935000", "110709.425000", "110710.915000", "110712.405000", "110713.895000", "110715.385000", "110716.875000", "110718.365000", "110719.855000", "110721.345000", "110722.835000", "110724.325000", "110725.815000", "110727.305000", "110728.795000", "110730.285000", "110731.775000", "110733.265000", "110734.755000", "110736.245000", "110737.735000", "110739.225000", "110740.715000", "110742.205000", "110743.695000", "110745.185000", "110746.675000", "110748.165000", "110749.655000", "110751.145000", "110752.635000", "110754.125000", "110755.615000", "110757.105000", "110758.595000", "110800.085000", "110801.575000", "110803.065000", "110804.555000", "110806.045000", "110807.535000", "110809.025000", "110810.515000", "110812.005000", "110813.495000", "110814.985000", "110816.475000", "110817.965000", "110819.455000", "110820.945000", "110822.435000", "110823.925000", "110825.415000", "110826.905000", "110828.395000", "110829.885000", "110831.375000", "110832.865000", "110834.355000", "110835.845000", "110837.335000", "110838.825000", "110840.315000", "110841.805000", "110843.295000", "110844.785000", "110846.275000", "110847.765000", "110849.255000", "110850.745000", "110852.235000", "110853.725000", "110855.215000", "110856.705000", "110858.195000", "110859.685000", "110901.175000", "110902.665000", "110904.155000", "110905.645000", "110907.135000", "110908.625000", "110910.115000", "110911.605000", "110913.095000", "110914.585000", "110916.075000", "110917.565000", "110919.055000", "110920.545000", "110922.035000", "110923.525000", "110925.015000", "110926.505000", "110927.995000", "110929.485000", "110930.975000", "110932.465000", "110933.955000", "110935.445000", "110936.935000"],
      "ContentTime": ["110617.660000", "110617.664000", "110617.667000", "110617.671000", "110617.674000", "110617.684000", "110617.688000", "110617.691000", "110617.695000", "110617.698000", "110617.701000", "110617.705000", "110617.708000", "110617.722000", "110617.726000", "110617.734000", "110617.738000", "110617.741000", "110617.744000", "110617.748000", "110617.751000", "110617.754000", "110617.758000", "110617.761000", "110617.764000", "110617.768000", "110617.771000", "110617.775000", "110637.628000", "110637.632000", "110637.635000", "110637.639000", "110637.642000", "110637.646000", "110637.649000", "110637.652000", "110637.656000", "110637.659000", "110637.663000", "110637.666000", "110637.669000", "110637.673000", "110637.676000", "110637.680000", "110637.683000", "110637.686000", "110637.690000", "110637.693000", "110657.628000", "110657.632000", "110657.644000", "110657.648000", "110657.651000", "110657.655000", "110657.658000", "110657.661000", "110657.665000", "110657.668000", "110657.672000", "110657.675000", "110657.679000", "110657.682000", "110657.685000", "110657.689000", "110657.692000", "110657.695000", "110657.699000", "110657.702000", "110717.629000", "110717.633000", "110717.636000", "110717.640000", "110717.643000", "110717.647000", "110717.650000", "110717.654000", "110717.657000", "110717.660000", "110717.664000", "110717.667000", "110717.671000", "110717.674000", "110717.678000", "110717.681000", "110717.684000", "110717.688000", "110717.691000", "110717.695000", "110717.698000", "110757.628000", "110757.632000", "110757.635000", "110757.642000", "110757.645000", "110757.649000", "110757.652000", "110757.656000", "110757.659000", "110757.663000", "110757.666000", "110757.670000", "110757.673000", "110757.676000", "110757.679000", "110757.683000", "110757.687000", "110757.690000", "110757.693000", "110757.697000", "110757.700000", "110757.703000", "110757.707000", "110757.710000", "110757.714000", "110757.717000", "110757.720000", "110757.724000", "110757.727000", "110757.731000", "110757.743000", "110757.752000", "110757.756000", "110837.628000", "110837.632000", "110837.636000", "110837.639000", "110837.642000", "110837.647000", "110837.651000", "110837.654000", "110837.658000", "110837.661000", "110837.665000", "110837.668000", "110837.671000", "110837.675000", "110837.678000", "110837.682000", "110837.685000", "110837.689000", "110837.692000", "110837.696000", "110837.699000", "110837.703000", "110837.706000", "110837.709000", "110837.713000", "110837.716000", "110917.629000", "110917.633000", "110917.637000", "110917.646000", "110917.650000", "110917.653000", "110917.657000", "110917.660000", "110917.663000", "110917.667000", "110917.670000", "110917.674000", "110917.677000", "110917.681000", "110917.684000", "110917.687000", "110917.691000", "110917.694000", "110917.698000", "110917.701000", "110917.704000", "110917.708000", "110917.711000", "110917.714000", "110917.718000", "110917.721000", "110917.725000", "110938.985000", "110938.988000", "110938.992000", "110938.996000", "110939.000000", "110939.004000", "110939.007000", "110939.011000", "110939.014000", "110939.017000", "110939.021000", "110939.024000", "110939.028000", "110939.031000", "110939.035000"],
      "InstanceCreationTime": ["110617.660000", "110617.664000", "110617.667000", "110617.671000", "110617.674000", "110617.684000", "110617.688000", "110617.691000", "110617.695000", "110617.698000", "110617.701000", "110617.705000", "110617.708000", "110617.722000", "110617.726000", "110617.734000", "110617.738000", "110617.741000", "110617.744000", "110617.748000", "110617.751000", "110617.754000", "110617.758000", "110617.761000", "110617.764000", "110617.768000", "110617.771000", "110617.775000", "110637.628000", "110637.632000", "110637.635000", "110637.639000", "110637.642000", "110637.646000", "110637.649000", "110637.652000", "110637.656000", "110637.659000", "110637.663000", "110637.666000", "110637.669000", "110637.673000", "110637.676000", "110637.680000", "110637.683000", "110637.686000", "110637.690000", "110637.693000", "110657.628000", "110657.632000", "110657.644000", "110657.648000", "110657.651000", "110657.655000", "110657.658000", "110657.661000", "110657.665000", "110657.668000", "110657.672000", "110657.675000", "110657.679000", "110657.682000", "110657.685000", "110657.689000", "110657.692000", "110657.695000", "110657.699000", "110657.702000", "110717.629000", "110717.633000", "110717.636000", "110717.640000", "110717.643000", "110717.647000", "110717.650000", "110717.654000", "110717.657000", "110717.660000", "110717.664000", "110717.667000", "110717.671000", "110717.674000", "110717.678000", "110717.681000", "110717.684000", "110717.688000", "110717.691000", "110717.695000", "110717.698000", "110757.628000", "110757.632000", "110757.635000", "110757.642000", "110757.645000", "110757.649000", "110757.652000", "110757.656000", "110757.659000", "110757.663000", "110757.666000", "110757.670000", "110757.673000", "110757.676000", "110757.679000", "110757.683000", "110757.687000", "110757.690000", "110757.693000", "110757.697000", "110757.700000", "110757.703000", "110757.707000", "110757.710000", "110757.714000", "110757.717000", "110757.720000", "110757.724000", "110757.727000", "110757.731000", "110757.743000", "110757.752000", "110757.756000", "110837.628000", "110837.632000", "110837.636000", "110837.639000", "110837.642000", "110837.647000", "110837.651000", "110837.654000", "110837.658000", "110837.661000", "110837.665000", "110837.668000", "110837.671000", "110837.675000", "110837.678000", "110837.682000", "110837.685000", "110837.689000", "110837.692000", "110837.696000", "110837.699000", "110837.703000", "110837.706000", "110837.709000", "110837.713000", "110837.716000", "110917.629000", "110917.633000", "110917.637000", "110917.646000", "110917.650000", "110917.653000", "110917.657000", "110917.660000", "110917.663000", "110917.667000", "110917.670000", "110917.674000", "110917.677000", "110917.681000", "110917.684000", "110917.687000", "110917.691000", "110917.694000", "110917.698000", "110917.701000", "110917.704000", "110917.708000", "110917.711000", "110917.714000", "110917.718000", "110917.721000", "110917.725000", "110938.985000", "110938.988000", "110938.992000", "110938.996000", "110939.000000", "110939.004000", "110939.007000", "110939.011000", "110939.014000", "110939.017000", "110939.021000", "110939.024000", "110939.028000", "110939.031000", "110939.035000"],
      "InstanceNumber": [1, 2, 3, 4, 5, 6, 7, 8, 9, 10, 11, 12, 13, 14, 15, 16, 17, 18, 19, 20, 21, 22, 23, 24, 25, 26, 27, 28, 29, 30, 31, 32, 33, 34, 35, 36, 37, 38, 39, 40, 41, 42, 43, 44, 45, 46, 47, 48, 49, 50, 51, 52, 53, 54, 55, 56, 57, 58, 59, 60, 61, 62, 63, 64, 65, 66, 67, 68, 69, 70, 71, 72, 73, 74, 75, 76, 77, 78, 79, 80, 81, 82, 83, 84, 85, 86, 87, 88, 89, 90, 91, 92, 93, 94, 95, 96, 97, 98, 99, 100, 101, 102, 103, 104, 105, 106, 107, 108, 109, 110, 111, 112, 113, 114, 115, 116, 117, 118, 119, 120, 121, 122, 123, 124, 125, 126, 127, 128, 129, 130, 131, 132, 133, 134, 135, 136, 137, 138, 139, 140, 141, 142, 143, 144, 145, 146, 147, 148, 149, 150, 151, 152, 153, 154, 155, 156, 157, 158, 159, 160, 161, 162, 163, 164, 165, 166, 167, 168, 169, 170, 171, 172, 173, 174, 175, 176, 177, 178, 179, 180, 181, 182, 183, 184, 185, 186, 187, 188, 189, 190],
      "LargestImagePixelValue": [45055, 44007, 43534, 42887, 43843, 42484, 42428, 44032, 42590, 42522, 44077, 42559, 42445, 43210, 42527, 42712, 43677, 42505, 42771, 43720, 42668, 43012, 43034, 42612, 43151, 42647, 43347, 42504, 43426, 43032, 42401, 44398, 42428, 42553, 45014, 42717, 43397, 42646, 44937, 43764, 42777, 45263, 43931, 43526, 43936, 43163, 44046, 42832, 42802, 45604, 43212, 42559, 45688, 43151, 42834, 42705, 42759, 42729, 43810, 42929, 43022, 44473, 42085, 42362, 42467, 42472, 42554, 42771, 42951, 42940, 43119, 42968, 43113, 43819, 42955, 42605, 43200, 43095, 42919, 43131, 42836, 42750, 43159, 43530, 42969, 43477, 43421, 42710, 44051, 43314, 43182, 43532, 43269, 43591, 43097, 43787, 43302, 43481, 43324, 43455, 43400, 43144, 42966, 43137, 42984, 43182, 42866, 43230, 43049, 43522, 43312, 42943, 42931, 43388, 43361, 43356, 43106, 43056, 42678, 43136, 43179, 43341, 42982, 42931, 42565, 43238, 42827, 42697, 42771, 43047, 44030, 42972, 43355, 42833, 43141, 43571, 43952, 43515, 42745, 43986, 42556, 43027, 43949, 43089, 42931, 44303, 43242, 42897, 42950, 43144, 43254, 44248, 42593, 42707, 43674, 42707, 42740, 44018, 42433, 43034, 43529, 42686, 42904, 43350, 43551, 42956, 42734, 42760, 42582, 43216, 43022, 42631, 43515, 42622, 43370, 44605, 43203, 43256, 43889, 43321, 43265, 44198, 43015, 43156, 43052, 44409, 44572, 42998, 43969, 42880],
      "WindowCenter": [10993.0, 10945.0, 10907.0, 10880.0, 10879.0, 10852.0, 10849.0, 10863.0, 10847.0, 10847.0, 10870.0, 10862.0, 10856.0, 10852.0, 10846.0, 10838.0, 10850.0, 10839.0, 10846.0, 10855.0, 10840.0, 10836.0, 10834.0, 10830.0, 10837.0, 10846.0, 10854.0, 10851.0, 10859.0, 10847.0, 10842.0, 10863.0, 10822.0, 10835.0, 10880.0, 10879.0, 10899.0, 10862.0, 10853.0, 10847.0, 10847.0, 10859.0, 10841.0, 10833.0, 10830.0, 10823.0, 10826.0, 10808.0, 10805.0, 10859.0, 10862.0, 10861.0, 10883.0, 10857.0, 10838.0, 10848.0, 10852.0, 10827.0, 10817.0, 10817.0, 10834.0, 10851.0, 10850.0, 10872.0, 10842.0, 10814.0, 10792.0, 10795.0, 10832.0, 10864.0, 10835.0, 10802.0, 10804.0, 10817.0, 10822.0, 10819.0, 10832.0, 10838.0, 10832.0, 10869.0, 10829.0, 10797.0, 10790.0, 10804.0, 10807.0, 10826.0, 10831.0, 10809.0, 10812.0, 10809.0, 10828.0, 10843.0, 10840.0, 10838.0, 10822.0, 10825.0, 10825.0, 10838.0, 10835.0, 10840.0, 10847.0, 10849.0, 10843.0, 10845.0, 10842.0, 10848.0, 10841.0, 10838.0, 10826.0, 10822.0, 10822.0, 10814.0, 10806.0, 10812.0, 10817.0, 10818.0, 10823.0, 10824.0, 10817.0, 10824.0, 10824.0, 10829.0, 10833.0, 10827.0, 10814.0, 10816.0, 10815.0, 10817.0, 10824.0, 10822.0, 10832.0, 10817.0, 10823.0, 10814.0, 10805.0, 10822.0, 10811.0, 10820.0, 10826.0, 10827.0, 10818.0, 10826.0, 10821.0, 10807.0, 10799.0, 10807.0, 10805.0, 10792.0, 10789.0, 10770.0, 10748.0, 10755.0, 10766.0, 10804.0, 10826.0, 10811.0, 10809.0, 10834.0, 10859.0, 10821.0, 10828.0, 10801.0, 10789.0, 10817.0, 10820.0, 10787.0, 10758.0, 10757.0, 10766.0, 10787.0, 10791.0, 10786.0, 10782.0, 10770.0, 10797.0, 10834.0, 10838.0, 10833.0, 10831.0, 10810.0, 10834.0, 10884.0, 10855.0, 10817.0, 10772.0, 10782.0, 10827.0, 10851.0, 10846.0, 10780.0],
      "WindowWidth": [23708.0, 23561.0, 23453.0, 23382.0, 23370.0, 23310.0, 23300.0, 23324.0, 23294.0, 23295.0, 23335.0, 23324.0, 23311.0, 23298.0, 23287.0, 23272.0, 23295.0, 23273.0, 23290.0, 23302.0, 23275.0, 23266.0, 23259.0, 23251.0, 23267.0, 23287.0, 23303.0, 23298.0, 23312.0, 23289.0, 23279.0, 23320.0, 23235.0, 23262.0, 23354.0, 23362.0, 23406.0, 23327.0, 23296.0, 23279.0, 23288.0, 23304.0, 23268.0, 23250.0, 23242.0, 23228.0, 23231.0, 23196.0, 23186.0, 23300.0, 23317.0, 23318.0, 23355.0, 23309.0, 23268.0, 23292.0, 23304.0, 23242.0, 23212.0, 23215.0, 23253.0, 23286.0, 23291.0, 23349.0, 23279.0, 23217.0, 23165.0, 23169.0, 23252.0, 23330.0, 23260.0, 23185.0, 23182.0, 23210.0, 23226.0, 23224.0, 23250.0, 23262.0, 23250.0, 23338.0, 23251.0, 23173.0, 23152.0, 23182.0, 23201.0, 23233.0, 23248.0, 23205.0, 23200.0, 23197.0, 23241.0, 23275.0, 23270.0, 23264.0, 23229.0, 23234.0, 23239.0, 23266.0, 23263.0, 23270.0, 23290.0, 23296.0, 23285.0, 23284.0, 23279.0, 23289.0, 23275.0, 23265.0, 23242.0, 23230.0, 23232.0, 23214.0, 23195.0, 23207.0, 23215.0, 23218.0, 23231.0, 23240.0, 23220.0, 23235.0, 23236.0, 23245.0, 23256.0, 23246.0, 23219.0, 23218.0, 23215.0, 23223.0, 23234.0, 23230.0, 23246.0, 23220.0, 23235.0, 23213.0, 23195.0, 23235.0, 23203.0, 23221.0, 23242.0, 23234.0, 23216.0, 23237.0, 23221.0, 23190.0, 23175.0, 23185.0, 23185.0, 23159.0, 23150.0, 23112.0, 23063.0, 23071.0, 23103.0, 23192.0, 23237.0, 23207.0, 23202.0, 23248.0, 23318.0, 23232.0, 23240.0, 23184.0, 23156.0, 23214.0, 23224.0, 23153.0, 23089.0, 23084.0, 23107.0, 23147.0, 23159.0, 23152.0, 23138.0, 23114.0, 23171.0, 23251.0, 23266.0, 23260.0, 23248.0, 23205.0, 23256.0, 23366.0, 23310.0, 23228.0, 23124.0, 23135.0, 23241.0, 23302.0, 23290.0, 23145.0]
    },
    "slices": {}
  }
}