{
  "AcquisitionMatrixPE": 104,
  "AcquisitionNumber": 1,
  "AcquisitionTime": "11:11:2.965000",
  "BandwidthPerPixelPhaseEncode": 17.17,
  "BaseResolution": 104,
  "BodyPartExamined": "BRAIN",
  "CoilString": "HC1-7;NC1_2",
  "ConsistencyInfo": "N4_VE11C_LATEST_20160120",
  "ConversionSoftware": "dcm2niix",
  "ConversionSoftwareVersion": "v1.0.20190902",
  "DerivedVendorReportedEchoSpacing": 0.000560011,
  "DeviceSerialNumber": "167006",
  "DwellTime": 2.1e-06,
  "EchoTime": 0.037,
  "EchoTrainLength": 104,
  "EffectiveEchoSpacing": 0.000560011,
  "FlipAngle": 52,
  "ImageComments": "Unaliased_MB4_PE3_LB",
  "ImageOrientationPatientDICOM": [0.999423, 0.0100666, 0.0324332, 0.00732627, 0.868651, -0.49537],
  "ImageType": [
    "ORIGINAL",
    "PRIMARY",
    "M",
    "MB",
    "ND",
    "MOSAIC"
],
  "ImagingFrequency": 123.259,
  "InPlanePhaseEncodingDirectionDICOM": "COL",
  "InstitutionAddress": "Chemin_Queen-Mary_4565_Montreal_District_CA_H3W_1W5",
  "InstitutionName": "IUGM",
  "InstitutionalDepartmentName": "Department",
  "MRAcquisitionType": "2D",
  "MagneticFieldStrength": 3,
  "Manufacturer": "Siemens",
  "ManufacturersModelName": "Prisma_fit",
  "Modality": "MR",
  "MultibandAccelerationFactor": 4,
  "PartialFourier": 1,
  "PatientPosition": "HFS",
  "PercentPhaseFOV": 100,
  "PhaseEncodingDirection": "j",
  "PhaseEncodingSteps": 104,
  "PhaseResolution": 1,
  "PixelBandwidth": 2290,
  "ProcedureStepDescription": "memory_things",
  "ProtocolName": "func_task-things_run-4",
  "PulseSequenceDetails": "%CustomerSeq%_cmrr_mbep2d_bold",
  "ReceiveCoilActiveElements": "HC1-7;NC1,2",
  "ReceiveCoilName": "HeadNeck_64",
  "ReconMatrixPE": 104,
  "RepetitionTime": 1.49,
  "SAR": 0.0523423,
  "ScanOptions": "FS",
  "ScanningSequence": "EP",
  "SequenceName": "epfid2d1_104",
  "SequenceVariant": "SK_SS",
  "SeriesDescription": "func_task-things_run-4",
  "SeriesNumber": 22,
  "ShimSetting": [613, -7177, -8854, 299, -31, -116, -16, -26],
  "SliceThickness": 2,
  "SliceTiming": [0, 0.7825, 0.0975, 0.8825, 0.195, 0.98, 0.2925, 1.0775, 0.3925, 1.175, 0.49, 1.2725, 0.5875, 1.3725, 0.685, 0, 0.7825, 0.0975, 0.8825, 0.195, 0.98, 0.2925, 1.0775, 0.3925, 1.175, 0.49, 1.2725, 0.5875, 1.3725, 0.685, 0, 0.7825, 0.0975, 0.8825, 0.195, 0.98, 0.2925, 1.0775, 0.3925, 1.175, 0.49, 1.2725, 0.5875, 1.3725, 0.685, 0, 0.7825, 0.0975, 0.8825, 0.195, 0.98, 0.2925, 1.0775, 0.3925, 1.175, 0.49, 1.2725, 0.5875, 1.3725, 0.685],
  "SoftwareVersions": "syngo_MR_E11",
  "SpacingBetweenSlices": 2,
  "StationName": "MRC35049",
  "TaskName": "things",
  "TotalReadoutTime": 0.0576811,
  "TxRefAmp": 281.88,
  "WipMemBlock": "e73a5b49-34f8-4d2e-af5f-0fd6a0011e54||Sequence: R016 ve11c/master r/e634e98; Dec 19 2017 11:00:25 by eja",
  "dcmmeta_affine": [
    [-1.998846411705017, 0.01465254183858633, 0.06631970405578613, 104.52155303955078],
    [-0.020133260637521744, 1.7373024225234985, -0.9906436800956726, -52.258304595947266],
    [0.06486641615629196, 0.9907398819923401, 1.7361528873443604, -91.62046813964844],
    [0.0, 0.0, 0.0, 1.0]
],
  "dcmmeta_reorient_transform": [
    [0.0, -1.0, 0.0, 103.0],
    [1.0, 0.0, 0.0, 0.0],
    [0.0, 0.0, 1.0, 0.0],
    [0.0, 0.0, 0.0, 1.0]
],
  "dcmmeta_shape": [104, 104, 60, 190],
  "dcmmeta_slice_dim": 2,
  "dcmmeta_version": 0.6,
  "global": {
    "const": {
      "AcquisitionMatrix": [104, 0, 0, 104],
      "AngioFlag": "N",
      "BitsAllocated": 16,
      "BitsStored": 16,
      "BodyPartExamined": "BRAIN",
      "Columns": 832,
      "EchoNumbers": 1,
      "EchoTime": 37.0,
      "EchoTrainLength": 104,
      "FlipAngle": 52.0,
      "HighBit": 15,
      "ImageOrientationPatient": [0.99942320867487, 0.01006663016697, 0.03243320704315, 0.00732627110143, 0.86865122127289, -0.4953699441154],
      "ImagePositionPatient": [-838.94438275329, -766.39044401784, 347.44368827265],
      "ImageType": [
        "ORIGINAL",
        "PRIMARY",
        "M",
        "MB",
        "ND",
        "MOSAIC"
],
      "ImagedNucleus": "1H",
      "ImagingFrequency": 123.258914,
      "InPlanePhaseEncodingDirection": "COL",
      "MRAcquisitionType": "2D",
      "MagneticFieldStrength": 3.0,
      "Manufacturer": "SIEMENS",
      "ManufacturerModelName": "Prisma_fit",
      "Modality": "MR",
      "NumberOfAverages": 1.0,
      "NumberOfPhaseEncodingSteps": 104,
      "PercentPhaseFieldOfView": 100.0,
      "PercentSampling": 100.0,
      "PerformedProcedureStepStartTime": "104247.479000",
      "PhotometricInterpretation": "MONOCHROME2",
      "PixelBandwidth": 2290.0,
      "PixelRepresentation": 0,
      "PixelSpacing": [2.0, 2.0],
      "ProtocolName": "func_task-things_run-4",
      "RepetitionTime": 1490.0,
      "Rows": 832,
      "SAR": 0.05234234766813,
      "SamplesPerPixel": 1,
      "ScanOptions": "FS",
      "ScanningSequence": "EP",
      "SequenceName": "epfid2d1_104",
      "SequenceVariant": [
        "SK",
        "SS"
],
      "SeriesDescription": "func_task-things_run-4",
      "SeriesNumber": 22,
      "SeriesTime": "111159.164000",
      "SliceLocation": -50.182969244279,
      "SliceThickness": 2.0,
      "SmallestImagePixelValue": 0,
      "SoftwareVersions": "syngo MR E11",
      "SpacingBetweenSlices": 1.999999990066,
      "SpecificCharacterSet": "ISO_IR 100",
      "StudyID": "1",
      "StudyTime": "104247.416000",
      "TransmitCoilName": "Body",
      "VariableFlipAngleFlag": "N",
      "WindowCenterWidthExplanation": "Algo1",
      "dBdt": 0.0},
    "slices": {}
  },
  "time": {
    "samples": {
      "AcquisitionNumber": [1, 2, 3, 4, 5, 6, 7, 8, 9, 10, 11, 12, 13, 14, 15, 16, 17, 18, 19, 20, 21, 22, 23, 24, 25, 26, 27, 28, 29, 30, 31, 32, 33, 34, 35, 36, 37, 38, 39, 40, 41, 42, 43, 44, 45, 46, 47, 48, 49, 50, 51, 52, 53, 54, 55, 56, 57, 58, 59, 60, 61, 62, 63, 64, 65, 66, 67, 68, 69, 70, 71, 72, 73, 74, 75, 76, 77, 78, 79, 80, 81, 82, 83, 84, 85, 86, 87, 88, 89, 90, 91, 92, 93, 94, 95, 96, 97, 98, 99, 100, 101, 102, 103, 104, 105, 106, 107, 108, 109, 110, 111, 112, 113, 114, 115, 116, 117, 118, 119, 120, 121, 122, 123, 124, 125, 126, 127, 128, 129, 130, 131, 132, 133, 134, 135, 136, 137, 138, 139, 140, 141, 142, 143, 144, 145, 146, 147, 148, 149, 150, 151, 152, 153, 154, 155, 156, 157, 158, 159, 160, 161, 162, 163, 164, 165, 166, 167, 168, 169, 170, 171, 172, 173, 174, 175, 176, 177, 178, 179, 180, 181, 182, 183, 184, 185, 186, 187, 188, 189, 190],
      "AcquisitionTime": ["111102.965000", "111104.455000", "111105.945000", "111107.435000", "111108.925000", "111110.415000", "111111.905000", "111113.395000", "111114.885000", "111116.375000", "111117.865000", "111119.355000", "111120.845000", "111122.335000", "111123.825000", "111125.315000", "111126.805000", "111128.295000", "111129.785000", "111131.275000", "111132.765000", "111134.255000", "111135.745000", "111137.235000", "111138.725000", "111140.215000", "111141.705000", "111143.195000", "111144.685000", "111146.175000", "111147.665000", "111149.155000", "111150.645000", "111152.135000", "111153.625000", "111155.115000", "111156.605000", "111158.095000", "111159.585000", "111201.075000", "111202.565000", "111204.055000", "111205.545000", "111207.035000", "111208.525000", "111210.015000", "111211.505000", "111212.995000", "111214.485000", "111215.975000", "111217.465000", "111218.955000", "111220.445000", "111221.935000", "111223.425000", "111224.915000", "111226.405000", "111227.895000", "111229.385000", "111230.875000", "111232.365000", "111233.855000", "111235.345000", "111236.835000", "111238.325000", "111239.815000", "111241.305000", "111242.795000", "111244.285000", "111245.775000", "111247.265000", "111248.755000", "111250.245000", "111251.735000", "111253.225000", "111254.715000", "111256.205000", "111257.695000", "111259.185000", "111300.675000", "111302.165000", "111303.655000", "111305.145000", "111306.635000", "111308.125000", "111309.615000", "111311.105000", "111312.595000", "111314.085000", "111315.575000", "111317.065000", "111318.555000", "111320.045000", "111321.535000", "111323.025000", "111324.515000", "111326.005000", "111327.495000", "111328.985000", "111330.475000", "111331.965000", "111333.455000", "111334.945000", "111336.435000", "111337.925000", "111339.415000", "111340.905000", "111342.395000", "111343.885000", "111345.375000", "111346.865000", "111348.355000", "111349.845000", "111351.335000", "111352.825000", "111354.315000", "111355.805000", "111357.295000", "111358.785000", "111400.275000", "111401.765000", "111403.255000", "111404.745000", "111406.235000", "111407.725000", "111409.215000", "111410.705000", "111412.195000", "111413.685000", "111415.175000", "111416.665000", "111418.155000", "111419.645000", "111421.135000", "111422.625000", "111424.115000", "111425.605000", "111427.095000", "111428.585000", "111430.075000", "111431.565000", "111433.055000", "111434.545000", "111436.035000", "111437.525000", "111439.015000", "111440.505000", "111441.995000", "111443.485000", "111444.975000", "111446.465000", "111447.955000", "111449.445000", "111450.935000", "111452.425000", "111453.915000", "111455.405000", "111456.895000", "111458.385000", "111459.875000", "111501.365000", "111502.855000", "111504.345000", "111505.835000", "111507.325000", "111508.815000", "111510.305000", "111511.795000", "111513.285000", "111514.775000", "111516.265000", "111517.755000", "111519.245000", "111520.735000", "111522.225000", "111523.715000", "111525.205000", "111526.695000", "111528.185000", "111529.675000", "111531.165000", "111532.655000", "111534.145000", "111535.635000", "111537.125000", "111538.615000", "111540.105000", "111541.595000", "111543.085000", "111544.575000"],
      "ContentTime": ["111159.167000", "111159.171000", "111219.125000", "111219.129000", "111219.132000", "111219.152000", "111219.155000", "111219.158000", "111219.162000", "111219.165000", "111219.169000", "111219.172000", "111219.175000", "111219.179000", "111219.182000", "111219.186000", "111219.189000", "111219.192000", "111219.196000", "111219.199000", "111219.202000", "111219.206000", "111219.209000", "111239.125000", "111239.129000", "111239.133000", "111239.136000", "111239.139000", "111239.143000", "111239.146000", "111239.149000", "111239.153000", "111239.156000", "111239.160000", "111239.163000", "111239.167000", "111239.170000", "111239.173000", "111239.177000", "111239.180000", "111239.184000", "111239.187000", "111239.190000", "111259.125000", "111259.129000", "111259.132000", "111259.136000", "111259.139000", "111259.143000", "111259.152000", "111259.156000", "111259.159000", "111259.163000", "111259.166000", "111259.169000", "111259.173000", "111259.176000", "111259.179000", "111259.183000", "111259.186000", "111259.190000", "111259.193000", "111259.197000", "111319.124000", "111319.128000", "111319.132000", "111319.135000", "111319.138000", "111319.142000", "111319.145000", "111319.149000", "111319.152000", "111319.155000", "111319.159000", "111319.162000", "111319.166000", "111319.169000", "111319.172000", "111319.176000", "111319.179000", "111319.183000", "111319.186000", "111319.189000", "111319.193000", "111339.124000", "111339.128000", "111339.131000", "111339.135000", "111339.138000", "111339.142000", "111339.145000", "111339.149000", "111339.152000", "111339.155000", "111339.159000", "111339.162000", "111339.166000", "111339.169000", "111339.172000", "111339.176000", "111339.179000", "111339.183000", "111339.186000", "111339.189000", "111419.125000", "111419.129000", "111419.132000", "111419.136000", "111419.139000", "111419.143000", "111419.146000", "111419.150000", "111419.153000", "111419.157000", "111419.160000", "111419.163000", "111419.167000", "111419.170000", "111419.174000", "111419.177000", "111419.180000", "111419.184000", "111419.187000", "111419.191000", "111419.194000", "111419.198000", "111419.201000", "111419.204000", "111419.208000", "111419.211000", "111419.214000", "111459.125000", "111459.129000", "111459.133000", "111459.136000", "111459.139000", "111459.143000", "111459.146000", "111459.150000", "111459.153000", "111459.156000", "111459.160000", "111459.164000", "111459.168000", "111459.171000", "111459.174000", "111459.178000", "111459.181000", "111459.185000", "111459.188000", "111459.191000", "111459.195000", "111459.198000", "111459.202000", "111459.205000", "111459.208000", "111459.212000", "111539.124000", "111539.128000", "111539.132000", "111539.135000", "111539.138000", "111539.142000", "111539.145000", "111539.149000", "111539.152000", "111539.155000", "111539.159000", "111539.162000", "111539.166000", "111539.169000", "111539.172000", "111539.176000", "111539.179000", "111539.183000", "111539.186000", "111539.189000", "111539.193000", "111539.196000", "111539.200000", "111539.203000", "111539.206000", "111539.210000", "111539.213000", "111547.060000", "111547.064000", "111547.068000", "111547.071000", "111547.075000", "111547.079000"],
      "InstanceCreationTime": ["111159.167000", "111159.171000", "111219.125000", "111219.129000", "111219.132000", "111219.152000", "111219.155000", "111219.158000", "111219.162000", "111219.165000", "111219.169000", "111219.172000", "111219.175000", "111219.179000", "111219.182000", "111219.186000", "111219.189000", "111219.192000", "111219.196000", "111219.199000", "111219.202000", "111219.206000", "111219.209000", "111239.125000", "111239.129000", "111239.133000", "111239.136000", "111239.139000", "111239.143000", "111239.146000", "111239.149000", "111239.153000", "111239.156000", "111239.160000", "111239.163000", "111239.167000", "111239.170000", "111239.173000", "111239.177000", "111239.180000", "111239.184000", "111239.187000", "111239.190000", "111259.125000", "111259.129000", "111259.132000", "111259.136000", "111259.139000", "111259.143000", "111259.152000", "111259.156000", "111259.159000", "111259.163000", "111259.166000", "111259.169000", "111259.173000", "111259.176000", "111259.179000", "111259.183000", "111259.186000", "111259.190000", "111259.193000", "111259.197000", "111319.124000", "111319.128000", "111319.132000", "111319.135000", "111319.138000", "111319.142000", "111319.145000", "111319.149000", "111319.152000", "111319.155000", "111319.159000", "111319.162000", "111319.166000", "111319.169000", "111319.172000", "111319.176000", "111319.179000", "111319.183000", "111319.186000", "111319.189000", "111319.193000", "111339.124000", "111339.128000", "111339.131000", "111339.135000", "111339.138000", "111339.142000", "111339.145000", "111339.149000", "111339.152000", "111339.155000", "111339.159000", "111339.162000", "111339.166000", "111339.169000", "111339.172000", "111339.176000", "111339.179000", "111339.183000", "111339.186000", "111339.189000", "111419.125000", "111419.129000", "111419.132000", "111419.136000", "111419.139000", "111419.143000", "111419.146000", "111419.150000", "111419.153000", "111419.157000", "111419.160000", "111419.163000", "111419.167000", "111419.170000", "111419.174000", "111419.177000", "111419.180000", "111419.184000", "111419.187000", "111419.191000", "111419.194000", "111419.198000", "111419.201000", "111419.204000", "111419.208000", "111419.211000", "111419.214000", "111459.125000", "111459.129000", "111459.133000", "111459.136000", "111459.139000", "111459.143000", "111459.146000", "111459.150000", "111459.153000", "111459.156000", "111459.160000", "111459.164000", "111459.168000", "111459.171000", "111459.174000", "111459.178000", "111459.181000", "111459.185000", "111459.188000", "111459.191000", "111459.195000", "111459.198000", "111459.202000", "111459.205000", "111459.208000", "111459.212000", "111539.124000", "111539.128000", "111539.132000", "111539.135000", "111539.138000", "111539.142000", "111539.145000", "111539.149000", "111539.152000", "111539.155000", "111539.159000", "111539.162000", "111539.166000", "111539.169000", "111539.172000", "111539.176000", "111539.179000", "111539.183000", "111539.186000", "111539.189000", "111539.193000", "111539.196000", "111539.200000", "111539.203000", "111539.206000", "111539.210000", "111539.213000", "111547.060000", "111547.064000", "111547.068000", "111547.071000", "111547.075000", "111547.079000"],
      "InstanceNumber": [1, 2, 3, 4, 5, 6, 7, 8, 9, 10, 11, 12, 13, 14, 15, 16, 17, 18, 19, 20, 21, 22, 23, 24, 25, 26, 27, 28, 29, 30, 31, 32, 33, 34, 35, 36, 37, 38, 39, 40, 41, 42, 43, 44, 45, 46, 47, 48, 49, 50, 51, 52, 53, 54, 55, 56, 57, 58, 59, 60, 61, 62, 63, 64, 65, 66, 67, 68, 69, 70, 71, 72, 73, 74, 75, 76, 77, 78, 79, 80, 81, 82, 83, 84, 85, 86, 87, 88, 89, 90, 91, 92, 93, 94, 95, 96, 97, 98, 99, 100, 101, 102, 103, 104, 105, 106, 107, 108, 109, 110, 111, 112, 113, 114, 115, 116, 117, 118, 119, 120, 121, 122, 123, 124, 125, 126, 127, 128, 129, 130, 131, 132, 133, 134, 135, 136, 137, 138, 139, 140, 141, 142, 143, 144, 145, 146, 147, 148, 149, 150, 151, 152, 153, 154, 155, 156, 157, 158, 159, 160, 161, 162, 163, 164, 165, 166, 167, 168, 169, 170, 171, 172, 173, 174, 175, 176, 177, 178, 179, 180, 181, 182, 183, 184, 185, 186, 187, 188, 189, 190],
      "LargestImagePixelValue": [46182, 44527, 43803, 44235, 45296, 43915, 43202, 44328, 43281, 43752, 44275, 43521, 43695, 43029, 43727, 44149, 43866, 43938, 43500, 44082, 43670, 43930, 44315, 43705, 44408, 44205, 44563, 44113, 44257, 44906, 43394, 44039, 43725, 43552, 44177, 43339, 44151, 44975, 44203, 42957, 43253, 44274, 43578, 44102, 44850, 44623, 44879, 43689, 44033, 44779, 43778, 44184, 45099, 44372, 43940, 44714, 43964, 43933, 44986, 44295, 44207, 44680, 44507, 43478, 43830, 44623, 43230, 44490, 44258, 43902, 44249, 44470, 43112, 44370, 43967, 43775, 43856, 44013, 43652, 43500, 43547, 43935, 43715, 43512, 43940, 44265, 44517, 43675, 44315, 43806, 44143, 44004, 43296, 43755, 43924, 44495, 43592, 44218, 43891, 43812, 44590, 43770, 43250, 44192, 43387, 44472, 44173, 42608, 44225, 44431, 43961, 44453, 43573, 43902, 43773, 43837, 44477, 43409, 44870, 43505, 43474, 44282, 43697, 44373, 43565, 44460, 43429, 43802, 43669, 43498, 44643, 43000, 43838, 43006, 43863, 43346, 43834, 44020, 43167, 44096, 43405, 44045, 43906, 43246, 44225, 43558, 43895, 43973, 44674, 43997, 44133, 44231, 43116, 43626, 42749, 43651, 43399, 43819, 43765, 43136, 43523, 43101, 43963, 43612, 43233, 44187, 42671, 43508, 43164, 44119, 43402, 43716, 44259, 43052, 44567, 43334, 43712, 43906, 43782, 44077, 43686, 43701, 43123, 44027, 43119, 42271, 43179, 43396, 43979, 43679],
      "WindowCenter": [10940.0, 10890.0, 10856.0, 10838.0, 10843.0, 10836.0, 10841.0, 10847.0, 10828.0, 10837.0, 10850.0, 10846.0, 10854.0, 10816.0, 10808.0, 10828.0, 10847.0, 10854.0, 10841.0, 10840.0, 10820.0, 10826.0, 10838.0, 10843.0, 10857.0, 10851.0, 10856.0, 10850.0, 10844.0, 10847.0, 10830.0, 10842.0, 10818.0, 10831.0, 10850.0, 10833.0, 10815.0, 10804.0, 10846.0, 10892.0, 10874.0, 10861.0, 10840.0, 10821.0, 10834.0, 10848.0, 10829.0, 10809.0, 10812.0, 10827.0, 10791.0, 10783.0, 10809.0, 10824.0, 10831.0, 10845.0, 10833.0, 10832.0, 10848.0, 10838.0, 10848.0, 10857.0, 10858.0, 10829.0, 10825.0, 10847.0, 10830.0, 10844.0, 10849.0, 10842.0, 10840.0, 10839.0, 10822.0, 10838.0, 10827.0, 10829.0, 10838.0, 10859.0, 10865.0, 10872.0, 10858.0, 10847.0, 10835.0, 10825.0, 10831.0, 10831.0, 10847.0, 10843.0, 10848.0, 10834.0, 10833.0, 10829.0, 10813.0, 10817.0, 10815.0, 10827.0, 10816.0, 10822.0, 10823.0, 10825.0, 10828.0, 10823.0, 10819.0, 10829.0, 10828.0, 10845.0, 10849.0, 10827.0, 10823.0, 10810.0, 10819.0, 10829.0, 10818.0, 10817.0, 10809.0, 10806.0, 10805.0, 10798.0, 10825.0, 10819.0, 10819.0, 10823.0, 10806.0, 10827.0, 10829.0, 10855.0, 10843.0, 10838.0, 10808.0, 10774.0, 10812.0, 10805.0, 10832.0, 10816.0, 10827.0, 10824.0, 10834.0, 10844.0, 10830.0, 10830.0, 10809.0, 10806.0, 10805.0, 10794.0, 10811.0, 10800.0, 10806.0, 10798.0, 10813.0, 10805.0, 10811.0, 10813.0, 10794.0, 10807.0, 10806.0, 10816.0, 10826.0, 10814.0, 10831.0, 10840.0, 10847.0, 10814.0, 10796.0, 10791.0, 10819.0, 10863.0, 10832.0, 10830.0, 10812.0, 10812.0, 10800.0, 10803.0, 10803.0, 10792.0, 10803.0, 10799.0, 10808.0, 10814.0, 10815.0, 10829.0, 10835.0, 10843.0, 10826.0, 10834.0, 10829.0, 10819.0, 10811.0, 10810.0, 10833.0, 10846.0],
      "WindowWidth": [23581.0, 23433.0, 23339.0, 23284.0, 23280.0, 23270.0, 23284.0, 23286.0, 23249.0, 23265.0, 23295.0, 23287.0, 23305.0, 23224.0, 23202.0, 23243.0, 23285.0, 23301.0, 23276.0, 23268.0, 23228.0, 23239.0, 23263.0, 23277.0, 23306.0, 23290.0, 23301.0, 23289.0, 23276.0, 23281.0, 23253.0, 23276.0, 23225.0, 23255.0, 23290.0, 23260.0, 23216.0, 23185.0, 23281.0, 23396.0, 23357.0, 23314.0, 23276.0, 23225.0, 23253.0, 23289.0, 23239.0, 23200.0, 23205.0, 23238.0, 23164.0, 23140.0, 23193.0, 23230.0, 23249.0, 23278.0, 23253.0, 23252.0, 23282.0, 23264.0, 23286.0, 23306.0, 23309.0, 23247.0, 23236.0, 23284.0, 23256.0, 23277.0, 23291.0, 23277.0, 23270.0, 23268.0, 23234.0, 23264.0, 23244.0, 23247.0, 23268.0, 23312.0, 23328.0, 23345.0, 23315.0, 23292.0, 23262.0, 23239.0, 23248.0, 23251.0, 23284.0, 23278.0, 23287.0, 23257.0, 23257.0, 23241.0, 23211.0, 23217.0, 23214.0, 23234.0, 23217.0, 23226.0, 23229.0, 23236.0, 23242.0, 23231.0, 23227.0, 23244.0, 23245.0, 23277.0, 23288.0, 23246.0, 23226.0, 23193.0, 23213.0, 23240.0, 23219.0, 23217.0, 23197.0, 23189.0, 23185.0, 23175.0, 23227.0, 23219.0, 23222.0, 23227.0, 23191.0, 23235.0, 23245.0, 23299.0, 23278.0, 23265.0, 23201.0, 23121.0, 23200.0, 23196.0, 23252.0, 23224.0, 23243.0, 23241.0, 23260.0, 23281.0, 23251.0, 23244.0, 23197.0, 23191.0, 23187.0, 23168.0, 23198.0, 23183.0, 23190.0, 23173.0, 23198.0, 23186.0, 23199.0, 23208.0, 23171.0, 23195.0, 23199.0, 23216.0, 23241.0, 23211.0, 23249.0, 23278.0, 23289.0, 23215.0, 23174.0, 23163.0, 23226.0, 23321.0, 23262.0, 23249.0, 23210.0, 23203.0, 23180.0, 23184.0, 23182.0, 23161.0, 23184.0, 23178.0, 23197.0, 23211.0, 23214.0, 23242.0, 23259.0, 23275.0, 23244.0, 23257.0, 23246.0, 23233.0, 23214.0, 23204.0, 23255.0, 23285.0]
    },
    "slices": {}
  }
}