{
  "AcquisitionMatrixPE": 104,
  "AcquisitionNumber": 1,
  "AcquisitionTime": "10:52:49.797500",
  "BandwidthPerPixelPhaseEncode": 17.17,
  "BaseResolution": 104,
  "BodyPartExamined": "BRAIN",
  "CoilString": "HC1-7;NC1_2",
  "ConsistencyInfo": "N4_VE11C_LATEST_20160120",
  "ConversionSoftware": "dcm2niix",
  "ConversionSoftwareVersion": "v1.0.20190902",
  "DerivedVendorReportedEchoSpacing": 0.000560011,
  "DeviceSerialNumber": "167006",
  "DwellTime": 2.1e-06,
  "EchoTime": 0.037,
  "EchoTrainLength": 104,
  "EffectiveEchoSpacing": 0.000560011,
  "FlipAngle": 52,
  "ImageComments": "Unaliased_MB4_PE3_LB",
  "ImageOrientationPatientDICOM": [0.999423, 0.0100666, 0.0324332, 0.00732627, 0.868651, -0.49537],
  "ImageType": [
    "ORIGINAL",
    "PRIMARY",
    "P",
    "MB",
    "ND",
    "MOSAIC"
],
  "ImagingFrequency": 123.259,
  "InPlanePhaseEncodingDirectionDICOM": "COL",
  "InstitutionAddress": "Chemin_Queen-Mary_4565_Montreal_District_CA_H3W_1W5",
  "InstitutionName": "IUGM",
  "InstitutionalDepartmentName": "Department",
  "MRAcquisitionType": "2D",
  "MagneticFieldStrength": 3,
  "Manufacturer": "Siemens",
  "ManufacturersModelName": "Prisma_fit",
  "Modality": "MR",
  "MultibandAccelerationFactor": 4,
  "PartialFourier": 1,
  "PatientPosition": "HFS",
  "PercentPhaseFOV": 100,
  "PhaseEncodingDirection": "j",
  "PhaseEncodingSteps": 104,
  "PhaseResolution": 1,
  "PixelBandwidth": 2290,
  "ProcedureStepDescription": "memory_things",
  "ProtocolName": "func_task-things_run-1",
  "PulseSequenceDetails": "%CustomerSeq%_cmrr_mbep2d_bold",
  "ReceiveCoilActiveElements": "HC1-7;NC1,2",
  "ReceiveCoilName": "HeadNeck_64",
  "ReconMatrixPE": 104,
  "RepetitionTime": 1.49,
  "SAR": 0.0523423,
  "ScanOptions": "FS",
  "ScanningSequence": "EP",
  "SequenceName": "epfid2d1_104",
  "SequenceVariant": "SK_SS",
  "SeriesDescription": "func_task-things_run-1",
  "SeriesNumber": 14,
  "ShimSetting": [613, -7177, -8854, 299, -31, -116, -16, -26],
  "SliceThickness": 2,
  "SliceTiming": [0, 0.7825, 0.0975, 0.8825, 0.195, 0.98, 0.2925, 1.0775, 0.3925, 1.175, 0.49, 1.2725, 0.5875, 1.3725, 0.685, 0, 0.7825, 0.0975, 0.8825, 0.195, 0.98, 0.2925, 1.0775, 0.3925, 1.175, 0.49, 1.2725, 0.5875, 1.3725, 0.685, 0, 0.7825, 0.0975, 0.8825, 0.195, 0.98, 0.2925, 1.0775, 0.3925, 1.175, 0.49, 1.2725, 0.5875, 1.3725, 0.685, 0, 0.7825, 0.0975, 0.8825, 0.195, 0.98, 0.2925, 1.0775, 0.3925, 1.175, 0.49, 1.2725, 0.5875, 1.3725, 0.685],
  "SoftwareVersions": "syngo_MR_E11",
  "SpacingBetweenSlices": 2,
  "StationName": "MRC35049",
  "TaskName": "things",
  "TotalReadoutTime": 0.0576811,
  "TxRefAmp": 281.88,
  "WipMemBlock": "ddca905c-c8c0-42f4-97df-6e94648ca5dd||Sequence: R016 ve11c/master r/e634e98; Dec 19 2017 11:00:25 by eja",
  "dcmmeta_affine": [
    [-1.998846411705017, 0.01465254183858633, 0.06631970405578613, 104.52155303955078],
    [-0.020133260637521744, 1.7373024225234985, -0.9906436800956726, -52.258304595947266],
    [0.06486641615629196, 0.9907398819923401, 1.7361528873443604, -91.62046813964844],
    [0.0, 0.0, 0.0, 1.0]
],
  "dcmmeta_reorient_transform": [
    [0.0, -1.0, 0.0, 103.0],
    [1.0, 0.0, 0.0, 0.0],
    [0.0, 0.0, 1.0, 0.0],
    [0.0, 0.0, 0.0, 1.0]
],
  "dcmmeta_shape": [104, 104, 60, 190],
  "dcmmeta_slice_dim": 2,
  "dcmmeta_version": 0.6,
  "global": {
    "const": {
      "AcquisitionMatrix": [104, 0, 0, 104],
      "AngioFlag": "N",
      "BitsAllocated": 16,
      "BitsStored": 16,
      "BodyPartExamined": "BRAIN",
      "Columns": 832,
      "EchoNumbers": 1,
      "EchoTime": 37.0,
      "EchoTrainLength": 104,
      "FlipAngle": 52.0,
      "HighBit": 15,
      "ImageOrientationPatient": [0.99942320867487, 0.01006663016697, 0.03243320704315, 0.00732627110143, 0.86865122127289, -0.4953699441154],
      "ImagePositionPatient": [-838.94438275329, -766.39044401784, 347.44368827265],
      "ImageType": [
        "ORIGINAL",
        "PRIMARY",
        "P",
        "MB",
        "ND",
        "MOSAIC"
],
      "ImagedNucleus": "1H",
      "ImagingFrequency": 123.258903,
      "InPlanePhaseEncodingDirection": "COL",
      "LargestImagePixelValue": 4095,
      "MRAcquisitionType": "2D",
      "MagneticFieldStrength": 3.0,
      "Manufacturer": "SIEMENS",
      "ManufacturerModelName": "Prisma_fit",
      "Modality": "MR",
      "NumberOfAverages": 1.0,
      "NumberOfPhaseEncodingSteps": 104,
      "PercentPhaseFieldOfView": 100.0,
      "PercentSampling": 100.0,
      "PerformedProcedureStepStartTime": "104247.479000",
      "PhotometricInterpretation": "MONOCHROME2",
      "PixelBandwidth": 2290.0,
      "PixelRepresentation": 0,
      "PixelSpacing": [2.0, 2.0],
      "ProtocolName": "func_task-things_run-1",
      "RepetitionTime": 1490.0,
      "RescaleIntercept": -4096.0,
      "RescaleSlope": 2.0,
      "RescaleType": "US",
      "Rows": 832,
      "SAR": 0.05234234766813,
      "SamplesPerPixel": 1,
      "ScanOptions": "FS",
      "ScanningSequence": "EP",
      "SequenceName": "epfid2d1_104",
      "SequenceVariant": [
        "SK",
        "SS"
],
      "SeriesDescription": "func_task-things_run-1",
      "SeriesNumber": 14,
      "SeriesTime": "105419.283000",
      "SliceLocation": -50.182969244279,
      "SliceThickness": 2.0,
      "SmallestImagePixelValue": 0,
      "SoftwareVersions": "syngo MR E11",
      "SpacingBetweenSlices": 1.999999990066,
      "SpecificCharacterSet": "ISO_IR 100",
      "StudyID": "1",
      "StudyTime": "104247.416000",
      "TransmitCoilName": "Body",
      "VariableFlipAngleFlag": "N",
      "WindowCenterWidthExplanation": "Algo1",
      "dBdt": 0.0},
    "slices": {}
  },
  "time": {
    "samples": {
      "AcquisitionNumber": [1, 2, 3, 4, 5, 6, 7, 8, 9, 10, 11, 12, 13, 14, 15, 16, 17, 18, 19, 20, 21, 22, 23, 24, 25, 26, 27, 28, 29, 30, 31, 32, 33, 34, 35, 36, 37, 38, 39, 40, 41, 42, 43, 44, 45, 46, 47, 48, 49, 50, 51, 52, 53, 54, 55, 56, 57, 58, 59, 60, 61, 62, 63, 64, 65, 66, 67, 68, 69, 70, 71, 72, 73, 74, 75, 76, 77, 78, 79, 80, 81, 82, 83, 84, 85, 86, 87, 88, 89, 90, 91, 92, 93, 94, 95, 96, 97, 98, 99, 100, 101, 102, 103, 104, 105, 106, 107, 108, 109, 110, 111, 112, 113, 114, 115, 116, 117, 118, 119, 120, 121, 122, 123, 124, 125, 126, 127, 128, 129, 130, 131, 132, 133, 134, 135, 136, 137, 138, 139, 140, 141, 142, 143, 144, 145, 146, 147, 148, 149, 150, 151, 152, 153, 154, 155, 156, 157, 158, 159, 160, 161, 162, 163, 164, 165, 166, 167, 168, 169, 170, 171, 172, 173, 174, 175, 176, 177, 178, 179, 180, 181, 182, 183, 184, 185, 186, 187, 188, 189, 190],
      "AcquisitionTime": ["105249.797500", "105251.287500", "105252.777500", "105254.267500", "105255.757500", "105257.247500", "105258.737500", "105300.227500", "105301.717500", "105303.207500", "105304.697500", "105306.187500", "105307.677500", "105309.167500", "105310.657500", "105312.147500", "105313.637500", "105315.127500", "105316.617500", "105318.107500", "105319.597500", "105321.087500", "105322.577500", "105324.067500", "105325.557500", "105327.047500", "105328.537500", "105330.027500", "105331.517500", "105333.007500", "105334.497500", "105335.987500", "105337.477500", "105338.967500", "105340.457500", "105341.947500", "105343.437500", "105344.927500", "105346.417500", "105347.907500", "105349.397500", "105350.887500", "105352.377500", "105353.867500", "105355.357500", "105356.847500", "105358.337500", "105359.827500", "105401.317500", "105402.807500", "105404.297500", "105405.787500", "105407.277500", "105408.767500", "105410.257500", "105411.747500", "105413.237500", "105414.727500", "105416.217500", "105417.707500", "105419.197500", "105420.687500", "105422.177500", "105423.667500", "105425.157500", "105426.647500", "105428.137500", "105429.627500", "105431.117500", "105432.607500", "105434.097500", "105435.587500", "105437.077500", "105438.567500", "105440.057500", "105441.547500", "105443.037500", "105444.527500", "105446.017500", "105447.507500", "105448.997500", "105450.487500", "105451.977500", "105453.467500", "105454.957500", "105456.447500", "105457.937500", "105459.427500", "105500.917500", "105502.407500", "105503.897500", "105505.387500", "105506.877500", "105508.367500", "105509.857500", "105511.347500", "105512.837500", "105514.327500", "105515.817500", "105517.307500", "105518.797500", "105520.287500", "105521.777500", "105523.267500", "105524.757500", "105526.247500", "105527.737500", "105529.227500", "105530.717500", "105532.207500", "105533.697500", "105535.187500", "105536.677500", "105538.167500", "105539.657500", "105541.147500", "105542.637500", "105544.127500", "105545.617500", "105547.107500", "105548.597500", "105550.087500", "105551.577500", "105553.067500", "105554.557500", "105556.047500", "105557.537500", "105559.027500", "105600.517500", "105602.007500", "105603.497500", "105604.987500", "105606.477500", "105607.967500", "105609.457500", "105610.947500", "105612.437500", "105613.927500", "105615.417500", "105616.907500", "105618.397500", "105619.887500", "105621.377500", "105622.867500", "105624.357500", "105625.847500", "105627.337500", "105628.827500", "105630.317500", "105631.807500", "105633.297500", "105634.787500", "105636.277500", "105637.767500", "105639.257500", "105640.747500", "105642.237500", "105643.727500", "105645.217500", "105646.707500", "105648.197500", "105649.687500", "105651.177500", "105652.667500", "105654.157500", "105655.647500", "105657.137500", "105658.627500", "105700.117500", "105701.607500", "105703.097500", "105704.587500", "105706.077500", "105707.567500", "105709.057500", "105710.547500", "105712.037500", "105713.527500", "105715.017500", "105716.507500", "105717.997500", "105719.487500", "105720.977500", "105722.467500", "105723.957500", "105725.447500", "105726.937500", "105728.427500", "105729.917500", "105731.407500"],
      "ContentTime": ["105419.285000", "105419.288000", "105419.305000", "105419.308000", "105419.311000", "105419.313000", "105419.316000", "105419.318000", "105419.321000", "105419.323000", "105419.326000", "105419.328000", "105419.331000", "105419.333000", "105419.336000", "105419.339000", "105419.341000", "105419.344000", "105419.346000", "105419.349000", "105459.310000", "105459.313000", "105459.315000", "105459.318000", "105459.320000", "105459.323000", "105459.325000", "105459.328000", "105459.330000", "105459.333000", "105459.336000", "105459.338000", "105459.341000", "105459.343000", "105459.346000", "105459.349000", "105459.351000", "105459.355000", "105459.358000", "105459.360000", "105459.363000", "105459.366000", "105459.377000", "105459.380000", "105459.383000", "105459.386000", "105459.388000", "105459.391000", "105459.394000", "105459.396000", "105459.399000", "105459.402000", "105459.404000", "105459.407000", "105459.409000", "105459.412000", "105459.414000", "105459.417000", "105459.420000", "105519.235000", "105519.237000", "105519.240000", "105519.246000", "105519.249000", "105519.251000", "105519.254000", "105519.256000", "105519.259000", "105519.261000", "105519.264000", "105519.267000", "105519.269000", "105519.272000", "105519.274000", "105519.277000", "105519.279000", "105519.282000", "105519.284000", "105519.287000", "105539.246000", "105539.248000", "105539.251000", "105539.254000", "105539.256000", "105539.259000", "105539.261000", "105539.264000", "105539.266000", "105539.269000", "105539.271000", "105539.274000", "105539.276000", "105539.279000", "105539.282000", "105539.284000", "105539.287000", "105539.289000", "105539.292000", "105539.294000", "105539.297000", "105559.250000", "105559.253000", "105559.255000", "105559.258000", "105559.261000", "105559.263000", "105559.266000", "105559.268000", "105559.271000", "105559.274000", "105559.276000", "105559.279000", "105559.281000", "105559.284000", "105559.287000", "105559.290000", "105559.293000", "105559.295000", "105559.298000", "105559.300000", "105619.244000", "105619.247000", "105619.249000", "105619.252000", "105619.254000", "105619.257000", "105619.259000", "105619.262000", "105619.264000", "105619.267000", "105619.270000", "105619.272000", "105619.275000", "105619.278000", "105619.280000", "105619.283000", "105619.285000", "105619.288000", "105619.291000", "105619.293000", "105659.274000", "105659.277000", "105659.291000", "105659.294000", "105659.296000", "105659.299000", "105659.302000", "105659.304000", "105659.307000", "105659.309000", "105659.312000", "105659.315000", "105659.317000", "105659.319000", "105659.322000", "105659.325000", "105659.327000", "105659.330000", "105659.332000", "105659.335000", "105659.338000", "105659.340000", "105659.343000", "105659.345000", "105659.348000", "105659.350000", "105659.353000", "105733.510000", "105733.513000", "105733.516000", "105733.519000", "105733.522000", "105733.525000", "105733.527000", "105733.530000", "105733.533000", "105733.536000", "105733.538000", "105733.541000", "105733.544000", "105733.547000", "105733.549000", "105733.552000", "105733.555000", "105733.558000", "105733.560000", "105733.563000", "105733.566000", "105733.569000", "105733.572000"],
      "InstanceCreationTime": ["105419.285000", "105419.288000", "105419.305000", "105419.308000", "105419.311000", "105419.313000", "105419.316000", "105419.318000", "105419.321000", "105419.323000", "105419.326000", "105419.328000", "105419.331000", "105419.333000", "105419.336000", "105419.339000", "105419.341000", "105419.344000", "105419.346000", "105419.349000", "105459.310000", "105459.313000", "105459.315000", "105459.318000", "105459.320000", "105459.323000", "105459.325000", "105459.328000", "105459.330000", "105459.333000", "105459.336000", "105459.338000", "105459.341000", "105459.343000", "105459.346000", "105459.349000", "105459.351000", "105459.355000", "105459.358000", "105459.360000", "105459.363000", "105459.366000", "105459.377000", "105459.380000", "105459.383000", "105459.386000", "105459.388000", "105459.391000", "105459.394000", "105459.396000", "105459.399000", "105459.402000", "105459.404000", "105459.407000", "105459.409000", "105459.412000", "105459.414000", "105459.417000", "105459.420000", "105519.235000", "105519.237000", "105519.240000", "105519.246000", "105519.249000", "105519.251000", "105519.254000", "105519.256000", "105519.259000", "105519.261000", "105519.264000", "105519.267000", "105519.269000", "105519.272000", "105519.274000", "105519.277000", "105519.279000", "105519.282000", "105519.284000", "105519.287000", "105539.246000", "105539.248000", "105539.251000", "105539.254000", "105539.256000", "105539.259000", "105539.261000", "105539.264000", "105539.266000", "105539.269000", "105539.271000", "105539.274000", "105539.276000", "105539.279000", "105539.282000", "105539.284000", "105539.287000", "105539.289000", "105539.292000", "105539.294000", "105539.297000", "105559.250000", "105559.253000", "105559.255000", "105559.258000", "105559.261000", "105559.263000", "105559.266000", "105559.268000", "105559.271000", "105559.274000", "105559.276000", "105559.279000", "105559.281000", "105559.284000", "105559.287000", "105559.290000", "105559.293000", "105559.295000", "105559.298000", "105559.300000", "105619.244000", "105619.247000", "105619.249000", "105619.252000", "105619.254000", "105619.257000", "105619.259000", "105619.262000", "105619.264000", "105619.267000", "105619.270000", "105619.272000", "105619.275000", "105619.278000", "105619.280000", "105619.283000", "105619.285000", "105619.288000", "105619.291000", "105619.293000", "105659.274000", "105659.277000", "105659.291000", "105659.294000", "105659.296000", "105659.299000", "105659.302000", "105659.304000", "105659.307000", "105659.309000", "105659.312000", "105659.315000", "105659.317000", "105659.319000", "105659.322000", "105659.325000", "105659.327000", "105659.330000", "105659.332000", "105659.335000", "105659.338000", "105659.340000", "105659.343000", "105659.345000", "105659.348000", "105659.350000", "105659.353000", "105733.510000", "105733.513000", "105733.516000", "105733.519000", "105733.522000", "105733.525000", "105733.527000", "105733.530000", "105733.533000", "105733.536000", "105733.538000", "105733.541000", "105733.544000", "105733.547000", "105733.549000", "105733.552000", "105733.555000", "105733.558000", "105733.560000", "105733.563000", "105733.566000", "105733.569000", "105733.572000"],
      "InstanceNumber": [1, 2, 3, 4, 5, 6, 7, 8, 9, 10, 11, 12, 13, 14, 15, 16, 17, 18, 19, 20, 21, 22, 23, 24, 25, 26, 27, 28, 29, 30, 31, 32, 33, 34, 35, 36, 37, 38, 39, 40, 41, 42, 43, 44, 45, 46, 47, 48, 49, 50, 51, 52, 53, 54, 55, 56, 57, 58, 59, 60, 61, 62, 63, 64, 65, 66, 67, 68, 69, 70, 71, 72, 73, 74, 75, 76, 77, 78, 79, 80, 81, 82, 83, 84, 85, 86, 87, 88, 89, 90, 91, 92, 93, 94, 95, 96, 97, 98, 99, 100, 101, 102, 103, 104, 105, 106, 107, 108, 109, 110, 111, 112, 113, 114, 115, 116, 117, 118, 119, 120, 121, 122, 123, 124, 125, 126, 127, 128, 129, 130, 131, 132, 133, 134, 135, 136, 137, 138, 139, 140, 141, 142, 143, 144, 145, 146, 147, 148, 149, 150, 151, 152, 153, 154, 155, 156, 157, 158, 159, 160, 161, 162, 163, 164, 165, 166, 167, 168, 169, 170, 171, 172, 173, 174, 175, 176, 177, 178, 179, 180, 181, 182, 183, 184, 185, 186, 187, 188, 189, 190],
      "WindowCenter": [4794.0, 4792.0, 4796.0, 4792.0, 4794.0, 4790.0, 4790.0, 4798.0, 4790.0, 4790.0, 4790.0, 4794.0, 4792.0, 4796.0, 4792.0, 4790.0, 4792.0, 4792.0, 4792.0, 4796.0, 4790.0, 4794.0, 4792.0, 4790.0, 4816.0, 4794.0, 4794.0, 4792.0, 4792.0, 4788.0, 4796.0, 4792.0, 4788.0, 4792.0, 4814.0, 4792.0, 4790.0, 4796.0, 4792.0, 4792.0, 4794.0, 4794.0, 4796.0, 4796.0, 4794.0, 4792.0, 4794.0, 4794.0, 4792.0, 4792.0, 4790.0, 4792.0, 4794.0, 4796.0, 4794.0, 4796.0, 4788.0, 4816.0, 4816.0, 4792.0, 4790.0, 4792.0, 4792.0, 4790.0, 4792.0, 4798.0, 4790.0, 4796.0, 4790.0, 4816.0, 4792.0, 4816.0, 4796.0, 4812.0, 4794.0, 4790.0, 4794.0, 4792.0, 4788.0, 4794.0, 4814.0, 4796.0, 4812.0, 4816.0, 4792.0, 4790.0, 4796.0, 4792.0, 4796.0, 4794.0, 4786.0, 4794.0, 4814.0, 4820.0, 4822.0, 4792.0, 4792.0, 4770.0, 4794.0, 4792.0, 4794.0, 4792.0, 4792.0, 4818.0, 4814.0, 4816.0, 4792.0, 4790.0, 4792.0, 4792.0, 4794.0, 4792.0, 4794.0, 4792.0, 4790.0, 4800.0, 4806.0, 4792.0, 4822.0, 4822.0, 4850.0, 4788.0, 4792.0, 4772.0, 4796.0, 4792.0, 4790.0, 4790.0, 4792.0, 4812.0, 4796.0, 4790.0, 4814.0, 4792.0, 4814.0, 4790.0, 4790.0, 4792.0, 4790.0, 4772.0, 4788.0, 4792.0, 4794.0, 4814.0, 4814.0, 4818.0, 4792.0, 4788.0, 4794.0, 4790.0, 4792.0, 4794.0, 4796.0, 4790.0, 4792.0, 4810.0, 4788.0, 4814.0, 4792.0, 4814.0, 4794.0, 4794.0, 4792.0, 4816.0, 4792.0, 4814.0, 4788.0, 4788.0, 4790.0, 4790.0, 4792.0, 4790.0, 4792.0, 4792.0, 4792.0, 4790.0, 4814.0, 4814.0, 4790.0, 4812.0, 4792.0, 4790.0, 4790.0, 4814.0, 4776.0, 4776.0, 4796.0, 4820.0, 4926.0, 4882.0],
      "WindowWidth": [18610.0, 18604.0, 18610.0, 18604.0, 18608.0, 18606.0, 18608.0, 18618.0, 18612.0, 18614.0, 18612.0, 18618.0, 18610.0, 18620.0, 18608.0, 18606.0, 18608.0, 18614.0, 18604.0, 18620.0, 18612.0, 18606.0, 18612.0, 18600.0, 18628.0, 18616.0, 18610.0, 18612.0, 18612.0, 18610.0, 18608.0, 18614.0, 18604.0, 18608.0, 18638.0, 18612.0, 18612.0, 18624.0, 18616.0, 18614.0, 18610.0, 18618.0, 18618.0, 18612.0, 18612.0, 18604.0, 18608.0, 18606.0, 18604.0, 18608.0, 18612.0, 18616.0, 18616.0, 18616.0, 18614.0, 18626.0, 18606.0, 18638.0, 18636.0, 18616.0, 18606.0, 18616.0, 18606.0, 18618.0, 18614.0, 18624.0, 18610.0, 18622.0, 18608.0, 18634.0, 18602.0, 18630.0, 18618.0, 18636.0, 18618.0, 18614.0, 18624.0, 18620.0, 18612.0, 18616.0, 18634.0, 18614.0, 18640.0, 18638.0, 18608.0, 18612.0, 18622.0, 18614.0, 18622.0, 18624.0, 18604.0, 18612.0, 18636.0, 18632.0, 18638.0, 18614.0, 18612.0, 18584.0, 18624.0, 18618.0, 18624.0, 18610.0, 18612.0, 18636.0, 18638.0, 18638.0, 18612.0, 18614.0, 18620.0, 18620.0, 18618.0, 18620.0, 18622.0, 18612.0, 18608.0, 18626.0, 18628.0, 18610.0, 18640.0, 18638.0, 18672.0, 18610.0, 18608.0, 18592.0, 18624.0, 18620.0, 18616.0, 18614.0, 18614.0, 18636.0, 18624.0, 18610.0, 18644.0, 18620.0, 18640.0, 18610.0, 18610.0, 18618.0, 18614.0, 18592.0, 18614.0, 18620.0, 18620.0, 18630.0, 18636.0, 18642.0, 18612.0, 18608.0, 18618.0, 18616.0, 18618.0, 18620.0, 18622.0, 18610.0, 18618.0, 18638.0, 18612.0, 18636.0, 18616.0, 18636.0, 18620.0, 18618.0, 18616.0, 18640.0, 18614.0, 18644.0, 18616.0, 18614.0, 18612.0, 18612.0, 18624.0, 18612.0, 18616.0, 18616.0, 18608.0, 18614.0, 18644.0, 18642.0, 18616.0, 18638.0, 18618.0, 18610.0, 18614.0, 18640.0, 18586.0, 18584.0, 18622.0, 18642.0, 18762.0, 18718.0]
    },
    "slices": {}
  }
}