{
  "AcquisitionMatrixPE": 104,
  "AcquisitionNumber": 1,
  "AcquisitionTime": "10:58:52.947500",
  "BandwidthPerPixelPhaseEncode": 17.17,
  "BaseResolution": 104,
  "BodyPartExamined": "BRAIN",
  "CoilString": "HC1-7;NC1_2",
  "ConsistencyInfo": "N4_VE11C_LATEST_20160120",
  "ConversionSoftware": "dcm2niix",
  "ConversionSoftwareVersion": "v1.0.20190902",
  "DerivedVendorReportedEchoSpacing": 0.000560011,
  "DeviceSerialNumber": "167006",
  "DwellTime": 2.1e-06,
  "EchoTime": 0.037,
  "EchoTrainLength": 104,
  "EffectiveEchoSpacing": 0.000560011,
  "FlipAngle": 52,
  "ImageComments": "Unaliased_MB4_PE3_LB",
  "ImageOrientationPatientDICOM": [0.999423, 0.0100666, 0.0324332, 0.00732627, 0.868651, -0.49537],
  "ImageType": [
    "ORIGINAL",
    "PRIMARY",
    "P",
    "MB",
    "ND",
    "MOSAIC"
],
  "ImagingFrequency": 123.259,
  "InPlanePhaseEncodingDirectionDICOM": "COL",
  "InstitutionAddress": "Chemin_Queen-Mary_4565_Montreal_District_CA_H3W_1W5",
  "InstitutionName": "IUGM",
  "InstitutionalDepartmentName": "Department",
  "MRAcquisitionType": "2D",
  "MagneticFieldStrength": 3,
  "Manufacturer": "Siemens",
  "ManufacturersModelName": "Prisma_fit",
  "Modality": "MR",
  "MultibandAccelerationFactor": 4,
  "PartialFourier": 1,
  "PatientPosition": "HFS",
  "PercentPhaseFOV": 100,
  "PhaseEncodingDirection": "j",
  "PhaseEncodingSteps": 104,
  "PhaseResolution": 1,
  "PixelBandwidth": 2290,
  "ProcedureStepDescription": "memory_things",
  "ProtocolName": "func_task-things_run-2",
  "PulseSequenceDetails": "%CustomerSeq%_cmrr_mbep2d_bold",
  "ReceiveCoilActiveElements": "HC1-7;NC1,2",
  "ReceiveCoilName": "HeadNeck_64",
  "ReconMatrixPE": 104,
  "RepetitionTime": 1.49,
  "SAR": 0.0523423,
  "ScanOptions": "FS",
  "ScanningSequence": "EP",
  "SequenceName": "epfid2d1_104",
  "SequenceVariant": "SK_SS",
  "SeriesDescription": "func_task-things_run-2",
  "SeriesNumber": 17,
  "ShimSetting": [613, -7177, -8854, 299, -31, -116, -16, -26],
  "SliceThickness": 2,
  "SliceTiming": [0, 0.785, 0.1, 0.8825, 0.1975, 0.98, 0.295, 1.08, 0.3925, 1.1775, 0.49, 1.275, 0.59, 1.3725, 0.6875, 0, 0.785, 0.1, 0.8825, 0.1975, 0.98, 0.295, 1.08, 0.3925, 1.1775, 0.49, 1.275, 0.59, 1.3725, 0.6875, 0, 0.785, 0.1, 0.8825, 0.1975, 0.98, 0.295, 1.08, 0.3925, 1.1775, 0.49, 1.275, 0.59, 1.3725, 0.6875, 0, 0.785, 0.1, 0.8825, 0.1975, 0.98, 0.295, 1.08, 0.3925, 1.1775, 0.49, 1.275, 0.59, 1.3725, 0.6875],
  "SoftwareVersions": "syngo_MR_E11",
  "SpacingBetweenSlices": 2,
  "StationName": "MRC35049",
  "TaskName": "things",
  "TotalReadoutTime": 0.0576811,
  "TxRefAmp": 281.88,
  "WipMemBlock": "0a93e54d-c4b3-41a9-aed8-bae53c5ae64e||Sequence: R016 ve11c/master r/e634e98; Dec 19 2017 11:00:25 by eja",
  "dcmmeta_affine": [
    [-1.998846411705017, 0.01465254183858633, 0.06631970405578613, 104.52155303955078],
    [-0.020133260637521744, 1.7373024225234985, -0.9906436800956726, -52.258304595947266],
    [0.06486641615629196, 0.9907398819923401, 1.7361528873443604, -91.62046813964844],
    [0.0, 0.0, 0.0, 1.0]
],
  "dcmmeta_reorient_transform": [
    [0.0, -1.0, 0.0, 103.0],
    [1.0, 0.0, 0.0, 0.0],
    [0.0, 0.0, 1.0, 0.0],
    [0.0, 0.0, 0.0, 1.0]
],
  "dcmmeta_shape": [104, 104, 60, 190],
  "dcmmeta_slice_dim": 2,
  "dcmmeta_version": 0.6,
  "global": {
    "const": {
      "AcquisitionMatrix": [104, 0, 0, 104],
      "AngioFlag": "N",
      "BitsAllocated": 16,
      "BitsStored": 16,
      "BodyPartExamined": "BRAIN",
      "Columns": 832,
      "EchoNumbers": 1,
      "EchoTime": 37.0,
      "EchoTrainLength": 104,
      "FlipAngle": 52.0,
      "HighBit": 15,
      "ImageOrientationPatient": [0.99942320867487, 0.01006663016697, 0.03243320704315, 0.00732627110143, 0.86865122127289, -0.4953699441154],
      "ImagePositionPatient": [-838.94438275329, -766.39044401784, 347.44368827265],
      "ImageType": [
        "ORIGINAL",
        "PRIMARY",
        "P",
        "MB",
        "ND",
        "MOSAIC"
],
      "ImagedNucleus": "1H",
      "ImagingFrequency": 123.258907,
      "InPlanePhaseEncodingDirection": "COL",
      "LargestImagePixelValue": 4095,
      "MRAcquisitionType": "2D",
      "MagneticFieldStrength": 3.0,
      "Manufacturer": "SIEMENS",
      "ManufacturerModelName": "Prisma_fit",
      "Modality": "MR",
      "NumberOfAverages": 1.0,
      "NumberOfPhaseEncodingSteps": 104,
      "PercentPhaseFieldOfView": 100.0,
      "PercentSampling": 100.0,
      "PerformedProcedureStepStartTime": "104247.479000",
      "PhotometricInterpretation": "MONOCHROME2",
      "PixelBandwidth": 2290.0,
      "PixelRepresentation": 0,
      "PixelSpacing": [2.0, 2.0],
      "ProtocolName": "func_task-things_run-2",
      "RepetitionTime": 1490.0,
      "RescaleIntercept": -4096.0,
      "RescaleSlope": 2.0,
      "RescaleType": "US",
      "Rows": 832,
      "SAR": 0.05234234766813,
      "SamplesPerPixel": 1,
      "ScanOptions": "FS",
      "ScanningSequence": "EP",
      "SequenceName": "epfid2d1_104",
      "SequenceVariant": [
        "SK",
        "SS"
],
      "SeriesDescription": "func_task-things_run-2",
      "SeriesNumber": 17,
      "SeriesTime": "110019.278000",
      "SliceLocation": -50.182969244279,
      "SliceThickness": 2.0,
      "SmallestImagePixelValue": 0,
      "SoftwareVersions": "syngo MR E11",
      "SpacingBetweenSlices": 1.999999990066,
      "SpecificCharacterSet": "ISO_IR 100",
      "StudyID": "1",
      "StudyTime": "104247.416000",
      "TransmitCoilName": "Body",
      "VariableFlipAngleFlag": "N",
      "WindowCenterWidthExplanation": "Algo1",
      "dBdt": 0.0},
    "slices": {}
  },
  "time": {
    "samples": {
      "AcquisitionNumber": [1, 2, 3, 4, 5, 6, 7, 8, 9, 10, 11, 12, 13, 14, 15, 16, 17, 18, 19, 20, 21, 22, 23, 24, 25, 26, 27, 28, 29, 30, 31, 32, 33, 34, 35, 36, 37, 38, 39, 40, 41, 42, 43, 44, 45, 46, 47, 48, 49, 50, 51, 52, 53, 54, 55, 56, 57, 58, 59, 60, 61, 62, 63, 64, 65, 66, 67, 68, 69, 70, 71, 72, 73, 74, 75, 76, 77, 78, 79, 80, 81, 82, 83, 84, 85, 86, 87, 88, 89, 90, 91, 92, 93, 94, 95, 96, 97, 98, 99, 100, 101, 102, 103, 104, 105, 106, 107, 108, 109, 110, 111, 112, 113, 114, 115, 116, 117, 118, 119, 120, 121, 122, 123, 124, 125, 126, 127, 128, 129, 130, 131, 132, 133, 134, 135, 136, 137, 138, 139, 140, 141, 142, 143, 144, 145, 146, 147, 148, 149, 150, 151, 152, 153, 154, 155, 156, 157, 158, 159, 160, 161, 162, 163, 164, 165, 166, 167, 168, 169, 170, 171, 172, 173, 174, 175, 176, 177, 178, 179, 180, 181, 182, 183, 184, 185, 186, 187, 188, 189, 190],
      "AcquisitionTime": ["105852.947500", "105854.437500", "105855.927500", "105857.417500", "105858.907500", "105900.397500", "105901.887500", "105903.377500", "105904.867500", "105906.357500", "105907.847500", "105909.337500", "105910.827500", "105912.317500", "105913.807500", "105915.297500", "105916.787500", "105918.277500", "105919.767500", "105921.257500", "105922.747500", "105924.237500", "105925.727500", "105927.217500", "105928.707500", "105930.197500", "105931.687500", "105933.177500", "105934.667500", "105936.157500", "105937.647500", "105939.137500", "105940.627500", "105942.117500", "105943.607500", "105945.097500", "105946.587500", "105948.077500", "105949.567500", "105951.057500", "105952.547500", "105954.037500", "105955.527500", "105957.017500", "105958.507500", "105959.997500", "110001.487500", "110002.977500", "110004.467500", "110005.957500", "110007.447500", "110008.937500", "110010.427500", "110011.917500", "110013.407500", "110014.897500", "110016.387500", "110017.877500", "110019.367500", "110020.857500", "110022.347500", "110023.837500", "110025.327500", "110026.817500", "110028.307500", "110029.797500", "110031.287500", "110032.777500", "110034.267500", "110035.757500", "110037.247500", "110038.737500", "110040.227500", "110041.717500", "110043.207500", "110044.697500", "110046.187500", "110047.677500", "110049.167500", "110050.657500", "110052.147500", "110053.637500", "110055.127500", "110056.617500", "110058.107500", "110059.597500", "110101.087500", "110102.577500", "110104.067500", "110105.557500", "110107.047500", "110108.537500", "110110.027500", "110111.517500", "110113.007500", "110114.497500", "110115.987500", "110117.477500", "110118.967500", "110120.457500", "110121.947500", "110123.437500", "110124.927500", "110126.417500", "110127.907500", "110129.397500", "110130.887500", "110132.377500", "110133.867500", "110135.357500", "110136.847500", "110138.337500", "110139.827500", "110141.317500", "110142.807500", "110144.297500", "110145.787500", "110147.277500", "110148.767500", "110150.257500", "110151.747500", "110153.237500", "110154.727500", "110156.217500", "110157.707500", "110159.197500", "110200.687500", "110202.177500", "110203.667500", "110205.157500", "110206.647500", "110208.137500", "110209.627500", "110211.117500", "110212.607500", "110214.097500", "110215.587500", "110217.077500", "110218.567500", "110220.057500", "110221.547500", "110223.037500", "110224.527500", "110226.017500", "110227.507500", "110228.997500", "110230.487500", "110231.977500", "110233.467500", "110234.957500", "110236.447500", "110237.937500", "110239.427500", "110240.917500", "110242.407500", "110243.897500", "110245.387500", "110246.877500", "110248.367500", "110249.857500", "110251.347500", "110252.837500", "110254.327500", "110255.817500", "110257.307500", "110258.797500", "110300.287500", "110301.777500", "110303.267500", "110304.757500", "110306.247500", "110307.737500", "110309.227500", "110310.717500", "110312.207500", "110313.697500", "110315.187500", "110316.677500", "110318.167500", "110319.657500", "110321.147500", "110322.637500", "110324.127500", "110325.617500", "110327.107500", "110328.597500", "110330.087500", "110331.577500", "110333.067500", "110334.557500"],
      "ContentTime": ["110019.280000", "110019.283000", "110019.286000", "110019.288000", "110019.300000", "110019.302000", "110019.305000", "110019.308000", "110019.310000", "110019.312000", "110019.315000", "110019.318000", "110019.320000", "110019.323000", "110019.325000", "110019.328000", "110019.330000", "110019.333000", "110019.335000", "110019.338000", "110019.340000", "110019.343000", "110019.346000", "110019.348000", "110019.351000", "110019.353000", "110019.356000", "110019.358000", "110019.361000", "110019.363000", "110019.366000", "110019.368000", "110019.371000", "110039.146000", "110039.149000", "110039.151000", "110039.154000", "110039.156000", "110039.159000", "110039.161000", "110039.164000", "110039.167000", "110039.169000", "110039.172000", "110039.174000", "110039.177000", "110039.179000", "110039.182000", "110039.185000", "110039.187000", "110039.190000", "110039.193000", "110039.195000", "110039.198000", "110059.145000", "110059.147000", "110059.150000", "110059.153000", "110059.155000", "110059.158000", "110059.160000", "110059.163000", "110059.165000", "110059.168000", "110059.170000", "110059.173000", "110059.176000", "110059.178000", "110059.181000", "110059.183000", "110059.186000", "110059.188000", "110059.191000", "110059.194000", "110119.157000", "110119.159000", "110119.162000", "110119.165000", "110119.167000", "110119.170000", "110119.172000", "110119.175000", "110119.178000", "110119.180000", "110119.183000", "110119.185000", "110119.188000", "110119.191000", "110119.193000", "110119.196000", "110119.198000", "110119.201000", "110119.203000", "110119.206000", "110159.203000", "110159.206000", "110159.209000", "110159.211000", "110159.214000", "110159.216000", "110159.219000", "110159.222000", "110159.224000", "110159.227000", "110159.229000", "110159.232000", "110159.234000", "110159.237000", "110159.240000", "110159.242000", "110159.245000", "110159.247000", "110159.250000", "110159.253000", "110159.255000", "110159.258000", "110159.260000", "110159.263000", "110159.265000", "110159.268000", "110159.271000", "110159.273000", "110159.276000", "110159.278000", "110239.178000", "110239.181000", "110239.184000", "110239.186000", "110239.189000", "110239.191000", "110239.194000", "110239.197000", "110239.199000", "110239.202000", "110239.204000", "110239.207000", "110239.215000", "110239.217000", "110239.220000", "110239.222000", "110239.225000", "110239.227000", "110239.230000", "110239.232000", "110239.235000", "110239.238000", "110239.240000", "110239.243000", "110239.245000", "110239.248000", "110239.250000", "110319.185000", "110319.188000", "110319.191000", "110319.193000", "110319.196000", "110319.198000", "110319.201000", "110319.204000", "110319.206000", "110319.209000", "110319.211000", "110319.214000", "110319.217000", "110319.219000", "110319.222000", "110319.224000", "110319.227000", "110319.229000", "110319.232000", "110319.234000", "110319.237000", "110319.239000", "110319.242000", "110319.245000", "110319.247000", "110319.250000", "110319.252000", "110336.520000", "110336.523000", "110336.525000", "110336.534000", "110336.536000", "110336.539000", "110336.541000", "110336.544000", "110336.547000", "110336.549000", "110336.552000", "110336.555000"],
      "InstanceCreationTime": ["110019.280000", "110019.283000", "110019.286000", "110019.288000", "110019.300000", "110019.302000", "110019.305000", "110019.308000", "110019.310000", "110019.312000", "110019.315000", "110019.318000", "110019.320000", "110019.323000", "110019.325000", "110019.328000", "110019.330000", "110019.333000", "110019.335000", "110019.338000", "110019.340000", "110019.343000", "110019.346000", "110019.348000", "110019.351000", "110019.353000", "110019.356000", "110019.358000", "110019.361000", "110019.363000", "110019.366000", "110019.368000", "110019.371000", "110039.146000", "110039.149000", "110039.151000", "110039.154000", "110039.156000", "110039.159000", "110039.161000", "110039.164000", "110039.167000", "110039.169000", "110039.172000", "110039.174000", "110039.177000", "110039.179000", "110039.182000", "110039.185000", "110039.187000", "110039.190000", "110039.193000", "110039.195000", "110039.198000", "110059.145000", "110059.147000", "110059.150000", "110059.153000", "110059.155000", "110059.158000", "110059.160000", "110059.163000", "110059.165000", "110059.168000", "110059.170000", "110059.173000", "110059.176000", "110059.178000", "110059.181000", "110059.183000", "110059.186000", "110059.188000", "110059.191000", "110059.194000", "110119.157000", "110119.159000", "110119.162000", "110119.165000", "110119.167000", "110119.170000", "110119.172000", "110119.175000", "110119.178000", "110119.180000", "110119.183000", "110119.185000", "110119.188000", "110119.191000", "110119.193000", "110119.196000", "110119.198000", "110119.201000", "110119.203000", "110119.206000", "110159.203000", "110159.206000", "110159.209000", "110159.211000", "110159.214000", "110159.216000", "110159.219000", "110159.222000", "110159.224000", "110159.227000", "110159.229000", "110159.232000", "110159.234000", "110159.237000", "110159.240000", "110159.242000", "110159.245000", "110159.247000", "110159.250000", "110159.253000", "110159.255000", "110159.258000", "110159.260000", "110159.263000", "110159.265000", "110159.268000", "110159.271000", "110159.273000", "110159.276000", "110159.278000", "110239.178000", "110239.181000", "110239.184000", "110239.186000", "110239.189000", "110239.191000", "110239.194000", "110239.197000", "110239.199000", "110239.202000", "110239.204000", "110239.207000", "110239.215000", "110239.217000", "110239.220000", "110239.222000", "110239.225000", "110239.227000", "110239.230000", "110239.232000", "110239.235000", "110239.238000", "110239.240000", "110239.243000", "110239.245000", "110239.248000", "110239.250000", "110319.185000", "110319.188000", "110319.191000", "110319.193000", "110319.196000", "110319.198000", "110319.201000", "110319.204000", "110319.206000", "110319.209000", "110319.211000", "110319.214000", "110319.217000", "110319.219000", "110319.222000", "110319.224000", "110319.227000", "110319.229000", "110319.232000", "110319.234000", "110319.237000", "110319.239000", "110319.242000", "110319.245000", "110319.247000", "110319.250000", "110319.252000", "110336.520000", "110336.523000", "110336.525000", "110336.534000", "110336.536000", "110336.539000", "110336.541000", "110336.544000", "110336.547000", "110336.549000", "110336.552000", "110336.555000"],
      "InstanceNumber": [1, 2, 3, 4, 5, 6, 7, 8, 9, 10, 11, 12, 13, 14, 15, 16, 17, 18, 19, 20, 21, 22, 23, 24, 25, 26, 27, 28, 29, 30, 31, 32, 33, 34, 35, 36, 37, 38, 39, 40, 41, 42, 43, 44, 45, 46, 47, 48, 49, 50, 51, 52, 53, 54, 55, 56, 57, 58, 59, 60, 61, 62, 63, 64, 65, 66, 67, 68, 69, 70, 71, 72, 73, 74, 75, 76, 77, 78, 79, 80, 81, 82, 83, 84, 85, 86, 87, 88, 89, 90, 91, 92, 93, 94, 95, 96, 97, 98, 99, 100, 101, 102, 103, 104, 105, 106, 107, 108, 109, 110, 111, 112, 113, 114, 115, 116, 117, 118, 119, 120, 121, 122, 123, 124, 125, 126, 127, 128, 129, 130, 131, 132, 133, 134, 135, 136, 137, 138, 139, 140, 141, 142, 143, 144, 145, 146, 147, 148, 149, 150, 151, 152, 153, 154, 155, 156, 157, 158, 159, 160, 161, 162, 163, 164, 165, 166, 167, 168, 169, 170, 171, 172, 173, 174, 175, 176, 177, 178, 179, 180, 181, 182, 183, 184, 185, 186, 187, 188, 189, 190],
      "WindowCenter": [4818.0, 4862.0, 4822.0, 4856.0, 4816.0, 4814.0, 4818.0, 4812.0, 4846.0, 4818.0, 4812.0, 4884.0, 4848.0, 4858.0, 4824.0, 4848.0, 4846.0, 4812.0, 4818.0, 4794.0, 4820.0, 4818.0, 4822.0, 4860.0, 4852.0, 4856.0, 4814.0, 4848.0, 4790.0, 4816.0, 4844.0, 4848.0, 4820.0, 4850.0, 4818.0, 4820.0, 4846.0, 4814.0, 4854.0, 4822.0, 4854.0, 4814.0, 4852.0, 4792.0, 4790.0, 4854.0, 4820.0, 4890.0, 4860.0, 4898.0, 4886.0, 4854.0, 4840.0, 4814.0, 4794.0, 4792.0, 4792.0, 4816.0, 4792.0, 4900.0, 4866.0, 4930.0, 4892.0, 4898.0, 4816.0, 4812.0, 4792.0, 4790.0, 4814.0, 4814.0, 4856.0, 4818.0, 4890.0, 4848.0, 4814.0, 4856.0, 4812.0, 4850.0, 4844.0, 4818.0, 4846.0, 4818.0, 4856.0, 4816.0, 4846.0, 4818.0, 4790.0, 4846.0, 4822.0, 4816.0, 4856.0, 4816.0, 4810.0, 4856.0, 4820.0, 4820.0, 4882.0, 4816.0, 4820.0, 4818.0, 4814.0, 4850.0, 4856.0, 4848.0, 4818.0, 4848.0, 4816.0, 4816.0, 4844.0, 4814.0, 4854.0, 4822.0, 4856.0, 4816.0, 4846.0, 4794.0, 4852.0, 4826.0, 4856.0, 4818.0, 4850.0, 4820.0, 4812.0, 4854.0, 4886.0, 4888.0, 4820.0, 4846.0, 4790.0, 4816.0, 4792.0, 4820.0, 4816.0, 4860.0, 4824.0, 4866.0, 4826.0, 4820.0, 4818.0, 4814.0, 4814.0, 4822.0, 4818.0, 4820.0, 4822.0, 4818.0, 4848.0, 4848.0, 4822.0, 4790.0, 4822.0, 4790.0, 4814.0, 4822.0, 4790.0, 4826.0, 4888.0, 4816.0, 4888.0, 4818.0, 4790.0, 4844.0, 4792.0, 4818.0, 4818.0, 4848.0, 4848.0, 4816.0, 4850.0, 4810.0, 4842.0, 4848.0, 4816.0, 4818.0, 4816.0, 4822.0, 4794.0, 4814.0, 4826.0, 4814.0, 4860.0, 4814.0, 4860.0, 4820.0, 4814.0, 4848.0, 4850.0, 4820.0, 4788.0, 4816.0],
      "WindowWidth": [18636.0, 18690.0, 18642.0, 18684.0, 18640.0, 18634.0, 18636.0, 18636.0, 18672.0, 18640.0, 18632.0, 18722.0, 18676.0, 18688.0, 18646.0, 18678.0, 18676.0, 18636.0, 18640.0, 18612.0, 18640.0, 18638.0, 18642.0, 18690.0, 18680.0, 18684.0, 18634.0, 18676.0, 18606.0, 18636.0, 18676.0, 18678.0, 18642.0, 18678.0, 18642.0, 18638.0, 18678.0, 18636.0, 18684.0, 18642.0, 18684.0, 18636.0, 18680.0, 18610.0, 18608.0, 18686.0, 18636.0, 18726.0, 18686.0, 18730.0, 18724.0, 18684.0, 18670.0, 18642.0, 18614.0, 18618.0, 18618.0, 18640.0, 18612.0, 18730.0, 18688.0, 18764.0, 18730.0, 18740.0, 18638.0, 18638.0, 18614.0, 18612.0, 18640.0, 18638.0, 18686.0, 18638.0, 18728.0, 18678.0, 18636.0, 18682.0, 18634.0, 18680.0, 18674.0, 18638.0, 18674.0, 18640.0, 18684.0, 18638.0, 18672.0, 18642.0, 18606.0, 18674.0, 18646.0, 18632.0, 18680.0, 18638.0, 18630.0, 18684.0, 18642.0, 18636.0, 18722.0, 18634.0, 18642.0, 18640.0, 18634.0, 18676.0, 18684.0, 18676.0, 18638.0, 18676.0, 18640.0, 18638.0, 18674.0, 18638.0, 18684.0, 18640.0, 18680.0, 18634.0, 18670.0, 18606.0, 18680.0, 18644.0, 18688.0, 18642.0, 18678.0, 18640.0, 18636.0, 18680.0, 18722.0, 18726.0, 18642.0, 18668.0, 18608.0, 18638.0, 18616.0, 18640.0, 18634.0, 18692.0, 18646.0, 18696.0, 18642.0, 18640.0, 18642.0, 18632.0, 18640.0, 18642.0, 18638.0, 18638.0, 18642.0, 18634.0, 18674.0, 18678.0, 18640.0, 18602.0, 18642.0, 18606.0, 18634.0, 18644.0, 18610.0, 18644.0, 18722.0, 18634.0, 18722.0, 18638.0, 18602.0, 18672.0, 18610.0, 18636.0, 18638.0, 18670.0, 18676.0, 18628.0, 18676.0, 18632.0, 18672.0, 18674.0, 18632.0, 18638.0, 18634.0, 18644.0, 18620.0, 18632.0, 18642.0, 18632.0, 18688.0, 18636.0, 18686.0, 18640.0, 18636.0, 18670.0, 18674.0, 18642.0, 18602.0, 18640.0]
    },
    "slices": {}
  }
}