{
  "AcquisitionMatrixPE": 104,
  "AcquisitionNumber": 1,
  "AcquisitionTime": "11:11:2.965000",
  "BandwidthPerPixelPhaseEncode": 17.17,
  "BaseResolution": 104,
  "BodyPartExamined": "BRAIN",
  "CoilString": "HC1-7;NC1_2",
  "ConsistencyInfo": "N4_VE11C_LATEST_20160120",
  "ConversionSoftware": "dcm2niix",
  "ConversionSoftwareVersion": "v1.0.20190902",
  "DerivedVendorReportedEchoSpacing": 0.000560011,
  "DeviceSerialNumber": "167006",
  "DwellTime": 2.1e-06,
  "EchoTime": 0.037,
  "EchoTrainLength": 104,
  "EffectiveEchoSpacing": 0.000560011,
  "FlipAngle": 52,
  "ImageComments": "Unaliased_MB4_PE3_LB",
  "ImageOrientationPatientDICOM": [0.999423, 0.0100666, 0.0324332, 0.00732627, 0.868651, -0.49537],
  "ImageType": [
    "ORIGINAL",
    "PRIMARY",
    "P",
    "MB",
    "ND",
    "MOSAIC"
],
  "ImagingFrequency": 123.259,
  "InPlanePhaseEncodingDirectionDICOM": "COL",
  "InstitutionAddress": "Chemin_Queen-Mary_4565_Montreal_District_CA_H3W_1W5",
  "InstitutionName": "IUGM",
  "InstitutionalDepartmentName": "Department",
  "MRAcquisitionType": "2D",
  "MagneticFieldStrength": 3,
  "Manufacturer": "Siemens",
  "ManufacturersModelName": "Prisma_fit",
  "Modality": "MR",
  "MultibandAccelerationFactor": 4,
  "PartialFourier": 1,
  "PatientPosition": "HFS",
  "PercentPhaseFOV": 100,
  "PhaseEncodingDirection": "j",
  "PhaseEncodingSteps": 104,
  "PhaseResolution": 1,
  "PixelBandwidth": 2290,
  "ProcedureStepDescription": "memory_things",
  "ProtocolName": "func_task-things_run-4",
  "PulseSequenceDetails": "%CustomerSeq%_cmrr_mbep2d_bold",
  "ReceiveCoilActiveElements": "HC1-7;NC1,2",
  "ReceiveCoilName": "HeadNeck_64",
  "ReconMatrixPE": 104,
  "RepetitionTime": 1.49,
  "SAR": 0.0523423,
  "ScanOptions": "FS",
  "ScanningSequence": "EP",
  "SequenceName": "epfid2d1_104",
  "SequenceVariant": "SK_SS",
  "SeriesDescription": "func_task-things_run-4",
  "SeriesNumber": 23,
  "ShimSetting": [613, -7177, -8854, 299, -31, -116, -16, -26],
  "SliceThickness": 2,
  "SliceTiming": [0, 0.7825, 0.0975, 0.8825, 0.195, 0.98, 0.2925, 1.0775, 0.3925, 1.175, 0.49, 1.2725, 0.5875, 1.3725, 0.685, 0, 0.7825, 0.0975, 0.8825, 0.195, 0.98, 0.2925, 1.0775, 0.3925, 1.175, 0.49, 1.2725, 0.5875, 1.3725, 0.685, 0, 0.7825, 0.0975, 0.8825, 0.195, 0.98, 0.2925, 1.0775, 0.3925, 1.175, 0.49, 1.2725, 0.5875, 1.3725, 0.685, 0, 0.7825, 0.0975, 0.8825, 0.195, 0.98, 0.2925, 1.0775, 0.3925, 1.175, 0.49, 1.2725, 0.5875, 1.3725, 0.685],
  "SoftwareVersions": "syngo_MR_E11",
  "SpacingBetweenSlices": 2,
  "StationName": "MRC35049",
  "TaskName": "things",
  "TotalReadoutTime": 0.0576811,
  "TxRefAmp": 281.88,
  "WipMemBlock": "e73a5b49-34f8-4d2e-af5f-0fd6a0011e54||Sequence: R016 ve11c/master r/e634e98; Dec 19 2017 11:00:25 by eja",
  "dcmmeta_affine": [
    [-1.998846411705017, 0.01465254183858633, 0.06631970405578613, 104.52155303955078],
    [-0.020133260637521744, 1.7373024225234985, -0.9906436800956726, -52.258304595947266],
    [0.06486641615629196, 0.9907398819923401, 1.7361528873443604, -91.62046813964844],
    [0.0, 0.0, 0.0, 1.0]
],
  "dcmmeta_reorient_transform": [
    [0.0, -1.0, 0.0, 103.0],
    [1.0, 0.0, 0.0, 0.0],
    [0.0, 0.0, 1.0, 0.0],
    [0.0, 0.0, 0.0, 1.0]
],
  "dcmmeta_shape": [104, 104, 60, 190],
  "dcmmeta_slice_dim": 2,
  "dcmmeta_version": 0.6,
  "global": {
    "const": {
      "AcquisitionMatrix": [104, 0, 0, 104],
      "AngioFlag": "N",
      "BitsAllocated": 16,
      "BitsStored": 16,
      "BodyPartExamined": "BRAIN",
      "Columns": 832,
      "EchoNumbers": 1,
      "EchoTime": 37.0,
      "EchoTrainLength": 104,
      "FlipAngle": 52.0,
      "HighBit": 15,
      "ImageOrientationPatient": [0.99942320867487, 0.01006663016697, 0.03243320704315, 0.00732627110143, 0.86865122127289, -0.4953699441154],
      "ImagePositionPatient": [-838.94438275329, -766.39044401784, 347.44368827265],
      "ImageType": [
        "ORIGINAL",
        "PRIMARY",
        "P",
        "MB",
        "ND",
        "MOSAIC"
],
      "ImagedNucleus": "1H",
      "ImagingFrequency": 123.258914,
      "InPlanePhaseEncodingDirection": "COL",
      "LargestImagePixelValue": 4095,
      "MRAcquisitionType": "2D",
      "MagneticFieldStrength": 3.0,
      "Manufacturer": "SIEMENS",
      "ManufacturerModelName": "Prisma_fit",
      "Modality": "MR",
      "NumberOfAverages": 1.0,
      "NumberOfPhaseEncodingSteps": 104,
      "PercentPhaseFieldOfView": 100.0,
      "PercentSampling": 100.0,
      "PerformedProcedureStepStartTime": "104247.479000",
      "PhotometricInterpretation": "MONOCHROME2",
      "PixelBandwidth": 2290.0,
      "PixelRepresentation": 0,
      "PixelSpacing": [2.0, 2.0],
      "ProtocolName": "func_task-things_run-4",
      "RepetitionTime": 1490.0,
      "RescaleIntercept": -4096.0,
      "RescaleSlope": 2.0,
      "RescaleType": "US",
      "Rows": 832,
      "SAR": 0.05234234766813,
      "SamplesPerPixel": 1,
      "ScanOptions": "FS",
      "ScanningSequence": "EP",
      "SequenceName": "epfid2d1_104",
      "SequenceVariant": [
        "SK",
        "SS"
],
      "SeriesDescription": "func_task-things_run-4",
      "SeriesNumber": 23,
      "SeriesTime": "111159.192000",
      "SliceLocation": -50.182969244279,
      "SliceThickness": 2.0,
      "SmallestImagePixelValue": 0,
      "SoftwareVersions": "syngo MR E11",
      "SpacingBetweenSlices": 1.999999990066,
      "SpecificCharacterSet": "ISO_IR 100",
      "StudyID": "1",
      "StudyTime": "104247.416000",
      "TransmitCoilName": "Body",
      "VariableFlipAngleFlag": "N",
      "WindowCenterWidthExplanation": "Algo1",
      "dBdt": 0.0},
    "slices": {}
  },
  "time": {
    "samples": {
      "AcquisitionNumber": [1, 2, 3, 4, 5, 6, 7, 8, 9, 10, 11, 12, 13, 14, 15, 16, 17, 18, 19, 20, 21, 22, 23, 24, 25, 26, 27, 28, 29, 30, 31, 32, 33, 34, 35, 36, 37, 38, 39, 40, 41, 42, 43, 44, 45, 46, 47, 48, 49, 50, 51, 52, 53, 54, 55, 56, 57, 58, 59, 60, 61, 62, 63, 64, 65, 66, 67, 68, 69, 70, 71, 72, 73, 74, 75, 76, 77, 78, 79, 80, 81, 82, 83, 84, 85, 86, 87, 88, 89, 90, 91, 92, 93, 94, 95, 96, 97, 98, 99, 100, 101, 102, 103, 104, 105, 106, 107, 108, 109, 110, 111, 112, 113, 114, 115, 116, 117, 118, 119, 120, 121, 122, 123, 124, 125, 126, 127, 128, 129, 130, 131, 132, 133, 134, 135, 136, 137, 138, 139, 140, 141, 142, 143, 144, 145, 146, 147, 148, 149, 150, 151, 152, 153, 154, 155, 156, 157, 158, 159, 160, 161, 162, 163, 164, 165, 166, 167, 168, 169, 170, 171, 172, 173, 174, 175, 176, 177, 178, 179, 180, 181, 182, 183, 184, 185, 186, 187, 188, 189, 190],
      "AcquisitionTime": ["111102.965000", "111104.455000", "111105.945000", "111107.435000", "111108.925000", "111110.415000", "111111.905000", "111113.395000", "111114.885000", "111116.375000", "111117.865000", "111119.355000", "111120.845000", "111122.335000", "111123.825000", "111125.315000", "111126.805000", "111128.295000", "111129.785000", "111131.275000", "111132.765000", "111134.255000", "111135.745000", "111137.235000", "111138.725000", "111140.215000", "111141.705000", "111143.195000", "111144.685000", "111146.175000", "111147.665000", "111149.155000", "111150.645000", "111152.135000", "111153.625000", "111155.115000", "111156.605000", "111158.095000", "111159.585000", "111201.075000", "111202.565000", "111204.055000", "111205.545000", "111207.035000", "111208.525000", "111210.015000", "111211.505000", "111212.995000", "111214.485000", "111215.975000", "111217.465000", "111218.955000", "111220.445000", "111221.935000", "111223.425000", "111224.915000", "111226.405000", "111227.895000", "111229.385000", "111230.875000", "111232.365000", "111233.855000", "111235.345000", "111236.835000", "111238.325000", "111239.815000", "111241.305000", "111242.795000", "111244.285000", "111245.775000", "111247.265000", "111248.755000", "111250.245000", "111251.735000", "111253.225000", "111254.715000", "111256.205000", "111257.695000", "111259.185000", "111300.675000", "111302.165000", "111303.655000", "111305.145000", "111306.635000", "111308.125000", "111309.615000", "111311.105000", "111312.595000", "111314.085000", "111315.575000", "111317.065000", "111318.555000", "111320.045000", "111321.535000", "111323.025000", "111324.515000", "111326.005000", "111327.495000", "111328.985000", "111330.475000", "111331.965000", "111333.455000", "111334.945000", "111336.435000", "111337.925000", "111339.415000", "111340.905000", "111342.395000", "111343.885000", "111345.375000", "111346.865000", "111348.355000", "111349.845000", "111351.335000", "111352.825000", "111354.315000", "111355.805000", "111357.295000", "111358.785000", "111400.275000", "111401.765000", "111403.255000", "111404.745000", "111406.235000", "111407.725000", "111409.215000", "111410.705000", "111412.195000", "111413.685000", "111415.175000", "111416.665000", "111418.155000", "111419.645000", "111421.135000", "111422.625000", "111424.115000", "111425.605000", "111427.095000", "111428.585000", "111430.075000", "111431.565000", "111433.055000", "111434.545000", "111436.035000", "111437.525000", "111439.015000", "111440.505000", "111441.995000", "111443.485000", "111444.975000", "111446.465000", "111447.955000", "111449.445000", "111450.935000", "111452.425000", "111453.915000", "111455.405000", "111456.895000", "111458.385000", "111459.875000", "111501.365000", "111502.855000", "111504.345000", "111505.835000", "111507.325000", "111508.815000", "111510.305000", "111511.795000", "111513.285000", "111514.775000", "111516.265000", "111517.755000", "111519.245000", "111520.735000", "111522.225000", "111523.715000", "111525.205000", "111526.695000", "111528.185000", "111529.675000", "111531.165000", "111532.655000", "111534.145000", "111535.635000", "111537.125000", "111538.615000", "111540.105000", "111541.595000", "111543.085000", "111544.575000"],
      "ContentTime": ["111159.194000", "111159.197000", "111219.255000", "111219.258000", "111219.261000", "111219.263000", "111219.266000", "111219.268000", "111219.271000", "111219.274000", "111219.276000", "111219.279000", "111219.281000", "111219.284000", "111219.286000", "111219.289000", "111219.301000", "111219.304000", "111219.306000", "111219.309000", "111219.311000", "111219.314000", "111219.316000", "111239.237000", "111239.240000", "111239.242000", "111239.245000", "111239.247000", "111239.250000", "111239.253000", "111239.255000", "111239.258000", "111239.260000", "111239.263000", "111239.265000", "111239.268000", "111239.271000", "111239.273000", "111239.276000", "111239.278000", "111239.281000", "111239.283000", "111239.286000", "111259.236000", "111259.239000", "111259.241000", "111259.244000", "111259.246000", "111259.249000", "111259.252000", "111259.254000", "111259.257000", "111259.259000", "111259.262000", "111259.265000", "111259.267000", "111259.270000", "111259.274000", "111259.281000", "111259.283000", "111259.286000", "111259.289000", "111259.292000", "111319.246000", "111319.249000", "111319.252000", "111319.254000", "111319.257000", "111319.260000", "111319.262000", "111319.265000", "111319.267000", "111319.270000", "111319.272000", "111319.275000", "111319.278000", "111319.280000", "111319.283000", "111319.285000", "111319.288000", "111319.290000", "111319.302000", "111319.304000", "111319.307000", "111339.245000", "111339.248000", "111339.251000", "111339.254000", "111339.256000", "111339.259000", "111339.261000", "111339.264000", "111339.266000", "111339.269000", "111339.272000", "111339.282000", "111339.285000", "111339.288000", "111339.290000", "111339.293000", "111339.295000", "111339.298000", "111339.300000", "111339.303000", "111419.265000", "111419.268000", "111419.271000", "111419.273000", "111419.285000", "111419.287000", "111419.290000", "111419.292000", "111419.295000", "111419.298000", "111419.300000", "111419.303000", "111419.306000", "111419.308000", "111419.311000", "111419.313000", "111419.316000", "111419.318000", "111419.321000", "111419.323000", "111419.326000", "111419.337000", "111419.340000", "111419.342000", "111419.345000", "111419.348000", "111419.350000", "111459.256000", "111459.258000", "111459.261000", "111459.263000", "111459.266000", "111459.269000", "111459.271000", "111459.274000", "111459.276000", "111459.279000", "111459.282000", "111459.284000", "111459.287000", "111459.291000", "111459.293000", "111459.296000", "111459.299000", "111459.302000", "111459.305000", "111459.308000", "111459.311000", "111459.314000", "111459.317000", "111459.320000", "111459.323000", "111459.326000", "111539.257000", "111539.260000", "111539.263000", "111539.266000", "111539.268000", "111539.271000", "111539.273000", "111539.276000", "111539.279000", "111539.281000", "111539.284000", "111539.286000", "111539.289000", "111539.291000", "111539.294000", "111539.297000", "111539.299000", "111539.302000", "111539.304000", "111539.307000", "111539.309000", "111539.312000", "111539.315000", "111539.317000", "111539.320000", "111539.322000", "111539.325000", "111547.123000", "111547.126000", "111547.129000", "111547.131000", "111547.134000", "111547.137000"],
      "InstanceCreationTime": ["111159.194000", "111159.197000", "111219.255000", "111219.258000", "111219.261000", "111219.263000", "111219.266000", "111219.268000", "111219.271000", "111219.274000", "111219.276000", "111219.279000", "111219.281000", "111219.284000", "111219.286000", "111219.289000", "111219.301000", "111219.304000", "111219.306000", "111219.309000", "111219.311000", "111219.314000", "111219.316000", "111239.237000", "111239.240000", "111239.242000", "111239.245000", "111239.247000", "111239.250000", "111239.253000", "111239.255000", "111239.258000", "111239.260000", "111239.263000", "111239.265000", "111239.268000", "111239.271000", "111239.273000", "111239.276000", "111239.278000", "111239.281000", "111239.283000", "111239.286000", "111259.236000", "111259.239000", "111259.241000", "111259.244000", "111259.246000", "111259.249000", "111259.252000", "111259.254000", "111259.257000", "111259.259000", "111259.262000", "111259.265000", "111259.267000", "111259.270000", "111259.274000", "111259.281000", "111259.283000", "111259.286000", "111259.289000", "111259.292000", "111319.246000", "111319.249000", "111319.252000", "111319.254000", "111319.257000", "111319.260000", "111319.262000", "111319.265000", "111319.267000", "111319.270000", "111319.272000", "111319.275000", "111319.278000", "111319.280000", "111319.283000", "111319.285000", "111319.288000", "111319.290000", "111319.302000", "111319.304000", "111319.307000", "111339.245000", "111339.248000", "111339.251000", "111339.254000", "111339.256000", "111339.259000", "111339.261000", "111339.264000", "111339.266000", "111339.269000", "111339.272000", "111339.282000", "111339.285000", "111339.288000", "111339.290000", "111339.293000", "111339.295000", "111339.298000", "111339.300000", "111339.303000", "111419.265000", "111419.268000", "111419.271000", "111419.273000", "111419.285000", "111419.287000", "111419.290000", "111419.292000", "111419.295000", "111419.298000", "111419.300000", "111419.303000", "111419.306000", "111419.308000", "111419.311000", "111419.313000", "111419.316000", "111419.318000", "111419.321000", "111419.323000", "111419.326000", "111419.337000", "111419.340000", "111419.342000", "111419.345000", "111419.348000", "111419.350000", "111459.256000", "111459.258000", "111459.261000", "111459.263000", "111459.266000", "111459.269000", "111459.271000", "111459.274000", "111459.276000", "111459.279000", "111459.282000", "111459.284000", "111459.287000", "111459.291000", "111459.293000", "111459.296000", "111459.299000", "111459.302000", "111459.305000", "111459.308000", "111459.311000", "111459.314000", "111459.317000", "111459.320000", "111459.323000", "111459.326000", "111539.257000", "111539.260000", "111539.263000", "111539.266000", "111539.268000", "111539.271000", "111539.273000", "111539.276000", "111539.279000", "111539.281000", "111539.284000", "111539.286000", "111539.289000", "111539.291000", "111539.294000", "111539.297000", "111539.299000", "111539.302000", "111539.304000", "111539.307000", "111539.309000", "111539.312000", "111539.315000", "111539.317000", "111539.320000", "111539.322000", "111539.325000", "111547.123000", "111547.126000", "111547.129000", "111547.131000", "111547.134000", "111547.137000"],
      "InstanceNumber": [1, 2, 3, 4, 5, 6, 7, 8, 9, 10, 11, 12, 13, 14, 15, 16, 17, 18, 19, 20, 21, 22, 23, 24, 25, 26, 27, 28, 29, 30, 31, 32, 33, 34, 35, 36, 37, 38, 39, 40, 41, 42, 43, 44, 45, 46, 47, 48, 49, 50, 51, 52, 53, 54, 55, 56, 57, 58, 59, 60, 61, 62, 63, 64, 65, 66, 67, 68, 69, 70, 71, 72, 73, 74, 75, 76, 77, 78, 79, 80, 81, 82, 83, 84, 85, 86, 87, 88, 89, 90, 91, 92, 93, 94, 95, 96, 97, 98, 99, 100, 101, 102, 103, 104, 105, 106, 107, 108, 109, 110, 111, 112, 113, 114, 115, 116, 117, 118, 119, 120, 121, 122, 123, 124, 125, 126, 127, 128, 129, 130, 131, 132, 133, 134, 135, 136, 137, 138, 139, 140, 141, 142, 143, 144, 145, 146, 147, 148, 149, 150, 151, 152, 153, 154, 155, 156, 157, 158, 159, 160, 161, 162, 163, 164, 165, 166, 167, 168, 169, 170, 171, 172, 173, 174, 175, 176, 177, 178, 179, 180, 181, 182, 183, 184, 185, 186, 187, 188, 189, 190],
      "WindowCenter": [4794.0, 4766.0, 4828.0, 4830.0, 4764.0, 4766.0, 4796.0, 4796.0, 4822.0, 4834.0, 4790.0, 4762.0, 4790.0, 4798.0, 4822.0, 4826.0, 4794.0, 4766.0, 4796.0, 4788.0, 4792.0, 4820.0, 4768.0, 4828.0, 4822.0, 4798.0, 4788.0, 4790.0, 4790.0, 4762.0, 4790.0, 4792.0, 4794.0, 4854.0, 4790.0, 4826.0, 4832.0, 4766.0, 4772.0, 4762.0, 4828.0, 4824.0, 4894.0, 4892.0, 4862.0, 4794.0, 4774.0, 4792.0, 4786.0, 4788.0, 4794.0, 4832.0, 4826.0, 4824.0, 4830.0, 4764.0, 4788.0, 4794.0, 4762.0, 4764.0, 4794.0, 4792.0, 4764.0, 4796.0, 4824.0, 4786.0, 4824.0, 4822.0, 4764.0, 4820.0, 4788.0, 4766.0, 4794.0, 4792.0, 4790.0, 4826.0, 4856.0, 4856.0, 4830.0, 4764.0, 4766.0, 4790.0, 4790.0, 4820.0, 4794.0, 4834.0, 4792.0, 4832.0, 4792.0, 4820.0, 4788.0, 4788.0, 4788.0, 4788.0, 4796.0, 4786.0, 4798.0, 4790.0, 4790.0, 4826.0, 4764.0, 4786.0, 4826.0, 4788.0, 4834.0, 4788.0, 4764.0, 4820.0, 4826.0, 4820.0, 4828.0, 4790.0, 4790.0, 4794.0, 4792.0, 4794.0, 4788.0, 4820.0, 4790.0, 4792.0, 4826.0, 4790.0, 4826.0, 4818.0, 4800.0, 4790.0, 4790.0, 4790.0, 4766.0, 4798.0, 4764.0, 4824.0, 4790.0, 4790.0, 4858.0, 4832.0, 4828.0, 4794.0, 4820.0, 4786.0, 4788.0, 4792.0, 4788.0, 4828.0, 4788.0, 4826.0, 4828.0, 4832.0, 4794.0, 4790.0, 4792.0, 4788.0, 4790.0, 4790.0, 4792.0, 4826.0, 4830.0, 4828.0, 4788.0, 4824.0, 4764.0, 4794.0, 4790.0, 4790.0, 4822.0, 4764.0, 4824.0, 4794.0, 4826.0, 4792.0, 4790.0, 4794.0, 4764.0, 4796.0, 4790.0, 4786.0, 4822.0, 4820.0, 4828.0, 4790.0, 4820.0, 4762.0, 4792.0, 4792.0, 4766.0, 4820.0, 4860.0, 4870.0, 4790.0, 4764.0],
      "WindowWidth": [18602.0, 18566.0, 18648.0, 18646.0, 18564.0, 18566.0, 18606.0, 18602.0, 18638.0, 18648.0, 18594.0, 18558.0, 18598.0, 18604.0, 18640.0, 18644.0, 18602.0, 18566.0, 18604.0, 18596.0, 18594.0, 18636.0, 18562.0, 18648.0, 18638.0, 18606.0, 18596.0, 18596.0, 18602.0, 18566.0, 18598.0, 18606.0, 18602.0, 18684.0, 18596.0, 18648.0, 18646.0, 18574.0, 18578.0, 18562.0, 18648.0, 18636.0, 18726.0, 18726.0, 18686.0, 18602.0, 18582.0, 18604.0, 18592.0, 18596.0, 18602.0, 18650.0, 18644.0, 18642.0, 18646.0, 18562.0, 18592.0, 18598.0, 18566.0, 18566.0, 18602.0, 18600.0, 18564.0, 18600.0, 18640.0, 18600.0, 18640.0, 18644.0, 18566.0, 18638.0, 18598.0, 18564.0, 18602.0, 18602.0, 18598.0, 18642.0, 18684.0, 18678.0, 18644.0, 18570.0, 18570.0, 18600.0, 18602.0, 18634.0, 18604.0, 18652.0, 18602.0, 18648.0, 18600.0, 18638.0, 18600.0, 18596.0, 18594.0, 18600.0, 18604.0, 18596.0, 18604.0, 18598.0, 18594.0, 18642.0, 18566.0, 18594.0, 18644.0, 18598.0, 18652.0, 18600.0, 18568.0, 18632.0, 18644.0, 18634.0, 18646.0, 18598.0, 18600.0, 18602.0, 18598.0, 18600.0, 18592.0, 18636.0, 18602.0, 18598.0, 18640.0, 18596.0, 18642.0, 18636.0, 18606.0, 18600.0, 18596.0, 18602.0, 18566.0, 18604.0, 18562.0, 18644.0, 18598.0, 18598.0, 18682.0, 18650.0, 18648.0, 18604.0, 18636.0, 18596.0, 18596.0, 18602.0, 18596.0, 18646.0, 18594.0, 18642.0, 18642.0, 18654.0, 18598.0, 18596.0, 18604.0, 18600.0, 18598.0, 18598.0, 18598.0, 18638.0, 18648.0, 18646.0, 18596.0, 18640.0, 18566.0, 18602.0, 18600.0, 18596.0, 18638.0, 18562.0, 18642.0, 18602.0, 18644.0, 18600.0, 18596.0, 18600.0, 18562.0, 18606.0, 18600.0, 18594.0, 18636.0, 18632.0, 18642.0, 18596.0, 18638.0, 18562.0, 18600.0, 18602.0, 18570.0, 18638.0, 18688.0, 18692.0, 18604.0, 18566.0]
    },
    "slices": {}
  }
}