{
  "AcquisitionMatrixPE": 104,
  "AcquisitionNumber": 1,
  "AcquisitionTime": "10:58:52.947500",
  "BandwidthPerPixelPhaseEncode": 17.17,
  "BaseResolution": 104,
  "BodyPartExamined": "BRAIN",
  "CoilString": "HC1-7;NC1_2",
  "ConsistencyInfo": "N4_VE11C_LATEST_20160120",
  "ConversionSoftware": "dcm2niix",
  "ConversionSoftwareVersion": "v1.0.20190902",
  "DerivedVendorReportedEchoSpacing": 0.000560011,
  "DeviceSerialNumber": "167006",
  "DwellTime": 2.1e-06,
  "EchoTime": 0.037,
  "EchoTrainLength": 104,
  "EffectiveEchoSpacing": 0.000560011,
  "FlipAngle": 52,
  "ImageComments": "Unaliased_MB4_PE3_LB",
  "ImageOrientationPatientDICOM": [0.999423, 0.0100666, 0.0324332, 0.00732627, 0.868651, -0.49537],
  "ImageType": [
    "ORIGINAL",
    "PRIMARY",
    "M",
    "MB",
    "ND",
    "MOSAIC"
],
  "ImagingFrequency": 123.259,
  "InPlanePhaseEncodingDirectionDICOM": "COL",
  "InstitutionAddress": "Chemin_Queen-Mary_4565_Montreal_District_CA_H3W_1W5",
  "InstitutionName": "IUGM",
  "InstitutionalDepartmentName": "Department",
  "MRAcquisitionType": "2D",
  "MagneticFieldStrength": 3,
  "Manufacturer": "Siemens",
  "ManufacturersModelName": "Prisma_fit",
  "Modality": "MR",
  "MultibandAccelerationFactor": 4,
  "PartialFourier": 1,
  "PatientPosition": "HFS",
  "PercentPhaseFOV": 100,
  "PhaseEncodingDirection": "j",
  "PhaseEncodingSteps": 104,
  "PhaseResolution": 1,
  "PixelBandwidth": 2290,
  "ProcedureStepDescription": "memory_things",
  "ProtocolName": "func_task-things_run-2",
  "PulseSequenceDetails": "%CustomerSeq%_cmrr_mbep2d_bold",
  "ReceiveCoilActiveElements": "HC1-7;NC1,2",
  "ReceiveCoilName": "HeadNeck_64",
  "ReconMatrixPE": 104,
  "RepetitionTime": 1.49,
  "SAR": 0.0523423,
  "ScanOptions": "FS",
  "ScanningSequence": "EP",
  "SequenceName": "epfid2d1_104",
  "SequenceVariant": "SK_SS",
  "SeriesDescription": "func_task-things_run-2",
  "SeriesNumber": 16,
  "ShimSetting": [613, -7177, -8854, 299, -31, -116, -16, -26],
  "SliceThickness": 2,
  "SliceTiming": [0, 0.785, 0.1, 0.8825, 0.1975, 0.98, 0.295, 1.08, 0.3925, 1.1775, 0.49, 1.275, 0.59, 1.3725, 0.6875, 0, 0.785, 0.1, 0.8825, 0.1975, 0.98, 0.295, 1.08, 0.3925, 1.1775, 0.49, 1.275, 0.59, 1.3725, 0.6875, 0, 0.785, 0.1, 0.8825, 0.1975, 0.98, 0.295, 1.08, 0.3925, 1.1775, 0.49, 1.275, 0.59, 1.3725, 0.6875, 0, 0.785, 0.1, 0.8825, 0.1975, 0.98, 0.295, 1.08, 0.3925, 1.1775, 0.49, 1.275, 0.59, 1.3725, 0.6875],
  "SoftwareVersions": "syngo_MR_E11",
  "SpacingBetweenSlices": 2,
  "StationName": "MRC35049",
  "TaskName": "things",
  "TotalReadoutTime": 0.0576811,
  "TxRefAmp": 281.88,
  "WipMemBlock": "0a93e54d-c4b3-41a9-aed8-bae53c5ae64e||Sequence: R016 ve11c/master r/e634e98; Dec 19 2017 11:00:25 by eja",
  "dcmmeta_affine": [
    [-1.998846411705017, 0.01465254183858633, 0.06631970405578613, 104.52155303955078],
    [-0.020133260637521744, 1.7373024225234985, -0.9906436800956726, -52.258304595947266],
    [0.06486641615629196, 0.9907398819923401, 1.7361528873443604, -91.62046813964844],
    [0.0, 0.0, 0.0, 1.0]
],
  "dcmmeta_reorient_transform": [
    [0.0, -1.0, 0.0, 103.0],
    [1.0, 0.0, 0.0, 0.0],
    [0.0, 0.0, 1.0, 0.0],
    [0.0, 0.0, 0.0, 1.0]
],
  "dcmmeta_shape": [104, 104, 60, 190],
  "dcmmeta_slice_dim": 2,
  "dcmmeta_version": 0.6,
  "global": {
    "const": {
      "AcquisitionMatrix": [104, 0, 0, 104],
      "AngioFlag": "N",
      "BitsAllocated": 16,
      "BitsStored": 16,
      "BodyPartExamined": "BRAIN",
      "Columns": 832,
      "EchoNumbers": 1,
      "EchoTime": 37.0,
      "EchoTrainLength": 104,
      "FlipAngle": 52.0,
      "HighBit": 15,
      "ImageOrientationPatient": [0.99942320867487, 0.01006663016697, 0.03243320704315, 0.00732627110143, 0.86865122127289, -0.4953699441154],
      "ImagePositionPatient": [-838.94438275329, -766.39044401784, 347.44368827265],
      "ImageType": [
        "ORIGINAL",
        "PRIMARY",
        "M",
        "MB",
        "ND",
        "MOSAIC"
],
      "ImagedNucleus": "1H",
      "ImagingFrequency": 123.258907,
      "InPlanePhaseEncodingDirection": "COL",
      "MRAcquisitionType": "2D",
      "MagneticFieldStrength": 3.0,
      "Manufacturer": "SIEMENS",
      "ManufacturerModelName": "Prisma_fit",
      "Modality": "MR",
      "NumberOfAverages": 1.0,
      "NumberOfPhaseEncodingSteps": 104,
      "PercentPhaseFieldOfView": 100.0,
      "PercentSampling": 100.0,
      "PerformedProcedureStepStartTime": "104247.479000",
      "PhotometricInterpretation": "MONOCHROME2",
      "PixelBandwidth": 2290.0,
      "PixelRepresentation": 0,
      "PixelSpacing": [2.0, 2.0],
      "ProtocolName": "func_task-things_run-2",
      "RepetitionTime": 1490.0,
      "Rows": 832,
      "SAR": 0.05234234766813,
      "SamplesPerPixel": 1,
      "ScanOptions": "FS",
      "ScanningSequence": "EP",
      "SequenceName": "epfid2d1_104",
      "SequenceVariant": [
        "SK",
        "SS"
],
      "SeriesDescription": "func_task-things_run-2",
      "SeriesNumber": 16,
      "SeriesTime": "110019.079000",
      "SliceLocation": -50.182969244279,
      "SliceThickness": 2.0,
      "SmallestImagePixelValue": 0,
      "SoftwareVersions": "syngo MR E11",
      "SpacingBetweenSlices": 1.999999990066,
      "SpecificCharacterSet": "ISO_IR 100",
      "StudyID": "1",
      "StudyTime": "104247.416000",
      "TransmitCoilName": "Body",
      "VariableFlipAngleFlag": "N",
      "WindowCenterWidthExplanation": "Algo1",
      "dBdt": 0.0},
    "slices": {}
  },
  "time": {
    "samples": {
      "AcquisitionNumber": [1, 2, 3, 4, 5, 6, 7, 8, 9, 10, 11, 12, 13, 14, 15, 16, 17, 18, 19, 20, 21, 22, 23, 24, 25, 26, 27, 28, 29, 30, 31, 32, 33, 34, 35, 36, 37, 38, 39, 40, 41, 42, 43, 44, 45, 46, 47, 48, 49, 50, 51, 52, 53, 54, 55, 56, 57, 58, 59, 60, 61, 62, 63, 64, 65, 66, 67, 68, 69, 70, 71, 72, 73, 74, 75, 76, 77, 78, 79, 80, 81, 82, 83, 84, 85, 86, 87, 88, 89, 90, 91, 92, 93, 94, 95, 96, 97, 98, 99, 100, 101, 102, 103, 104, 105, 106, 107, 108, 109, 110, 111, 112, 113, 114, 115, 116, 117, 118, 119, 120, 121, 122, 123, 124, 125, 126, 127, 128, 129, 130, 131, 132, 133, 134, 135, 136, 137, 138, 139, 140, 141, 142, 143, 144, 145, 146, 147, 148, 149, 150, 151, 152, 153, 154, 155, 156, 157, 158, 159, 160, 161, 162, 163, 164, 165, 166, 167, 168, 169, 170, 171, 172, 173, 174, 175, 176, 177, 178, 179, 180, 181, 182, 183, 184, 185, 186, 187, 188, 189, 190],
      "AcquisitionTime": ["105852.947500", "105854.437500", "105855.927500", "105857.417500", "105858.907500", "105900.397500", "105901.887500", "105903.377500", "105904.867500", "105906.357500", "105907.847500", "105909.337500", "105910.827500", "105912.317500", "105913.807500", "105915.297500", "105916.787500", "105918.277500", "105919.767500", "105921.257500", "105922.747500", "105924.237500", "105925.727500", "105927.217500", "105928.707500", "105930.197500", "105931.687500", "105933.177500", "105934.667500", "105936.157500", "105937.647500", "105939.137500", "105940.627500", "105942.117500", "105943.607500", "105945.097500", "105946.587500", "105948.077500", "105949.567500", "105951.057500", "105952.547500", "105954.037500", "105955.527500", "105957.017500", "105958.507500", "105959.997500", "110001.487500", "110002.977500", "110004.467500", "110005.957500", "110007.447500", "110008.937500", "110010.427500", "110011.917500", "110013.407500", "110014.897500", "110016.387500", "110017.877500", "110019.367500", "110020.857500", "110022.347500", "110023.837500", "110025.327500", "110026.817500", "110028.307500", "110029.797500", "110031.287500", "110032.777500", "110034.267500", "110035.757500", "110037.247500", "110038.737500", "110040.227500", "110041.717500", "110043.207500", "110044.697500", "110046.187500", "110047.677500", "110049.167500", "110050.657500", "110052.147500", "110053.637500", "110055.127500", "110056.617500", "110058.107500", "110059.597500", "110101.087500", "110102.577500", "110104.067500", "110105.557500", "110107.047500", "110108.537500", "110110.027500", "110111.517500", "110113.007500", "110114.497500", "110115.987500", "110117.477500", "110118.967500", "110120.457500", "110121.947500", "110123.437500", "110124.927500", "110126.417500", "110127.907500", "110129.397500", "110130.887500", "110132.377500", "110133.867500", "110135.357500", "110136.847500", "110138.337500", "110139.827500", "110141.317500", "110142.807500", "110144.297500", "110145.787500", "110147.277500", "110148.767500", "110150.257500", "110151.747500", "110153.237500", "110154.727500", "110156.217500", "110157.707500", "110159.197500", "110200.687500", "110202.177500", "110203.667500", "110205.157500", "110206.647500", "110208.137500", "110209.627500", "110211.117500", "110212.607500", "110214.097500", "110215.587500", "110217.077500", "110218.567500", "110220.057500", "110221.547500", "110223.037500", "110224.527500", "110226.017500", "110227.507500", "110228.997500", "110230.487500", "110231.977500", "110233.467500", "110234.957500", "110236.447500", "110237.937500", "110239.427500", "110240.917500", "110242.407500", "110243.897500", "110245.387500", "110246.877500", "110248.367500", "110249.857500", "110251.347500", "110252.837500", "110254.327500", "110255.817500", "110257.307500", "110258.797500", "110300.287500", "110301.777500", "110303.267500", "110304.757500", "110306.247500", "110307.737500", "110309.227500", "110310.717500", "110312.207500", "110313.697500", "110315.187500", "110316.677500", "110318.167500", "110319.657500", "110321.147500", "110322.637500", "110324.127500", "110325.617500", "110327.107500", "110328.597500", "110330.087500", "110331.577500", "110333.067500", "110334.557500"],
      "ContentTime": ["110019.082000", "110019.086000", "110019.090000", "110019.093000", "110019.096000", "110019.100000", "110019.103000", "110019.107000", "110019.110000", "110019.113000", "110019.117000", "110019.120000", "110019.124000", "110019.150000", "110019.154000", "110019.157000", "110019.160000", "110019.172000", "110019.175000", "110019.179000", "110019.182000", "110019.186000", "110019.189000", "110019.192000", "110019.196000", "110019.199000", "110019.202000", "110019.206000", "110019.209000", "110019.213000", "110019.216000", "110019.219000", "110019.223000", "110019.226000", "110039.042000", "110039.046000", "110039.049000", "110039.052000", "110039.056000", "110039.059000", "110039.063000", "110039.066000", "110039.070000", "110039.073000", "110039.076000", "110039.079000", "110039.083000", "110039.086000", "110039.090000", "110039.093000", "110039.096000", "110039.100000", "110039.103000", "110039.107000", "110059.042000", "110059.046000", "110059.049000", "110059.053000", "110059.056000", "110059.059000", "110059.063000", "110059.066000", "110059.069000", "110059.073000", "110059.076000", "110059.080000", "110059.083000", "110059.086000", "110059.090000", "110059.093000", "110059.096000", "110059.100000", "110059.103000", "110059.107000", "110119.042000", "110119.046000", "110119.049000", "110119.053000", "110119.056000", "110119.059000", "110119.063000", "110119.066000", "110119.069000", "110119.073000", "110119.076000", "110119.080000", "110119.083000", "110119.086000", "110119.090000", "110119.093000", "110119.096000", "110119.100000", "110119.103000", "110119.107000", "110159.041000", "110159.045000", "110159.048000", "110159.052000", "110159.055000", "110159.059000", "110159.062000", "110159.066000", "110159.069000", "110159.072000", "110159.076000", "110159.079000", "110159.083000", "110159.086000", "110159.089000", "110159.093000", "110159.096000", "110159.116000", "110159.119000", "110159.122000", "110159.126000", "110159.129000", "110159.132000", "110159.136000", "110159.139000", "110159.143000", "110159.146000", "110159.149000", "110159.153000", "110159.156000", "110239.042000", "110239.046000", "110239.049000", "110239.053000", "110239.056000", "110239.060000", "110239.063000", "110239.066000", "110239.070000", "110239.073000", "110239.076000", "110239.080000", "110239.083000", "110239.087000", "110239.090000", "110239.094000", "110239.097000", "110239.100000", "110239.104000", "110239.107000", "110239.111000", "110239.114000", "110239.117000", "110239.121000", "110239.124000", "110239.127000", "110239.131000", "110319.042000", "110319.046000", "110319.049000", "110319.053000", "110319.056000", "110319.060000", "110319.063000", "110319.066000", "110319.070000", "110319.073000", "110319.077000", "110319.080000", "110319.084000", "110319.087000", "110319.090000", "110319.094000", "110319.097000", "110319.101000", "110319.104000", "110319.107000", "110319.111000", "110319.114000", "110319.117000", "110319.121000", "110319.124000", "110319.128000", "110319.131000", "110336.433000", "110336.436000", "110336.440000", "110336.455000", "110336.458000", "110336.462000", "110336.466000", "110336.469000", "110336.473000", "110336.476000", "110336.479000", "110336.483000"],
      "InstanceCreationTime": ["110019.082000", "110019.086000", "110019.090000", "110019.093000", "110019.096000", "110019.100000", "110019.103000", "110019.107000", "110019.110000", "110019.113000", "110019.117000", "110019.120000", "110019.124000", "110019.150000", "110019.154000", "110019.157000", "110019.160000", "110019.172000", "110019.175000", "110019.179000", "110019.182000", "110019.186000", "110019.189000", "110019.192000", "110019.196000", "110019.199000", "110019.202000", "110019.206000", "110019.209000", "110019.213000", "110019.216000", "110019.219000", "110019.223000", "110019.226000", "110039.042000", "110039.046000", "110039.049000", "110039.052000", "110039.056000", "110039.059000", "110039.063000", "110039.066000", "110039.070000", "110039.073000", "110039.076000", "110039.079000", "110039.083000", "110039.086000", "110039.090000", "110039.093000", "110039.096000", "110039.100000", "110039.103000", "110039.107000", "110059.042000", "110059.046000", "110059.049000", "110059.053000", "110059.056000", "110059.059000", "110059.063000", "110059.066000", "110059.069000", "110059.073000", "110059.076000", "110059.080000", "110059.083000", "110059.086000", "110059.090000", "110059.093000", "110059.096000", "110059.100000", "110059.103000", "110059.107000", "110119.042000", "110119.046000", "110119.049000", "110119.053000", "110119.056000", "110119.059000", "110119.063000", "110119.066000", "110119.069000", "110119.073000", "110119.076000", "110119.080000", "110119.083000", "110119.086000", "110119.090000", "110119.093000", "110119.096000", "110119.100000", "110119.103000", "110119.107000", "110159.041000", "110159.045000", "110159.048000", "110159.052000", "110159.055000", "110159.059000", "110159.062000", "110159.066000", "110159.069000", "110159.072000", "110159.076000", "110159.079000", "110159.083000", "110159.086000", "110159.089000", "110159.093000", "110159.096000", "110159.116000", "110159.119000", "110159.122000", "110159.126000", "110159.129000", "110159.132000", "110159.136000", "110159.139000", "110159.143000", "110159.146000", "110159.149000", "110159.153000", "110159.156000", "110239.042000", "110239.046000", "110239.049000", "110239.053000", "110239.056000", "110239.060000", "110239.063000", "110239.066000", "110239.070000", "110239.073000", "110239.076000", "110239.080000", "110239.083000", "110239.087000", "110239.090000", "110239.094000", "110239.097000", "110239.100000", "110239.104000", "110239.107000", "110239.111000", "110239.114000", "110239.117000", "110239.121000", "110239.124000", "110239.127000", "110239.131000", "110319.042000", "110319.046000", "110319.049000", "110319.053000", "110319.056000", "110319.060000", "110319.063000", "110319.066000", "110319.070000", "110319.073000", "110319.077000", "110319.080000", "110319.084000", "110319.087000", "110319.090000", "110319.094000", "110319.097000", "110319.101000", "110319.104000", "110319.107000", "110319.111000", "110319.114000", "110319.117000", "110319.121000", "110319.124000", "110319.128000", "110319.131000", "110336.433000", "110336.436000", "110336.440000", "110336.455000", "110336.458000", "110336.462000", "110336.466000", "110336.469000", "110336.473000", "110336.476000", "110336.479000", "110336.483000"],
      "InstanceNumber": [1, 2, 3, 4, 5, 6, 7, 8, 9, 10, 11, 12, 13, 14, 15, 16, 17, 18, 19, 20, 21, 22, 23, 24, 25, 26, 27, 28, 29, 30, 31, 32, 33, 34, 35, 36, 37, 38, 39, 40, 41, 42, 43, 44, 45, 46, 47, 48, 49, 50, 51, 52, 53, 54, 55, 56, 57, 58, 59, 60, 61, 62, 63, 64, 65, 66, 67, 68, 69, 70, 71, 72, 73, 74, 75, 76, 77, 78, 79, 80, 81, 82, 83, 84, 85, 86, 87, 88, 89, 90, 91, 92, 93, 94, 95, 96, 97, 98, 99, 100, 101, 102, 103, 104, 105, 106, 107, 108, 109, 110, 111, 112, 113, 114, 115, 116, 117, 118, 119, 120, 121, 122, 123, 124, 125, 126, 127, 128, 129, 130, 131, 132, 133, 134, 135, 136, 137, 138, 139, 140, 141, 142, 143, 144, 145, 146, 147, 148, 149, 150, 151, 152, 153, 154, 155, 156, 157, 158, 159, 160, 161, 162, 163, 164, 165, 166, 167, 168, 169, 170, 171, 172, 173, 174, 175, 176, 177, 178, 179, 180, 181, 182, 183, 184, 185, 186, 187, 188, 189, 190],
      "LargestImagePixelValue": [50113, 48350, 47921, 47689, 46646, 46988, 46990, 46166, 46826, 46039, 46326, 46185, 46187, 46590, 46274, 46743, 46141, 45927, 45815, 46423, 46033, 45643, 46119, 45718, 46387, 45719, 45971, 45310, 46052, 45367, 45921, 46016, 46434, 46063, 46254, 46171, 45854, 46004, 45199, 46493, 45966, 46324, 45986, 46502, 45662, 45589, 46137, 45509, 45578, 45828, 45952, 45973, 46339, 46345, 45915, 46341, 46567, 44744, 46493, 46141, 46091, 45993, 45637, 45675, 45925, 45669, 45866, 46579, 46146, 46441, 46375, 46622, 45981, 46070, 46270, 45837, 46309, 45878, 46733, 46443, 45920, 46046, 45363, 46091, 46420, 45915, 46644, 46115, 46054, 45680, 46364, 45550, 45557, 46104, 45757, 46095, 45800, 46155, 46015, 45990, 45793, 46290, 47024, 45815, 46266, 47254, 46330, 47086, 46125, 45998, 46783, 45874, 46531, 46171, 46465, 46646, 46413, 46042, 45494, 46528, 46153, 46212, 45900, 45572, 46341, 46534, 46628, 46553, 46511, 46202, 46928, 45844, 46454, 46667, 45960, 46733, 46543, 46793, 45887, 46275, 46382, 47062, 46196, 46198, 46379, 46412, 46294, 46536, 46273, 46779, 46888, 46809, 46315, 46826, 46253, 47334, 47147, 46819, 47013, 45701, 46634, 47222, 45993, 47005, 47162, 47422, 46679, 46543, 47379, 46648, 47501, 46882, 47234, 47518, 47424, 47684, 46492, 47151, 47282, 47089, 47553, 47193, 47429, 46969, 47731, 47530, 47103, 47088, 47614, 47705],
      "WindowCenter": [11077.0, 11008.0, 10984.0, 10970.0, 10958.0, 10954.0, 10949.0, 10943.0, 10946.0, 10949.0, 10963.0, 10952.0, 10956.0, 10946.0, 10937.0, 10967.0, 10960.0, 10961.0, 10944.0, 10972.0, 10976.0, 10948.0, 10925.0, 10918.0, 10962.0, 10986.0, 10995.0, 10978.0, 10970.0, 10949.0, 10942.0, 10931.0, 10943.0, 10939.0, 10946.0, 10942.0, 10941.0, 10940.0, 10928.0, 10941.0, 10945.0, 10949.0, 10948.0, 10946.0, 10943.0, 10945.0, 10940.0, 10935.0, 10936.0, 10935.0, 10947.0, 10941.0, 10949.0, 10946.0, 10941.0, 10945.0, 10956.0, 10945.0, 10960.0, 10950.0, 10955.0, 10955.0, 10961.0, 10954.0, 10958.0, 10939.0, 10926.0, 10921.0, 10907.0, 10906.0, 10911.0, 10920.0, 10921.0, 10923.0, 10938.0, 10932.0, 10932.0, 10909.0, 10934.0, 10958.0, 10970.0, 10959.0, 10911.0, 10896.0, 10910.0, 10921.0, 10951.0, 10977.0, 10990.0, 10981.0, 10966.0, 10947.0, 10930.0, 10916.0, 10932.0, 10931.0, 10890.0, 10890.0, 10909.0, 10928.0, 10956.0, 10985.0, 10940.0, 10904.0, 10935.0, 10925.0, 10920.0, 10914.0, 10911.0, 10929.0, 10936.0, 10933.0, 10946.0, 10941.0, 10945.0, 10952.0, 10940.0, 10942.0, 10928.0, 10947.0, 10947.0, 10946.0, 10943.0, 10933.0, 10925.0, 10928.0, 10951.0, 10937.0, 10922.0, 10872.0, 10892.0, 10902.0, 10927.0, 10939.0, 10927.0, 10918.0, 10909.0, 10904.0, 10900.0, 10900.0, 10900.0, 10903.0, 10893.0, 10899.0, 10899.0, 10900.0, 10899.0, 10898.0, 10907.0, 10923.0, 10925.0, 10927.0, 10920.0, 10917.0, 10916.0, 10928.0, 10921.0, 10916.0, 10922.0, 10915.0, 10925.0, 10922.0, 10905.0, 10896.0, 10907.0, 10921.0, 10925.0, 10928.0, 10924.0, 10911.0, 10905.0, 10898.0, 10912.0, 10914.0, 10917.0, 10905.0, 10910.0, 10934.0, 10944.0, 10931.0, 10932.0, 10919.0, 10921.0, 10917.0, 10920.0, 10912.0, 10901.0, 10906.0, 10914.0, 10920.0],
      "WindowWidth": [23889.0, 23697.0, 23623.0, 23576.0, 23548.0, 23529.0, 23514.0, 23506.0, 23508.0, 23517.0, 23548.0, 23525.0, 23534.0, 23508.0, 23489.0, 23554.0, 23546.0, 23547.0, 23509.0, 23567.0, 23577.0, 23520.0, 23464.0, 23444.0, 23543.0, 23606.0, 23621.0, 23589.0, 23564.0, 23518.0, 23498.0, 23473.0, 23498.0, 23495.0, 23510.0, 23500.0, 23497.0, 23497.0, 23473.0, 23498.0, 23504.0, 23516.0, 23512.0, 23506.0, 23499.0, 23510.0, 23498.0, 23487.0, 23490.0, 23489.0, 23511.0, 23498.0, 23515.0, 23502.0, 23495.0, 23502.0, 23529.0, 23514.0, 23545.0, 23520.0, 23529.0, 23528.0, 23544.0, 23528.0, 23533.0, 23492.0, 23459.0, 23443.0, 23415.0, 23412.0, 23421.0, 23445.0, 23446.0, 23454.0, 23483.0, 23472.0, 23477.0, 23424.0, 23475.0, 23530.0, 23562.0, 23541.0, 23430.0, 23394.0, 23422.0, 23450.0, 23516.0, 23579.0, 23613.0, 23587.0, 23552.0, 23514.0, 23474.0, 23441.0, 23476.0, 23472.0, 23383.0, 23379.0, 23420.0, 23466.0, 23530.0, 23598.0, 23494.0, 23411.0, 23481.0, 23457.0, 23452.0, 23433.0, 23431.0, 23473.0, 23487.0, 23485.0, 23513.0, 23501.0, 23507.0, 23520.0, 23498.0, 23502.0, 23471.0, 23509.0, 23507.0, 23506.0, 23498.0, 23476.0, 23458.0, 23459.0, 23511.0, 23480.0, 23448.0, 23337.0, 23375.0, 23404.0, 23462.0, 23485.0, 23460.0, 23437.0, 23417.0, 23401.0, 23397.0, 23394.0, 23396.0, 23398.0, 23381.0, 23392.0, 23392.0, 23394.0, 23392.0, 23390.0, 23409.0, 23443.0, 23449.0, 23458.0, 23440.0, 23432.0, 23431.0, 23455.0, 23438.0, 23430.0, 23440.0, 23432.0, 23448.0, 23440.0, 23406.0, 23380.0, 23405.0, 23435.0, 23444.0, 23451.0, 23438.0, 23413.0, 23395.0, 23382.0, 23412.0, 23418.0, 23425.0, 23400.0, 23413.0, 23466.0, 23489.0, 23461.0, 23459.0, 23432.0, 23432.0, 23425.0, 23429.0, 23410.0, 23394.0, 23397.0, 23415.0, 23428.0]
    },
    "slices": {}
  }
}