{
  "AcquisitionMatrixPE": 104,
  "AcquisitionNumber": 1,
  "AcquisitionTime": "11:04:55.325000",
  "BandwidthPerPixelPhaseEncode": 17.17,
  "BaseResolution": 104,
  "BodyPartExamined": "BRAIN",
  "CoilString": "HC1-7;NC1_2",
  "ConsistencyInfo": "N4_VE11C_LATEST_20160120",
  "ConversionSoftware": "dcm2niix",
  "ConversionSoftwareVersion": "v1.0.20190902",
  "DerivedVendorReportedEchoSpacing": 0.000560011,
  "DeviceSerialNumber": "167006",
  "DwellTime": 2.1e-06,
  "EchoTime": 0.037,
  "EchoTrainLength": 104,
  "EffectiveEchoSpacing": 0.000560011,
  "FlipAngle": 52,
  "ImageComments": "Unaliased_MB4_PE3_LB",
  "ImageOrientationPatientDICOM": [0.999423, 0.0100666, 0.0324332, 0.00732627, 0.868651, -0.49537],
  "ImageType": [
    "ORIGINAL",
    "PRIMARY",
    "P",
    "MB",
    "ND",
    "MOSAIC"
],
  "ImagingFrequency": 123.259,
  "InPlanePhaseEncodingDirectionDICOM": "COL",
  "InstitutionAddress": "Chemin_Queen-Mary_4565_Montreal_District_CA_H3W_1W5",
  "InstitutionName": "IUGM",
  "InstitutionalDepartmentName": "Department",
  "MRAcquisitionType": "2D",
  "MagneticFieldStrength": 3,
  "Manufacturer": "Siemens",
  "ManufacturersModelName": "Prisma_fit",
  "Modality": "MR",
  "MultibandAccelerationFactor": 4,
  "PartialFourier": 1,
  "PatientPosition": "HFS",
  "PercentPhaseFOV": 100,
  "PhaseEncodingDirection": "j",
  "PhaseEncodingSteps": 104,
  "PhaseResolution": 1,
  "PixelBandwidth": 2290,
  "ProcedureStepDescription": "memory_things",
  "ProtocolName": "func_task-things_run-3",
  "PulseSequenceDetails": "%CustomerSeq%_cmrr_mbep2d_bold",
  "ReceiveCoilActiveElements": "HC1-7;NC1,2",
  "ReceiveCoilName": "HeadNeck_64",
  "ReconMatrixPE": 104,
  "RepetitionTime": 1.49,
  "SAR": 0.0523423,
  "ScanOptions": "FS",
  "ScanningSequence": "EP",
  "SequenceName": "epfid2d1_104",
  "SequenceVariant": "SK_SS",
  "SeriesDescription": "func_task-things_run-3",
  "SeriesNumber": 20,
  "ShimSetting": [613, -7177, -8854, 299, -31, -116, -16, -26],
  "SliceThickness": 2,
  "SliceTiming": [0, 0.785, 0.0975, 0.8825, 0.195, 0.98, 0.295, 1.0775, 0.3925, 1.175, 0.49, 1.275, 0.5875, 1.3725, 0.685, 0, 0.785, 0.0975, 0.8825, 0.195, 0.98, 0.295, 1.0775, 0.3925, 1.175, 0.49, 1.275, 0.5875, 1.3725, 0.685, 0, 0.785, 0.0975, 0.8825, 0.195, 0.98, 0.295, 1.0775, 0.3925, 1.175, 0.49, 1.275, 0.5875, 1.3725, 0.685, 0, 0.785, 0.0975, 0.8825, 0.195, 0.98, 0.295, 1.0775, 0.3925, 1.175, 0.49, 1.275, 0.5875, 1.3725, 0.685],
  "SoftwareVersions": "syngo_MR_E11",
  "SpacingBetweenSlices": 2,
  "StationName": "MRC35049",
  "TaskName": "things",
  "TotalReadoutTime": 0.0576811,
  "TxRefAmp": 281.88,
  "WipMemBlock": "380b60f9-4a5f-4b2d-9c0d-c3651295a39c||Sequence: R016 ve11c/master r/e634e98; Dec 19 2017 11:00:25 by eja",
  "dcmmeta_affine": [
    [-1.998846411705017, 0.01465254183858633, 0.06631970405578613, 104.52155303955078],
    [-0.020133260637521744, 1.7373024225234985, -0.9906436800956726, -52.258304595947266],
    [0.06486641615629196, 0.9907398819923401, 1.7361528873443604, -91.62046813964844],
    [0.0, 0.0, 0.0, 1.0]
],
  "dcmmeta_reorient_transform": [
    [0.0, -1.0, 0.0, 103.0],
    [1.0, 0.0, 0.0, 0.0],
    [0.0, 0.0, 1.0, 0.0],
    [0.0, 0.0, 0.0, 1.0]
],
  "dcmmeta_shape": [104, 104, 60, 190],
  "dcmmeta_slice_dim": 2,
  "dcmmeta_version": 0.6,
  "global": {
    "const": {
      "AcquisitionMatrix": [104, 0, 0, 104],
      "AngioFlag": "N",
      "BitsAllocated": 16,
      "BitsStored": 16,
      "BodyPartExamined": "BRAIN",
      "Columns": 832,
      "EchoNumbers": 1,
      "EchoTime": 37.0,
      "EchoTrainLength": 104,
      "FlipAngle": 52.0,
      "HighBit": 15,
      "ImageOrientationPatient": [0.99942320867487, 0.01006663016697, 0.03243320704315, 0.00732627110143, 0.86865122127289, -0.4953699441154],
      "ImagePositionPatient": [-838.94438275329, -766.39044401784, 347.44368827265],
      "ImageType": [
        "ORIGINAL",
        "PRIMARY",
        "P",
        "MB",
        "ND",
        "MOSAIC"
],
      "ImagedNucleus": "1H",
      "ImagingFrequency": 123.258914,
      "InPlanePhaseEncodingDirection": "COL",
      "LargestImagePixelValue": 4095,
      "MRAcquisitionType": "2D",
      "MagneticFieldStrength": 3.0,
      "Manufacturer": "SIEMENS",
      "ManufacturerModelName": "Prisma_fit",
      "Modality": "MR",
      "NumberOfAverages": 1.0,
      "NumberOfPhaseEncodingSteps": 104,
      "PercentPhaseFieldOfView": 100.0,
      "PercentSampling": 100.0,
      "PerformedProcedureStepStartTime": "104247.479000",
      "PhotometricInterpretation": "MONOCHROME2",
      "PixelBandwidth": 2290.0,
      "PixelRepresentation": 0,
      "PixelSpacing": [2.0, 2.0],
      "ProtocolName": "func_task-things_run-3",
      "RepetitionTime": 1490.0,
      "RescaleIntercept": -4096.0,
      "RescaleSlope": 2.0,
      "RescaleType": "US",
      "Rows": 832,
      "SAR": 0.05234234766813,
      "SamplesPerPixel": 1,
      "ScanOptions": "FS",
      "ScanningSequence": "EP",
      "SequenceName": "epfid2d1_104",
      "SequenceVariant": [
        "SK",
        "SS"
],
      "SeriesDescription": "func_task-things_run-3",
      "SeriesNumber": 20,
      "SeriesTime": "110617.821000",
      "SliceLocation": -50.182969244279,
      "SliceThickness": 2.0,
      "SmallestImagePixelValue": 0,
      "SoftwareVersions": "syngo MR E11",
      "SpacingBetweenSlices": 1.999999990066,
      "SpecificCharacterSet": "ISO_IR 100",
      "StudyID": "1",
      "StudyTime": "104247.416000",
      "TransmitCoilName": "Body",
      "VariableFlipAngleFlag": "N",
      "WindowCenterWidthExplanation": "Algo1",
      "dBdt": 0.0},
    "slices": {}
  },
  "time": {
    "samples": {
      "AcquisitionNumber": [1, 2, 3, 4, 5, 6, 7, 8, 9, 10, 11, 12, 13, 14, 15, 16, 17, 18, 19, 20, 21, 22, 23, 24, 25, 26, 27, 28, 29, 30, 31, 32, 33, 34, 35, 36, 37, 38, 39, 40, 41, 42, 43, 44, 45, 46, 47, 48, 49, 50, 51, 52, 53, 54, 55, 56, 57, 58, 59, 60, 61, 62, 63, 64, 65, 66, 67, 68, 69, 70, 71, 72, 73, 74, 75, 76, 77, 78, 79, 80, 81, 82, 83, 84, 85, 86, 87, 88, 89, 90, 91, 92, 93, 94, 95, 96, 97, 98, 99, 100, 101, 102, 103, 104, 105, 106, 107, 108, 109, 110, 111, 112, 113, 114, 115, 116, 117, 118, 119, 120, 121, 122, 123, 124, 125, 126, 127, 128, 129, 130, 131, 132, 133, 134, 135, 136, 137, 138, 139, 140, 141, 142, 143, 144, 145, 146, 147, 148, 149, 150, 151, 152, 153, 154, 155, 156, 157, 158, 159, 160, 161, 162, 163, 164, 165, 166, 167, 168, 169, 170, 171, 172, 173, 174, 175, 176, 177, 178, 179, 180, 181, 182, 183, 184, 185, 186, 187, 188, 189, 190],
      "AcquisitionTime": ["110455.325000", "110456.815000", "110458.305000", "110459.795000", "110501.285000", "110502.775000", "110504.265000", "110505.755000", "110507.245000", "110508.735000", "110510.225000", "110511.715000", "110513.205000", "110514.695000", "110516.185000", "110517.675000", "110519.165000", "110520.655000", "110522.145000", "110523.635000", "110525.125000", "110526.615000", "110528.105000", "110529.595000", "110531.085000", "110532.575000", "110534.065000", "110535.555000", "110537.045000", "110538.535000", "110540.025000", "110541.515000", "110543.005000", "110544.495000", "110545.985000", "110547.475000", "110548.965000", "110550.455000", "110551.945000", "110553.435000", "110554.925000", "110556.415000", "110557.905000", "110559.395000", "110600.885000", "110602.375000", "110603.865000", "110605.355000", "110606.845000", "110608.335000", "110609.825000", "110611.315000", "110612.805000", "110614.295000", "110615.785000", "110617.275000", "110618.765000", "110620.255000", "110621.745000", "110623.235000", "110624.725000", "110626.215000", "110627.705000", "110629.195000", "110630.685000", "110632.175000", "110633.665000", "110635.155000", "110636.645000", "110638.135000", "110639.625000", "110641.115000", "110642.605000", "110644.095000", "110645.585000", "110647.075000", "110648.565000", "110650.055000", "110651.545000", "110653.035000", "110654.525000", "110656.015000", "110657.505000", "110658.995000", "110700.485000", "110701.975000", "110703.465000", "110704.955000", "110706.445000", "110707.935000", "110709.425000", "110710.915000", "110712.405000", "110713.895000", "110715.385000", "110716.875000", "110718.365000", "110719.855000", "110721.345000", "110722.835000", "110724.325000", "110725.815000", "110727.305000", "110728.795000", "110730.285000", "110731.775000", "110733.265000", "110734.755000", "110736.245000", "110737.735000", "110739.225000", "110740.715000", "110742.205000", "110743.695000", "110745.185000", "110746.675000", "110748.165000", "110749.655000", "110751.145000", "110752.635000", "110754.125000", "110755.615000", "110757.105000", "110758.595000", "110800.085000", "110801.575000", "110803.065000", "110804.555000", "110806.045000", "110807.535000", "110809.025000", "110810.515000", "110812.005000", "110813.495000", "110814.985000", "110816.475000", "110817.965000", "110819.455000", "110820.945000", "110822.435000", "110823.925000", "110825.415000", "110826.905000", "110828.395000", "110829.885000", "110831.375000", "110832.865000", "110834.355000", "110835.845000", "110837.335000", "110838.825000", "110840.315000", "110841.805000", "110843.295000", "110844.785000", "110846.275000", "110847.765000", "110849.255000", "110850.745000", "110852.235000", "110853.725000", "110855.215000", "110856.705000", "110858.195000", "110859.685000", "110901.175000", "110902.665000", "110904.155000", "110905.645000", "110907.135000", "110908.625000", "110910.115000", "110911.605000", "110913.095000", "110914.585000", "110916.075000", "110917.565000", "110919.055000", "110920.545000", "110922.035000", "110923.525000", "110925.015000", "110926.505000", "110927.995000", "110929.485000", "110930.975000", "110932.465000", "110933.955000", "110935.445000", "110936.935000"],
      "ContentTime": ["110617.823000", "110617.825000", "110617.828000", "110617.831000", "110617.833000", "110617.836000", "110617.838000", "110617.841000", "110617.843000", "110617.846000", "110617.849000", "110617.851000", "110617.854000", "110617.856000", "110617.859000", "110617.862000", "110617.864000", "110617.867000", "110617.869000", "110617.872000", "110617.874000", "110617.877000", "110617.880000", "110617.882000", "110617.884000", "110617.887000", "110617.890000", "110617.892000", "110638.128000", "110638.131000", "110638.134000", "110638.136000", "110638.139000", "110638.141000", "110638.144000", "110638.146000", "110638.149000", "110638.152000", "110638.154000", "110638.157000", "110638.159000", "110638.162000", "110638.164000", "110638.167000", "110638.169000", "110638.172000", "110638.175000", "110638.177000", "110657.750000", "110657.753000", "110657.756000", "110657.759000", "110657.762000", "110657.764000", "110657.767000", "110657.769000", "110657.772000", "110657.775000", "110657.777000", "110657.780000", "110657.782000", "110657.785000", "110657.787000", "110657.790000", "110657.792000", "110657.795000", "110657.797000", "110657.800000", "110717.744000", "110717.746000", "110717.749000", "110717.751000", "110717.754000", "110717.756000", "110717.765000", "110717.768000", "110717.770000", "110717.773000", "110717.775000", "110717.778000", "110717.781000", "110717.783000", "110717.786000", "110717.788000", "110717.791000", "110717.793000", "110717.796000", "110717.798000", "110717.801000", "110757.809000", "110757.812000", "110757.815000", "110757.817000", "110757.820000", "110757.822000", "110757.830000", "110757.833000", "110757.835000", "110757.838000", "110757.840000", "110757.843000", "110757.845000", "110757.848000", "110757.850000", "110757.853000", "110757.856000", "110757.858000", "110757.861000", "110757.863000", "110757.866000", "110757.869000", "110757.871000", "110757.874000", "110757.876000", "110757.879000", "110757.881000", "110757.884000", "110757.886000", "110757.889000", "110757.892000", "110757.894000", "110757.897000", "110837.772000", "110837.776000", "110837.779000", "110837.783000", "110837.786000", "110837.789000", "110837.791000", "110837.794000", "110837.797000", "110837.800000", "110837.803000", "110837.806000", "110837.808000", "110837.811000", "110837.814000", "110837.817000", "110837.819000", "110837.822000", "110837.824000", "110837.827000", "110837.830000", "110837.832000", "110837.835000", "110837.837000", "110837.840000", "110837.843000", "110917.768000", "110917.771000", "110917.773000", "110917.776000", "110917.778000", "110917.781000", "110917.783000", "110917.786000", "110917.788000", "110917.791000", "110917.794000", "110917.796000", "110917.799000", "110917.801000", "110917.804000", "110917.806000", "110917.809000", "110917.811000", "110917.814000", "110917.816000", "110917.819000", "110917.822000", "110917.824000", "110917.827000", "110917.829000", "110917.832000", "110917.834000", "110939.088000", "110939.091000", "110939.094000", "110939.096000", "110939.100000", "110939.103000", "110939.105000", "110939.108000", "110939.111000", "110939.114000", "110939.116000", "110939.119000", "110939.122000", "110939.124000", "110939.127000"],
      "InstanceCreationTime": ["110617.823000", "110617.825000", "110617.828000", "110617.831000", "110617.833000", "110617.836000", "110617.838000", "110617.841000", "110617.843000", "110617.846000", "110617.849000", "110617.851000", "110617.854000", "110617.856000", "110617.859000", "110617.862000", "110617.864000", "110617.867000", "110617.869000", "110617.872000", "110617.874000", "110617.877000", "110617.880000", "110617.882000", "110617.884000", "110617.887000", "110617.890000", "110617.892000", "110638.128000", "110638.131000", "110638.134000", "110638.136000", "110638.139000", "110638.141000", "110638.144000", "110638.146000", "110638.149000", "110638.152000", "110638.154000", "110638.157000", "110638.159000", "110638.162000", "110638.164000", "110638.167000", "110638.169000", "110638.172000", "110638.175000", "110638.177000", "110657.750000", "110657.753000", "110657.756000", "110657.759000", "110657.762000", "110657.764000", "110657.767000", "110657.769000", "110657.772000", "110657.775000", "110657.777000", "110657.780000", "110657.782000", "110657.785000", "110657.787000", "110657.790000", "110657.792000", "110657.795000", "110657.797000", "110657.800000", "110717.744000", "110717.746000", "110717.749000", "110717.751000", "110717.754000", "110717.756000", "110717.765000", "110717.768000", "110717.770000", "110717.773000", "110717.775000", "110717.778000", "110717.781000", "110717.783000", "110717.786000", "110717.788000", "110717.791000", "110717.793000", "110717.796000", "110717.798000", "110717.801000", "110757.809000", "110757.812000", "110757.815000", "110757.817000", "110757.820000", "110757.822000", "110757.830000", "110757.833000", "110757.835000", "110757.838000", "110757.840000", "110757.843000", "110757.845000", "110757.848000", "110757.850000", "110757.853000", "110757.856000", "110757.858000", "110757.861000", "110757.863000", "110757.866000", "110757.869000", "110757.871000", "110757.874000", "110757.876000", "110757.879000", "110757.881000", "110757.884000", "110757.886000", "110757.889000", "110757.892000", "110757.894000", "110757.897000", "110837.772000", "110837.776000", "110837.779000", "110837.783000", "110837.786000", "110837.789000", "110837.791000", "110837.794000", "110837.797000", "110837.800000", "110837.803000", "110837.806000", "110837.808000", "110837.811000", "110837.814000", "110837.817000", "110837.819000", "110837.822000", "110837.824000", "110837.827000", "110837.830000", "110837.832000", "110837.835000", "110837.837000", "110837.840000", "110837.843000", "110917.768000", "110917.771000", "110917.773000", "110917.776000", "110917.778000", "110917.781000", "110917.783000", "110917.786000", "110917.788000", "110917.791000", "110917.794000", "110917.796000", "110917.799000", "110917.801000", "110917.804000", "110917.806000", "110917.809000", "110917.811000", "110917.814000", "110917.816000", "110917.819000", "110917.822000", "110917.824000", "110917.827000", "110917.829000", "110917.832000", "110917.834000", "110939.088000", "110939.091000", "110939.094000", "110939.096000", "110939.100000", "110939.103000", "110939.105000", "110939.108000", "110939.111000", "110939.114000", "110939.116000", "110939.119000", "110939.122000", "110939.124000", "110939.127000"],
      "InstanceNumber": [1, 2, 3, 4, 5, 6, 7, 8, 9, 10, 11, 12, 13, 14, 15, 16, 17, 18, 19, 20, 21, 22, 23, 24, 25, 26, 27, 28, 29, 30, 31, 32, 33, 34, 35, 36, 37, 38, 39, 40, 41, 42, 43, 44, 45, 46, 47, 48, 49, 50, 51, 52, 53, 54, 55, 56, 57, 58, 59, 60, 61, 62, 63, 64, 65, 66, 67, 68, 69, 70, 71, 72, 73, 74, 75, 76, 77, 78, 79, 80, 81, 82, 83, 84, 85, 86, 87, 88, 89, 90, 91, 92, 93, 94, 95, 96, 97, 98, 99, 100, 101, 102, 103, 104, 105, 106, 107, 108, 109, 110, 111, 112, 113, 114, 115, 116, 117, 118, 119, 120, 121, 122, 123, 124, 125, 126, 127, 128, 129, 130, 131, 132, 133, 134, 135, 136, 137, 138, 139, 140, 141, 142, 143, 144, 145, 146, 147, 148, 149, 150, 151, 152, 153, 154, 155, 156, 157, 158, 159, 160, 161, 162, 163, 164, 165, 166, 167, 168, 169, 170, 171, 172, 173, 174, 175, 176, 177, 178, 179, 180, 181, 182, 183, 184, 185, 186, 187, 188, 189, 190],
      "WindowCenter": [4904.0, 4930.0, 4904.0, 4932.0, 4860.0, 4860.0, 4934.0, 4892.0, 4932.0, 4934.0, 4896.0, 4908.0, 4934.0, 4896.0, 4930.0, 4932.0, 4898.0, 4928.0, 4934.0, 4870.0, 4908.0, 4930.0, 4900.0, 4934.0, 4906.0, 4932.0, 4904.0, 4930.0, 4906.0, 4870.0, 4908.0, 4892.0, 4868.0, 4932.0, 4894.0, 4864.0, 4934.0, 4910.0, 4904.0, 4904.0, 4932.0, 4904.0, 4900.0, 4904.0, 4870.0, 4932.0, 4904.0, 4926.0, 4934.0, 4902.0, 4904.0, 4936.0, 4860.0, 4796.0, 4902.0, 4930.0, 4930.0, 4936.0, 4926.0, 4932.0, 4934.0, 4864.0, 4836.0, 4926.0, 4862.0, 4872.0, 4934.0, 4908.0, 4896.0, 4934.0, 4930.0, 4908.0, 4934.0, 4862.0, 4792.0, 4898.0, 4930.0, 4834.0, 4902.0, 4932.0, 4930.0, 4934.0, 4908.0, 4894.0, 4900.0, 4858.0, 4832.0, 4902.0, 4894.0, 4904.0, 4932.0, 4928.0, 4932.0, 4932.0, 4906.0, 4898.0, 4870.0, 4866.0, 4832.0, 4894.0, 4866.0, 4900.0, 4906.0, 4900.0, 4928.0, 4902.0, 4900.0, 4904.0, 4898.0, 4896.0, 4892.0, 4898.0, 4894.0, 4906.0, 4892.0, 4904.0, 4900.0, 4906.0, 4894.0, 4902.0, 4892.0, 4896.0, 4870.0, 4904.0, 4894.0, 4930.0, 4898.0, 4908.0, 4894.0, 4906.0, 4828.0, 4834.0, 4902.0, 4870.0, 4936.0, 4904.0, 4824.0, 4900.0, 4932.0, 4860.0, 4866.0, 4930.0, 4928.0, 4904.0, 4908.0, 4858.0, 4822.0, 4898.0, 4900.0, 4898.0, 4912.0, 4892.0, 4906.0, 4930.0, 4866.0, 4864.0, 4906.0, 4862.0, 4862.0, 4906.0, 4894.0, 4900.0, 4928.0, 4900.0, 4790.0, 4836.0, 4930.0, 4908.0, 4910.0, 4930.0, 4906.0, 4906.0, 4868.0, 4864.0, 4862.0, 4766.0, 4770.0, 4928.0, 4910.0, 4886.0, 4886.0, 4868.0, 4826.0, 4868.0, 4868.0, 4796.0, 4772.0, 4740.0, 4904.0, 4884.0],
      "WindowWidth": [18730.0, 18754.0, 18728.0, 18754.0, 18684.0, 18688.0, 18750.0, 18724.0, 18756.0, 18746.0, 18730.0, 18726.0, 18752.0, 18728.0, 18756.0, 18750.0, 18728.0, 18754.0, 18752.0, 18698.0, 18726.0, 18756.0, 18730.0, 18754.0, 18728.0, 18756.0, 18728.0, 18760.0, 18730.0, 18696.0, 18728.0, 18722.0, 18698.0, 18750.0, 18724.0, 18692.0, 18750.0, 18708.0, 18728.0, 18734.0, 18744.0, 18736.0, 18730.0, 18728.0, 18696.0, 18760.0, 18726.0, 18754.0, 18748.0, 18728.0, 18728.0, 18756.0, 18682.0, 18602.0, 18726.0, 18756.0, 18758.0, 18732.0, 18758.0, 18754.0, 18742.0, 18688.0, 18654.0, 18762.0, 18688.0, 18696.0, 18748.0, 18724.0, 18726.0, 18752.0, 18752.0, 18724.0, 18750.0, 18684.0, 18600.0, 18722.0, 18758.0, 18652.0, 18732.0, 18744.0, 18750.0, 18744.0, 18720.0, 18726.0, 18728.0, 18682.0, 18652.0, 18726.0, 18728.0, 18728.0, 18748.0, 18760.0, 18750.0, 18748.0, 18726.0, 18726.0, 18690.0, 18688.0, 18648.0, 18728.0, 18690.0, 18720.0, 18720.0, 18726.0, 18756.0, 18718.0, 18726.0, 18728.0, 18724.0, 18726.0, 18724.0, 18726.0, 18724.0, 18724.0, 18722.0, 18726.0, 18722.0, 18724.0, 18722.0, 18726.0, 18722.0, 18722.0, 18694.0, 18722.0, 18726.0, 18750.0, 18730.0, 18724.0, 18724.0, 18726.0, 18648.0, 18648.0, 18726.0, 18692.0, 18754.0, 18724.0, 18642.0, 18728.0, 18752.0, 18688.0, 18690.0, 18748.0, 18760.0, 18728.0, 18722.0, 18684.0, 18636.0, 18726.0, 18726.0, 18728.0, 18718.0, 18724.0, 18726.0, 18750.0, 18694.0, 18686.0, 18724.0, 18686.0, 18690.0, 18728.0, 18724.0, 18726.0, 18752.0, 18726.0, 18598.0, 18652.0, 18754.0, 18724.0, 18710.0, 18754.0, 18726.0, 18730.0, 18696.0, 18686.0, 18686.0, 18564.0, 18566.0, 18754.0, 18698.0, 18656.0, 18664.0, 18696.0, 18642.0, 18690.0, 18692.0, 18602.0, 18572.0, 18526.0, 18734.0, 18652.0]
    },
    "slices": {}
  }
}