{
  "AcquisitionMatrixPE": 104,
  "AcquisitionNumber": 1,
  "AcquisitionTime": "11:23:59.920000",
  "BandwidthPerPixelPhaseEncode": 17.17,
  "BaseResolution": 104,
  "BodyPartExamined": "BRAIN",
  "CoilString": "HC1-7;NC1_2",
  "ConsistencyInfo": "N4_VE11C_LATEST_20160120",
  "ConversionSoftware": "dcm2niix",
  "ConversionSoftwareVersion": "v1.0.20190902",
  "DerivedVendorReportedEchoSpacing": 0.000560011,
  "DeviceSerialNumber": "167006",
  "DwellTime": 2.1e-06,
  "EchoTime": 0.037,
  "EchoTrainLength": 104,
  "EffectiveEchoSpacing": 0.000560011,
  "FlipAngle": 52,
  "ImageComments": "Unaliased_MB4_PE3_LB",
  "ImageOrientationPatientDICOM": [0.997985, 0.0594, 0.0223014, -0.0416535, 0.878504, -0.475915],
  "ImageType": [
    "ORIGINAL",
    "PRIMARY",
    "M",
    "MB",
    "ND",
    "MOSAIC"
],
  "ImagingFrequency": 123.259,
  "InPlanePhaseEncodingDirectionDICOM": "COL",
  "InstitutionAddress": "Chemin_Queen-Mary_4565_Montreal_District_CA_H3W_1W5",
  "InstitutionName": "IUGM",
  "InstitutionalDepartmentName": "Department",
  "MRAcquisitionType": "2D",
  "MagneticFieldStrength": 3,
  "Manufacturer": "Siemens",
  "ManufacturersModelName": "Prisma_fit",
  "Modality": "MR",
  "MultibandAccelerationFactor": 4,
  "PartialFourier": 1,
  "PatientPosition": "HFS",
  "PercentPhaseFOV": 100,
  "PhaseEncodingDirection": "j",
  "PhaseEncodingSteps": 104,
  "PhaseResolution": 1,
  "PixelBandwidth": 2290,
  "ProcedureStepDescription": "memory_things",
  "ProtocolName": "func_task-things_run-2",
  "PulseSequenceDetails": "%CustomerSeq%_cmrr_mbep2d_bold",
  "ReceiveCoilActiveElements": "HC1-7;NC1,2",
  "ReceiveCoilName": "HeadNeck_64",
  "ReconMatrixPE": 104,
  "RepetitionTime": 1.49,
  "SAR": 0.0710003,
  "ScanOptions": "FS",
  "ScanningSequence": "EP",
  "SequenceName": "epfid2d1_104",
  "SequenceVariant": "SK_SS",
  "SeriesDescription": "func_task-things_run-2",
  "SeriesNumber": 13,
  "ShimSetting": [619, -7187, -8857, 299, -22, -125, -32, -11],
  "SliceThickness": 2,
  "SliceTiming": [0, 0.7825, 0.0975, 0.8825, 0.195, 0.98, 0.2925, 1.0775, 0.3925, 1.175, 0.49, 1.2725, 0.5875, 1.3725, 0.685, 0, 0.7825, 0.0975, 0.8825, 0.195, 0.98, 0.2925, 1.0775, 0.3925, 1.175, 0.49, 1.2725, 0.5875, 1.3725, 0.685, 0, 0.7825, 0.0975, 0.8825, 0.195, 0.98, 0.2925, 1.0775, 0.3925, 1.175, 0.49, 1.2725, 0.5875, 1.3725, 0.685, 0, 0.7825, 0.0975, 0.8825, 0.195, 0.98, 0.2925, 1.0775, 0.3925, 1.175, 0.49, 1.2725, 0.5875, 1.3725, 0.685],
  "SoftwareVersions": "syngo_MR_E11",
  "SpacingBetweenSlices": 2,
  "StationName": "MRC35049",
  "TaskName": "things",
  "TotalReadoutTime": 0.0576811,
  "TxRefAmp": 319.713,
  "WipMemBlock": "2c2d50fc-02f3-41d5-abd2-2eae478c39ef||Sequence: R016 ve11c/master r/e634e98; Dec 19 2017 11:00:25 by eja",
  "dcmmeta_affine": [
    [-1.9959702491760254, -0.0833069235086441, 0.09572245180606842, 109.70802307128906],
    [-0.11879991739988327, 1.75700843334198, -0.9480547904968262, -47.043243408203125],
    [0.044602807611227036, 0.9518305063247681, 1.7584166526794434, -92.66336059570312],
    [0.0, 0.0, 0.0, 1.0]
],
  "dcmmeta_reorient_transform": [
    [0.0, -1.0, 0.0, 103.0],
    [1.0, 0.0, 0.0, 0.0],
    [0.0, 0.0, 1.0, 0.0],
    [0.0, 0.0, 0.0, 1.0]
],
  "dcmmeta_shape": [104, 104, 60, 190],
  "dcmmeta_slice_dim": 2,
  "dcmmeta_version": 0.6,
  "global": {
    "const": {
      "AcquisitionMatrix": [104, 0, 0, 104],
      "AngioFlag": "N",
      "BitsAllocated": 16,
      "BitsStored": 16,
      "BodyPartExamined": "BRAIN",
      "Columns": 832,
      "EchoNumbers": 1,
      "EchoTime": 37.0,
      "EchoTrainLength": 104,
      "FlipAngle": 52.0,
      "HighBit": 15,
      "ImageOrientationPatient": [0.99798511616862, 0.05939996014128, 0.02230140446532, -0.041653463596, 0.87850421519848, -0.4759152580544],
      "ImagePositionPatient": [-797.33685045062, -816.72286293298, 335.60607082111],
      "ImageType": [
        "ORIGINAL",
        "PRIMARY",
        "M",
        "MB",
        "ND",
        "MOSAIC"
],
      "ImagedNucleus": "1H",
      "ImagingFrequency": 123.258966,
      "InPlanePhaseEncodingDirection": "COL",
      "MRAcquisitionType": "2D",
      "MagneticFieldStrength": 3.0,
      "Manufacturer": "SIEMENS",
      "ManufacturerModelName": "Prisma_fit",
      "Modality": "MR",
      "NumberOfAverages": 1.0,
      "NumberOfPhaseEncodingSteps": 104,
      "PercentPhaseFieldOfView": 100.0,
      "PercentSampling": 100.0,
      "PerformedProcedureStepStartTime": "093434.575000",
      "PhotometricInterpretation": "MONOCHROME2",
      "PixelBandwidth": 2290.0,
      "PixelRepresentation": 0,
      "PixelSpacing": [2.0, 2.0],
      "ProtocolName": "func_task-things_run-2",
      "RepetitionTime": 1490.0,
      "Rows": 832,
      "SAR": 0.07100032499042,
      "SamplesPerPixel": 1,
      "ScanOptions": "FS",
      "ScanningSequence": "EP",
      "SequenceName": "epfid2d1_104",
      "SequenceVariant": [
        "SK",
        "SS"
],
      "SeriesDescription": "func_task-things_run-2",
      "SeriesNumber": 13,
      "SeriesTime": "112519.923000",
      "SliceLocation": -53.919849384784,
      "SliceThickness": 2.0,
      "SmallestImagePixelValue": 0,
      "SoftwareVersions": "syngo MR E11",
      "SpacingBetweenSlices": 1.9999999688815,
      "SpecificCharacterSet": "ISO_IR 100",
      "StudyID": "1",
      "StudyTime": "093434.481000",
      "TransmitCoilName": "Body",
      "VariableFlipAngleFlag": "N",
      "WindowCenterWidthExplanation": "Algo1",
      "dBdt": 0.0},
    "slices": {}
  },
  "time": {
    "samples": {
      "AcquisitionNumber": [1, 2, 3, 4, 5, 6, 7, 8, 9, 10, 11, 12, 13, 14, 15, 16, 17, 18, 19, 20, 21, 22, 23, 24, 25, 26, 27, 28, 29, 30, 31, 32, 33, 34, 35, 36, 37, 38, 39, 40, 41, 42, 43, 44, 45, 46, 47, 48, 49, 50, 51, 52, 53, 54, 55, 56, 57, 58, 59, 60, 61, 62, 63, 64, 65, 66, 67, 68, 69, 70, 71, 72, 73, 74, 75, 76, 77, 78, 79, 80, 81, 82, 83, 84, 85, 86, 87, 88, 89, 90, 91, 92, 93, 94, 95, 96, 97, 98, 99, 100, 101, 102, 103, 104, 105, 106, 107, 108, 109, 110, 111, 112, 113, 114, 115, 116, 117, 118, 119, 120, 121, 122, 123, 124, 125, 126, 127, 128, 129, 130, 131, 132, 133, 134, 135, 136, 137, 138, 139, 140, 141, 142, 143, 144, 145, 146, 147, 148, 149, 150, 151, 152, 153, 154, 155, 156, 157, 158, 159, 160, 161, 162, 163, 164, 165, 166, 167, 168, 169, 170, 171, 172, 173, 174, 175, 176, 177, 178, 179, 180, 181, 182, 183, 184, 185, 186, 187, 188, 189, 190],
      "AcquisitionTime": ["112359.920000", "112401.410000", "112402.900000", "112404.390000", "112405.880000", "112407.370000", "112408.860000", "112410.350000", "112411.840000", "112413.330000", "112414.820000", "112416.310000", "112417.800000", "112419.290000", "112420.780000", "112422.270000", "112423.760000", "112425.250000", "112426.740000", "112428.230000", "112429.720000", "112431.210000", "112432.700000", "112434.190000", "112435.680000", "112437.170000", "112438.660000", "112440.150000", "112441.640000", "112443.130000", "112444.620000", "112446.110000", "112447.600000", "112449.090000", "112450.580000", "112452.070000", "112453.560000", "112455.050000", "112456.540000", "112458.030000", "112459.520000", "112501.010000", "112502.500000", "112503.990000", "112505.480000", "112506.970000", "112508.460000", "112509.950000", "112511.440000", "112512.930000", "112514.420000", "112515.910000", "112517.400000", "112518.890000", "112520.380000", "112521.870000", "112523.360000", "112524.850000", "112526.340000", "112527.830000", "112529.320000", "112530.810000", "112532.300000", "112533.790000", "112535.280000", "112536.770000", "112538.260000", "112539.750000", "112541.240000", "112542.730000", "112544.220000", "112545.710000", "112547.200000", "112548.690000", "112550.180000", "112551.670000", "112553.160000", "112554.650000", "112556.140000", "112557.630000", "112559.120000", "112600.610000", "112602.100000", "112603.590000", "112605.080000", "112606.570000", "112608.060000", "112609.550000", "112611.040000", "112612.530000", "112614.020000", "112615.510000", "112617.000000", "112618.490000", "112619.980000", "112621.470000", "112622.960000", "112624.450000", "112625.940000", "112627.430000", "112628.920000", "112630.410000", "112631.900000", "112633.390000", "112634.880000", "112636.370000", "112637.860000", "112639.350000", "112640.840000", "112642.330000", "112643.820000", "112645.310000", "112646.800000", "112648.290000", "112649.780000", "112651.270000", "112652.760000", "112654.250000", "112655.740000", "112657.230000", "112658.720000", "112700.210000", "112701.700000", "112703.190000", "112704.680000", "112706.170000", "112707.660000", "112709.150000", "112710.640000", "112712.130000", "112713.620000", "112715.110000", "112716.600000", "112718.090000", "112719.580000", "112721.070000", "112722.560000", "112724.050000", "112725.540000", "112727.030000", "112728.520000", "112730.010000", "112731.500000", "112732.990000", "112734.480000", "112735.970000", "112737.460000", "112738.950000", "112740.440000", "112741.930000", "112743.420000", "112744.910000", "112746.400000", "112747.890000", "112749.380000", "112750.870000", "112752.360000", "112753.850000", "112755.340000", "112756.830000", "112758.320000", "112759.810000", "112801.300000", "112802.790000", "112804.280000", "112805.770000", "112807.260000", "112808.750000", "112810.240000", "112811.730000", "112813.220000", "112814.710000", "112816.200000", "112817.690000", "112819.180000", "112820.670000", "112822.160000", "112823.650000", "112825.140000", "112826.630000", "112828.120000", "112829.610000", "112831.100000", "112832.590000", "112834.080000", "112835.570000", "112837.060000", "112838.550000", "112840.040000", "112841.530000"],
      "ContentTime": ["112519.926000", "112519.930000", "112519.933000", "112519.936000", "112519.940000", "112519.943000", "112519.946000", "112519.950000", "112519.953000", "112519.956000", "112519.959000", "112519.963000", "112519.966000", "112519.969000", "112519.973000", "112519.976000", "112519.979000", "112519.982000", "112519.986000", "112519.989000", "112519.992000", "112519.995000", "112520.000000", "112520.003000", "112520.006000", "112520.010000", "112539.892000", "112539.896000", "112539.906000", "112539.910000", "112539.913000", "112539.916000", "112539.919000", "112539.923000", "112539.926000", "112539.929000", "112539.932000", "112539.936000", "112539.939000", "112539.942000", "112539.946000", "112539.949000", "112539.952000", "112539.955000", "112539.959000", "112539.962000", "112559.892000", "112559.896000", "112559.899000", "112559.902000", "112559.905000", "112559.909000", "112559.912000", "112559.915000", "112559.919000", "112559.922000", "112559.925000", "112559.928000", "112559.932000", "112559.935000", "112559.938000", "112559.942000", "112559.945000", "112559.948000", "112559.951000", "112559.955000", "112619.892000", "112619.896000", "112619.899000", "112619.903000", "112619.906000", "112619.910000", "112619.914000", "112619.917000", "112619.920000", "112619.924000", "112619.928000", "112619.931000", "112619.935000", "112619.938000", "112619.941000", "112619.945000", "112619.948000", "112619.951000", "112619.954000", "112619.958000", "112639.892000", "112639.896000", "112639.899000", "112639.903000", "112639.907000", "112639.910000", "112639.914000", "112639.917000", "112639.921000", "112639.924000", "112639.928000", "112639.931000", "112639.934000", "112639.937000", "112639.941000", "112639.944000", "112639.947000", "112639.951000", "112639.954000", "112639.957000", "112719.892000", "112719.896000", "112719.899000", "112719.902000", "112719.906000", "112719.909000", "112719.912000", "112719.915000", "112719.919000", "112719.922000", "112719.925000", "112719.929000", "112719.932000", "112719.935000", "112719.939000", "112719.942000", "112719.945000", "112719.949000", "112719.958000", "112719.962000", "112719.965000", "112719.968000", "112719.972000", "112719.975000", "112719.978000", "112719.981000", "112719.985000", "112759.892000", "112759.896000", "112759.899000", "112759.902000", "112759.906000", "112759.909000", "112759.912000", "112759.916000", "112759.919000", "112759.922000", "112759.926000", "112759.929000", "112759.932000", "112759.936000", "112759.939000", "112759.942000", "112759.945000", "112759.949000", "112759.952000", "112759.955000", "112759.959000", "112759.962000", "112759.965000", "112759.968000", "112759.972000", "112759.975000", "112759.978000", "112839.892000", "112839.896000", "112839.899000", "112839.902000", "112839.906000", "112839.909000", "112839.912000", "112839.916000", "112839.919000", "112839.922000", "112839.926000", "112839.929000", "112839.932000", "112839.935000", "112839.939000", "112839.942000", "112839.945000", "112839.949000", "112839.952000", "112839.955000", "112839.959000", "112839.962000", "112839.965000", "112839.968000", "112839.972000", "112839.975000", "112839.978000", "112843.638000", "112843.641000", "112843.645000"],
      "InstanceCreationTime": ["112519.926000", "112519.930000", "112519.933000", "112519.936000", "112519.940000", "112519.943000", "112519.946000", "112519.950000", "112519.953000", "112519.956000", "112519.959000", "112519.963000", "112519.966000", "112519.969000", "112519.973000", "112519.976000", "112519.979000", "112519.982000", "112519.986000", "112519.989000", "112519.992000", "112519.995000", "112520.000000", "112520.003000", "112520.006000", "112520.010000", "112539.892000", "112539.896000", "112539.906000", "112539.910000", "112539.913000", "112539.916000", "112539.919000", "112539.923000", "112539.926000", "112539.929000", "112539.932000", "112539.936000", "112539.939000", "112539.942000", "112539.946000", "112539.949000", "112539.952000", "112539.955000", "112539.959000", "112539.962000", "112559.892000", "112559.896000", "112559.899000", "112559.902000", "112559.905000", "112559.909000", "112559.912000", "112559.915000", "112559.919000", "112559.922000", "112559.925000", "112559.928000", "112559.932000", "112559.935000", "112559.938000", "112559.942000", "112559.945000", "112559.948000", "112559.951000", "112559.955000", "112619.892000", "112619.896000", "112619.899000", "112619.903000", "112619.906000", "112619.910000", "112619.914000", "112619.917000", "112619.920000", "112619.924000", "112619.928000", "112619.931000", "112619.935000", "112619.938000", "112619.941000", "112619.945000", "112619.948000", "112619.951000", "112619.954000", "112619.958000", "112639.892000", "112639.896000", "112639.899000", "112639.903000", "112639.907000", "112639.910000", "112639.914000", "112639.917000", "112639.921000", "112639.924000", "112639.928000", "112639.931000", "112639.934000", "112639.937000", "112639.941000", "112639.944000", "112639.947000", "112639.951000", "112639.954000", "112639.957000", "112719.892000", "112719.896000", "112719.899000", "112719.902000", "112719.906000", "112719.909000", "112719.912000", "112719.915000", "112719.919000", "112719.922000", "112719.925000", "112719.929000", "112719.932000", "112719.935000", "112719.939000", "112719.942000", "112719.945000", "112719.949000", "112719.958000", "112719.962000", "112719.965000", "112719.968000", "112719.972000", "112719.975000", "112719.978000", "112719.981000", "112719.985000", "112759.892000", "112759.896000", "112759.899000", "112759.902000", "112759.906000", "112759.909000", "112759.912000", "112759.916000", "112759.919000", "112759.922000", "112759.926000", "112759.929000", "112759.932000", "112759.936000", "112759.939000", "112759.942000", "112759.945000", "112759.949000", "112759.952000", "112759.955000", "112759.959000", "112759.962000", "112759.965000", "112759.968000", "112759.972000", "112759.975000", "112759.978000", "112839.892000", "112839.896000", "112839.899000", "112839.902000", "112839.906000", "112839.909000", "112839.912000", "112839.916000", "112839.919000", "112839.922000", "112839.926000", "112839.929000", "112839.932000", "112839.935000", "112839.939000", "112839.942000", "112839.945000", "112839.949000", "112839.952000", "112839.955000", "112839.959000", "112839.962000", "112839.965000", "112839.968000", "112839.972000", "112839.975000", "112839.978000", "112843.638000", "112843.641000", "112843.645000"],
      "InstanceNumber": [1, 2, 3, 4, 5, 6, 7, 8, 9, 10, 11, 12, 13, 14, 15, 16, 17, 18, 19, 20, 21, 22, 23, 24, 25, 26, 27, 28, 29, 30, 31, 32, 33, 34, 35, 36, 37, 38, 39, 40, 41, 42, 43, 44, 45, 46, 47, 48, 49, 50, 51, 52, 53, 54, 55, 56, 57, 58, 59, 60, 61, 62, 63, 64, 65, 66, 67, 68, 69, 70, 71, 72, 73, 74, 75, 76, 77, 78, 79, 80, 81, 82, 83, 84, 85, 86, 87, 88, 89, 90, 91, 92, 93, 94, 95, 96, 97, 98, 99, 100, 101, 102, 103, 104, 105, 106, 107, 108, 109, 110, 111, 112, 113, 114, 115, 116, 117, 118, 119, 120, 121, 122, 123, 124, 125, 126, 127, 128, 129, 130, 131, 132, 133, 134, 135, 136, 137, 138, 139, 140, 141, 142, 143, 144, 145, 146, 147, 148, 149, 150, 151, 152, 153, 154, 155, 156, 157, 158, 159, 160, 161, 162, 163, 164, 165, 166, 167, 168, 169, 170, 171, 172, 173, 174, 175, 176, 177, 178, 179, 180, 181, 182, 183, 184, 185, 186, 187, 188, 189, 190],
      "LargestImagePixelValue": [43390, 42184, 41191, 40718, 40905, 40196, 41407, 40042, 40865, 41428, 41120, 41369, 39701, 40108, 40831, 40322, 39438, 40752, 40293, 40554, 40630, 40651, 40059, 40606, 40813, 40578, 40691, 40972, 40130, 40622, 40926, 40806, 40334, 40042, 39764, 39619, 39223, 41087, 41334, 41289, 40556, 40742, 40423, 40368, 39884, 40562, 39657, 40325, 39998, 39565, 40166, 40574, 40157, 40310, 40319, 39859, 40240, 39945, 39623, 40123, 39965, 40268, 39871, 39151, 39926, 40161, 39811, 40011, 39842, 40671, 39858, 40174, 40016, 39550, 39763, 39696, 40355, 39593, 39615, 41087, 40833, 40352, 39875, 40681, 39466, 39845, 39499, 39640, 39302, 39804, 39585, 39624, 40369, 40107, 40230, 39555, 40215, 39657, 39372, 40608, 40116, 40136, 40797, 40723, 40044, 39720, 39164, 40779, 40221, 40382, 40992, 40368, 40644, 40947, 40085, 40073, 40391, 40227, 39749, 40413, 39785, 40587, 40686, 39644, 40202, 40474, 39174, 40103, 39398, 39618, 39608, 39793, 39657, 39480, 40207, 39887, 39565, 39901, 39721, 40098, 39856, 39700, 39511, 39641, 39613, 39708, 40361, 39608, 39771, 40489, 39475, 39571, 40994, 40465, 39954, 39715, 40253, 39455, 39752, 43287, 39613, 40190, 40584, 40081, 39655, 39766, 39530, 39908, 39341, 39828, 39709, 39716, 40220, 39266, 39530, 39432, 39452, 40233, 40058, 39711, 39282, 40041, 39375, 39457, 39596, 39321, 39598, 39241, 39602, 40008],
      "WindowCenter": [10794.0, 10732.0, 10718.0, 10712.0, 10719.0, 10706.0, 10718.0, 10694.0, 10700.0, 10698.0, 10705.0, 10696.0, 10677.0, 10693.0, 10709.0, 10705.0, 10684.0, 10690.0, 10685.0, 10686.0, 10681.0, 10690.0, 10686.0, 10694.0, 10673.0, 10670.0, 10671.0, 10668.0, 10671.0, 10690.0, 10699.0, 10675.0, 10630.0, 10654.0, 10686.0, 10692.0, 10694.0, 10710.0, 10716.0, 10683.0, 10665.0, 10673.0, 10692.0, 10699.0, 10696.0, 10693.0, 10673.0, 10686.0, 10674.0, 10660.0, 10682.0, 10701.0, 10697.0, 10703.0, 10689.0, 10687.0, 10678.0, 10651.0, 10650.0, 10679.0, 10699.0, 10696.0, 10689.0, 10677.0, 10687.0, 10678.0, 10660.0, 10654.0, 10657.0, 10663.0, 10656.0, 10679.0, 10694.0, 10698.0, 10683.0, 10673.0, 10676.0, 10661.0, 10670.0, 10698.0, 10700.0, 10682.0, 10653.0, 10646.0, 10637.0, 10656.0, 10663.0, 10669.0, 10665.0, 10662.0, 10654.0, 10652.0, 10657.0, 10649.0, 10647.0, 10649.0, 10667.0, 10668.0, 10666.0, 10677.0, 10666.0, 10667.0, 10668.0, 10643.0, 10655.0, 10694.0, 10705.0, 10715.0, 10682.0, 10661.0, 10660.0, 10654.0, 10664.0, 10674.0, 10662.0, 10651.0, 10657.0, 10658.0, 10662.0, 10669.0, 10664.0, 10666.0, 10658.0, 10624.0, 10653.0, 10676.0, 10668.0, 10672.0, 10636.0, 10641.0, 10669.0, 10675.0, 10658.0, 10615.0, 10610.0, 10646.0, 10665.0, 10664.0, 10632.0, 10612.0, 10646.0, 10664.0, 10667.0, 10664.0, 10648.0, 10615.0, 10619.0, 10619.0, 10645.0, 10681.0, 10665.0, 10671.0, 10655.0, 10655.0, 10639.0, 10629.0, 10642.0, 10631.0, 10632.0, 10663.0, 10620.0, 10620.0, 10623.0, 10609.0, 10612.0, 10621.0, 10639.0, 10641.0, 10626.0, 10633.0, 10640.0, 10642.0, 10659.0, 10660.0, 10662.0, 10657.0, 10655.0, 10660.0, 10651.0, 10653.0, 10648.0, 10660.0, 10656.0, 10650.0, 10654.0, 10646.0, 10647.0, 10641.0, 10648.0, 10651.0],
      "WindowWidth": [23158.0, 22982.0, 22934.0, 22912.0, 22924.0, 22893.0, 22918.0, 22863.0, 22873.0, 22868.0, 22887.0, 22864.0, 22826.0, 22860.0, 22895.0, 22890.0, 22841.0, 22848.0, 22840.0, 22844.0, 22831.0, 22849.0, 22841.0, 22856.0, 22810.0, 22800.0, 22804.0, 22798.0, 22808.0, 22849.0, 22868.0, 22816.0, 22716.0, 22771.0, 22845.0, 22861.0, 22864.0, 22887.0, 22901.0, 22839.0, 22792.0, 22812.0, 22859.0, 22871.0, 22866.0, 22855.0, 22819.0, 22840.0, 22821.0, 22783.0, 22828.0, 22871.0, 22865.0, 22873.0, 22847.0, 22842.0, 22820.0, 22761.0, 22758.0, 22821.0, 22869.0, 22865.0, 22848.0, 22823.0, 22841.0, 22822.0, 22782.0, 22775.0, 22776.0, 22788.0, 22776.0, 22821.0, 22856.0, 22868.0, 22835.0, 22810.0, 22816.0, 22787.0, 22804.0, 22862.0, 22865.0, 22841.0, 22772.0, 22750.0, 22740.0, 22774.0, 22791.0, 22801.0, 22796.0, 22785.0, 22765.0, 22757.0, 22768.0, 22752.0, 22747.0, 22754.0, 22800.0, 22798.0, 22796.0, 22815.0, 22793.0, 22796.0, 22802.0, 22743.0, 22773.0, 22859.0, 22887.0, 22902.0, 22827.0, 22780.0, 22773.0, 22773.0, 22785.0, 22808.0, 22785.0, 22758.0, 22773.0, 22775.0, 22784.0, 22799.0, 22792.0, 22791.0, 22777.0, 22704.0, 22762.0, 22815.0, 22805.0, 22806.0, 22726.0, 22733.0, 22797.0, 22812.0, 22778.0, 22677.0, 22664.0, 22746.0, 22796.0, 22792.0, 22718.0, 22671.0, 22746.0, 22792.0, 22799.0, 22790.0, 22757.0, 22682.0, 22687.0, 22687.0, 22744.0, 22824.0, 22794.0, 22809.0, 22766.0, 22765.0, 22739.0, 22710.0, 22735.0, 22713.0, 22712.0, 22774.0, 22686.0, 22685.0, 22691.0, 22665.0, 22670.0, 22688.0, 22725.0, 22733.0, 22702.0, 22716.0, 22730.0, 22734.0, 22776.0, 22778.0, 22781.0, 22772.0, 22767.0, 22777.0, 22758.0, 22763.0, 22755.0, 22778.0, 22771.0, 22760.0, 22764.0, 22745.0, 22750.0, 22736.0, 22755.0, 22760.0]
    },
    "slices": {}
  }
}