{
  "AcquisitionMatrixPE": 104,
  "AcquisitionNumber": 1,
  "AcquisitionTime": "11:37:3.235000",
  "BandwidthPerPixelPhaseEncode": 17.17,
  "BaseResolution": 104,
  "BodyPartExamined": "BRAIN",
  "CoilString": "HC1-7;NC1_2",
  "ConsistencyInfo": "N4_VE11C_LATEST_20160120",
  "ConversionSoftware": "dcm2niix",
  "ConversionSoftwareVersion": "v1.0.20190902",
  "DerivedVendorReportedEchoSpacing": 0.000560011,
  "DeviceSerialNumber": "167006",
  "DwellTime": 2.1e-06,
  "EchoTime": 0.037,
  "EchoTrainLength": 104,
  "EffectiveEchoSpacing": 0.000560011,
  "FlipAngle": 52,
  "ImageComments": "Unaliased_MB4_PE3_LB",
  "ImageOrientationPatientDICOM": [0.997985, 0.0594, 0.0223014, -0.0416535, 0.878504, -0.475915],
  "ImageType": [
    "ORIGINAL",
    "PRIMARY",
    "P",
    "MB",
    "ND",
    "MOSAIC"
],
  "ImagingFrequency": 123.259,
  "InPlanePhaseEncodingDirectionDICOM": "COL",
  "InstitutionAddress": "Chemin_Queen-Mary_4565_Montreal_District_CA_H3W_1W5",
  "InstitutionName": "IUGM",
  "InstitutionalDepartmentName": "Department",
  "MRAcquisitionType": "2D",
  "MagneticFieldStrength": 3,
  "Manufacturer": "Siemens",
  "ManufacturersModelName": "Prisma_fit",
  "Modality": "MR",
  "MultibandAccelerationFactor": 4,
  "PartialFourier": 1,
  "PatientPosition": "HFS",
  "PercentPhaseFOV": 100,
  "PhaseEncodingDirection": "j",
  "PhaseEncodingSteps": 104,
  "PhaseResolution": 1,
  "PixelBandwidth": 2290,
  "ProcedureStepDescription": "memory_things",
  "ProtocolName": "func_task-things_run-4",
  "PulseSequenceDetails": "%CustomerSeq%_cmrr_mbep2d_bold",
  "ReceiveCoilActiveElements": "HC1-7;NC1,2",
  "ReceiveCoilName": "HeadNeck_64",
  "ReconMatrixPE": 104,
  "RepetitionTime": 1.49,
  "SAR": 0.0710003,
  "ScanOptions": "FS",
  "ScanningSequence": "EP",
  "SequenceName": "epfid2d1_104",
  "SequenceVariant": "SK_SS",
  "SeriesDescription": "func_task-things_run-4",
  "SeriesNumber": 20,
  "ShimSetting": [619, -7187, -8857, 299, -22, -125, -32, -11],
  "SliceThickness": 2,
  "SliceTiming": [0, 0.785, 0.1, 0.8825, 0.1975, 0.98, 0.295, 1.08, 0.3925, 1.1775, 0.49, 1.275, 0.59, 1.3725, 0.6875, 0, 0.785, 0.1, 0.8825, 0.1975, 0.98, 0.295, 1.08, 0.3925, 1.1775, 0.49, 1.275, 0.59, 1.3725, 0.6875, 0, 0.785, 0.1, 0.8825, 0.1975, 0.98, 0.295, 1.08, 0.3925, 1.1775, 0.49, 1.275, 0.59, 1.3725, 0.6875, 0, 0.785, 0.1, 0.8825, 0.1975, 0.98, 0.295, 1.08, 0.3925, 1.1775, 0.49, 1.275, 0.59, 1.3725, 0.6875],
  "SoftwareVersions": "syngo_MR_E11",
  "SpacingBetweenSlices": 2,
  "StationName": "MRC35049",
  "TaskName": "things",
  "TotalReadoutTime": 0.0576811,
  "TxRefAmp": 319.713,
  "WipMemBlock": "27c94fd0-127f-4faf-b42c-d992091b3c4c||Sequence: R016 ve11c/master r/e634e98; Dec 19 2017 11:00:25 by eja",
  "dcmmeta_affine": [
    [-1.9959702491760254, -0.0833069235086441, 0.09572245180606842, 109.70802307128906],
    [-0.11879991739988327, 1.75700843334198, -0.9480547904968262, -47.043243408203125],
    [0.044602807611227036, 0.9518305063247681, 1.7584166526794434, -92.66336059570312],
    [0.0, 0.0, 0.0, 1.0]
],
  "dcmmeta_reorient_transform": [
    [0.0, -1.0, 0.0, 103.0],
    [1.0, 0.0, 0.0, 0.0],
    [0.0, 0.0, 1.0, 0.0],
    [0.0, 0.0, 0.0, 1.0]
],
  "dcmmeta_shape": [104, 104, 60, 190],
  "dcmmeta_slice_dim": 2,
  "dcmmeta_version": 0.6,
  "global": {
    "const": {
      "AcquisitionMatrix": [104, 0, 0, 104],
      "AngioFlag": "N",
      "BitsAllocated": 16,
      "BitsStored": 16,
      "BodyPartExamined": "BRAIN",
      "Columns": 832,
      "EchoNumbers": 1,
      "EchoTime": 37.0,
      "EchoTrainLength": 104,
      "FlipAngle": 52.0,
      "HighBit": 15,
      "ImageOrientationPatient": [0.99798511616862, 0.05939996014128, 0.02230140446532, -0.041653463596, 0.87850421519848, -0.4759152580544],
      "ImagePositionPatient": [-797.33685045062, -816.72286293298, 335.60607082111],
      "ImageType": [
        "ORIGINAL",
        "PRIMARY",
        "P",
        "MB",
        "ND",
        "MOSAIC"
],
      "ImagedNucleus": "1H",
      "ImagingFrequency": 123.258971,
      "InPlanePhaseEncodingDirection": "COL",
      "LargestImagePixelValue": 4095,
      "MRAcquisitionType": "2D",
      "MagneticFieldStrength": 3.0,
      "Manufacturer": "SIEMENS",
      "ManufacturerModelName": "Prisma_fit",
      "Modality": "MR",
      "NumberOfAverages": 1.0,
      "NumberOfPhaseEncodingSteps": 104,
      "PercentPhaseFieldOfView": 100.0,
      "PercentSampling": 100.0,
      "PerformedProcedureStepStartTime": "093434.575000",
      "PhotometricInterpretation": "MONOCHROME2",
      "PixelBandwidth": 2290.0,
      "PixelRepresentation": 0,
      "PixelSpacing": [2.0, 2.0],
      "ProtocolName": "func_task-things_run-4",
      "RepetitionTime": 1490.0,
      "RescaleIntercept": -4096.0,
      "RescaleSlope": 2.0,
      "RescaleType": "US",
      "Rows": 832,
      "SAR": 0.07100032499042,
      "SamplesPerPixel": 1,
      "ScanOptions": "FS",
      "ScanningSequence": "EP",
      "SequenceName": "epfid2d1_104",
      "SequenceVariant": [
        "SK",
        "SS"
],
      "SeriesDescription": "func_task-things_run-4",
      "SeriesNumber": 20,
      "SeriesTime": "113806.821000",
      "SliceLocation": -53.919849384784,
      "SliceThickness": 2.0,
      "SmallestImagePixelValue": 0,
      "SoftwareVersions": "syngo MR E11",
      "SpacingBetweenSlices": 1.9999999688815,
      "SpecificCharacterSet": "ISO_IR 100",
      "StudyID": "1",
      "StudyTime": "093434.481000",
      "TransmitCoilName": "Body",
      "VariableFlipAngleFlag": "N",
      "WindowCenterWidthExplanation": "Algo1",
      "dBdt": 0.0},
    "slices": {}
  },
  "time": {
    "samples": {
      "AcquisitionNumber": [1, 2, 3, 4, 5, 6, 7, 8, 9, 10, 11, 12, 13, 14, 15, 16, 17, 18, 19, 20, 21, 22, 23, 24, 25, 26, 27, 28, 29, 30, 31, 32, 33, 34, 35, 36, 37, 38, 39, 40, 41, 42, 43, 44, 45, 46, 47, 48, 49, 50, 51, 52, 53, 54, 55, 56, 57, 58, 59, 60, 61, 62, 63, 64, 65, 66, 67, 68, 69, 70, 71, 72, 73, 74, 75, 76, 77, 78, 79, 80, 81, 82, 83, 84, 85, 86, 87, 88, 89, 90, 91, 92, 93, 94, 95, 96, 97, 98, 99, 100, 101, 102, 103, 104, 105, 106, 107, 108, 109, 110, 111, 112, 113, 114, 115, 116, 117, 118, 119, 120, 121, 122, 123, 124, 125, 126, 127, 128, 129, 130, 131, 132, 133, 134, 135, 136, 137, 138, 139, 140, 141, 142, 143, 144, 145, 146, 147, 148, 149, 150, 151, 152, 153, 154, 155, 156, 157, 158, 159, 160, 161, 162, 163, 164, 165, 166, 167, 168, 169, 170, 171, 172, 173, 174, 175, 176, 177, 178, 179, 180, 181, 182, 183, 184, 185, 186, 187, 188, 189, 190],
      "AcquisitionTime": ["113703.235000", "113704.725000", "113706.215000", "113707.705000", "113709.195000", "113710.685000", "113712.175000", "113713.665000", "113715.155000", "113716.645000", "113718.135000", "113719.625000", "113721.115000", "113722.605000", "113724.095000", "113725.585000", "113727.075000", "113728.565000", "113730.055000", "113731.545000", "113733.035000", "113734.525000", "113736.015000", "113737.505000", "113738.995000", "113740.485000", "113741.975000", "113743.465000", "113744.955000", "113746.445000", "113747.935000", "113749.425000", "113750.915000", "113752.405000", "113753.895000", "113755.385000", "113756.875000", "113758.365000", "113759.855000", "113801.345000", "113802.835000", "113804.325000", "113805.815000", "113807.305000", "113808.795000", "113810.285000", "113811.775000", "113813.265000", "113814.755000", "113816.245000", "113817.735000", "113819.225000", "113820.715000", "113822.205000", "113823.695000", "113825.185000", "113826.675000", "113828.165000", "113829.655000", "113831.145000", "113832.635000", "113834.125000", "113835.615000", "113837.105000", "113838.595000", "113840.085000", "113841.575000", "113843.065000", "113844.555000", "113846.045000", "113847.535000", "113849.025000", "113850.515000", "113852.005000", "113853.495000", "113854.985000", "113856.475000", "113857.965000", "113859.455000", "113900.945000", "113902.435000", "113903.925000", "113905.415000", "113906.905000", "113908.395000", "113909.885000", "113911.375000", "113912.865000", "113914.355000", "113915.845000", "113917.335000", "113918.825000", "113920.315000", "113921.805000", "113923.295000", "113924.785000", "113926.275000", "113927.765000", "113929.255000", "113930.745000", "113932.235000", "113933.725000", "113935.215000", "113936.705000", "113938.195000", "113939.685000", "113941.175000", "113942.665000", "113944.155000", "113945.645000", "113947.135000", "113948.625000", "113950.115000", "113951.605000", "113953.095000", "113954.585000", "113956.075000", "113957.565000", "113959.055000", "114000.545000", "114002.035000", "114003.525000", "114005.015000", "114006.505000", "114007.995000", "114009.485000", "114010.975000", "114012.465000", "114013.955000", "114015.445000", "114016.935000", "114018.425000", "114019.915000", "114021.405000", "114022.895000", "114024.385000", "114025.875000", "114027.365000", "114028.855000", "114030.345000", "114031.835000", "114033.325000", "114034.815000", "114036.305000", "114037.795000", "114039.285000", "114040.775000", "114042.265000", "114043.755000", "114045.245000", "114046.735000", "114048.225000", "114049.715000", "114051.205000", "114052.695000", "114054.185000", "114055.675000", "114057.165000", "114058.655000", "114100.145000", "114101.635000", "114103.125000", "114104.615000", "114106.105000", "114107.595000", "114109.085000", "114110.575000", "114112.065000", "114113.555000", "114115.045000", "114116.535000", "114118.025000", "114119.515000", "114121.005000", "114122.495000", "114123.985000", "114125.475000", "114126.965000", "114128.455000", "114129.945000", "114131.435000", "114132.925000", "114134.415000", "114135.905000", "114137.395000", "114138.885000", "114140.375000", "114141.865000", "114143.355000", "114144.845000"],
      "ContentTime": ["113806.823000", "113806.826000", "113806.828000", "113806.831000", "113806.833000", "113806.836000", "113806.838000", "113806.841000", "113806.843000", "113826.828000", "113826.831000", "113826.833000", "113826.836000", "113826.838000", "113826.841000", "113826.843000", "113826.845000", "113826.848000", "113826.850000", "113826.853000", "113826.855000", "113826.858000", "113826.869000", "113826.871000", "113826.874000", "113826.876000", "113826.879000", "113826.881000", "113826.884000", "113826.886000", "113846.822000", "113846.825000", "113846.827000", "113846.830000", "113846.832000", "113846.835000", "113846.837000", "113846.840000", "113846.842000", "113846.845000", "113846.847000", "113846.850000", "113846.852000", "113846.855000", "113846.857000", "113846.859000", "113846.862000", "113846.864000", "113846.874000", "113846.876000", "113906.827000", "113906.830000", "113906.832000", "113906.835000", "113906.837000", "113906.839000", "113906.842000", "113906.844000", "113906.847000", "113906.849000", "113906.852000", "113906.854000", "113906.857000", "113906.859000", "113906.861000", "113906.864000", "113906.866000", "113906.869000", "113906.871000", "113906.874000", "113926.814000", "113926.817000", "113926.820000", "113926.822000", "113926.825000", "113926.827000", "113926.829000", "113926.832000", "113926.834000", "113926.837000", "113926.839000", "113926.842000", "113926.844000", "113926.847000", "113926.849000", "113926.852000", "113926.854000", "113926.856000", "113926.859000", "113926.875000", "114006.880000", "114006.883000", "114006.885000", "114006.888000", "114006.890000", "114006.893000", "114006.895000", "114006.897000", "114006.900000", "114006.903000", "114006.905000", "114006.908000", "114006.911000", "114006.913000", "114006.915000", "114006.918000", "114006.920000", "114006.923000", "114006.925000", "114006.928000", "114006.930000", "114006.933000", "114006.935000", "114006.938000", "114006.940000", "114006.943000", "114006.945000", "114006.948000", "114006.950000", "114006.952000", "114006.955000", "114006.957000", "114046.866000", "114046.869000", "114046.872000", "114046.874000", "114046.877000", "114046.879000", "114046.882000", "114046.884000", "114046.886000", "114046.889000", "114046.891000", "114046.894000", "114046.896000", "114046.899000", "114046.901000", "114046.904000", "114046.906000", "114046.909000", "114046.911000", "114046.914000", "114046.916000", "114046.919000", "114046.921000", "114046.924000", "114046.926000", "114046.929000", "114046.931000", "114126.877000", "114126.880000", "114126.883000", "114126.885000", "114126.888000", "114126.890000", "114126.893000", "114126.895000", "114126.897000", "114126.900000", "114126.902000", "114126.905000", "114126.907000", "114126.910000", "114126.912000", "114126.915000", "114126.917000", "114126.920000", "114126.922000", "114126.925000", "114126.927000", "114126.930000", "114126.932000", "114126.935000", "114126.937000", "114126.940000", "114126.942000", "114147.460000", "114147.463000", "114147.465000", "114147.468000", "114147.470000", "114147.473000", "114147.475000", "114147.478000", "114147.480000", "114147.483000", "114147.485000", "114147.488000", "114147.491000", "114147.494000"],
      "InstanceCreationTime": ["113806.823000", "113806.826000", "113806.828000", "113806.831000", "113806.833000", "113806.836000", "113806.838000", "113806.841000", "113806.843000", "113826.828000", "113826.831000", "113826.833000", "113826.836000", "113826.838000", "113826.841000", "113826.843000", "113826.845000", "113826.848000", "113826.850000", "113826.853000", "113826.855000", "113826.858000", "113826.869000", "113826.871000", "113826.874000", "113826.876000", "113826.879000", "113826.881000", "113826.884000", "113826.886000", "113846.822000", "113846.825000", "113846.827000", "113846.830000", "113846.832000", "113846.835000", "113846.837000", "113846.840000", "113846.842000", "113846.845000", "113846.847000", "113846.850000", "113846.852000", "113846.855000", "113846.857000", "113846.859000", "113846.862000", "113846.864000", "113846.874000", "113846.876000", "113906.827000", "113906.830000", "113906.832000", "113906.835000", "113906.837000", "113906.839000", "113906.842000", "113906.844000", "113906.847000", "113906.849000", "113906.852000", "113906.854000", "113906.857000", "113906.859000", "113906.861000", "113906.864000", "113906.866000", "113906.869000", "113906.871000", "113906.874000", "113926.814000", "113926.817000", "113926.820000", "113926.822000", "113926.825000", "113926.827000", "113926.829000", "113926.832000", "113926.834000", "113926.837000", "113926.839000", "113926.842000", "113926.844000", "113926.847000", "113926.849000", "113926.852000", "113926.854000", "113926.856000", "113926.859000", "113926.875000", "114006.880000", "114006.883000", "114006.885000", "114006.888000", "114006.890000", "114006.893000", "114006.895000", "114006.897000", "114006.900000", "114006.903000", "114006.905000", "114006.908000", "114006.911000", "114006.913000", "114006.915000", "114006.918000", "114006.920000", "114006.923000", "114006.925000", "114006.928000", "114006.930000", "114006.933000", "114006.935000", "114006.938000", "114006.940000", "114006.943000", "114006.945000", "114006.948000", "114006.950000", "114006.952000", "114006.955000", "114006.957000", "114046.866000", "114046.869000", "114046.872000", "114046.874000", "114046.877000", "114046.879000", "114046.882000", "114046.884000", "114046.886000", "114046.889000", "114046.891000", "114046.894000", "114046.896000", "114046.899000", "114046.901000", "114046.904000", "114046.906000", "114046.909000", "114046.911000", "114046.914000", "114046.916000", "114046.919000", "114046.921000", "114046.924000", "114046.926000", "114046.929000", "114046.931000", "114126.877000", "114126.880000", "114126.883000", "114126.885000", "114126.888000", "114126.890000", "114126.893000", "114126.895000", "114126.897000", "114126.900000", "114126.902000", "114126.905000", "114126.907000", "114126.910000", "114126.912000", "114126.915000", "114126.917000", "114126.920000", "114126.922000", "114126.925000", "114126.927000", "114126.930000", "114126.932000", "114126.935000", "114126.937000", "114126.940000", "114126.942000", "114147.460000", "114147.463000", "114147.465000", "114147.468000", "114147.470000", "114147.473000", "114147.475000", "114147.478000", "114147.480000", "114147.483000", "114147.485000", "114147.488000", "114147.491000", "114147.494000"],
      "InstanceNumber": [1, 2, 3, 4, 5, 6, 7, 8, 9, 10, 11, 12, 13, 14, 15, 16, 17, 18, 19, 20, 21, 22, 23, 24, 25, 26, 27, 28, 29, 30, 31, 32, 33, 34, 35, 36, 37, 38, 39, 40, 41, 42, 43, 44, 45, 46, 47, 48, 49, 50, 51, 52, 53, 54, 55, 56, 57, 58, 59, 60, 61, 62, 63, 64, 65, 66, 67, 68, 69, 70, 71, 72, 73, 74, 75, 76, 77, 78, 79, 80, 81, 82, 83, 84, 85, 86, 87, 88, 89, 90, 91, 92, 93, 94, 95, 96, 97, 98, 99, 100, 101, 102, 103, 104, 105, 106, 107, 108, 109, 110, 111, 112, 113, 114, 115, 116, 117, 118, 119, 120, 121, 122, 123, 124, 125, 126, 127, 128, 129, 130, 131, 132, 133, 134, 135, 136, 137, 138, 139, 140, 141, 142, 143, 144, 145, 146, 147, 148, 149, 150, 151, 152, 153, 154, 155, 156, 157, 158, 159, 160, 161, 162, 163, 164, 165, 166, 167, 168, 169, 170, 171, 172, 173, 174, 175, 176, 177, 178, 179, 180, 181, 182, 183, 184, 185, 186, 187, 188, 189, 190],
      "WindowCenter": [4784.0, 4778.0, 4798.0, 4788.0, 4782.0, 4780.0, 4790.0, 4786.0, 4786.0, 4760.0, 4758.0, 4798.0, 4804.0, 4766.0, 4786.0, 4824.0, 4852.0, 4820.0, 4788.0, 4786.0, 4798.0, 4794.0, 4794.0, 4786.0, 4790.0, 4810.0, 4796.0, 4764.0, 4856.0, 4928.0, 4924.0, 4886.0, 4788.0, 4790.0, 4776.0, 4752.0, 4776.0, 4776.0, 4794.0, 4788.0, 4854.0, 4850.0, 4822.0, 4786.0, 4784.0, 4786.0, 4796.0, 4780.0, 4776.0, 4788.0, 4792.0, 4782.0, 4794.0, 4782.0, 4786.0, 4782.0, 4782.0, 4784.0, 4786.0, 4798.0, 4792.0, 4790.0, 4788.0, 4786.0, 4788.0, 4820.0, 4792.0, 4790.0, 4776.0, 4784.0, 4760.0, 4784.0, 4794.0, 4782.0, 4786.0, 4784.0, 4788.0, 4788.0, 4792.0, 4790.0, 4788.0, 4786.0, 4788.0, 4794.0, 4784.0, 4782.0, 4758.0, 4788.0, 4764.0, 4760.0, 4760.0, 4786.0, 4786.0, 4788.0, 4796.0, 4788.0, 4786.0, 4786.0, 4782.0, 4760.0, 4782.0, 4762.0, 4780.0, 4784.0, 4782.0, 4786.0, 4796.0, 4760.0, 4786.0, 4760.0, 4762.0, 4758.0, 4786.0, 4790.0, 4788.0, 4788.0, 4790.0, 4766.0, 4782.0, 4788.0, 4826.0, 4760.0, 4758.0, 4760.0, 4790.0, 4790.0, 4790.0, 4792.0, 4782.0, 4774.0, 4782.0, 4818.0, 4822.0, 4828.0, 4792.0, 4788.0, 4800.0, 4782.0, 4796.0, 4798.0, 4796.0, 4760.0, 4816.0, 4792.0, 4850.0, 4788.0, 4786.0, 4788.0, 4780.0, 4782.0, 4794.0, 4782.0, 4760.0, 4790.0, 4786.0, 4782.0, 4786.0, 4794.0, 4778.0, 4796.0, 4762.0, 4786.0, 4786.0, 4762.0, 4758.0, 4784.0, 4768.0, 4766.0, 4758.0, 4786.0, 4782.0, 4782.0, 4762.0, 4760.0, 4762.0, 4790.0, 4790.0, 4758.0, 4786.0, 4760.0, 4758.0, 4762.0, 4762.0, 4760.0, 4786.0, 4790.0, 4796.0, 4776.0, 4756.0, 4850.0],
      "WindowWidth": [18612.0, 18610.0, 18630.0, 18618.0, 18608.0, 18604.0, 18612.0, 18614.0, 18618.0, 18582.0, 18578.0, 18632.0, 18636.0, 18594.0, 18610.0, 18654.0, 18686.0, 18650.0, 18608.0, 18616.0, 18636.0, 18632.0, 18634.0, 18622.0, 18620.0, 18630.0, 18600.0, 18580.0, 18688.0, 18750.0, 18744.0, 18722.0, 18610.0, 18624.0, 18602.0, 18556.0, 18604.0, 18602.0, 18628.0, 18612.0, 18692.0, 18684.0, 18654.0, 18612.0, 18608.0, 18616.0, 18636.0, 18604.0, 18608.0, 18624.0, 18626.0, 18610.0, 18618.0, 18598.0, 18606.0, 18604.0, 18600.0, 18616.0, 18620.0, 18636.0, 18630.0, 18628.0, 18622.0, 18616.0, 18606.0, 18652.0, 18620.0, 18602.0, 18602.0, 18606.0, 18576.0, 18608.0, 18616.0, 18604.0, 18608.0, 18610.0, 18616.0, 18622.0, 18624.0, 18630.0, 18622.0, 18614.0, 18618.0, 18628.0, 18612.0, 18612.0, 18578.0, 18612.0, 18576.0, 18574.0, 18576.0, 18616.0, 18618.0, 18620.0, 18632.0, 18616.0, 18618.0, 18616.0, 18606.0, 18580.0, 18610.0, 18584.0, 18608.0, 18614.0, 18614.0, 18612.0, 18634.0, 18582.0, 18616.0, 18584.0, 18578.0, 18572.0, 18606.0, 18610.0, 18620.0, 18594.0, 18596.0, 18588.0, 18608.0, 18610.0, 18654.0, 18572.0, 18574.0, 18576.0, 18624.0, 18628.0, 18626.0, 18624.0, 18608.0, 18598.0, 18608.0, 18646.0, 18652.0, 18658.0, 18610.0, 18612.0, 18638.0, 18608.0, 18632.0, 18632.0, 18628.0, 18578.0, 18646.0, 18612.0, 18684.0, 18606.0, 18616.0, 18622.0, 18602.0, 18604.0, 18632.0, 18614.0, 18574.0, 18612.0, 18610.0, 18604.0, 18612.0, 18626.0, 18604.0, 18630.0, 18588.0, 18606.0, 18612.0, 18580.0, 18572.0, 18608.0, 18590.0, 18588.0, 18580.0, 18618.0, 18610.0, 18606.0, 18580.0, 18578.0, 18578.0, 18616.0, 18622.0, 18576.0, 18612.0, 18580.0, 18574.0, 18582.0, 18580.0, 18576.0, 18618.0, 18602.0, 18586.0, 18596.0, 18568.0, 18686.0]
    },
    "slices": {}
  }
}