{
  "AcquisitionMatrixPE": 104,
  "AcquisitionNumber": 1,
  "AcquisitionTime": "11:23:59.920000",
  "BandwidthPerPixelPhaseEncode": 17.17,
  "BaseResolution": 104,
  "BodyPartExamined": "BRAIN",
  "CoilString": "HC1-7;NC1_2",
  "ConsistencyInfo": "N4_VE11C_LATEST_20160120",
  "ConversionSoftware": "dcm2niix",
  "ConversionSoftwareVersion": "v1.0.20190902",
  "DerivedVendorReportedEchoSpacing": 0.000560011,
  "DeviceSerialNumber": "167006",
  "DwellTime": 2.1e-06,
  "EchoTime": 0.037,
  "EchoTrainLength": 104,
  "EffectiveEchoSpacing": 0.000560011,
  "FlipAngle": 52,
  "ImageComments": "Unaliased_MB4_PE3_LB",
  "ImageOrientationPatientDICOM": [0.997985, 0.0594, 0.0223014, -0.0416535, 0.878504, -0.475915],
  "ImageType": [
    "ORIGINAL",
    "PRIMARY",
    "P",
    "MB",
    "ND",
    "MOSAIC"
],
  "ImagingFrequency": 123.259,
  "InPlanePhaseEncodingDirectionDICOM": "COL",
  "InstitutionAddress": "Chemin_Queen-Mary_4565_Montreal_District_CA_H3W_1W5",
  "InstitutionName": "IUGM",
  "InstitutionalDepartmentName": "Department",
  "MRAcquisitionType": "2D",
  "MagneticFieldStrength": 3,
  "Manufacturer": "Siemens",
  "ManufacturersModelName": "Prisma_fit",
  "Modality": "MR",
  "MultibandAccelerationFactor": 4,
  "PartialFourier": 1,
  "PatientPosition": "HFS",
  "PercentPhaseFOV": 100,
  "PhaseEncodingDirection": "j",
  "PhaseEncodingSteps": 104,
  "PhaseResolution": 1,
  "PixelBandwidth": 2290,
  "ProcedureStepDescription": "memory_things",
  "ProtocolName": "func_task-things_run-2",
  "PulseSequenceDetails": "%CustomerSeq%_cmrr_mbep2d_bold",
  "ReceiveCoilActiveElements": "HC1-7;NC1,2",
  "ReceiveCoilName": "HeadNeck_64",
  "ReconMatrixPE": 104,
  "RepetitionTime": 1.49,
  "SAR": 0.0710003,
  "ScanOptions": "FS",
  "ScanningSequence": "EP",
  "SequenceName": "epfid2d1_104",
  "SequenceVariant": "SK_SS",
  "SeriesDescription": "func_task-things_run-2",
  "SeriesNumber": 14,
  "ShimSetting": [619, -7187, -8857, 299, -22, -125, -32, -11],
  "SliceThickness": 2,
  "SliceTiming": [0, 0.7825, 0.0975, 0.8825, 0.195, 0.98, 0.2925, 1.0775, 0.3925, 1.175, 0.49, 1.2725, 0.5875, 1.3725, 0.685, 0, 0.7825, 0.0975, 0.8825, 0.195, 0.98, 0.2925, 1.0775, 0.3925, 1.175, 0.49, 1.2725, 0.5875, 1.3725, 0.685, 0, 0.7825, 0.0975, 0.8825, 0.195, 0.98, 0.2925, 1.0775, 0.3925, 1.175, 0.49, 1.2725, 0.5875, 1.3725, 0.685, 0, 0.7825, 0.0975, 0.8825, 0.195, 0.98, 0.2925, 1.0775, 0.3925, 1.175, 0.49, 1.2725, 0.5875, 1.3725, 0.685],
  "SoftwareVersions": "syngo_MR_E11",
  "SpacingBetweenSlices": 2,
  "StationName": "MRC35049",
  "TaskName": "things",
  "TotalReadoutTime": 0.0576811,
  "TxRefAmp": 319.713,
  "WipMemBlock": "2c2d50fc-02f3-41d5-abd2-2eae478c39ef||Sequence: R016 ve11c/master r/e634e98; Dec 19 2017 11:00:25 by eja",
  "dcmmeta_affine": [
    [-1.9959702491760254, -0.0833069235086441, 0.09572245180606842, 109.70802307128906],
    [-0.11879991739988327, 1.75700843334198, -0.9480547904968262, -47.043243408203125],
    [0.044602807611227036, 0.9518305063247681, 1.7584166526794434, -92.66336059570312],
    [0.0, 0.0, 0.0, 1.0]
],
  "dcmmeta_reorient_transform": [
    [0.0, -1.0, 0.0, 103.0],
    [1.0, 0.0, 0.0, 0.0],
    [0.0, 0.0, 1.0, 0.0],
    [0.0, 0.0, 0.0, 1.0]
],
  "dcmmeta_shape": [104, 104, 60, 190],
  "dcmmeta_slice_dim": 2,
  "dcmmeta_version": 0.6,
  "global": {
    "const": {
      "AcquisitionMatrix": [104, 0, 0, 104],
      "AngioFlag": "N",
      "BitsAllocated": 16,
      "BitsStored": 16,
      "BodyPartExamined": "BRAIN",
      "Columns": 832,
      "EchoNumbers": 1,
      "EchoTime": 37.0,
      "EchoTrainLength": 104,
      "FlipAngle": 52.0,
      "HighBit": 15,
      "ImageOrientationPatient": [0.99798511616862, 0.05939996014128, 0.02230140446532, -0.041653463596, 0.87850421519848, -0.4759152580544],
      "ImagePositionPatient": [-797.33685045062, -816.72286293298, 335.60607082111],
      "ImageType": [
        "ORIGINAL",
        "PRIMARY",
        "P",
        "MB",
        "ND",
        "MOSAIC"
],
      "ImagedNucleus": "1H",
      "ImagingFrequency": 123.258966,
      "InPlanePhaseEncodingDirection": "COL",
      "LargestImagePixelValue": 4095,
      "MRAcquisitionType": "2D",
      "MagneticFieldStrength": 3.0,
      "Manufacturer": "SIEMENS",
      "ManufacturerModelName": "Prisma_fit",
      "Modality": "MR",
      "NumberOfAverages": 1.0,
      "NumberOfPhaseEncodingSteps": 104,
      "PercentPhaseFieldOfView": 100.0,
      "PercentSampling": 100.0,
      "PerformedProcedureStepStartTime": "093434.575000",
      "PhotometricInterpretation": "MONOCHROME2",
      "PixelBandwidth": 2290.0,
      "PixelRepresentation": 0,
      "PixelSpacing": [2.0, 2.0],
      "ProtocolName": "func_task-things_run-2",
      "RepetitionTime": 1490.0,
      "RescaleIntercept": -4096.0,
      "RescaleSlope": 2.0,
      "RescaleType": "US",
      "Rows": 832,
      "SAR": 0.07100032499042,
      "SamplesPerPixel": 1,
      "ScanOptions": "FS",
      "ScanningSequence": "EP",
      "SequenceName": "epfid2d1_104",
      "SequenceVariant": [
        "SK",
        "SS"
],
      "SeriesDescription": "func_task-things_run-2",
      "SeriesNumber": 14,
      "SeriesTime": "112520.052000",
      "SliceLocation": -53.919849384784,
      "SliceThickness": 2.0,
      "SmallestImagePixelValue": 0,
      "SoftwareVersions": "syngo MR E11",
      "SpacingBetweenSlices": 1.9999999688815,
      "SpecificCharacterSet": "ISO_IR 100",
      "StudyID": "1",
      "StudyTime": "093434.481000",
      "TransmitCoilName": "Body",
      "VariableFlipAngleFlag": "N",
      "WindowCenterWidthExplanation": "Algo1",
      "dBdt": 0.0},
    "slices": {}
  },
  "time": {
    "samples": {
      "AcquisitionNumber": [1, 2, 3, 4, 5, 6, 7, 8, 9, 10, 11, 12, 13, 14, 15, 16, 17, 18, 19, 20, 21, 22, 23, 24, 25, 26, 27, 28, 29, 30, 31, 32, 33, 34, 35, 36, 37, 38, 39, 40, 41, 42, 43, 44, 45, 46, 47, 48, 49, 50, 51, 52, 53, 54, 55, 56, 57, 58, 59, 60, 61, 62, 63, 64, 65, 66, 67, 68, 69, 70, 71, 72, 73, 74, 75, 76, 77, 78, 79, 80, 81, 82, 83, 84, 85, 86, 87, 88, 89, 90, 91, 92, 93, 94, 95, 96, 97, 98, 99, 100, 101, 102, 103, 104, 105, 106, 107, 108, 109, 110, 111, 112, 113, 114, 115, 116, 117, 118, 119, 120, 121, 122, 123, 124, 125, 126, 127, 128, 129, 130, 131, 132, 133, 134, 135, 136, 137, 138, 139, 140, 141, 142, 143, 144, 145, 146, 147, 148, 149, 150, 151, 152, 153, 154, 155, 156, 157, 158, 159, 160, 161, 162, 163, 164, 165, 166, 167, 168, 169, 170, 171, 172, 173, 174, 175, 176, 177, 178, 179, 180, 181, 182, 183, 184, 185, 186, 187, 188, 189, 190],
      "AcquisitionTime": ["112359.920000", "112401.410000", "112402.900000", "112404.390000", "112405.880000", "112407.370000", "112408.860000", "112410.350000", "112411.840000", "112413.330000", "112414.820000", "112416.310000", "112417.800000", "112419.290000", "112420.780000", "112422.270000", "112423.760000", "112425.250000", "112426.740000", "112428.230000", "112429.720000", "112431.210000", "112432.700000", "112434.190000", "112435.680000", "112437.170000", "112438.660000", "112440.150000", "112441.640000", "112443.130000", "112444.620000", "112446.110000", "112447.600000", "112449.090000", "112450.580000", "112452.070000", "112453.560000", "112455.050000", "112456.540000", "112458.030000", "112459.520000", "112501.010000", "112502.500000", "112503.990000", "112505.480000", "112506.970000", "112508.460000", "112509.950000", "112511.440000", "112512.930000", "112514.420000", "112515.910000", "112517.400000", "112518.890000", "112520.380000", "112521.870000", "112523.360000", "112524.850000", "112526.340000", "112527.830000", "112529.320000", "112530.810000", "112532.300000", "112533.790000", "112535.280000", "112536.770000", "112538.260000", "112539.750000", "112541.240000", "112542.730000", "112544.220000", "112545.710000", "112547.200000", "112548.690000", "112550.180000", "112551.670000", "112553.160000", "112554.650000", "112556.140000", "112557.630000", "112559.120000", "112600.610000", "112602.100000", "112603.590000", "112605.080000", "112606.570000", "112608.060000", "112609.550000", "112611.040000", "112612.530000", "112614.020000", "112615.510000", "112617.000000", "112618.490000", "112619.980000", "112621.470000", "112622.960000", "112624.450000", "112625.940000", "112627.430000", "112628.920000", "112630.410000", "112631.900000", "112633.390000", "112634.880000", "112636.370000", "112637.860000", "112639.350000", "112640.840000", "112642.330000", "112643.820000", "112645.310000", "112646.800000", "112648.290000", "112649.780000", "112651.270000", "112652.760000", "112654.250000", "112655.740000", "112657.230000", "112658.720000", "112700.210000", "112701.700000", "112703.190000", "112704.680000", "112706.170000", "112707.660000", "112709.150000", "112710.640000", "112712.130000", "112713.620000", "112715.110000", "112716.600000", "112718.090000", "112719.580000", "112721.070000", "112722.560000", "112724.050000", "112725.540000", "112727.030000", "112728.520000", "112730.010000", "112731.500000", "112732.990000", "112734.480000", "112735.970000", "112737.460000", "112738.950000", "112740.440000", "112741.930000", "112743.420000", "112744.910000", "112746.400000", "112747.890000", "112749.380000", "112750.870000", "112752.360000", "112753.850000", "112755.340000", "112756.830000", "112758.320000", "112759.810000", "112801.300000", "112802.790000", "112804.280000", "112805.770000", "112807.260000", "112808.750000", "112810.240000", "112811.730000", "112813.220000", "112814.710000", "112816.200000", "112817.690000", "112819.180000", "112820.670000", "112822.160000", "112823.650000", "112825.140000", "112826.630000", "112828.120000", "112829.610000", "112831.100000", "112832.590000", "112834.080000", "112835.570000", "112837.060000", "112838.550000", "112840.040000", "112841.530000"],
      "ContentTime": ["112520.054000", "112520.057000", "112520.066000", "112520.069000", "112520.071000", "112520.074000", "112520.076000", "112520.078000", "112520.081000", "112520.083000", "112520.086000", "112520.088000", "112520.091000", "112520.093000", "112520.096000", "112520.098000", "112520.101000", "112520.119000", "112520.121000", "112520.124000", "112520.126000", "112520.129000", "112520.131000", "112520.133000", "112520.136000", "112520.138000", "112540.013000", "112540.015000", "112540.018000", "112540.028000", "112540.030000", "112540.033000", "112540.035000", "112540.038000", "112540.040000", "112540.043000", "112540.045000", "112540.048000", "112540.050000", "112540.053000", "112540.055000", "112540.058000", "112540.060000", "112540.063000", "112540.065000", "112540.068000", "112600.012000", "112600.014000", "112600.017000", "112600.020000", "112600.022000", "112600.025000", "112600.027000", "112600.030000", "112600.033000", "112600.036000", "112600.039000", "112600.042000", "112600.044000", "112600.047000", "112600.050000", "112600.052000", "112600.055000", "112600.057000", "112600.060000", "112600.072000", "112620.011000", "112620.024000", "112620.026000", "112620.029000", "112620.031000", "112620.034000", "112620.036000", "112620.039000", "112620.041000", "112620.044000", "112620.046000", "112620.049000", "112620.051000", "112620.054000", "112620.056000", "112620.058000", "112620.061000", "112620.063000", "112620.066000", "112620.068000", "112640.010000", "112640.012000", "112640.015000", "112640.017000", "112640.020000", "112640.033000", "112640.036000", "112640.038000", "112640.041000", "112640.043000", "112640.046000", "112640.048000", "112640.051000", "112640.053000", "112640.056000", "112640.058000", "112640.060000", "112640.063000", "112640.065000", "112640.068000", "112720.445000", "112720.448000", "112720.451000", "112720.453000", "112720.456000", "112720.468000", "112720.471000", "112720.473000", "112720.476000", "112720.478000", "112720.481000", "112720.483000", "112720.486000", "112720.488000", "112720.490000", "112720.493000", "112720.495000", "112720.498000", "112720.500000", "112720.503000", "112720.505000", "112720.508000", "112720.510000", "112720.513000", "112720.515000", "112720.517000", "112720.520000", "112800.037000", "112800.040000", "112800.043000", "112800.045000", "112800.047000", "112800.050000", "112800.052000", "112800.055000", "112800.057000", "112800.060000", "112800.062000", "112800.065000", "112800.067000", "112800.070000", "112800.072000", "112800.075000", "112800.077000", "112800.080000", "112800.082000", "112800.085000", "112800.087000", "112800.090000", "112800.092000", "112800.095000", "112800.097000", "112800.099000", "112800.102000", "112840.034000", "112840.036000", "112840.039000", "112840.041000", "112840.044000", "112840.046000", "112840.049000", "112840.051000", "112840.054000", "112840.056000", "112840.059000", "112840.061000", "112840.064000", "112840.066000", "112840.069000", "112840.071000", "112840.074000", "112840.076000", "112840.079000", "112840.081000", "112840.084000", "112840.086000", "112840.088000", "112840.091000", "112840.093000", "112840.096000", "112840.098000", "112843.691000", "112843.694000", "112843.697000"],
      "InstanceCreationTime": ["112520.054000", "112520.057000", "112520.066000", "112520.069000", "112520.071000", "112520.074000", "112520.076000", "112520.078000", "112520.081000", "112520.083000", "112520.086000", "112520.088000", "112520.091000", "112520.093000", "112520.096000", "112520.098000", "112520.101000", "112520.119000", "112520.121000", "112520.124000", "112520.126000", "112520.129000", "112520.131000", "112520.133000", "112520.136000", "112520.138000", "112540.013000", "112540.015000", "112540.018000", "112540.028000", "112540.030000", "112540.033000", "112540.035000", "112540.038000", "112540.040000", "112540.043000", "112540.045000", "112540.048000", "112540.050000", "112540.053000", "112540.055000", "112540.058000", "112540.060000", "112540.063000", "112540.065000", "112540.068000", "112600.012000", "112600.014000", "112600.017000", "112600.020000", "112600.022000", "112600.025000", "112600.027000", "112600.030000", "112600.033000", "112600.036000", "112600.039000", "112600.042000", "112600.044000", "112600.047000", "112600.050000", "112600.052000", "112600.055000", "112600.057000", "112600.060000", "112600.072000", "112620.011000", "112620.024000", "112620.026000", "112620.029000", "112620.031000", "112620.034000", "112620.036000", "112620.039000", "112620.041000", "112620.044000", "112620.046000", "112620.049000", "112620.051000", "112620.054000", "112620.056000", "112620.058000", "112620.061000", "112620.063000", "112620.066000", "112620.068000", "112640.010000", "112640.012000", "112640.015000", "112640.017000", "112640.020000", "112640.033000", "112640.036000", "112640.038000", "112640.041000", "112640.043000", "112640.046000", "112640.048000", "112640.051000", "112640.053000", "112640.056000", "112640.058000", "112640.060000", "112640.063000", "112640.065000", "112640.068000", "112720.445000", "112720.448000", "112720.451000", "112720.453000", "112720.456000", "112720.468000", "112720.471000", "112720.473000", "112720.476000", "112720.478000", "112720.481000", "112720.483000", "112720.486000", "112720.488000", "112720.490000", "112720.493000", "112720.495000", "112720.498000", "112720.500000", "112720.503000", "112720.505000", "112720.508000", "112720.510000", "112720.513000", "112720.515000", "112720.517000", "112720.520000", "112800.037000", "112800.040000", "112800.043000", "112800.045000", "112800.047000", "112800.050000", "112800.052000", "112800.055000", "112800.057000", "112800.060000", "112800.062000", "112800.065000", "112800.067000", "112800.070000", "112800.072000", "112800.075000", "112800.077000", "112800.080000", "112800.082000", "112800.085000", "112800.087000", "112800.090000", "112800.092000", "112800.095000", "112800.097000", "112800.099000", "112800.102000", "112840.034000", "112840.036000", "112840.039000", "112840.041000", "112840.044000", "112840.046000", "112840.049000", "112840.051000", "112840.054000", "112840.056000", "112840.059000", "112840.061000", "112840.064000", "112840.066000", "112840.069000", "112840.071000", "112840.074000", "112840.076000", "112840.079000", "112840.081000", "112840.084000", "112840.086000", "112840.088000", "112840.091000", "112840.093000", "112840.096000", "112840.098000", "112843.691000", "112843.694000", "112843.697000"],
      "InstanceNumber": [1, 2, 3, 4, 5, 6, 7, 8, 9, 10, 11, 12, 13, 14, 15, 16, 17, 18, 19, 20, 21, 22, 23, 24, 25, 26, 27, 28, 29, 30, 31, 32, 33, 34, 35, 36, 37, 38, 39, 40, 41, 42, 43, 44, 45, 46, 47, 48, 49, 50, 51, 52, 53, 54, 55, 56, 57, 58, 59, 60, 61, 62, 63, 64, 65, 66, 67, 68, 69, 70, 71, 72, 73, 74, 75, 76, 77, 78, 79, 80, 81, 82, 83, 84, 85, 86, 87, 88, 89, 90, 91, 92, 93, 94, 95, 96, 97, 98, 99, 100, 101, 102, 103, 104, 105, 106, 107, 108, 109, 110, 111, 112, 113, 114, 115, 116, 117, 118, 119, 120, 121, 122, 123, 124, 125, 126, 127, 128, 129, 130, 131, 132, 133, 134, 135, 136, 137, 138, 139, 140, 141, 142, 143, 144, 145, 146, 147, 148, 149, 150, 151, 152, 153, 154, 155, 156, 157, 158, 159, 160, 161, 162, 163, 164, 165, 166, 167, 168, 169, 170, 171, 172, 173, 174, 175, 176, 177, 178, 179, 180, 181, 182, 183, 184, 185, 186, 187, 188, 189, 190],
      "WindowCenter": [4786.0, 4784.0, 4788.0, 4788.0, 4786.0, 4792.0, 4782.0, 4790.0, 4790.0, 4762.0, 4786.0, 4790.0, 4788.0, 4766.0, 4784.0, 4788.0, 4786.0, 4784.0, 4786.0, 4780.0, 4784.0, 4788.0, 4790.0, 4792.0, 4788.0, 4794.0, 4790.0, 4784.0, 4788.0, 4786.0, 4782.0, 4788.0, 4786.0, 4786.0, 4784.0, 4786.0, 4786.0, 4774.0, 4782.0, 4788.0, 4790.0, 4784.0, 4788.0, 4784.0, 4782.0, 4782.0, 4784.0, 4788.0, 4780.0, 4790.0, 4786.0, 4784.0, 4784.0, 4782.0, 4784.0, 4784.0, 4782.0, 4788.0, 4784.0, 4784.0, 4784.0, 4786.0, 4786.0, 4790.0, 4788.0, 4786.0, 4788.0, 4786.0, 4786.0, 4784.0, 4786.0, 4784.0, 4788.0, 4788.0, 4786.0, 4784.0, 4786.0, 4810.0, 4786.0, 4798.0, 4794.0, 4784.0, 4790.0, 4784.0, 4784.0, 4784.0, 4784.0, 4786.0, 4784.0, 4784.0, 4784.0, 4792.0, 4788.0, 4786.0, 4786.0, 4786.0, 4784.0, 4788.0, 4788.0, 4782.0, 4796.0, 4794.0, 4782.0, 4788.0, 4820.0, 4818.0, 4788.0, 4782.0, 4788.0, 4788.0, 4788.0, 4788.0, 4790.0, 4786.0, 4810.0, 4784.0, 4786.0, 4784.0, 4788.0, 4786.0, 4792.0, 4794.0, 4786.0, 4786.0, 4786.0, 4784.0, 4782.0, 4788.0, 4788.0, 4784.0, 4790.0, 4790.0, 4786.0, 4790.0, 4786.0, 4786.0, 4790.0, 4782.0, 4784.0, 4808.0, 4788.0, 4784.0, 4790.0, 4786.0, 4786.0, 4790.0, 4786.0, 4788.0, 4784.0, 4780.0, 4788.0, 4804.0, 4770.0, 4786.0, 4850.0, 4788.0, 4814.0, 4784.0, 4784.0, 4790.0, 4772.0, 4792.0, 4786.0, 4786.0, 4812.0, 4788.0, 4790.0, 4782.0, 4792.0, 4788.0, 4782.0, 4788.0, 4786.0, 4782.0, 4782.0, 4782.0, 4786.0, 4790.0, 4790.0, 4780.0, 4788.0, 4786.0, 4786.0, 4782.0, 4784.0, 4784.0, 4782.0, 4788.0, 4784.0, 4786.0],
      "WindowWidth": [18612.0, 18608.0, 18616.0, 18618.0, 18614.0, 18626.0, 18610.0, 18626.0, 18628.0, 18586.0, 18612.0, 18610.0, 18616.0, 18588.0, 18608.0, 18610.0, 18618.0, 18616.0, 18616.0, 18610.0, 18610.0, 18610.0, 18624.0, 18632.0, 18622.0, 18632.0, 18628.0, 18612.0, 18616.0, 18618.0, 18612.0, 18612.0, 18608.0, 18608.0, 18608.0, 18610.0, 18618.0, 18608.0, 18612.0, 18626.0, 18624.0, 18616.0, 18614.0, 18612.0, 18610.0, 18606.0, 18612.0, 18626.0, 18614.0, 18626.0, 18624.0, 18618.0, 18620.0, 18610.0, 18612.0, 18616.0, 18614.0, 18616.0, 18616.0, 18620.0, 18614.0, 18616.0, 18614.0, 18626.0, 18628.0, 18622.0, 18624.0, 18618.0, 18618.0, 18608.0, 18614.0, 18614.0, 18612.0, 18626.0, 18622.0, 18620.0, 18616.0, 18648.0, 18616.0, 18636.0, 18634.0, 18618.0, 18626.0, 18608.0, 18606.0, 18606.0, 18610.0, 18612.0, 18612.0, 18620.0, 18620.0, 18634.0, 18630.0, 18630.0, 18618.0, 18620.0, 18612.0, 18622.0, 18626.0, 18616.0, 18634.0, 18634.0, 18618.0, 18610.0, 18650.0, 18652.0, 18628.0, 18612.0, 18626.0, 18626.0, 18630.0, 18624.0, 18628.0, 18622.0, 18648.0, 18618.0, 18616.0, 18618.0, 18630.0, 18618.0, 18632.0, 18632.0, 18618.0, 18618.0, 18612.0, 18616.0, 18612.0, 18614.0, 18618.0, 18612.0, 18624.0, 18630.0, 18620.0, 18634.0, 18630.0, 18624.0, 18624.0, 18616.0, 18620.0, 18648.0, 18622.0, 18612.0, 18630.0, 18622.0, 18622.0, 18632.0, 18618.0, 18618.0, 18620.0, 18610.0, 18620.0, 18634.0, 18598.0, 18614.0, 18690.0, 18608.0, 18646.0, 18618.0, 18620.0, 18630.0, 18608.0, 18634.0, 18624.0, 18616.0, 18646.0, 18624.0, 18630.0, 18618.0, 18632.0, 18630.0, 18612.0, 18620.0, 18610.0, 18610.0, 18610.0, 18610.0, 18622.0, 18620.0, 18630.0, 18622.0, 18626.0, 18622.0, 18620.0, 18616.0, 18616.0, 18616.0, 18614.0, 18624.0, 18616.0, 18614.0]
    },
    "slices": {}
  }
}