{
  "AcquisitionMatrixPE": 104,
  "AcquisitionNumber": 1,
  "AcquisitionTime": "11:30:33.142500",
  "BandwidthPerPixelPhaseEncode": 17.17,
  "BaseResolution": 104,
  "BodyPartExamined": "BRAIN",
  "CoilString": "HC1-7;NC1_2",
  "ConsistencyInfo": "N4_VE11C_LATEST_20160120",
  "ConversionSoftware": "dcm2niix",
  "ConversionSoftwareVersion": "v1.0.20190902",
  "DerivedVendorReportedEchoSpacing": 0.000560011,
  "DeviceSerialNumber": "167006",
  "DwellTime": 2.1e-06,
  "EchoTime": 0.037,
  "EchoTrainLength": 104,
  "EffectiveEchoSpacing": 0.000560011,
  "FlipAngle": 52,
  "ImageComments": "Unaliased_MB4_PE3_LB",
  "ImageOrientationPatientDICOM": [0.997985, 0.0594, 0.0223014, -0.0416535, 0.878504, -0.475915],
  "ImageType": [
    "ORIGINAL",
    "PRIMARY",
    "M",
    "MB",
    "ND",
    "MOSAIC"
],
  "ImagingFrequency": 123.259,
  "InPlanePhaseEncodingDirectionDICOM": "COL",
  "InstitutionAddress": "Chemin_Queen-Mary_4565_Montreal_District_CA_H3W_1W5",
  "InstitutionName": "IUGM",
  "InstitutionalDepartmentName": "Department",
  "MRAcquisitionType": "2D",
  "MagneticFieldStrength": 3,
  "Manufacturer": "Siemens",
  "ManufacturersModelName": "Prisma_fit",
  "Modality": "MR",
  "MultibandAccelerationFactor": 4,
  "PartialFourier": 1,
  "PatientPosition": "HFS",
  "PercentPhaseFOV": 100,
  "PhaseEncodingDirection": "j",
  "PhaseEncodingSteps": 104,
  "PhaseResolution": 1,
  "PixelBandwidth": 2290,
  "ProcedureStepDescription": "memory_things",
  "ProtocolName": "func_task-things_run-3",
  "PulseSequenceDetails": "%CustomerSeq%_cmrr_mbep2d_bold",
  "ReceiveCoilActiveElements": "HC1-7;NC1,2",
  "ReceiveCoilName": "HeadNeck_64",
  "ReconMatrixPE": 104,
  "RepetitionTime": 1.49,
  "SAR": 0.0710003,
  "ScanOptions": "FS",
  "ScanningSequence": "EP",
  "SequenceName": "epfid2d1_104",
  "SequenceVariant": "SK_SS",
  "SeriesDescription": "func_task-things_run-3",
  "SeriesNumber": 16,
  "ShimSetting": [619, -7187, -8857, 299, -22, -125, -32, -11],
  "SliceThickness": 2,
  "SliceTiming": [0, 0.785, 0.1, 0.8825, 0.1975, 0.98, 0.295, 1.08, 0.3925, 1.1775, 0.49, 1.275, 0.59, 1.3725, 0.6875, 0, 0.785, 0.1, 0.8825, 0.1975, 0.98, 0.295, 1.08, 0.3925, 1.1775, 0.49, 1.275, 0.59, 1.3725, 0.6875, 0, 0.785, 0.1, 0.8825, 0.1975, 0.98, 0.295, 1.08, 0.3925, 1.1775, 0.49, 1.275, 0.59, 1.3725, 0.6875, 0, 0.785, 0.1, 0.8825, 0.1975, 0.98, 0.295, 1.08, 0.3925, 1.1775, 0.49, 1.275, 0.59, 1.3725, 0.6875],
  "SoftwareVersions": "syngo_MR_E11",
  "SpacingBetweenSlices": 2,
  "StationName": "MRC35049",
  "TaskName": "things",
  "TotalReadoutTime": 0.0576811,
  "TxRefAmp": 319.713,
  "WipMemBlock": "c3f62f38-1aa6-4985-9346-f49749e05bcb||Sequence: R016 ve11c/master r/e634e98; Dec 19 2017 11:00:25 by eja",
  "dcmmeta_affine": [
    [-1.9959702491760254, -0.0833069235086441, 0.09572245180606842, 109.70802307128906],
    [-0.11879991739988327, 1.75700843334198, -0.9480547904968262, -47.043243408203125],
    [0.044602807611227036, 0.9518305063247681, 1.7584166526794434, -92.66336059570312],
    [0.0, 0.0, 0.0, 1.0]
],
  "dcmmeta_reorient_transform": [
    [0.0, -1.0, 0.0, 103.0],
    [1.0, 0.0, 0.0, 0.0],
    [0.0, 0.0, 1.0, 0.0],
    [0.0, 0.0, 0.0, 1.0]
],
  "dcmmeta_shape": [104, 104, 60, 190],
  "dcmmeta_slice_dim": 2,
  "dcmmeta_version": 0.6,
  "global": {
    "const": {
      "AcquisitionMatrix": [104, 0, 0, 104],
      "AngioFlag": "N",
      "BitsAllocated": 16,
      "BitsStored": 16,
      "BodyPartExamined": "BRAIN",
      "Columns": 832,
      "EchoNumbers": 1,
      "EchoTime": 37.0,
      "EchoTrainLength": 104,
      "FlipAngle": 52.0,
      "HighBit": 15,
      "ImageOrientationPatient": [0.99798511616862, 0.05939996014128, 0.02230140446532, -0.041653463596, 0.87850421519848, -0.4759152580544],
      "ImagePositionPatient": [-797.33685045062, -816.72286293298, 335.60607082111],
      "ImageType": [
        "ORIGINAL",
        "PRIMARY",
        "M",
        "MB",
        "ND",
        "MOSAIC"
],
      "ImagedNucleus": "1H",
      "ImagingFrequency": 123.258968,
      "InPlanePhaseEncodingDirection": "COL",
      "MRAcquisitionType": "2D",
      "MagneticFieldStrength": 3.0,
      "Manufacturer": "SIEMENS",
      "ManufacturerModelName": "Prisma_fit",
      "Modality": "MR",
      "NumberOfAverages": 1.0,
      "NumberOfPhaseEncodingSteps": 104,
      "PercentPhaseFieldOfView": 100.0,
      "PercentSampling": 100.0,
      "PerformedProcedureStepStartTime": "093434.575000",
      "PhotometricInterpretation": "MONOCHROME2",
      "PixelBandwidth": 2290.0,
      "PixelRepresentation": 0,
      "PixelSpacing": [2.0, 2.0],
      "ProtocolName": "func_task-things_run-3",
      "RepetitionTime": 1490.0,
      "Rows": 832,
      "SAR": 0.07100032499042,
      "SamplesPerPixel": 1,
      "ScanOptions": "FS",
      "ScanningSequence": "EP",
      "SequenceName": "epfid2d1_104",
      "SequenceVariant": [
        "SK",
        "SS"
],
      "SeriesDescription": "func_task-things_run-3",
      "SeriesNumber": 16,
      "SeriesTime": "113159.840000",
      "SliceLocation": -53.919849384784,
      "SliceThickness": 2.0,
      "SmallestImagePixelValue": 0,
      "SoftwareVersions": "syngo MR E11",
      "SpacingBetweenSlices": 1.9999999688815,
      "SpecificCharacterSet": "ISO_IR 100",
      "StudyID": "1",
      "StudyTime": "093434.481000",
      "TransmitCoilName": "Body",
      "VariableFlipAngleFlag": "N",
      "WindowCenterWidthExplanation": "Algo1",
      "dBdt": 0.0},
    "slices": {}
  },
  "time": {
    "samples": {
      "AcquisitionNumber": [1, 2, 3, 4, 5, 6, 7, 8, 9, 10, 11, 12, 13, 14, 15, 16, 17, 18, 19, 20, 21, 22, 23, 24, 25, 26, 27, 28, 29, 30, 31, 32, 33, 34, 35, 36, 37, 38, 39, 40, 41, 42, 43, 44, 45, 46, 47, 48, 49, 50, 51, 52, 53, 54, 55, 56, 57, 58, 59, 60, 61, 62, 63, 64, 65, 66, 67, 68, 69, 70, 71, 72, 73, 74, 75, 76, 77, 78, 79, 80, 81, 82, 83, 84, 85, 86, 87, 88, 89, 90, 91, 92, 93, 94, 95, 96, 97, 98, 99, 100, 101, 102, 103, 104, 105, 106, 107, 108, 109, 110, 111, 112, 113, 114, 115, 116, 117, 118, 119, 120, 121, 122, 123, 124, 125, 126, 127, 128, 129, 130, 131, 132, 133, 134, 135, 136, 137, 138, 139, 140, 141, 142, 143, 144, 145, 146, 147, 148, 149, 150, 151, 152, 153, 154, 155, 156, 157, 158, 159, 160, 161, 162, 163, 164, 165, 166, 167, 168, 169, 170, 171, 172, 173, 174, 175, 176, 177, 178, 179, 180, 181, 182, 183, 184, 185, 186, 187, 188, 189, 190],
      "AcquisitionTime": ["113033.142500", "113034.632500", "113036.122500", "113037.612500", "113039.102500", "113040.592500", "113042.082500", "113043.572500", "113045.062500", "113046.552500", "113048.042500", "113049.532500", "113051.022500", "113052.512500", "113054.002500", "113055.492500", "113056.982500", "113058.472500", "113059.962500", "113101.452500", "113102.942500", "113104.432500", "113105.922500", "113107.412500", "113108.902500", "113110.392500", "113111.882500", "113113.372500", "113114.862500", "113116.352500", "113117.842500", "113119.332500", "113120.822500", "113122.312500", "113123.802500", "113125.292500", "113126.782500", "113128.272500", "113129.762500", "113131.252500", "113132.742500", "113134.232500", "113135.722500", "113137.212500", "113138.702500", "113140.192500", "113141.682500", "113143.172500", "113144.662500", "113146.152500", "113147.642500", "113149.132500", "113150.622500", "113152.112500", "113153.602500", "113155.092500", "113156.582500", "113158.072500", "113159.562500", "113201.052500", "113202.542500", "113204.032500", "113205.522500", "113207.012500", "113208.502500", "113209.992500", "113211.482500", "113212.972500", "113214.462500", "113215.952500", "113217.442500", "113218.932500", "113220.422500", "113221.912500", "113223.402500", "113224.892500", "113226.382500", "113227.872500", "113229.362500", "113230.852500", "113232.342500", "113233.832500", "113235.322500", "113236.812500", "113238.302500", "113239.792500", "113241.282500", "113242.772500", "113244.262500", "113245.752500", "113247.242500", "113248.732500", "113250.222500", "113251.712500", "113253.202500", "113254.692500", "113256.182500", "113257.672500", "113259.162500", "113300.652500", "113302.142500", "113303.632500", "113305.122500", "113306.612500", "113308.102500", "113309.592500", "113311.082500", "113312.572500", "113314.062500", "113315.552500", "113317.042500", "113318.532500", "113320.022500", "113321.512500", "113323.002500", "113324.492500", "113325.982500", "113327.472500", "113328.962500", "113330.452500", "113331.942500", "113333.432500", "113334.922500", "113336.412500", "113337.902500", "113339.392500", "113340.882500", "113342.372500", "113343.862500", "113345.352500", "113346.842500", "113348.332500", "113349.822500", "113351.312500", "113352.802500", "113354.292500", "113355.782500", "113357.272500", "113358.762500", "113400.252500", "113401.742500", "113403.232500", "113404.722500", "113406.212500", "113407.702500", "113409.192500", "113410.682500", "113412.172500", "113413.662500", "113415.152500", "113416.642500", "113418.132500", "113419.622500", "113421.112500", "113422.602500", "113424.092500", "113425.582500", "113427.072500", "113428.562500", "113430.052500", "113431.542500", "113433.032500", "113434.522500", "113436.012500", "113437.502500", "113438.992500", "113440.482500", "113441.972500", "113443.462500", "113444.952500", "113446.442500", "113447.932500", "113449.422500", "113450.912500", "113452.402500", "113453.892500", "113455.382500", "113456.872500", "113458.362500", "113459.852500", "113501.342500", "113502.832500", "113504.322500", "113505.812500", "113507.302500", "113508.792500", "113510.282500", "113511.772500", "113513.262500", "113514.752500"],
      "ContentTime": ["113159.844000", "113159.859000", "113159.862000", "113159.865000", "113159.869000", "113159.872000", "113159.883000", "113159.887000", "113159.890000", "113159.893000", "113159.897000", "113159.900000", "113159.903000", "113159.906000", "113159.910000", "113159.913000", "113159.916000", "113159.920000", "113159.923000", "113159.926000", "113159.929000", "113159.933000", "113159.936000", "113159.939000", "113159.943000", "113159.946000", "113159.949000", "113159.952000", "113159.956000", "113159.959000", "113159.962000", "113159.966000", "113159.969000", "113219.812000", "113219.816000", "113219.819000", "113219.822000", "113219.825000", "113219.829000", "113219.832000", "113219.835000", "113219.839000", "113219.842000", "113219.845000", "113219.848000", "113219.852000", "113219.855000", "113219.858000", "113219.862000", "113219.865000", "113219.868000", "113219.871000", "113219.875000", "113239.812000", "113239.816000", "113239.819000", "113239.822000", "113239.825000", "113239.829000", "113239.832000", "113239.835000", "113239.839000", "113239.842000", "113239.845000", "113239.849000", "113239.853000", "113239.856000", "113239.859000", "113239.862000", "113239.866000", "113239.869000", "113239.872000", "113239.875000", "113259.812000", "113259.852000", "113259.855000", "113259.859000", "113259.862000", "113259.865000", "113259.869000", "113259.872000", "113259.875000", "113259.879000", "113259.882000", "113259.886000", "113259.889000", "113259.893000", "113259.896000", "113259.900000", "113259.904000", "113259.907000", "113259.911000", "113259.914000", "113339.812000", "113339.816000", "113339.819000", "113339.822000", "113339.826000", "113339.829000", "113339.832000", "113339.835000", "113339.839000", "113339.842000", "113339.845000", "113339.868000", "113339.871000", "113339.874000", "113339.878000", "113339.882000", "113339.885000", "113339.889000", "113339.892000", "113339.895000", "113339.899000", "113339.902000", "113339.905000", "113339.909000", "113339.912000", "113339.915000", "113339.918000", "113339.922000", "113339.925000", "113339.928000", "113339.931000", "113419.812000", "113419.816000", "113419.819000", "113419.822000", "113419.826000", "113419.829000", "113419.832000", "113419.835000", "113419.839000", "113419.842000", "113419.845000", "113419.849000", "113419.852000", "113419.855000", "113419.859000", "113419.862000", "113419.865000", "113419.868000", "113419.872000", "113419.875000", "113419.878000", "113419.897000", "113419.900000", "113419.903000", "113419.906000", "113419.910000", "113419.913000", "113459.812000", "113459.816000", "113459.819000", "113459.822000", "113459.826000", "113459.829000", "113459.832000", "113459.836000", "113459.839000", "113459.842000", "113459.846000", "113459.849000", "113459.852000", "113459.856000", "113459.859000", "113459.862000", "113459.865000", "113459.869000", "113459.872000", "113459.875000", "113459.879000", "113459.882000", "113459.885000", "113459.888000", "113459.892000", "113459.895000", "113459.898000", "113516.933000", "113516.936000", "113516.940000", "113516.943000", "113516.946000", "113516.950000", "113516.953000", "113516.956000", "113516.960000", "113516.963000", "113516.966000", "113516.970000"],
      "InstanceCreationTime": ["113159.844000", "113159.859000", "113159.862000", "113159.865000", "113159.869000", "113159.872000", "113159.883000", "113159.887000", "113159.890000", "113159.893000", "113159.897000", "113159.900000", "113159.903000", "113159.906000", "113159.910000", "113159.913000", "113159.916000", "113159.920000", "113159.923000", "113159.926000", "113159.929000", "113159.933000", "113159.936000", "113159.939000", "113159.943000", "113159.946000", "113159.949000", "113159.952000", "113159.956000", "113159.959000", "113159.962000", "113159.966000", "113159.969000", "113219.812000", "113219.816000", "113219.819000", "113219.822000", "113219.825000", "113219.829000", "113219.832000", "113219.835000", "113219.839000", "113219.842000", "113219.845000", "113219.848000", "113219.852000", "113219.855000", "113219.858000", "113219.862000", "113219.865000", "113219.868000", "113219.871000", "113219.875000", "113239.812000", "113239.816000", "113239.819000", "113239.822000", "113239.825000", "113239.829000", "113239.832000", "113239.835000", "113239.839000", "113239.842000", "113239.845000", "113239.849000", "113239.853000", "113239.856000", "113239.859000", "113239.862000", "113239.866000", "113239.869000", "113239.872000", "113239.875000", "113259.812000", "113259.852000", "113259.855000", "113259.859000", "113259.862000", "113259.865000", "113259.869000", "113259.872000", "113259.875000", "113259.879000", "113259.882000", "113259.886000", "113259.889000", "113259.893000", "113259.896000", "113259.900000", "113259.904000", "113259.907000", "113259.911000", "113259.914000", "113339.812000", "113339.816000", "113339.819000", "113339.822000", "113339.826000", "113339.829000", "113339.832000", "113339.835000", "113339.839000", "113339.842000", "113339.845000", "113339.868000", "113339.871000", "113339.874000", "113339.878000", "113339.882000", "113339.885000", "113339.889000", "113339.892000", "113339.895000", "113339.899000", "113339.902000", "113339.905000", "113339.909000", "113339.912000", "113339.915000", "113339.918000", "113339.922000", "113339.925000", "113339.928000", "113339.931000", "113419.812000", "113419.816000", "113419.819000", "113419.822000", "113419.826000", "113419.829000", "113419.832000", "113419.835000", "113419.839000", "113419.842000", "113419.845000", "113419.849000", "113419.852000", "113419.855000", "113419.859000", "113419.862000", "113419.865000", "113419.868000", "113419.872000", "113419.875000", "113419.878000", "113419.897000", "113419.900000", "113419.903000", "113419.906000", "113419.910000", "113419.913000", "113459.812000", "113459.816000", "113459.819000", "113459.822000", "113459.826000", "113459.829000", "113459.832000", "113459.836000", "113459.839000", "113459.842000", "113459.846000", "113459.849000", "113459.852000", "113459.856000", "113459.859000", "113459.862000", "113459.865000", "113459.869000", "113459.872000", "113459.875000", "113459.879000", "113459.882000", "113459.885000", "113459.888000", "113459.892000", "113459.895000", "113459.898000", "113516.933000", "113516.936000", "113516.940000", "113516.943000", "113516.946000", "113516.950000", "113516.953000", "113516.956000", "113516.960000", "113516.963000", "113516.966000", "113516.970000"],
      "InstanceNumber": [1, 2, 3, 4, 5, 6, 7, 8, 9, 10, 11, 12, 13, 14, 15, 16, 17, 18, 19, 20, 21, 22, 23, 24, 25, 26, 27, 28, 29, 30, 31, 32, 33, 34, 35, 36, 37, 38, 39, 40, 41, 42, 43, 44, 45, 46, 47, 48, 49, 50, 51, 52, 53, 54, 55, 56, 57, 58, 59, 60, 61, 62, 63, 64, 65, 66, 67, 68, 69, 70, 71, 72, 73, 74, 75, 76, 77, 78, 79, 80, 81, 82, 83, 84, 85, 86, 87, 88, 89, 90, 91, 92, 93, 94, 95, 96, 97, 98, 99, 100, 101, 102, 103, 104, 105, 106, 107, 108, 109, 110, 111, 112, 113, 114, 115, 116, 117, 118, 119, 120, 121, 122, 123, 124, 125, 126, 127, 128, 129, 130, 131, 132, 133, 134, 135, 136, 137, 138, 139, 140, 141, 142, 143, 144, 145, 146, 147, 148, 149, 150, 151, 152, 153, 154, 155, 156, 157, 158, 159, 160, 161, 162, 163, 164, 165, 166, 167, 168, 169, 170, 171, 172, 173, 174, 175, 176, 177, 178, 179, 180, 181, 182, 183, 184, 185, 186, 187, 188, 189, 190],
      "LargestImagePixelValue": [42919, 42701, 40945, 41016, 40229, 40676, 40884, 40282, 40591, 40519, 40676, 40217, 39780, 40416, 39797, 40593, 40345, 40560, 40597, 41113, 40784, 39816, 40646, 39871, 42404, 40245, 40724, 40464, 39510, 40496, 39861, 39340, 40132, 39595, 39627, 39768, 39740, 40125, 40047, 39974, 40339, 39936, 40007, 39832, 40460, 40708, 40438, 40471, 39874, 40140, 40703, 40055, 40486, 40465, 40669, 40434, 40793, 40205, 40318, 39937, 39998, 40165, 40292, 40203, 40020, 40340, 40360, 40313, 40914, 40664, 40006, 40253, 40097, 39624, 39816, 39641, 39815, 40139, 40272, 40270, 40044, 40530, 39648, 40093, 39148, 39893, 39976, 39439, 39411, 39947, 40843, 40448, 40561, 40685, 40024, 39948, 39412, 39097, 39093, 39409, 39773, 39817, 39889, 40578, 39790, 40060, 40116, 39640, 39538, 39610, 39734, 39462, 39897, 39878, 39976, 40227, 40043, 41662, 39819, 39920, 40431, 40448, 40878, 39894, 39865, 40152, 39955, 39644, 39416, 39405, 39940, 40025, 40281, 40298, 40418, 40048, 39751, 40464, 40273, 40465, 40274, 40276, 39730, 39779, 40345, 39405, 40357, 40399, 40065, 40095, 39733, 39141, 39190, 40041, 40401, 39136, 41918, 39695, 39685, 40177, 40201, 40632, 39709, 40750, 40270, 39870, 40516, 39689, 39740, 39246, 39603, 40462, 40595, 40949, 39982, 40297, 40593, 39991, 39428, 39754, 39679, 39703, 39964, 40204, 40068, 40538, 40511, 40112, 40211, 39998],
      "WindowCenter": [10770.0, 10718.0, 10693.0, 10694.0, 10687.0, 10691.0, 10689.0, 10674.0, 10671.0, 10662.0, 10635.0, 10631.0, 10654.0, 10673.0, 10670.0, 10672.0, 10652.0, 10614.0, 10629.0, 10639.0, 10638.0, 10654.0, 10673.0, 10665.0, 10652.0, 10603.0, 10614.0, 10647.0, 10647.0, 10667.0, 10635.0, 10599.0, 10629.0, 10626.0, 10614.0, 10621.0, 10623.0, 10609.0, 10619.0, 10624.0, 10640.0, 10640.0, 10637.0, 10626.0, 10637.0, 10651.0, 10640.0, 10631.0, 10633.0, 10651.0, 10659.0, 10646.0, 10645.0, 10644.0, 10640.0, 10641.0, 10656.0, 10654.0, 10651.0, 10644.0, 10627.0, 10632.0, 10633.0, 10634.0, 10633.0, 10635.0, 10638.0, 10633.0, 10646.0, 10644.0, 10631.0, 10640.0, 10646.0, 10644.0, 10644.0, 10655.0, 10640.0, 10645.0, 10634.0, 10622.0, 10631.0, 10628.0, 10629.0, 10669.0, 10662.0, 10665.0, 10634.0, 10610.0, 10630.0, 10664.0, 10671.0, 10624.0, 10626.0, 10655.0, 10658.0, 10663.0, 10639.0, 10606.0, 10603.0, 10604.0, 10628.0, 10629.0, 10625.0, 10619.0, 10602.0, 10607.0, 10607.0, 10618.0, 10628.0, 10636.0, 10631.0, 10632.0, 10627.0, 10633.0, 10643.0, 10642.0, 10646.0, 10682.0, 10659.0, 10651.0, 10643.0, 10635.0, 10638.0, 10633.0, 10653.0, 10674.0, 10671.0, 10641.0, 10622.0, 10602.0, 10624.0, 10629.0, 10634.0, 10604.0, 10603.0, 10616.0, 10633.0, 10626.0, 10607.0, 10595.0, 10605.0, 10624.0, 10637.0, 10640.0, 10646.0, 10635.0, 10653.0, 10666.0, 10650.0, 10627.0, 10619.0, 10616.0, 10617.0, 10611.0, 10600.0, 10582.0, 10609.0, 10591.0, 10595.0, 10605.0, 10606.0, 10621.0, 10622.0, 10632.0, 10625.0, 10631.0, 10642.0, 10637.0, 10643.0, 10617.0, 10599.0, 10585.0, 10613.0, 10677.0, 10686.0, 10677.0, 10634.0, 10621.0, 10586.0, 10611.0, 10621.0, 10600.0, 10585.0, 10589.0, 10554.0, 10556.0, 10584.0, 10579.0, 10586.0, 10577.0],
      "WindowWidth": [23101.0, 22945.0, 22871.0, 22869.0, 22846.0, 22848.0, 22840.0, 22808.0, 22797.0, 22778.0, 22722.0, 22708.0, 22761.0, 22803.0, 22797.0, 22796.0, 22753.0, 22667.0, 22701.0, 22728.0, 22725.0, 22764.0, 22801.0, 22786.0, 22760.0, 22646.0, 22667.0, 22747.0, 22751.0, 22789.0, 22726.0, 22643.0, 22703.0, 22703.0, 22671.0, 22685.0, 22693.0, 22658.0, 22679.0, 22695.0, 22733.0, 22727.0, 22726.0, 22700.0, 22717.0, 22760.0, 22730.0, 22709.0, 22712.0, 22749.0, 22769.0, 22745.0, 22735.0, 22738.0, 22729.0, 22732.0, 22762.0, 22766.0, 22751.0, 22735.0, 22700.0, 22708.0, 22710.0, 22715.0, 22712.0, 22718.0, 22731.0, 22715.0, 22738.0, 22739.0, 22710.0, 22728.0, 22745.0, 22740.0, 22739.0, 22765.0, 22733.0, 22739.0, 22714.0, 22685.0, 22707.0, 22699.0, 22714.0, 22794.0, 22782.0, 22787.0, 22714.0, 22663.0, 22707.0, 22780.0, 22797.0, 22694.0, 22693.0, 22760.0, 22775.0, 22780.0, 22732.0, 22655.0, 22646.0, 22648.0, 22696.0, 22699.0, 22688.0, 22670.0, 22638.0, 22647.0, 22652.0, 22675.0, 22699.0, 22717.0, 22708.0, 22712.0, 22699.0, 22709.0, 22735.0, 22735.0, 22741.0, 22820.0, 22772.0, 22752.0, 22733.0, 22719.0, 22719.0, 22713.0, 22757.0, 22803.0, 22803.0, 22738.0, 22689.0, 22643.0, 22688.0, 22701.0, 22712.0, 22647.0, 22642.0, 22671.0, 22718.0, 22692.0, 22649.0, 22621.0, 22646.0, 22688.0, 22721.0, 22729.0, 22741.0, 22722.0, 22758.0, 22786.0, 22754.0, 22698.0, 22683.0, 22679.0, 22678.0, 22657.0, 22627.0, 22597.0, 22654.0, 22617.0, 22628.0, 22647.0, 22647.0, 22679.0, 22687.0, 22706.0, 22695.0, 22710.0, 22727.0, 22725.0, 22737.0, 22683.0, 22646.0, 22611.0, 22665.0, 22808.0, 22829.0, 22807.0, 22708.0, 22681.0, 22604.0, 22662.0, 22683.0, 22644.0, 22603.0, 22612.0, 22535.0, 22532.0, 22594.0, 22589.0, 22603.0, 22582.0]
    },
    "slices": {}
  }
}