{
  "AcquisitionMatrixPE": 104,
  "AcquisitionNumber": 1,
  "AcquisitionTime": "11:17:43.022500",
  "BandwidthPerPixelPhaseEncode": 17.17,
  "BaseResolution": 104,
  "BodyPartExamined": "BRAIN",
  "CoilString": "HC1-7;NC1_2",
  "ConsistencyInfo": "N4_VE11C_LATEST_20160120",
  "ConversionSoftware": "dcm2niix",
  "ConversionSoftwareVersion": "v1.0.20190902",
  "DerivedVendorReportedEchoSpacing": 0.000560011,
  "DeviceSerialNumber": "167006",
  "DwellTime": 2.1e-06,
  "EchoTime": 0.037,
  "EchoTrainLength": 104,
  "EffectiveEchoSpacing": 0.000560011,
  "FlipAngle": 52,
  "ImageComments": "Unaliased_MB4_PE3_LB",
  "ImageOrientationPatientDICOM": [0.997985, 0.0594, 0.0223014, -0.0416535, 0.878504, -0.475915],
  "ImageType": [
    "ORIGINAL",
    "PRIMARY",
    "M",
    "MB",
    "ND",
    "MOSAIC"
],
  "ImagingFrequency": 123.259,
  "InPlanePhaseEncodingDirectionDICOM": "COL",
  "InstitutionAddress": "Chemin_Queen-Mary_4565_Montreal_District_CA_H3W_1W5",
  "InstitutionName": "IUGM",
  "InstitutionalDepartmentName": "Department",
  "MRAcquisitionType": "2D",
  "MagneticFieldStrength": 3,
  "Manufacturer": "Siemens",
  "ManufacturersModelName": "Prisma_fit",
  "Modality": "MR",
  "MultibandAccelerationFactor": 4,
  "PartialFourier": 1,
  "PatientPosition": "HFS",
  "PercentPhaseFOV": 100,
  "PhaseEncodingDirection": "j",
  "PhaseEncodingSteps": 104,
  "PhaseResolution": 1,
  "PixelBandwidth": 2290,
  "ProcedureStepDescription": "memory_things",
  "ProtocolName": "func_task-things_run-1",
  "PulseSequenceDetails": "%CustomerSeq%_cmrr_mbep2d_bold",
  "ReceiveCoilActiveElements": "HC1-7;NC1,2",
  "ReceiveCoilName": "HeadNeck_64",
  "ReconMatrixPE": 104,
  "RepetitionTime": 1.49,
  "SAR": 0.0710003,
  "ScanOptions": "FS",
  "ScanningSequence": "EP",
  "SequenceName": "epfid2d1_104",
  "SequenceVariant": "SK_SS",
  "SeriesDescription": "func_task-things_run-1",
  "SeriesNumber": 10,
  "ShimSetting": [619, -7187, -8857, 299, -22, -125, -32, -11],
  "SliceThickness": 2,
  "SliceTiming": [0, 0.7825, 0.0975, 0.8825, 0.195, 0.98, 0.2925, 1.0775, 0.3925, 1.175, 0.49, 1.2725, 0.5875, 1.3725, 0.685, 0, 0.7825, 0.0975, 0.8825, 0.195, 0.98, 0.2925, 1.0775, 0.3925, 1.175, 0.49, 1.2725, 0.5875, 1.3725, 0.685, 0, 0.7825, 0.0975, 0.8825, 0.195, 0.98, 0.2925, 1.0775, 0.3925, 1.175, 0.49, 1.2725, 0.5875, 1.3725, 0.685, 0, 0.7825, 0.0975, 0.8825, 0.195, 0.98, 0.2925, 1.0775, 0.3925, 1.175, 0.49, 1.2725, 0.5875, 1.3725, 0.685],
  "SoftwareVersions": "syngo_MR_E11",
  "SpacingBetweenSlices": 2,
  "StationName": "MRC35049",
  "TaskName": "things",
  "TotalReadoutTime": 0.0576811,
  "TxRefAmp": 319.713,
  "WipMemBlock": "e0c67d4b-1090-4232-bb9f-fa077b114160||Sequence: R016 ve11c/master r/e634e98; Dec 19 2017 11:00:25 by eja",
  "dcmmeta_affine": [
    [-1.9959702491760254, -0.0833069235086441, 0.09572245180606842, 109.70802307128906],
    [-0.11879991739988327, 1.75700843334198, -0.9480547904968262, -47.043243408203125],
    [0.044602807611227036, 0.9518305063247681, 1.7584166526794434, -92.66336059570312],
    [0.0, 0.0, 0.0, 1.0]
],
  "dcmmeta_reorient_transform": [
    [0.0, -1.0, 0.0, 103.0],
    [1.0, 0.0, 0.0, 0.0],
    [0.0, 0.0, 1.0, 0.0],
    [0.0, 0.0, 0.0, 1.0]
],
  "dcmmeta_shape": [104, 104, 60, 190],
  "dcmmeta_slice_dim": 2,
  "dcmmeta_version": 0.6,
  "global": {
    "const": {
      "AcquisitionMatrix": [104, 0, 0, 104],
      "AngioFlag": "N",
      "BitsAllocated": 16,
      "BitsStored": 16,
      "BodyPartExamined": "BRAIN",
      "Columns": 832,
      "EchoNumbers": 1,
      "EchoTime": 37.0,
      "EchoTrainLength": 104,
      "FlipAngle": 52.0,
      "HighBit": 15,
      "ImageOrientationPatient": [0.99798511616862, 0.05939996014128, 0.02230140446532, -0.041653463596, 0.87850421519848, -0.4759152580544],
      "ImagePositionPatient": [-797.33685045062, -816.72286293298, 335.60607082111],
      "ImageType": [
        "ORIGINAL",
        "PRIMARY",
        "M",
        "MB",
        "ND",
        "MOSAIC"
],
      "ImagedNucleus": "1H",
      "ImagingFrequency": 123.258966,
      "InPlanePhaseEncodingDirection": "COL",
      "MRAcquisitionType": "2D",
      "MagneticFieldStrength": 3.0,
      "Manufacturer": "SIEMENS",
      "ManufacturerModelName": "Prisma_fit",
      "Modality": "MR",
      "NumberOfAverages": 1.0,
      "NumberOfPhaseEncodingSteps": 104,
      "PercentPhaseFieldOfView": 100.0,
      "PercentSampling": 100.0,
      "PerformedProcedureStepStartTime": "093434.575000",
      "PhotometricInterpretation": "MONOCHROME2",
      "PixelBandwidth": 2290.0,
      "PixelRepresentation": 0,
      "PixelSpacing": [2.0, 2.0],
      "ProtocolName": "func_task-things_run-1",
      "RepetitionTime": 1490.0,
      "Rows": 832,
      "SAR": 0.07100032499042,
      "SamplesPerPixel": 1,
      "ScanOptions": "FS",
      "ScanningSequence": "EP",
      "SequenceName": "epfid2d1_104",
      "SequenceVariant": [
        "SK",
        "SS"
],
      "SeriesDescription": "func_task-things_run-1",
      "SeriesNumber": 10,
      "SeriesTime": "111906.756000",
      "SliceLocation": -53.919849384784,
      "SliceThickness": 2.0,
      "SmallestImagePixelValue": 0,
      "SoftwareVersions": "syngo MR E11",
      "SpacingBetweenSlices": 1.9999999688815,
      "SpecificCharacterSet": "ISO_IR 100",
      "StudyID": "1",
      "StudyTime": "093434.481000",
      "TransmitCoilName": "Body",
      "VariableFlipAngleFlag": "N",
      "WindowCenterWidthExplanation": "Algo1",
      "dBdt": 0.0},
    "slices": {}
  },
  "time": {
    "samples": {
      "AcquisitionNumber": [1, 2, 3, 4, 5, 6, 7, 8, 9, 10, 11, 12, 13, 14, 15, 16, 17, 18, 19, 20, 21, 22, 23, 24, 25, 26, 27, 28, 29, 30, 31, 32, 33, 34, 35, 36, 37, 38, 39, 40, 41, 42, 43, 44, 45, 46, 47, 48, 49, 50, 51, 52, 53, 54, 55, 56, 57, 58, 59, 60, 61, 62, 63, 64, 65, 66, 67, 68, 69, 70, 71, 72, 73, 74, 75, 76, 77, 78, 79, 80, 81, 82, 83, 84, 85, 86, 87, 88, 89, 90, 91, 92, 93, 94, 95, 96, 97, 98, 99, 100, 101, 102, 103, 104, 105, 106, 107, 108, 109, 110, 111, 112, 113, 114, 115, 116, 117, 118, 119, 120, 121, 122, 123, 124, 125, 126, 127, 128, 129, 130, 131, 132, 133, 134, 135, 136, 137, 138, 139, 140, 141, 142, 143, 144, 145, 146, 147, 148, 149, 150, 151, 152, 153, 154, 155, 156, 157, 158, 159, 160, 161, 162, 163, 164, 165, 166, 167, 168, 169, 170, 171, 172, 173, 174, 175, 176, 177, 178, 179, 180, 181, 182, 183, 184, 185, 186, 187, 188, 189, 190],
      "AcquisitionTime": ["111743.022500", "111744.512500", "111746.002500", "111747.492500", "111748.982500", "111750.472500", "111751.962500", "111753.452500", "111754.942500", "111756.432500", "111757.922500", "111759.412500", "111800.902500", "111802.392500", "111803.882500", "111805.372500", "111806.862500", "111808.352500", "111809.842500", "111811.332500", "111812.822500", "111814.312500", "111815.802500", "111817.292500", "111818.782500", "111820.272500", "111821.762500", "111823.252500", "111824.742500", "111826.232500", "111827.722500", "111829.212500", "111830.702500", "111832.192500", "111833.682500", "111835.172500", "111836.662500", "111838.152500", "111839.642500", "111841.132500", "111842.622500", "111844.112500", "111845.602500", "111847.092500", "111848.582500", "111850.072500", "111851.562500", "111853.052500", "111854.542500", "111856.032500", "111857.522500", "111859.012500", "111900.502500", "111901.992500", "111903.482500", "111904.972500", "111906.462500", "111907.952500", "111909.442500", "111910.932500", "111912.422500", "111913.912500", "111915.402500", "111916.892500", "111918.382500", "111919.872500", "111921.362500", "111922.852500", "111924.342500", "111925.832500", "111927.322500", "111928.812500", "111930.302500", "111931.792500", "111933.282500", "111934.772500", "111936.262500", "111937.752500", "111939.242500", "111940.732500", "111942.222500", "111943.712500", "111945.202500", "111946.692500", "111948.182500", "111949.672500", "111951.162500", "111952.652500", "111954.142500", "111955.632500", "111957.122500", "111958.612500", "112000.102500", "112001.592500", "112003.082500", "112004.572500", "112006.062500", "112007.552500", "112009.042500", "112010.532500", "112012.022500", "112013.512500", "112015.002500", "112016.492500", "112017.982500", "112019.472500", "112020.962500", "112022.452500", "112023.942500", "112025.432500", "112026.922500", "112028.412500", "112029.902500", "112031.392500", "112032.882500", "112034.372500", "112035.862500", "112037.352500", "112038.842500", "112040.332500", "112041.822500", "112043.312500", "112044.802500", "112046.292500", "112047.782500", "112049.272500", "112050.762500", "112052.252500", "112053.742500", "112055.232500", "112056.722500", "112058.212500", "112059.702500", "112101.192500", "112102.682500", "112104.172500", "112105.662500", "112107.152500", "112108.642500", "112110.132500", "112111.622500", "112113.112500", "112114.602500", "112116.092500", "112117.582500", "112119.072500", "112120.562500", "112122.052500", "112123.542500", "112125.032500", "112126.522500", "112128.012500", "112129.502500", "112130.992500", "112132.482500", "112133.972500", "112135.462500", "112136.952500", "112138.442500", "112139.932500", "112141.422500", "112142.912500", "112144.402500", "112145.892500", "112147.382500", "112148.872500", "112150.362500", "112151.852500", "112153.342500", "112154.832500", "112156.322500", "112157.812500", "112159.302500", "112200.792500", "112202.282500", "112203.772500", "112205.262500", "112206.752500", "112208.242500", "112209.732500", "112211.222500", "112212.712500", "112214.202500", "112215.692500", "112217.182500", "112218.672500", "112220.162500", "112221.652500", "112223.142500", "112224.632500"],
      "ContentTime": ["111906.759000", "111906.763000", "111906.774000", "111906.777000", "111906.780000", "111906.784000", "111906.787000", "111906.790000", "111906.794000", "111906.797000", "111906.800000", "111906.803000", "111906.807000", "111906.810000", "111906.813000", "111906.817000", "111906.821000", "111906.824000", "111906.827000", "111906.842000", "111906.846000", "111906.862000", "111906.865000", "111906.868000", "111906.872000", "111906.875000", "111906.879000", "111906.882000", "111906.885000", "111926.716000", "111926.720000", "111926.723000", "111926.726000", "111926.730000", "111926.733000", "111926.736000", "111926.739000", "111926.742000", "111926.746000", "111926.749000", "111926.752000", "111926.756000", "111926.759000", "111926.762000", "111926.776000", "111926.780000", "111926.783000", "111926.786000", "111926.789000", "111946.715000", "111946.719000", "111946.722000", "111946.725000", "111946.729000", "111946.732000", "111946.735000", "111946.738000", "111946.742000", "111946.745000", "111946.748000", "111946.752000", "111946.755000", "111946.758000", "111946.761000", "111946.765000", "111946.768000", "111946.771000", "111946.784000", "111946.787000", "112006.716000", "112006.720000", "112006.723000", "112006.726000", "112006.730000", "112006.733000", "112006.736000", "112006.739000", "112006.743000", "112006.746000", "112006.749000", "112006.753000", "112006.756000", "112006.759000", "112006.762000", "112006.766000", "112006.769000", "112006.772000", "112006.775000", "112006.779000", "112026.716000", "112026.720000", "112026.723000", "112026.726000", "112026.730000", "112026.733000", "112026.736000", "112026.739000", "112026.743000", "112026.746000", "112026.749000", "112026.753000", "112026.756000", "112026.759000", "112026.763000", "112026.766000", "112026.769000", "112026.773000", "112026.776000", "112026.779000", "112106.716000", "112106.720000", "112106.723000", "112106.727000", "112106.730000", "112106.733000", "112106.736000", "112106.740000", "112106.743000", "112106.746000", "112106.750000", "112106.753000", "112106.756000", "112106.760000", "112106.763000", "112106.775000", "112106.778000", "112106.782000", "112106.785000", "112106.788000", "112106.792000", "112106.795000", "112106.798000", "112106.801000", "112106.805000", "112106.808000", "112106.811000", "112146.716000", "112146.720000", "112146.723000", "112146.726000", "112146.730000", "112146.733000", "112146.736000", "112146.739000", "112146.743000", "112146.746000", "112146.749000", "112146.753000", "112146.756000", "112146.759000", "112146.763000", "112146.766000", "112146.769000", "112146.773000", "112146.776000", "112146.779000", "112146.783000", "112146.786000", "112146.789000", "112146.792000", "112146.796000", "112146.799000", "112146.802000", "112226.686000", "112226.690000", "112226.693000", "112226.697000", "112226.700000", "112226.704000", "112226.707000", "112226.711000", "112226.714000", "112226.717000", "112226.721000", "112226.724000", "112226.727000", "112226.731000", "112226.734000", "112226.737000", "112226.741000", "112226.744000", "112226.747000", "112226.751000", "112226.754000", "112226.758000", "112226.761000", "112226.764000", "112226.767000", "112226.771000", "112226.775000"],
      "InstanceCreationTime": ["111906.759000", "111906.763000", "111906.774000", "111906.777000", "111906.780000", "111906.784000", "111906.787000", "111906.790000", "111906.794000", "111906.797000", "111906.800000", "111906.803000", "111906.807000", "111906.810000", "111906.813000", "111906.817000", "111906.821000", "111906.824000", "111906.827000", "111906.842000", "111906.846000", "111906.862000", "111906.865000", "111906.868000", "111906.872000", "111906.875000", "111906.879000", "111906.882000", "111906.885000", "111926.716000", "111926.720000", "111926.723000", "111926.726000", "111926.730000", "111926.733000", "111926.736000", "111926.739000", "111926.742000", "111926.746000", "111926.749000", "111926.752000", "111926.756000", "111926.759000", "111926.762000", "111926.776000", "111926.780000", "111926.783000", "111926.786000", "111926.789000", "111946.715000", "111946.719000", "111946.722000", "111946.725000", "111946.729000", "111946.732000", "111946.735000", "111946.738000", "111946.742000", "111946.745000", "111946.748000", "111946.752000", "111946.755000", "111946.758000", "111946.761000", "111946.765000", "111946.768000", "111946.771000", "111946.784000", "111946.787000", "112006.716000", "112006.720000", "112006.723000", "112006.726000", "112006.730000", "112006.733000", "112006.736000", "112006.739000", "112006.743000", "112006.746000", "112006.749000", "112006.753000", "112006.756000", "112006.759000", "112006.762000", "112006.766000", "112006.769000", "112006.772000", "112006.775000", "112006.779000", "112026.716000", "112026.720000", "112026.723000", "112026.726000", "112026.730000", "112026.733000", "112026.736000", "112026.739000", "112026.743000", "112026.746000", "112026.749000", "112026.753000", "112026.756000", "112026.759000", "112026.763000", "112026.766000", "112026.769000", "112026.773000", "112026.776000", "112026.779000", "112106.716000", "112106.720000", "112106.723000", "112106.727000", "112106.730000", "112106.733000", "112106.736000", "112106.740000", "112106.743000", "112106.746000", "112106.750000", "112106.753000", "112106.756000", "112106.760000", "112106.763000", "112106.775000", "112106.778000", "112106.782000", "112106.785000", "112106.788000", "112106.792000", "112106.795000", "112106.798000", "112106.801000", "112106.805000", "112106.808000", "112106.811000", "112146.716000", "112146.720000", "112146.723000", "112146.726000", "112146.730000", "112146.733000", "112146.736000", "112146.739000", "112146.743000", "112146.746000", "112146.749000", "112146.753000", "112146.756000", "112146.759000", "112146.763000", "112146.766000", "112146.769000", "112146.773000", "112146.776000", "112146.779000", "112146.783000", "112146.786000", "112146.789000", "112146.792000", "112146.796000", "112146.799000", "112146.802000", "112226.686000", "112226.690000", "112226.693000", "112226.697000", "112226.700000", "112226.704000", "112226.707000", "112226.711000", "112226.714000", "112226.717000", "112226.721000", "112226.724000", "112226.727000", "112226.731000", "112226.734000", "112226.737000", "112226.741000", "112226.744000", "112226.747000", "112226.751000", "112226.754000", "112226.758000", "112226.761000", "112226.764000", "112226.767000", "112226.771000", "112226.775000"],
      "InstanceNumber": [1, 2, 3, 4, 5, 6, 7, 8, 9, 10, 11, 12, 13, 14, 15, 16, 17, 18, 19, 20, 21, 22, 23, 24, 25, 26, 27, 28, 29, 30, 31, 32, 33, 34, 35, 36, 37, 38, 39, 40, 41, 42, 43, 44, 45, 46, 47, 48, 49, 50, 51, 52, 53, 54, 55, 56, 57, 58, 59, 60, 61, 62, 63, 64, 65, 66, 67, 68, 69, 70, 71, 72, 73, 74, 75, 76, 77, 78, 79, 80, 81, 82, 83, 84, 85, 86, 87, 88, 89, 90, 91, 92, 93, 94, 95, 96, 97, 98, 99, 100, 101, 102, 103, 104, 105, 106, 107, 108, 109, 110, 111, 112, 113, 114, 115, 116, 117, 118, 119, 120, 121, 122, 123, 124, 125, 126, 127, 128, 129, 130, 131, 132, 133, 134, 135, 136, 137, 138, 139, 140, 141, 142, 143, 144, 145, 146, 147, 148, 149, 150, 151, 152, 153, 154, 155, 156, 157, 158, 159, 160, 161, 162, 163, 164, 165, 166, 167, 168, 169, 170, 171, 172, 173, 174, 175, 176, 177, 178, 179, 180, 181, 182, 183, 184, 185, 186, 187, 188, 189, 190],
      "LargestImagePixelValue": [45716, 44037, 43174, 42455, 41985, 42032, 41885, 41806, 41592, 42336, 42676, 41980, 42145, 41566, 42203, 41991, 41353, 42650, 41557, 41807, 41584, 41250, 41559, 41246, 41749, 41769, 42008, 41424, 41430, 41561, 41305, 41419, 41391, 41449, 41341, 41345, 40856, 41701, 41294, 41110, 41198, 40951, 40843, 40943, 41176, 40846, 40804, 40475, 40903, 40650, 40967, 40881, 40739, 40247, 40605, 40587, 40908, 40398, 40634, 40709, 40909, 40447, 40577, 42212, 42434, 40892, 40283, 40824, 41014, 40182, 40496, 40656, 40637, 40302, 40004, 41183, 40809, 40444, 40635, 40310, 39966, 40153, 40376, 40330, 40427, 40395, 41283, 40539, 40461, 40895, 40150, 40505, 40319, 40242, 40725, 40897, 41252, 40768, 40213, 40801, 40859, 41001, 40865, 40605, 40395, 40499, 40918, 40947, 40633, 40952, 41161, 40476, 40933, 40769, 40571, 41046, 40643, 40987, 40492, 40080, 40502, 40377, 40713, 40207, 40359, 40463, 40507, 40341, 40632, 40647, 40706, 40972, 40878, 40704, 40767, 40928, 40744, 41315, 40979, 41153, 41026, 41277, 40554, 40871, 40668, 40952, 41222, 40890, 40732, 41163, 40735, 40810, 41180, 40576, 41373, 41082, 41270, 40972, 40881, 40777, 40609, 40971, 40981, 40728, 41401, 40436, 41218, 40743, 40609, 41026, 41038, 40532, 40669, 40912, 40752, 40981, 41024, 41030, 41047, 41145, 41241, 41473, 40986, 40807, 40542, 40767, 40653, 41062, 40820, 40765],
      "WindowCenter": [10851.0, 10768.0, 10751.0, 10766.0, 10773.0, 10767.0, 10758.0, 10746.0, 10732.0, 10734.0, 10738.0, 10741.0, 10750.0, 10761.0, 10771.0, 10774.0, 10750.0, 10765.0, 10754.0, 10770.0, 10773.0, 10779.0, 10779.0, 10762.0, 10742.0, 10727.0, 10718.0, 10711.0, 10717.0, 10731.0, 10720.0, 10699.0, 10715.0, 10771.0, 10786.0, 10754.0, 10715.0, 10693.0, 10698.0, 10721.0, 10752.0, 10744.0, 10735.0, 10727.0, 10720.0, 10691.0, 10652.0, 10643.0, 10691.0, 10724.0, 10733.0, 10725.0, 10700.0, 10693.0, 10690.0, 10688.0, 10696.0, 10687.0, 10691.0, 10692.0, 10696.0, 10689.0, 10699.0, 10725.0, 10711.0, 10681.0, 10678.0, 10700.0, 10696.0, 10693.0, 10682.0, 10682.0, 10672.0, 10664.0, 10665.0, 10692.0, 10688.0, 10691.0, 10690.0, 10699.0, 10697.0, 10706.0, 10707.0, 10707.0, 10700.0, 10696.0, 10680.0, 10678.0, 10698.0, 10718.0, 10708.0, 10710.0, 10684.0, 10701.0, 10730.0, 10748.0, 10722.0, 10684.0, 10685.0, 10727.0, 10746.0, 10740.0, 10729.0, 10712.0, 10700.0, 10674.0, 10661.0, 10688.0, 10712.0, 10722.0, 10711.0, 10675.0, 10672.0, 10671.0, 10666.0, 10672.0, 10663.0, 10680.0, 10693.0, 10698.0, 10696.0, 10687.0, 10676.0, 10659.0, 10658.0, 10667.0, 10673.0, 10677.0, 10684.0, 10683.0, 10683.0, 10689.0, 10688.0, 10682.0, 10683.0, 10692.0, 10705.0, 10702.0, 10684.0, 10672.0, 10671.0, 10685.0, 10682.0, 10690.0, 10691.0, 10692.0, 10673.0, 10682.0, 10693.0, 10708.0, 10678.0, 10680.0, 10689.0, 10687.0, 10683.0, 10647.0, 10650.0, 10680.0, 10704.0, 10708.0, 10688.0, 10684.0, 10676.0, 10668.0, 10679.0, 10668.0, 10678.0, 10665.0, 10664.0, 10679.0, 10681.0, 10685.0, 10696.0, 10695.0, 10671.0, 10667.0, 10663.0, 10664.0, 10678.0, 10680.0, 10661.0, 10659.0, 10687.0, 10684.0, 10678.0, 10696.0, 10698.0, 10670.0, 10681.0, 10669.0],
      "WindowWidth": [23293.0, 23068.0, 23007.0, 23034.0, 23051.0, 23035.0, 23008.0, 22983.0, 22951.0, 22950.0, 22957.0, 22967.0, 22987.0, 23015.0, 23035.0, 23044.0, 22997.0, 23021.0, 23002.0, 23036.0, 23045.0, 23056.0, 23053.0, 23016.0, 22966.0, 22932.0, 22912.0, 22904.0, 22912.0, 22943.0, 22922.0, 22873.0, 22904.0, 23033.0, 23068.0, 22998.0, 22907.0, 22859.0, 22868.0, 22923.0, 22992.0, 22975.0, 22952.0, 22933.0, 22919.0, 22852.0, 22764.0, 22748.0, 22850.0, 22926.0, 22945.0, 22927.0, 22871.0, 22856.0, 22851.0, 22845.0, 22865.0, 22853.0, 22855.0, 22858.0, 22865.0, 22852.0, 22877.0, 22927.0, 22895.0, 22831.0, 22828.0, 22868.0, 22860.0, 22853.0, 22828.0, 22829.0, 22809.0, 22797.0, 22800.0, 22855.0, 22849.0, 22858.0, 22853.0, 22872.0, 22871.0, 22887.0, 22890.0, 22888.0, 22874.0, 22865.0, 22824.0, 22819.0, 22865.0, 22915.0, 22899.0, 22896.0, 22836.0, 22872.0, 22940.0, 22979.0, 22923.0, 22838.0, 22843.0, 22935.0, 22977.0, 22966.0, 22938.0, 22899.0, 22877.0, 22813.0, 22786.0, 22843.0, 22900.0, 22920.0, 22895.0, 22824.0, 22808.0, 22807.0, 22802.0, 22813.0, 22792.0, 22829.0, 22861.0, 22869.0, 22861.0, 22840.0, 22817.0, 22779.0, 22776.0, 22798.0, 22812.0, 22826.0, 22840.0, 22837.0, 22839.0, 22850.0, 22843.0, 22834.0, 22837.0, 22854.0, 22887.0, 22878.0, 22835.0, 22810.0, 22806.0, 22836.0, 22836.0, 22851.0, 22857.0, 22858.0, 22816.0, 22833.0, 22860.0, 22891.0, 22828.0, 22829.0, 22848.0, 22851.0, 22837.0, 22757.0, 22759.0, 22827.0, 22883.0, 22891.0, 22847.0, 22834.0, 22819.0, 22802.0, 22823.0, 22804.0, 22820.0, 22796.0, 22792.0, 22822.0, 22828.0, 22837.0, 22863.0, 22859.0, 22810.0, 22798.0, 22788.0, 22791.0, 22819.0, 22826.0, 22783.0, 22778.0, 22839.0, 22838.0, 22828.0, 22865.0, 22873.0, 22805.0, 22825.0, 22803.0]
    },
    "slices": {}
  }
}