{
  "AcquisitionMatrixPE": 104,
  "AcquisitionNumber": 1,
  "AcquisitionTime": "11:18:10.057500",
  "BandwidthPerPixelPhaseEncode": 17.17,
  "BaseResolution": 104,
  "BodyPartExamined": "BRAIN",
  "CoilString": "HC1-7;NC1_2",
  "ConsistencyInfo": "N4_VE11C_LATEST_20160120",
  "ConversionSoftware": "dcm2niix",
  "ConversionSoftwareVersion": "v1.0.20190902",
  "DerivedVendorReportedEchoSpacing": 0.000560011,
  "DeviceSerialNumber": "167006",
  "DwellTime": 2.1e-06,
  "EchoTime": 0.037,
  "EchoTrainLength": 104,
  "EffectiveEchoSpacing": 0.000560011,
  "FlipAngle": 52,
  "ImageComments": "Unaliased_MB4_PE3_LB",
  "ImageOrientationPatientDICOM": [0.999898, -0.00321427, 0.0139275, 0.00942411, 0.880853, -0.473296],
  "ImageType": [
    "ORIGINAL",
    "PRIMARY",
    "M",
    "MB",
    "ND",
    "MOSAIC"
],
  "ImagingFrequency": 123.259,
  "InPlanePhaseEncodingDirectionDICOM": "COL",
  "InstitutionAddress": "Chemin_Queen-Mary_4565_Montreal_District_CA_H3W_1W5",
  "InstitutionName": "IUGM",
  "InstitutionalDepartmentName": "Department",
  "MRAcquisitionType": "2D",
  "MagneticFieldStrength": 3,
  "Manufacturer": "Siemens",
  "ManufacturersModelName": "Prisma_fit",
  "Modality": "MR",
  "MultibandAccelerationFactor": 4,
  "PartialFourier": 1,
  "PatientPosition": "HFS",
  "PercentPhaseFOV": 100,
  "PhaseEncodingDirection": "j",
  "PhaseEncodingSteps": 104,
  "PhaseResolution": 1,
  "PixelBandwidth": 2290,
  "ProcedureStepDescription": "memory_things",
  "ProtocolName": "func_task-things_run-6",
  "PulseSequenceDetails": "%CustomerSeq%_cmrr_mbep2d_bold",
  "ReceiveCoilActiveElements": "HC1-7;NC1,2",
  "ReceiveCoilName": "HeadNeck_64",
  "ReconMatrixPE": 104,
  "RepetitionTime": 1.49,
  "SAR": 0.0503595,
  "ScanOptions": "FS",
  "ScanningSequence": "EP",
  "SequenceName": "epfid2d1_104",
  "SequenceVariant": "SK_SS",
  "SeriesDescription": "func_task-things_run-6",
  "SeriesNumber": 25,
  "ShimSetting": [612, -7196, -8845, 284, 6, -104, -14, -28],
  "SliceThickness": 2,
  "SliceTiming": [0, 0.785, 0.0975, 0.8825, 0.1975, 0.98, 0.295, 1.0775, 0.3925, 1.1775, 0.49, 1.275, 0.5875, 1.3725, 0.6875, 0, 0.785, 0.0975, 0.8825, 0.1975, 0.98, 0.295, 1.0775, 0.3925, 1.1775, 0.49, 1.275, 0.5875, 1.3725, 0.6875, 0, 0.785, 0.0975, 0.8825, 0.1975, 0.98, 0.295, 1.0775, 0.3925, 1.1775, 0.49, 1.275, 0.5875, 1.3725, 0.6875, 0, 0.785, 0.0975, 0.8825, 0.1975, 0.98, 0.295, 1.0775, 0.3925, 1.1775, 0.49, 1.275, 0.5875, 1.3725, 0.6875],
  "SoftwareVersions": "syngo_MR_E11",
  "SpacingBetweenSlices": 2,
  "StationName": "MRC35049",
  "TaskName": "things",
  "TotalReadoutTime": 0.0576811,
  "TxRefAmp": 272.81,
  "WipMemBlock": "a8339a0d-61ea-44b7-a2a9-d1dcab296385||Sequence: R016 ve11c/master r/e634e98; Dec 19 2017 11:00:25 by eja",
  "dcmmeta_affine": [
    [-1.99979567527771, 0.01884821429848671, 0.021493589505553246, 105.8907470703125],
    [0.006428543943911791, 1.761705756187439, -0.9467583298683167, -54.89006805419922],
    [0.0278550423681736, 0.9465925097465515, 1.7615864276885986, -75.2392807006836],
    [0.0, 0.0, 0.0, 1.0]
],
  "dcmmeta_reorient_transform": [
    [0.0, -1.0, 0.0, 103.0],
    [1.0, 0.0, 0.0, 0.0],
    [0.0, 0.0, 1.0, 0.0],
    [0.0, 0.0, 0.0, 1.0]
],
  "dcmmeta_shape": [104, 104, 60, 190],
  "dcmmeta_slice_dim": 2,
  "dcmmeta_version": 0.6,
  "global": {
    "const": {
      "AcquisitionMatrix": [104, 0, 0, 104],
      "AngioFlag": "N",
      "BitsAllocated": 16,
      "BitsStored": 16,
      "BodyPartExamined": "BRAIN",
      "Columns": 832,
      "EchoNumbers": 1,
      "EchoTime": 37.0,
      "EchoTrainLength": 104,
      "FlipAngle": 52.0,
      "HighBit": 15,
      "ImageOrientationPatient": [0.99989784108867, -0.0032142719178, 0.01392752103803, 0.00942410712473, 0.8808529028393, -0.4732962600364],
      "ImagePositionPatient": [-842.61849366501, -765.48655491593, 356.68018818554],
      "ImageType": [
        "ORIGINAL",
        "PRIMARY",
        "M",
        "MB",
        "ND",
        "MOSAIC"
],
      "ImagedNucleus": "1H",
      "ImagingFrequency": 123.258885,
      "InPlanePhaseEncodingDirection": "COL",
      "MRAcquisitionType": "2D",
      "MagneticFieldStrength": 3.0,
      "Manufacturer": "SIEMENS",
      "ManufacturerModelName": "Prisma_fit",
      "Modality": "MR",
      "NumberOfAverages": 1.0,
      "NumberOfPhaseEncodingSteps": 104,
      "PercentPhaseFieldOfView": 100.0,
      "PercentSampling": 100.0,
      "PerformedProcedureStepStartTime": "102048.647000",
      "PhotometricInterpretation": "MONOCHROME2",
      "PixelBandwidth": 2290.0,
      "PixelRepresentation": 0,
      "PixelSpacing": [2.0, 2.0],
      "ProtocolName": "func_task-things_run-6",
      "RepetitionTime": 1490.0,
      "Rows": 832,
      "SAR": 0.05035951282313,
      "SamplesPerPixel": 1,
      "ScanOptions": "FS",
      "ScanningSequence": "EP",
      "SequenceName": "epfid2d1_104",
      "SequenceVariant": [
        "SK",
        "SS"
],
      "SeriesDescription": "func_task-things_run-6",
      "SeriesNumber": 25,
      "SeriesTime": "111930.645000",
      "SliceLocation": -39.148449931882,
      "SliceThickness": 2.0,
      "SmallestImagePixelValue": 0,
      "SoftwareVersions": "syngo MR E11",
      "SpacingBetweenSlices": 2.0000000473589,
      "SpecificCharacterSet": "ISO_IR 100",
      "StudyID": "1",
      "StudyTime": "102048.577000",
      "TransmitCoilName": "Body",
      "VariableFlipAngleFlag": "N",
      "WindowCenterWidthExplanation": "Algo1",
      "dBdt": 0.0},
    "slices": {}
  },
  "time": {
    "samples": {
      "AcquisitionNumber": [1, 2, 3, 4, 5, 6, 7, 8, 9, 10, 11, 12, 13, 14, 15, 16, 17, 18, 19, 20, 21, 22, 23, 24, 25, 26, 27, 28, 29, 30, 31, 32, 33, 34, 35, 36, 37, 38, 39, 40, 41, 42, 43, 44, 45, 46, 47, 48, 49, 50, 51, 52, 53, 54, 55, 56, 57, 58, 59, 60, 61, 62, 63, 64, 65, 66, 67, 68, 69, 70, 71, 72, 73, 74, 75, 76, 77, 78, 79, 80, 81, 82, 83, 84, 85, 86, 87, 88, 89, 90, 91, 92, 93, 94, 95, 96, 97, 98, 99, 100, 101, 102, 103, 104, 105, 106, 107, 108, 109, 110, 111, 112, 113, 114, 115, 116, 117, 118, 119, 120, 121, 122, 123, 124, 125, 126, 127, 128, 129, 130, 131, 132, 133, 134, 135, 136, 137, 138, 139, 140, 141, 142, 143, 144, 145, 146, 147, 148, 149, 150, 151, 152, 153, 154, 155, 156, 157, 158, 159, 160, 161, 162, 163, 164, 165, 166, 167, 168, 169, 170, 171, 172, 173, 174, 175, 176, 177, 178, 179, 180, 181, 182, 183, 184, 185, 186, 187, 188, 189, 190],
      "AcquisitionTime": ["111810.057500", "111811.547500", "111813.037500", "111814.527500", "111816.017500", "111817.507500", "111818.997500", "111820.487500", "111821.977500", "111823.467500", "111824.957500", "111826.447500", "111827.937500", "111829.427500", "111830.917500", "111832.407500", "111833.897500", "111835.387500", "111836.877500", "111838.367500", "111839.857500", "111841.347500", "111842.837500", "111844.327500", "111845.817500", "111847.307500", "111848.797500", "111850.287500", "111851.777500", "111853.267500", "111854.757500", "111856.247500", "111857.737500", "111859.227500", "111900.717500", "111902.207500", "111903.697500", "111905.187500", "111906.677500", "111908.167500", "111909.657500", "111911.147500", "111912.637500", "111914.127500", "111915.617500", "111917.107500", "111918.597500", "111920.087500", "111921.577500", "111923.067500", "111924.557500", "111926.047500", "111927.537500", "111929.027500", "111930.517500", "111932.007500", "111933.497500", "111934.987500", "111936.477500", "111937.967500", "111939.457500", "111940.947500", "111942.437500", "111943.927500", "111945.417500", "111946.907500", "111948.397500", "111949.887500", "111951.377500", "111952.867500", "111954.357500", "111955.847500", "111957.337500", "111958.827500", "112000.317500", "112001.807500", "112003.297500", "112004.787500", "112006.277500", "112007.767500", "112009.257500", "112010.747500", "112012.237500", "112013.727500", "112015.217500", "112016.707500", "112018.197500", "112019.687500", "112021.177500", "112022.667500", "112024.157500", "112025.647500", "112027.137500", "112028.627500", "112030.117500", "112031.607500", "112033.097500", "112034.587500", "112036.077500", "112037.567500", "112039.057500", "112040.547500", "112042.037500", "112043.527500", "112045.017500", "112046.507500", "112047.997500", "112049.487500", "112050.977500", "112052.467500", "112053.957500", "112055.447500", "112056.937500", "112058.427500", "112059.917500", "112101.407500", "112102.897500", "112104.387500", "112105.877500", "112107.367500", "112108.857500", "112110.347500", "112111.837500", "112113.327500", "112114.817500", "112116.307500", "112117.797500", "112119.287500", "112120.777500", "112122.267500", "112123.757500", "112125.247500", "112126.737500", "112128.227500", "112129.717500", "112131.207500", "112132.697500", "112134.187500", "112135.677500", "112137.167500", "112138.657500", "112140.147500", "112141.637500", "112143.127500", "112144.617500", "112146.107500", "112147.597500", "112149.087500", "112150.577500", "112152.067500", "112153.557500", "112155.047500", "112156.537500", "112158.027500", "112159.517500", "112201.007500", "112202.497500", "112203.987500", "112205.477500", "112206.967500", "112208.457500", "112209.947500", "112211.437500", "112212.927500", "112214.417500", "112215.907500", "112217.397500", "112218.887500", "112220.377500", "112221.867500", "112223.357500", "112224.847500", "112226.337500", "112227.827500", "112229.317500", "112230.807500", "112232.297500", "112233.787500", "112235.277500", "112236.767500", "112238.257500", "112239.747500", "112241.237500", "112242.727500", "112244.217500", "112245.707500", "112247.197500", "112248.687500", "112250.177500", "112251.667500"],
      "ContentTime": ["111930.648000", "111930.652000", "111930.656000", "111930.659000", "111930.662000", "111930.665000", "111930.669000", "111930.672000", "111930.676000", "111930.679000", "111930.682000", "111930.686000", "111930.689000", "111930.692000", "111930.696000", "111930.699000", "111930.702000", "111930.706000", "111930.709000", "111930.712000", "111930.716000", "111930.719000", "111930.722000", "111930.725000", "111930.729000", "111950.615000", "111950.619000", "111950.622000", "111950.625000", "111950.629000", "111950.632000", "111950.635000", "111950.639000", "111950.642000", "111950.645000", "111950.648000", "111950.652000", "111950.655000", "111950.658000", "111950.662000", "111950.665000", "111950.669000", "111950.672000", "111950.675000", "111950.689000", "111950.692000", "112010.615000", "112010.619000", "112010.622000", "112010.626000", "112010.629000", "112010.632000", "112010.651000", "112010.654000", "112010.657000", "112010.661000", "112010.664000", "112010.667000", "112010.671000", "112010.674000", "112010.677000", "112010.680000", "112010.684000", "112010.687000", "112010.690000", "112010.693000", "112030.615000", "112030.619000", "112030.622000", "112030.625000", "112030.629000", "112030.632000", "112030.635000", "112030.639000", "112030.642000", "112030.645000", "112030.648000", "112030.652000", "112030.655000", "112030.658000", "112030.669000", "112030.672000", "112030.675000", "112030.679000", "112030.682000", "112030.685000", "112030.688000", "112050.615000", "112050.619000", "112050.622000", "112050.625000", "112050.629000", "112050.632000", "112050.635000", "112050.639000", "112050.642000", "112050.645000", "112050.649000", "112050.652000", "112050.655000", "112050.658000", "112050.662000", "112050.665000", "112050.668000", "112050.672000", "112050.675000", "112050.678000", "112130.615000", "112130.619000", "112130.622000", "112130.626000", "112130.629000", "112130.632000", "112130.636000", "112130.639000", "112130.642000", "112130.646000", "112130.649000", "112130.652000", "112130.656000", "112130.659000", "112130.663000", "112130.666000", "112130.669000", "112130.672000", "112130.676000", "112130.679000", "112130.682000", "112130.686000", "112130.689000", "112130.699000", "112130.702000", "112130.720000", "112130.724000", "112210.615000", "112210.619000", "112210.622000", "112210.626000", "112210.629000", "112210.632000", "112210.636000", "112210.639000", "112210.642000", "112210.646000", "112210.649000", "112210.652000", "112210.656000", "112210.659000", "112210.662000", "112210.666000", "112210.669000", "112210.672000", "112210.676000", "112210.679000", "112210.682000", "112210.686000", "112210.689000", "112210.692000", "112210.696000", "112210.699000", "112210.702000", "112250.615000", "112250.619000", "112250.622000", "112250.626000", "112250.629000", "112250.632000", "112250.636000", "112250.639000", "112250.642000", "112250.646000", "112250.649000", "112250.652000", "112250.655000", "112250.659000", "112250.662000", "112250.665000", "112250.669000", "112250.672000", "112250.675000", "112250.679000", "112250.682000", "112250.685000", "112250.688000", "112250.692000", "112250.695000", "112250.698000", "112250.701000", "112253.497000", "112253.500000"],
      "InstanceCreationTime": ["111930.648000", "111930.652000", "111930.656000", "111930.659000", "111930.662000", "111930.665000", "111930.669000", "111930.672000", "111930.676000", "111930.679000", "111930.682000", "111930.686000", "111930.689000", "111930.692000", "111930.696000", "111930.699000", "111930.702000", "111930.706000", "111930.709000", "111930.712000", "111930.716000", "111930.719000", "111930.722000", "111930.725000", "111930.729000", "111950.615000", "111950.619000", "111950.622000", "111950.625000", "111950.629000", "111950.632000", "111950.635000", "111950.639000", "111950.642000", "111950.645000", "111950.648000", "111950.652000", "111950.655000", "111950.658000", "111950.662000", "111950.665000", "111950.669000", "111950.672000", "111950.675000", "111950.689000", "111950.692000", "112010.615000", "112010.619000", "112010.622000", "112010.626000", "112010.629000", "112010.632000", "112010.651000", "112010.654000", "112010.657000", "112010.661000", "112010.664000", "112010.667000", "112010.671000", "112010.674000", "112010.677000", "112010.680000", "112010.684000", "112010.687000", "112010.690000", "112010.693000", "112030.615000", "112030.619000", "112030.622000", "112030.625000", "112030.629000", "112030.632000", "112030.635000", "112030.639000", "112030.642000", "112030.645000", "112030.648000", "112030.652000", "112030.655000", "112030.658000", "112030.669000", "112030.672000", "112030.675000", "112030.679000", "112030.682000", "112030.685000", "112030.688000", "112050.615000", "112050.619000", "112050.622000", "112050.625000", "112050.629000", "112050.632000", "112050.635000", "112050.639000", "112050.642000", "112050.645000", "112050.649000", "112050.652000", "112050.655000", "112050.658000", "112050.662000", "112050.665000", "112050.668000", "112050.672000", "112050.675000", "112050.678000", "112130.615000", "112130.619000", "112130.622000", "112130.626000", "112130.629000", "112130.632000", "112130.636000", "112130.639000", "112130.642000", "112130.646000", "112130.649000", "112130.652000", "112130.656000", "112130.659000", "112130.663000", "112130.666000", "112130.669000", "112130.672000", "112130.676000", "112130.679000", "112130.682000", "112130.686000", "112130.689000", "112130.699000", "112130.702000", "112130.720000", "112130.724000", "112210.615000", "112210.619000", "112210.622000", "112210.626000", "112210.629000", "112210.632000", "112210.636000", "112210.639000", "112210.642000", "112210.646000", "112210.649000", "112210.652000", "112210.656000", "112210.659000", "112210.662000", "112210.666000", "112210.669000", "112210.672000", "112210.676000", "112210.679000", "112210.682000", "112210.686000", "112210.689000", "112210.692000", "112210.696000", "112210.699000", "112210.702000", "112250.615000", "112250.619000", "112250.622000", "112250.626000", "112250.629000", "112250.632000", "112250.636000", "112250.639000", "112250.642000", "112250.646000", "112250.649000", "112250.652000", "112250.655000", "112250.659000", "112250.662000", "112250.665000", "112250.669000", "112250.672000", "112250.675000", "112250.679000", "112250.682000", "112250.685000", "112250.688000", "112250.692000", "112250.695000", "112250.698000", "112250.701000", "112253.497000", "112253.500000"],
      "InstanceNumber": [1, 2, 3, 4, 5, 6, 7, 8, 9, 10, 11, 12, 13, 14, 15, 16, 17, 18, 19, 20, 21, 22, 23, 24, 25, 26, 27, 28, 29, 30, 31, 32, 33, 34, 35, 36, 37, 38, 39, 40, 41, 42, 43, 44, 45, 46, 47, 48, 49, 50, 51, 52, 53, 54, 55, 56, 57, 58, 59, 60, 61, 62, 63, 64, 65, 66, 67, 68, 69, 70, 71, 72, 73, 74, 75, 76, 77, 78, 79, 80, 81, 82, 83, 84, 85, 86, 87, 88, 89, 90, 91, 92, 93, 94, 95, 96, 97, 98, 99, 100, 101, 102, 103, 104, 105, 106, 107, 108, 109, 110, 111, 112, 113, 114, 115, 116, 117, 118, 119, 120, 121, 122, 123, 124, 125, 126, 127, 128, 129, 130, 131, 132, 133, 134, 135, 136, 137, 138, 139, 140, 141, 142, 143, 144, 145, 146, 147, 148, 149, 150, 151, 152, 153, 154, 155, 156, 157, 158, 159, 160, 161, 162, 163, 164, 165, 166, 167, 168, 169, 170, 171, 172, 173, 174, 175, 176, 177, 178, 179, 180, 181, 182, 183, 184, 185, 186, 187, 188, 189, 190],
      "LargestImagePixelValue": [44849, 43598, 42828, 42525, 42833, 43206, 42022, 42352, 42543, 43003, 42727, 42148, 42618, 42293, 42100, 42503, 42221, 42537, 42684, 42365, 42475, 42246, 41863, 42511, 42795, 42560, 42652, 42161, 42738, 42234, 42549, 42707, 42229, 43318, 42077, 42886, 42631, 42494, 42463, 42639, 42755, 42566, 42767, 42762, 43030, 43091, 42923, 43006, 42560, 42947, 42943, 42246, 42706, 42572, 42278, 43179, 42636, 42193, 42803, 42858, 42579, 42825, 43180, 42481, 42546, 42664, 42776, 42390, 42640, 42857, 42811, 42452, 42606, 42321, 42238, 42666, 42671, 43386, 42602, 42152, 41864, 42728, 42369, 42232, 42288, 43525, 43060, 42034, 41877, 41926, 41479, 43073, 41819, 41913, 42426, 42322, 41828, 42984, 41810, 41826, 42664, 41867, 42017, 42114, 42165, 42538, 42425, 43061, 41888, 42400, 42496, 42368, 42497, 42070, 42222, 43158, 41286, 41701, 41994, 41723, 41683, 43224, 42223, 41971, 41899, 41801, 41884, 42558, 42820, 41961, 42017, 42896, 41019, 42030, 42218, 41348, 41995, 42470, 41229, 41874, 42332, 43202, 42061, 41449, 41851, 41568, 42351, 42221, 40931, 42177, 41827, 42206, 43001, 41280, 41187, 41514, 41644, 41773, 41347, 42268, 42351, 41993, 41390, 42711, 43830, 42101, 43742, 43052, 42737, 41730, 41959, 42166, 42175, 42694, 42438, 42174, 42248, 41684, 42395, 42357, 42358, 42071, 42627, 42833, 42745, 43031, 43094, 42842, 45995, 47705],
      "WindowCenter": [10959.0, 10909.0, 10878.0, 10846.0, 10837.0, 10848.0, 10826.0, 10825.0, 10812.0, 10769.0, 10771.0, 10794.0, 10829.0, 10838.0, 10823.0, 10825.0, 10818.0, 10821.0, 10824.0, 10810.0, 10815.0, 10813.0, 10791.0, 10803.0, 10849.0, 10829.0, 10790.0, 10789.0, 10791.0, 10789.0, 10803.0, 10804.0, 10807.0, 10839.0, 10803.0, 10826.0, 10834.0, 10829.0, 10832.0, 10840.0, 10815.0, 10779.0, 10765.0, 10769.0, 10776.0, 10796.0, 10797.0, 10803.0, 10793.0, 10781.0, 10777.0, 10777.0, 10799.0, 10800.0, 10804.0, 10823.0, 10806.0, 10779.0, 10762.0, 10766.0, 10788.0, 10796.0, 10789.0, 10786.0, 10784.0, 10796.0, 10818.0, 10810.0, 10782.0, 10757.0, 10761.0, 10782.0, 10795.0, 10794.0, 10776.0, 10776.0, 10782.0, 10804.0, 10795.0, 10781.0, 10771.0, 10771.0, 10765.0, 10776.0, 10771.0, 10767.0, 10772.0, 10788.0, 10792.0, 10801.0, 10790.0, 10810.0, 10784.0, 10772.0, 10768.0, 10763.0, 10769.0, 10785.0, 10774.0, 10777.0, 10779.0, 10766.0, 10765.0, 10770.0, 10779.0, 10802.0, 10789.0, 10801.0, 10778.0, 10774.0, 10778.0, 10776.0, 10772.0, 10764.0, 10791.0, 10820.0, 10811.0, 10803.0, 10773.0, 10748.0, 10748.0, 10783.0, 10797.0, 10798.0, 10791.0, 10743.0, 10733.0, 10759.0, 10796.0, 10791.0, 10782.0, 10783.0, 10744.0, 10723.0, 10719.0, 10740.0, 10781.0, 10800.0, 10774.0, 10779.0, 10789.0, 10825.0, 10809.0, 10766.0, 10732.0, 10710.0, 10751.0, 10801.0, 10776.0, 10771.0, 10739.0, 10745.0, 10765.0, 10787.0, 10788.0, 10775.0, 10770.0, 10776.0, 10768.0, 10793.0, 10811.0, 10788.0, 10748.0, 10735.0, 10765.0, 10818.0, 10857.0, 10812.0, 10770.0, 10750.0, 10790.0, 10820.0, 10799.0, 10766.0, 10743.0, 10720.0, 10734.0, 10748.0, 10750.0, 10743.0, 10757.0, 10760.0, 10775.0, 10802.0, 10798.0, 10787.0, 10772.0, 10815.0, 10898.0, 10994.0],
      "WindowWidth": [23588.0, 23438.0, 23348.0, 23262.0, 23238.0, 23251.0, 23207.0, 23207.0, 23173.0, 23073.0, 23073.0, 23127.0, 23209.0, 23236.0, 23201.0, 23201.0, 23187.0, 23192.0, 23205.0, 23175.0, 23177.0, 23185.0, 23127.0, 23148.0, 23254.0, 23215.0, 23124.0, 23120.0, 23122.0, 23121.0, 23149.0, 23155.0, 23161.0, 23232.0, 23158.0, 23198.0, 23220.0, 23209.0, 23212.0, 23234.0, 23177.0, 23093.0, 23062.0, 23069.0, 23081.0, 23132.0, 23139.0, 23141.0, 23125.0, 23096.0, 23087.0, 23093.0, 23142.0, 23141.0, 23156.0, 23194.0, 23157.0, 23098.0, 23056.0, 23061.0, 23112.0, 23129.0, 23112.0, 23116.0, 23104.0, 23132.0, 23173.0, 23165.0, 23103.0, 23043.0, 23050.0, 23100.0, 23134.0, 23133.0, 23087.0, 23087.0, 23101.0, 23146.0, 23134.0, 23102.0, 23081.0, 23078.0, 23065.0, 23088.0, 23081.0, 23063.0, 23070.0, 23114.0, 23130.0, 23149.0, 23133.0, 23167.0, 23113.0, 23082.0, 23071.0, 23062.0, 23079.0, 23109.0, 23086.0, 23100.0, 23098.0, 23071.0, 23068.0, 23079.0, 23099.0, 23151.0, 23120.0, 23141.0, 23104.0, 23086.0, 23095.0, 23096.0, 23085.0, 23070.0, 23129.0, 23188.0, 23178.0, 23163.0, 23092.0, 23031.0, 23028.0, 23105.0, 23135.0, 23144.0, 23135.0, 23020.0, 22990.0, 23049.0, 23131.0, 23128.0, 23107.0, 23103.0, 23030.0, 22974.0, 22964.0, 23016.0, 23107.0, 23148.0, 23091.0, 23109.0, 23116.0, 23195.0, 23171.0, 23070.0, 22990.0, 22947.0, 23035.0, 23151.0, 23106.0, 23084.0, 23012.0, 23029.0, 23062.0, 23127.0, 23122.0, 23096.0, 23081.0, 23099.0, 23076.0, 23137.0, 23172.0, 23118.0, 23037.0, 23002.0, 23054.0, 23198.0, 23277.0, 23174.0, 23076.0, 23035.0, 23123.0, 23190.0, 23141.0, 23061.0, 23017.0, 22972.0, 22999.0, 23043.0, 23040.0, 23018.0, 23043.0, 23059.0, 23082.0, 23142.0, 23132.0, 23110.0, 23075.0, 23178.0, 23366.0, 23584.0]
    },
    "slices": {}
  }
}