{
  "AcquisitionMatrixPE": 104,
  "AcquisitionNumber": 1,
  "AcquisitionTime": "10:53:33.732500",
  "BandwidthPerPixelPhaseEncode": 17.17,
  "BaseResolution": 104,
  "BodyPartExamined": "BRAIN",
  "CoilString": "HC1-7;NC1_2",
  "ConsistencyInfo": "N4_VE11C_LATEST_20160120",
  "ConversionSoftware": "dcm2niix",
  "ConversionSoftwareVersion": "v1.0.20190902",
  "DerivedVendorReportedEchoSpacing": 0.000560011,
  "DeviceSerialNumber": "167006",
  "DwellTime": 2.1e-06,
  "EchoTime": 0.037,
  "EchoTrainLength": 104,
  "EffectiveEchoSpacing": 0.000560011,
  "FlipAngle": 52,
  "ImageComments": "Unaliased_MB4_PE3_LB",
  "ImageOrientationPatientDICOM": [0.999898, -0.00321427, 0.0139275, 0.00942411, 0.880853, -0.473296],
  "ImageType": [
    "ORIGINAL",
    "PRIMARY",
    "P",
    "MB",
    "ND",
    "MOSAIC"
],
  "ImagingFrequency": 123.259,
  "InPlanePhaseEncodingDirectionDICOM": "COL",
  "InstitutionAddress": "Chemin_Queen-Mary_4565_Montreal_District_CA_H3W_1W5",
  "InstitutionName": "IUGM",
  "InstitutionalDepartmentName": "Department",
  "MRAcquisitionType": "2D",
  "MagneticFieldStrength": 3,
  "Manufacturer": "Siemens",
  "ManufacturersModelName": "Prisma_fit",
  "Modality": "MR",
  "MultibandAccelerationFactor": 4,
  "PartialFourier": 1,
  "PatientPosition": "HFS",
  "PercentPhaseFOV": 100,
  "PhaseEncodingDirection": "j",
  "PhaseEncodingSteps": 104,
  "PhaseResolution": 1,
  "PixelBandwidth": 2290,
  "ProcedureStepDescription": "memory_things",
  "ProtocolName": "func_task-things_run-2",
  "PulseSequenceDetails": "%CustomerSeq%_cmrr_mbep2d_bold",
  "ReceiveCoilActiveElements": "HC1-7;NC1,2",
  "ReceiveCoilName": "HeadNeck_64",
  "ReconMatrixPE": 104,
  "RepetitionTime": 1.49,
  "SAR": 0.0503595,
  "ScanOptions": "FS",
  "ScanningSequence": "EP",
  "SequenceName": "epfid2d1_104",
  "SequenceVariant": "SK_SS",
  "SeriesDescription": "func_task-things_run-2",
  "SeriesNumber": 14,
  "ShimSetting": [612, -7196, -8845, 284, 6, -104, -14, -28],
  "SliceThickness": 2,
  "SliceTiming": [0, 0.785, 0.0975, 0.8825, 0.195, 0.98, 0.295, 1.0775, 0.3925, 1.175, 0.49, 1.275, 0.5875, 1.3725, 0.685, 0, 0.785, 0.0975, 0.8825, 0.195, 0.98, 0.295, 1.0775, 0.3925, 1.175, 0.49, 1.275, 0.5875, 1.3725, 0.685, 0, 0.785, 0.0975, 0.8825, 0.195, 0.98, 0.295, 1.0775, 0.3925, 1.175, 0.49, 1.275, 0.5875, 1.3725, 0.685, 0, 0.785, 0.0975, 0.8825, 0.195, 0.98, 0.295, 1.0775, 0.3925, 1.175, 0.49, 1.275, 0.5875, 1.3725, 0.685],
  "SoftwareVersions": "syngo_MR_E11",
  "SpacingBetweenSlices": 2,
  "StationName": "MRC35049",
  "TaskName": "things",
  "TotalReadoutTime": 0.0576811,
  "TxRefAmp": 272.81,
  "WipMemBlock": "308d2747-5cd4-4cd4-9162-a7d5cc69ad82||Sequence: R016 ve11c/master r/e634e98; Dec 19 2017 11:00:25 by eja",
  "dcmmeta_affine": [
    [-1.99979567527771, 0.01884821429848671, 0.021493589505553246, 105.8907470703125],
    [0.006428543943911791, 1.761705756187439, -0.9467583298683167, -54.89006805419922],
    [0.0278550423681736, 0.9465925097465515, 1.7615864276885986, -75.2392807006836],
    [0.0, 0.0, 0.0, 1.0]
],
  "dcmmeta_reorient_transform": [
    [0.0, -1.0, 0.0, 103.0],
    [1.0, 0.0, 0.0, 0.0],
    [0.0, 0.0, 1.0, 0.0],
    [0.0, 0.0, 0.0, 1.0]
],
  "dcmmeta_shape": [104, 104, 60, 190],
  "dcmmeta_slice_dim": 2,
  "dcmmeta_version": 0.6,
  "global": {
    "const": {
      "AcquisitionMatrix": [104, 0, 0, 104],
      "AngioFlag": "N",
      "BitsAllocated": 16,
      "BitsStored": 16,
      "BodyPartExamined": "BRAIN",
      "Columns": 832,
      "EchoNumbers": 1,
      "EchoTime": 37.0,
      "EchoTrainLength": 104,
      "FlipAngle": 52.0,
      "HighBit": 15,
      "ImageOrientationPatient": [0.99989784108867, -0.0032142719178, 0.01392752103803, 0.00942410712473, 0.8808529028393, -0.4732962600364],
      "ImagePositionPatient": [-842.61849366501, -765.48655491593, 356.68018818554],
      "ImageType": [
        "ORIGINAL",
        "PRIMARY",
        "P",
        "MB",
        "ND",
        "MOSAIC"
],
      "ImagedNucleus": "1H",
      "ImagingFrequency": 123.258874,
      "InPlanePhaseEncodingDirection": "COL",
      "LargestImagePixelValue": 4095,
      "MRAcquisitionType": "2D",
      "MagneticFieldStrength": 3.0,
      "Manufacturer": "SIEMENS",
      "ManufacturerModelName": "Prisma_fit",
      "Modality": "MR",
      "NumberOfAverages": 1.0,
      "NumberOfPhaseEncodingSteps": 104,
      "PercentPhaseFieldOfView": 100.0,
      "PercentSampling": 100.0,
      "PerformedProcedureStepStartTime": "102048.647000",
      "PhotometricInterpretation": "MONOCHROME2",
      "PixelBandwidth": 2290.0,
      "PixelRepresentation": 0,
      "PixelSpacing": [2.0, 2.0],
      "ProtocolName": "func_task-things_run-2",
      "RepetitionTime": 1490.0,
      "RescaleIntercept": -4096.0,
      "RescaleSlope": 2.0,
      "RescaleType": "US",
      "Rows": 832,
      "SAR": 0.05035951282313,
      "SamplesPerPixel": 1,
      "ScanOptions": "FS",
      "ScanningSequence": "EP",
      "SequenceName": "epfid2d1_104",
      "SequenceVariant": [
        "SK",
        "SS"
],
      "SeriesDescription": "func_task-things_run-2",
      "SeriesNumber": 14,
      "SeriesTime": "105450.840000",
      "SliceLocation": -39.148449931882,
      "SliceThickness": 2.0,
      "SmallestImagePixelValue": 0,
      "SoftwareVersions": "syngo MR E11",
      "SpacingBetweenSlices": 2.0000000473589,
      "SpecificCharacterSet": "ISO_IR 100",
      "StudyID": "1",
      "StudyTime": "102048.577000",
      "TransmitCoilName": "Body",
      "VariableFlipAngleFlag": "N",
      "WindowCenterWidthExplanation": "Algo1",
      "dBdt": 0.0},
    "slices": {}
  },
  "time": {
    "samples": {
      "AcquisitionNumber": [1, 2, 3, 4, 5, 6, 7, 8, 9, 10, 11, 12, 13, 14, 15, 16, 17, 18, 19, 20, 21, 22, 23, 24, 25, 26, 27, 28, 29, 30, 31, 32, 33, 34, 35, 36, 37, 38, 39, 40, 41, 42, 43, 44, 45, 46, 47, 48, 49, 50, 51, 52, 53, 54, 55, 56, 57, 58, 59, 60, 61, 62, 63, 64, 65, 66, 67, 68, 69, 70, 71, 72, 73, 74, 75, 76, 77, 78, 79, 80, 81, 82, 83, 84, 85, 86, 87, 88, 89, 90, 91, 92, 93, 94, 95, 96, 97, 98, 99, 100, 101, 102, 103, 104, 105, 106, 107, 108, 109, 110, 111, 112, 113, 114, 115, 116, 117, 118, 119, 120, 121, 122, 123, 124, 125, 126, 127, 128, 129, 130, 131, 132, 133, 134, 135, 136, 137, 138, 139, 140, 141, 142, 143, 144, 145, 146, 147, 148, 149, 150, 151, 152, 153, 154, 155, 156, 157, 158, 159, 160, 161, 162, 163, 164, 165, 166, 167, 168, 169, 170, 171, 172, 173, 174, 175, 176, 177, 178, 179, 180, 181, 182, 183, 184, 185, 186, 187, 188, 189, 190],
      "AcquisitionTime": ["105333.732500", "105335.222500", "105336.712500", "105338.202500", "105339.692500", "105341.182500", "105342.672500", "105344.162500", "105345.652500", "105347.142500", "105348.632500", "105350.122500", "105351.612500", "105353.102500", "105354.592500", "105356.082500", "105357.572500", "105359.062500", "105400.552500", "105402.042500", "105403.532500", "105405.022500", "105406.512500", "105408.002500", "105409.492500", "105410.982500", "105412.472500", "105413.962500", "105415.452500", "105416.942500", "105418.432500", "105419.922500", "105421.412500", "105422.902500", "105424.392500", "105425.882500", "105427.372500", "105428.862500", "105430.352500", "105431.842500", "105433.332500", "105434.822500", "105436.312500", "105437.802500", "105439.292500", "105440.782500", "105442.272500", "105443.762500", "105445.252500", "105446.742500", "105448.232500", "105449.722500", "105451.212500", "105452.702500", "105454.192500", "105455.682500", "105457.172500", "105458.662500", "105500.152500", "105501.642500", "105503.132500", "105504.622500", "105506.112500", "105507.602500", "105509.092500", "105510.582500", "105512.072500", "105513.562500", "105515.052500", "105516.542500", "105518.032500", "105519.522500", "105521.012500", "105522.502500", "105523.992500", "105525.482500", "105526.972500", "105528.462500", "105529.952500", "105531.442500", "105532.932500", "105534.422500", "105535.912500", "105537.402500", "105538.892500", "105540.382500", "105541.872500", "105543.362500", "105544.852500", "105546.342500", "105547.832500", "105549.322500", "105550.812500", "105552.302500", "105553.792500", "105555.282500", "105556.772500", "105558.262500", "105559.752500", "105601.242500", "105602.732500", "105604.222500", "105605.712500", "105607.202500", "105608.692500", "105610.182500", "105611.672500", "105613.162500", "105614.652500", "105616.142500", "105617.632500", "105619.122500", "105620.612500", "105622.102500", "105623.592500", "105625.082500", "105626.572500", "105628.062500", "105629.552500", "105631.042500", "105632.532500", "105634.022500", "105635.512500", "105637.002500", "105638.492500", "105639.982500", "105641.472500", "105642.962500", "105644.452500", "105645.942500", "105647.432500", "105648.922500", "105650.412500", "105651.902500", "105653.392500", "105654.882500", "105656.372500", "105657.862500", "105659.352500", "105700.842500", "105702.332500", "105703.822500", "105705.312500", "105706.802500", "105708.292500", "105709.782500", "105711.272500", "105712.762500", "105714.252500", "105715.742500", "105717.232500", "105718.722500", "105720.212500", "105721.702500", "105723.192500", "105724.682500", "105726.172500", "105727.662500", "105729.152500", "105730.642500", "105732.132500", "105733.622500", "105735.112500", "105736.602500", "105738.092500", "105739.582500", "105741.072500", "105742.562500", "105744.052500", "105745.542500", "105747.032500", "105748.522500", "105750.012500", "105751.502500", "105752.992500", "105754.482500", "105755.972500", "105757.462500", "105758.952500", "105800.442500", "105801.932500", "105803.422500", "105804.912500", "105806.402500", "105807.892500", "105809.382500", "105810.872500", "105812.362500", "105813.852500", "105815.342500"],
      "ContentTime": ["105450.842000", "105450.845000", "105450.848000", "105450.850000", "105450.853000", "105450.855000", "105450.864000", "105450.867000", "105450.869000", "105450.871000", "105450.874000", "105450.876000", "105450.879000", "105450.881000", "105450.884000", "105450.891000", "105450.893000", "105450.896000", "105450.898000", "105450.901000", "105450.904000", "105450.906000", "105450.909000", "105450.911000", "105450.924000", "105510.823000", "105510.825000", "105510.828000", "105510.830000", "105510.833000", "105510.836000", "105510.838000", "105510.849000", "105510.851000", "105510.854000", "105510.856000", "105510.859000", "105510.861000", "105510.864000", "105510.866000", "105510.869000", "105510.871000", "105510.874000", "105510.876000", "105510.879000", "105530.806000", "105530.808000", "105530.811000", "105530.813000", "105530.816000", "105530.818000", "105530.821000", "105530.832000", "105530.835000", "105530.837000", "105530.839000", "105530.842000", "105530.844000", "105530.847000", "105530.850000", "105530.852000", "105530.854000", "105530.857000", "105530.859000", "105530.862000", "105530.864000", "105550.805000", "105550.807000", "105550.810000", "105550.813000", "105550.815000", "105550.818000", "105550.820000", "105550.823000", "105550.825000", "105550.828000", "105550.830000", "105550.833000", "105550.835000", "105550.837000", "105550.840000", "105550.843000", "105550.845000", "105550.848000", "105550.850000", "105550.853000", "105630.859000", "105630.862000", "105630.864000", "105630.867000", "105630.869000", "105630.872000", "105630.874000", "105630.884000", "105630.887000", "105630.889000", "105630.892000", "105630.894000", "105630.897000", "105630.899000", "105630.902000", "105630.905000", "105630.907000", "105630.910000", "105630.912000", "105630.915000", "105630.917000", "105630.920000", "105630.922000", "105630.925000", "105630.928000", "105630.930000", "105630.932000", "105630.935000", "105630.937000", "105630.940000", "105630.943000", "105630.945000", "105710.837000", "105710.840000", "105710.843000", "105710.845000", "105710.848000", "105710.850000", "105710.853000", "105710.855000", "105710.858000", "105710.860000", "105710.863000", "105710.865000", "105710.868000", "105710.870000", "105710.873000", "105710.875000", "105710.878000", "105710.881000", "105710.883000", "105710.886000", "105710.888000", "105710.891000", "105710.893000", "105710.896000", "105710.898000", "105710.901000", "105710.903000", "105750.886000", "105750.889000", "105750.891000", "105750.894000", "105750.896000", "105750.899000", "105750.901000", "105750.904000", "105750.906000", "105750.909000", "105750.911000", "105750.914000", "105750.916000", "105750.919000", "105750.921000", "105750.924000", "105750.926000", "105750.929000", "105750.931000", "105750.934000", "105750.936000", "105750.939000", "105750.941000", "105750.944000", "105750.946000", "105750.949000", "105750.951000", "105817.518000", "105817.521000", "105817.523000", "105817.526000", "105817.528000", "105817.531000", "105817.534000", "105817.536000", "105817.539000", "105817.542000", "105817.545000", "105817.548000", "105817.550000", "105817.553000", "105817.556000", "105817.559000", "105817.562000", "105817.564000"],
      "InstanceCreationTime": ["105450.842000", "105450.845000", "105450.848000", "105450.850000", "105450.853000", "105450.855000", "105450.864000", "105450.867000", "105450.869000", "105450.871000", "105450.874000", "105450.876000", "105450.879000", "105450.881000", "105450.884000", "105450.891000", "105450.893000", "105450.896000", "105450.898000", "105450.901000", "105450.904000", "105450.906000", "105450.909000", "105450.911000", "105450.924000", "105510.823000", "105510.825000", "105510.828000", "105510.830000", "105510.833000", "105510.836000", "105510.838000", "105510.849000", "105510.851000", "105510.854000", "105510.856000", "105510.859000", "105510.861000", "105510.864000", "105510.866000", "105510.869000", "105510.871000", "105510.874000", "105510.876000", "105510.879000", "105530.806000", "105530.808000", "105530.811000", "105530.813000", "105530.816000", "105530.818000", "105530.821000", "105530.832000", "105530.835000", "105530.837000", "105530.839000", "105530.842000", "105530.844000", "105530.847000", "105530.850000", "105530.852000", "105530.854000", "105530.857000", "105530.859000", "105530.862000", "105530.864000", "105550.805000", "105550.807000", "105550.810000", "105550.813000", "105550.815000", "105550.818000", "105550.820000", "105550.823000", "105550.825000", "105550.828000", "105550.830000", "105550.833000", "105550.835000", "105550.837000", "105550.840000", "105550.843000", "105550.845000", "105550.848000", "105550.850000", "105550.853000", "105630.859000", "105630.862000", "105630.864000", "105630.867000", "105630.869000", "105630.872000", "105630.874000", "105630.884000", "105630.887000", "105630.889000", "105630.892000", "105630.894000", "105630.897000", "105630.899000", "105630.902000", "105630.905000", "105630.907000", "105630.910000", "105630.912000", "105630.915000", "105630.917000", "105630.920000", "105630.922000", "105630.925000", "105630.928000", "105630.930000", "105630.932000", "105630.935000", "105630.937000", "105630.940000", "105630.943000", "105630.945000", "105710.837000", "105710.840000", "105710.843000", "105710.845000", "105710.848000", "105710.850000", "105710.853000", "105710.855000", "105710.858000", "105710.860000", "105710.863000", "105710.865000", "105710.868000", "105710.870000", "105710.873000", "105710.875000", "105710.878000", "105710.881000", "105710.883000", "105710.886000", "105710.888000", "105710.891000", "105710.893000", "105710.896000", "105710.898000", "105710.901000", "105710.903000", "105750.886000", "105750.889000", "105750.891000", "105750.894000", "105750.896000", "105750.899000", "105750.901000", "105750.904000", "105750.906000", "105750.909000", "105750.911000", "105750.914000", "105750.916000", "105750.919000", "105750.921000", "105750.924000", "105750.926000", "105750.929000", "105750.931000", "105750.934000", "105750.936000", "105750.939000", "105750.941000", "105750.944000", "105750.946000", "105750.949000", "105750.951000", "105817.518000", "105817.521000", "105817.523000", "105817.526000", "105817.528000", "105817.531000", "105817.534000", "105817.536000", "105817.539000", "105817.542000", "105817.545000", "105817.548000", "105817.550000", "105817.553000", "105817.556000", "105817.559000", "105817.562000", "105817.564000"],
      "InstanceNumber": [1, 2, 3, 4, 5, 6, 7, 8, 9, 10, 11, 12, 13, 14, 15, 16, 17, 18, 19, 20, 21, 22, 23, 24, 25, 26, 27, 28, 29, 30, 31, 32, 33, 34, 35, 36, 37, 38, 39, 40, 41, 42, 43, 44, 45, 46, 47, 48, 49, 50, 51, 52, 53, 54, 55, 56, 57, 58, 59, 60, 61, 62, 63, 64, 65, 66, 67, 68, 69, 70, 71, 72, 73, 74, 75, 76, 77, 78, 79, 80, 81, 82, 83, 84, 85, 86, 87, 88, 89, 90, 91, 92, 93, 94, 95, 96, 97, 98, 99, 100, 101, 102, 103, 104, 105, 106, 107, 108, 109, 110, 111, 112, 113, 114, 115, 116, 117, 118, 119, 120, 121, 122, 123, 124, 125, 126, 127, 128, 129, 130, 131, 132, 133, 134, 135, 136, 137, 138, 139, 140, 141, 142, 143, 144, 145, 146, 147, 148, 149, 150, 151, 152, 153, 154, 155, 156, 157, 158, 159, 160, 161, 162, 163, 164, 165, 166, 167, 168, 169, 170, 171, 172, 173, 174, 175, 176, 177, 178, 179, 180, 181, 182, 183, 184, 185, 186, 187, 188, 189, 190],
      "WindowCenter": [4850.0, 4822.0, 4884.0, 4918.0, 4886.0, 4914.0, 4888.0, 4884.0, 4840.0, 4840.0, 4844.0, 4808.0, 4852.0, 4886.0, 4920.0, 4884.0, 4878.0, 4850.0, 4848.0, 4818.0, 4842.0, 4850.0, 4850.0, 4884.0, 4890.0, 4884.0, 4892.0, 4892.0, 4846.0, 4810.0, 4872.0, 4788.0, 4814.0, 4848.0, 4850.0, 4918.0, 4886.0, 4918.0, 4874.0, 4878.0, 4840.0, 4810.0, 4844.0, 4786.0, 4846.0, 4850.0, 4886.0, 4924.0, 4926.0, 4852.0, 4878.0, 4816.0, 4840.0, 4782.0, 4846.0, 4808.0, 4878.0, 4878.0, 4890.0, 4916.0, 4914.0, 4876.0, 4850.0, 4846.0, 4818.0, 4848.0, 4850.0, 4878.0, 4850.0, 4914.0, 4854.0, 4878.0, 4886.0, 4810.0, 4816.0, 4876.0, 4820.0, 4884.0, 4878.0, 4852.0, 4916.0, 4850.0, 4786.0, 4852.0, 4892.0, 4878.0, 4914.0, 4884.0, 4852.0, 4884.0, 4842.0, 4850.0, 4844.0, 4852.0, 4850.0, 4848.0, 4882.0, 4848.0, 4878.0, 4848.0, 4848.0, 4850.0, 4878.0, 4914.0, 4916.0, 4816.0, 4840.0, 4844.0, 4852.0, 4846.0, 4820.0, 4884.0, 4852.0, 4892.0, 4880.0, 4888.0, 4850.0, 4878.0, 4818.0, 4874.0, 4820.0, 4854.0, 4852.0, 4886.0, 4848.0, 4876.0, 4878.0, 4816.0, 4882.0, 4854.0, 4882.0, 4818.0, 4880.0, 4818.0, 4876.0, 4854.0, 4882.0, 4874.0, 4856.0, 4844.0, 4844.0, 4874.0, 4812.0, 4882.0, 4876.0, 4880.0, 4886.0, 4890.0, 4850.0, 4820.0, 4852.0, 4818.0, 4878.0, 4852.0, 4786.0, 4818.0, 4886.0, 4884.0, 4890.0, 4890.0, 4848.0, 4880.0, 4818.0, 4850.0, 4816.0, 4854.0, 4822.0, 4876.0, 4876.0, 4878.0, 4888.0, 4850.0, 4884.0, 4846.0, 4854.0, 4810.0, 4846.0, 4852.0, 4814.0, 4886.0, 4854.0, 4856.0, 4888.0, 4850.0, 4884.0, 4818.0, 4854.0, 4844.0, 4846.0, 4850.0],
      "WindowWidth": [18696.0, 18662.0, 18732.0, 18764.0, 18732.0, 18768.0, 18736.0, 18738.0, 18686.0, 18692.0, 18696.0, 18652.0, 18702.0, 18742.0, 18768.0, 18732.0, 18732.0, 18702.0, 18694.0, 18658.0, 18692.0, 18700.0, 18700.0, 18736.0, 18734.0, 18734.0, 18736.0, 18738.0, 18694.0, 18654.0, 18730.0, 18622.0, 18656.0, 18692.0, 18698.0, 18770.0, 18738.0, 18768.0, 18736.0, 18730.0, 18688.0, 18652.0, 18696.0, 18620.0, 18698.0, 18700.0, 18736.0, 18768.0, 18768.0, 18706.0, 18734.0, 18658.0, 18688.0, 18618.0, 18698.0, 18652.0, 18732.0, 18732.0, 18736.0, 18768.0, 18768.0, 18730.0, 18700.0, 18694.0, 18660.0, 18696.0, 18700.0, 18734.0, 18700.0, 18770.0, 18700.0, 18736.0, 18738.0, 18650.0, 18656.0, 18732.0, 18664.0, 18738.0, 18734.0, 18702.0, 18768.0, 18698.0, 18618.0, 18704.0, 18742.0, 18736.0, 18770.0, 18732.0, 18702.0, 18736.0, 18692.0, 18700.0, 18694.0, 18702.0, 18694.0, 18696.0, 18736.0, 18694.0, 18734.0, 18698.0, 18700.0, 18696.0, 18734.0, 18766.0, 18768.0, 18656.0, 18692.0, 18690.0, 18700.0, 18694.0, 18662.0, 18738.0, 18698.0, 18740.0, 18732.0, 18736.0, 18700.0, 18734.0, 18658.0, 18734.0, 18662.0, 18706.0, 18702.0, 18734.0, 18700.0, 18730.0, 18730.0, 18660.0, 18734.0, 18700.0, 18736.0, 18660.0, 18734.0, 18660.0, 18732.0, 18700.0, 18736.0, 18732.0, 18702.0, 18694.0, 18692.0, 18728.0, 18656.0, 18738.0, 18730.0, 18734.0, 18738.0, 18738.0, 18694.0, 18662.0, 18700.0, 18658.0, 18732.0, 18698.0, 18618.0, 18660.0, 18738.0, 18730.0, 18742.0, 18734.0, 18698.0, 18736.0, 18658.0, 18700.0, 18658.0, 18700.0, 18656.0, 18732.0, 18730.0, 18734.0, 18736.0, 18698.0, 18734.0, 18696.0, 18700.0, 18650.0, 18694.0, 18700.0, 18660.0, 18738.0, 18700.0, 18704.0, 18738.0, 18698.0, 18734.0, 18658.0, 18702.0, 18696.0, 18698.0, 18698.0]
    },
    "slices": {}
  }
}