{
  "AcquisitionMatrixPE": 104,
  "AcquisitionNumber": 1,
  "AcquisitionTime": "11:12:5.230000",
  "BandwidthPerPixelPhaseEncode": 17.17,
  "BaseResolution": 104,
  "BodyPartExamined": "BRAIN",
  "CoilString": "HC1-7;NC1_2",
  "ConsistencyInfo": "N4_VE11C_LATEST_20160120",
  "ConversionSoftware": "dcm2niix",
  "ConversionSoftwareVersion": "v1.0.20190902",
  "DerivedVendorReportedEchoSpacing": 0.000560011,
  "DeviceSerialNumber": "167006",
  "DwellTime": 2.1e-06,
  "EchoTime": 0.037,
  "EchoTrainLength": 104,
  "EffectiveEchoSpacing": 0.000560011,
  "FlipAngle": 52,
  "ImageComments": "Unaliased_MB4_PE3_LB",
  "ImageOrientationPatientDICOM": [0.999898, -0.00321427, 0.0139275, 0.00942411, 0.880853, -0.473296],
  "ImageType": [
    "ORIGINAL",
    "PRIMARY",
    "P",
    "MB",
    "ND",
    "MOSAIC"
],
  "ImagingFrequency": 123.259,
  "InPlanePhaseEncodingDirectionDICOM": "COL",
  "InstitutionAddress": "Chemin_Queen-Mary_4565_Montreal_District_CA_H3W_1W5",
  "InstitutionName": "IUGM",
  "InstitutionalDepartmentName": "Department",
  "MRAcquisitionType": "2D",
  "MagneticFieldStrength": 3,
  "Manufacturer": "Siemens",
  "ManufacturersModelName": "Prisma_fit",
  "Modality": "MR",
  "MultibandAccelerationFactor": 4,
  "PartialFourier": 1,
  "PatientPosition": "HFS",
  "PercentPhaseFOV": 100,
  "PhaseEncodingDirection": "j",
  "PhaseEncodingSteps": 104,
  "PhaseResolution": 1,
  "PixelBandwidth": 2290,
  "ProcedureStepDescription": "memory_things",
  "ProtocolName": "func_task-things_run-5",
  "PulseSequenceDetails": "%CustomerSeq%_cmrr_mbep2d_bold",
  "ReceiveCoilActiveElements": "HC1-7;NC1,2",
  "ReceiveCoilName": "HeadNeck_64",
  "ReconMatrixPE": 104,
  "RepetitionTime": 1.49,
  "SAR": 0.0503595,
  "ScanOptions": "FS",
  "ScanningSequence": "EP",
  "SequenceName": "epfid2d1_104",
  "SequenceVariant": "SK_SS",
  "SeriesDescription": "func_task-things_run-5",
  "SeriesNumber": 23,
  "ShimSetting": [612, -7196, -8845, 284, 6, -104, -14, -28],
  "SliceThickness": 2,
  "SliceTiming": [0, 0.785, 0.0975, 0.8825, 0.1975, 0.98, 0.295, 1.0775, 0.3925, 1.1775, 0.49, 1.275, 0.5875, 1.3725, 0.6875, 0, 0.785, 0.0975, 0.8825, 0.1975, 0.98, 0.295, 1.0775, 0.3925, 1.1775, 0.49, 1.275, 0.5875, 1.3725, 0.6875, 0, 0.785, 0.0975, 0.8825, 0.1975, 0.98, 0.295, 1.0775, 0.3925, 1.1775, 0.49, 1.275, 0.5875, 1.3725, 0.6875, 0, 0.785, 0.0975, 0.8825, 0.1975, 0.98, 0.295, 1.0775, 0.3925, 1.1775, 0.49, 1.275, 0.5875, 1.3725, 0.6875],
  "SoftwareVersions": "syngo_MR_E11",
  "SpacingBetweenSlices": 2,
  "StationName": "MRC35049",
  "TaskName": "things",
  "TotalReadoutTime": 0.0576811,
  "TxRefAmp": 272.81,
  "WipMemBlock": "c2a8c3af-de6f-4277-8728-295157f1b600||Sequence: R016 ve11c/master r/e634e98; Dec 19 2017 11:00:25 by eja",
  "dcmmeta_affine": [
    [-1.99979567527771, 0.01884821429848671, 0.021493589505553246, 105.8907470703125],
    [0.006428543943911791, 1.761705756187439, -0.9467583298683167, -54.89006805419922],
    [0.0278550423681736, 0.9465925097465515, 1.7615864276885986, -75.2392807006836],
    [0.0, 0.0, 0.0, 1.0]
],
  "dcmmeta_reorient_transform": [
    [0.0, -1.0, 0.0, 103.0],
    [1.0, 0.0, 0.0, 0.0],
    [0.0, 0.0, 1.0, 0.0],
    [0.0, 0.0, 0.0, 1.0]
],
  "dcmmeta_shape": [104, 104, 60, 190],
  "dcmmeta_slice_dim": 2,
  "dcmmeta_version": 0.6,
  "global": {
    "const": {
      "AcquisitionMatrix": [104, 0, 0, 104],
      "AngioFlag": "N",
      "BitsAllocated": 16,
      "BitsStored": 16,
      "BodyPartExamined": "BRAIN",
      "Columns": 832,
      "EchoNumbers": 1,
      "EchoTime": 37.0,
      "EchoTrainLength": 104,
      "FlipAngle": 52.0,
      "HighBit": 15,
      "ImageOrientationPatient": [0.99989784108867, -0.0032142719178, 0.01392752103803, 0.00942410712473, 0.8808529028393, -0.4732962600364],
      "ImagePositionPatient": [-842.61849366501, -765.48655491593, 356.68018818554],
      "ImageType": [
        "ORIGINAL",
        "PRIMARY",
        "P",
        "MB",
        "ND",
        "MOSAIC"
],
      "ImagedNucleus": "1H",
      "ImagingFrequency": 123.258884,
      "InPlanePhaseEncodingDirection": "COL",
      "LargestImagePixelValue": 4095,
      "MRAcquisitionType": "2D",
      "MagneticFieldStrength": 3.0,
      "Manufacturer": "SIEMENS",
      "ManufacturerModelName": "Prisma_fit",
      "Modality": "MR",
      "NumberOfAverages": 1.0,
      "NumberOfPhaseEncodingSteps": 104,
      "PercentPhaseFieldOfView": 100.0,
      "PercentSampling": 100.0,
      "PerformedProcedureStepStartTime": "102048.647000",
      "PhotometricInterpretation": "MONOCHROME2",
      "PixelBandwidth": 2290.0,
      "PixelRepresentation": 0,
      "PixelSpacing": [2.0, 2.0],
      "ProtocolName": "func_task-things_run-5",
      "RepetitionTime": 1490.0,
      "RescaleIntercept": -4096.0,
      "RescaleSlope": 2.0,
      "RescaleType": "US",
      "Rows": 832,
      "SAR": 0.05035951282313,
      "SamplesPerPixel": 1,
      "ScanOptions": "FS",
      "ScanningSequence": "EP",
      "SequenceName": "epfid2d1_104",
      "SequenceVariant": [
        "SK",
        "SS"
],
      "SeriesDescription": "func_task-things_run-5",
      "SeriesNumber": 23,
      "SeriesTime": "111330.884000",
      "SliceLocation": -39.148449931882,
      "SliceThickness": 2.0,
      "SmallestImagePixelValue": 0,
      "SoftwareVersions": "syngo MR E11",
      "SpacingBetweenSlices": 2.0000000473589,
      "SpecificCharacterSet": "ISO_IR 100",
      "StudyID": "1",
      "StudyTime": "102048.577000",
      "TransmitCoilName": "Body",
      "VariableFlipAngleFlag": "N",
      "WindowCenterWidthExplanation": "Algo1",
      "dBdt": 0.0},
    "slices": {}
  },
  "time": {
    "samples": {
      "AcquisitionNumber": [1, 2, 3, 4, 5, 6, 7, 8, 9, 10, 11, 12, 13, 14, 15, 16, 17, 18, 19, 20, 21, 22, 23, 24, 25, 26, 27, 28, 29, 30, 31, 32, 33, 34, 35, 36, 37, 38, 39, 40, 41, 42, 43, 44, 45, 46, 47, 48, 49, 50, 51, 52, 53, 54, 55, 56, 57, 58, 59, 60, 61, 62, 63, 64, 65, 66, 67, 68, 69, 70, 71, 72, 73, 74, 75, 76, 77, 78, 79, 80, 81, 82, 83, 84, 85, 86, 87, 88, 89, 90, 91, 92, 93, 94, 95, 96, 97, 98, 99, 100, 101, 102, 103, 104, 105, 106, 107, 108, 109, 110, 111, 112, 113, 114, 115, 116, 117, 118, 119, 120, 121, 122, 123, 124, 125, 126, 127, 128, 129, 130, 131, 132, 133, 134, 135, 136, 137, 138, 139, 140, 141, 142, 143, 144, 145, 146, 147, 148, 149, 150, 151, 152, 153, 154, 155, 156, 157, 158, 159, 160, 161, 162, 163, 164, 165, 166, 167, 168, 169, 170, 171, 172, 173, 174, 175, 176, 177, 178, 179, 180, 181, 182, 183, 184, 185, 186, 187, 188, 189, 190],
      "AcquisitionTime": ["111205.230000", "111206.720000", "111208.210000", "111209.700000", "111211.190000", "111212.680000", "111214.170000", "111215.660000", "111217.150000", "111218.640000", "111220.130000", "111221.620000", "111223.110000", "111224.600000", "111226.090000", "111227.580000", "111229.070000", "111230.560000", "111232.050000", "111233.540000", "111235.030000", "111236.520000", "111238.010000", "111239.500000", "111240.990000", "111242.480000", "111243.970000", "111245.460000", "111246.950000", "111248.440000", "111249.930000", "111251.420000", "111252.910000", "111254.400000", "111255.890000", "111257.380000", "111258.870000", "111300.360000", "111301.850000", "111303.340000", "111304.830000", "111306.320000", "111307.810000", "111309.300000", "111310.790000", "111312.280000", "111313.770000", "111315.260000", "111316.750000", "111318.240000", "111319.730000", "111321.220000", "111322.710000", "111324.200000", "111325.690000", "111327.180000", "111328.670000", "111330.160000", "111331.650000", "111333.140000", "111334.630000", "111336.120000", "111337.610000", "111339.100000", "111340.590000", "111342.080000", "111343.570000", "111345.060000", "111346.550000", "111348.040000", "111349.530000", "111351.020000", "111352.510000", "111354.000000", "111355.490000", "111356.980000", "111358.470000", "111359.960000", "111401.450000", "111402.940000", "111404.430000", "111405.920000", "111407.410000", "111408.900000", "111410.390000", "111411.880000", "111413.370000", "111414.860000", "111416.350000", "111417.840000", "111419.330000", "111420.820000", "111422.310000", "111423.800000", "111425.290000", "111426.780000", "111428.270000", "111429.760000", "111431.250000", "111432.740000", "111434.230000", "111435.720000", "111437.210000", "111438.700000", "111440.190000", "111441.680000", "111443.170000", "111444.660000", "111446.150000", "111447.640000", "111449.130000", "111450.620000", "111452.110000", "111453.600000", "111455.090000", "111456.580000", "111458.070000", "111459.560000", "111501.050000", "111502.540000", "111504.030000", "111505.520000", "111507.010000", "111508.500000", "111509.990000", "111511.480000", "111512.970000", "111514.460000", "111515.950000", "111517.440000", "111518.930000", "111520.420000", "111521.910000", "111523.400000", "111524.890000", "111526.380000", "111527.870000", "111529.360000", "111530.850000", "111532.340000", "111533.830000", "111535.320000", "111536.810000", "111538.300000", "111539.790000", "111541.280000", "111542.770000", "111544.260000", "111545.750000", "111547.240000", "111548.730000", "111550.220000", "111551.710000", "111553.200000", "111554.690000", "111556.180000", "111557.670000", "111559.160000", "111600.650000", "111602.140000", "111603.630000", "111605.120000", "111606.610000", "111608.100000", "111609.590000", "111611.080000", "111612.570000", "111614.060000", "111615.550000", "111617.040000", "111618.530000", "111620.020000", "111621.510000", "111623.000000", "111624.490000", "111625.980000", "111627.470000", "111628.960000", "111630.450000", "111631.940000", "111633.430000", "111634.920000", "111636.410000", "111637.900000", "111639.390000", "111640.880000", "111642.370000", "111643.860000", "111645.350000", "111646.840000"],
      "ContentTime": ["111330.886000", "111330.889000", "111330.891000", "111330.894000", "111330.896000", "111330.899000", "111330.906000", "111330.908000", "111330.911000", "111330.915000", "111330.918000", "111330.920000", "111330.923000", "111330.926000", "111330.929000", "111330.932000", "111330.934000", "111330.937000", "111330.940000", "111330.942000", "111330.945000", "111330.947000", "111330.950000", "111330.953000", "111330.955000", "111330.958000", "111330.961000", "111330.963000", "111330.966000", "111330.968000", "111350.799000", "111350.801000", "111350.804000", "111350.807000", "111350.809000", "111350.812000", "111350.814000", "111350.817000", "111350.819000", "111350.821000", "111350.824000", "111350.826000", "111350.829000", "111350.831000", "111350.834000", "111350.836000", "111350.839000", "111350.841000", "111350.844000", "111350.846000", "111350.849000", "111410.803000", "111410.806000", "111410.809000", "111410.811000", "111410.814000", "111410.816000", "111410.819000", "111410.821000", "111410.824000", "111410.826000", "111410.829000", "111410.831000", "111410.834000", "111410.836000", "111410.839000", "111410.841000", "111410.844000", "111410.846000", "111410.849000", "111410.851000", "111430.815000", "111430.818000", "111430.821000", "111430.823000", "111430.826000", "111430.829000", "111430.831000", "111430.834000", "111430.836000", "111430.839000", "111430.841000", "111430.844000", "111430.846000", "111430.849000", "111430.851000", "111430.854000", "111430.857000", "111430.859000", "111430.862000", "111430.864000", "111510.857000", "111510.860000", "111510.862000", "111510.865000", "111510.867000", "111510.870000", "111510.872000", "111510.875000", "111510.877000", "111510.880000", "111510.882000", "111510.885000", "111510.887000", "111510.890000", "111510.892000", "111510.895000", "111510.897000", "111510.900000", "111510.902000", "111510.905000", "111510.908000", "111510.910000", "111510.913000", "111510.915000", "111510.918000", "111510.921000", "111510.924000", "111510.927000", "111510.939000", "111510.953000", "111510.956000", "111510.958000", "111550.834000", "111550.836000", "111550.845000", "111550.848000", "111550.850000", "111550.853000", "111550.855000", "111550.858000", "111550.860000", "111550.863000", "111550.865000", "111550.868000", "111550.870000", "111550.873000", "111550.875000", "111550.878000", "111550.881000", "111550.883000", "111550.886000", "111550.888000", "111550.891000", "111550.893000", "111550.896000", "111550.898000", "111550.901000", "111550.903000", "111550.906000", "111630.838000", "111630.841000", "111630.843000", "111630.846000", "111630.848000", "111630.851000", "111630.853000", "111630.856000", "111630.858000", "111630.861000", "111630.863000", "111630.866000", "111630.868000", "111630.871000", "111630.873000", "111630.876000", "111630.878000", "111630.881000", "111630.883000", "111630.886000", "111630.889000", "111630.891000", "111630.894000", "111630.896000", "111630.899000", "111630.901000", "111630.904000", "111649.798000", "111649.801000", "111649.804000", "111649.806000", "111649.809000", "111649.812000", "111649.814000", "111649.817000", "111649.820000", "111649.823000", "111649.825000", "111649.829000", "111649.832000"],
      "InstanceCreationTime": ["111330.886000", "111330.889000", "111330.891000", "111330.894000", "111330.896000", "111330.899000", "111330.906000", "111330.908000", "111330.911000", "111330.915000", "111330.918000", "111330.920000", "111330.923000", "111330.926000", "111330.929000", "111330.932000", "111330.934000", "111330.937000", "111330.940000", "111330.942000", "111330.945000", "111330.947000", "111330.950000", "111330.953000", "111330.955000", "111330.958000", "111330.961000", "111330.963000", "111330.966000", "111330.968000", "111350.799000", "111350.801000", "111350.804000", "111350.807000", "111350.809000", "111350.812000", "111350.814000", "111350.817000", "111350.819000", "111350.821000", "111350.824000", "111350.826000", "111350.829000", "111350.831000", "111350.834000", "111350.836000", "111350.839000", "111350.841000", "111350.844000", "111350.846000", "111350.849000", "111410.803000", "111410.806000", "111410.809000", "111410.811000", "111410.814000", "111410.816000", "111410.819000", "111410.821000", "111410.824000", "111410.826000", "111410.829000", "111410.831000", "111410.834000", "111410.836000", "111410.839000", "111410.841000", "111410.844000", "111410.846000", "111410.849000", "111410.851000", "111430.815000", "111430.818000", "111430.821000", "111430.823000", "111430.826000", "111430.829000", "111430.831000", "111430.834000", "111430.836000", "111430.839000", "111430.841000", "111430.844000", "111430.846000", "111430.849000", "111430.851000", "111430.854000", "111430.857000", "111430.859000", "111430.862000", "111430.864000", "111510.857000", "111510.860000", "111510.862000", "111510.865000", "111510.867000", "111510.870000", "111510.872000", "111510.875000", "111510.877000", "111510.880000", "111510.882000", "111510.885000", "111510.887000", "111510.890000", "111510.892000", "111510.895000", "111510.897000", "111510.900000", "111510.902000", "111510.905000", "111510.908000", "111510.910000", "111510.913000", "111510.915000", "111510.918000", "111510.921000", "111510.924000", "111510.927000", "111510.939000", "111510.953000", "111510.956000", "111510.958000", "111550.834000", "111550.836000", "111550.845000", "111550.848000", "111550.850000", "111550.853000", "111550.855000", "111550.858000", "111550.860000", "111550.863000", "111550.865000", "111550.868000", "111550.870000", "111550.873000", "111550.875000", "111550.878000", "111550.881000", "111550.883000", "111550.886000", "111550.888000", "111550.891000", "111550.893000", "111550.896000", "111550.898000", "111550.901000", "111550.903000", "111550.906000", "111630.838000", "111630.841000", "111630.843000", "111630.846000", "111630.848000", "111630.851000", "111630.853000", "111630.856000", "111630.858000", "111630.861000", "111630.863000", "111630.866000", "111630.868000", "111630.871000", "111630.873000", "111630.876000", "111630.878000", "111630.881000", "111630.883000", "111630.886000", "111630.889000", "111630.891000", "111630.894000", "111630.896000", "111630.899000", "111630.901000", "111630.904000", "111649.798000", "111649.801000", "111649.804000", "111649.806000", "111649.809000", "111649.812000", "111649.814000", "111649.817000", "111649.820000", "111649.823000", "111649.825000", "111649.829000", "111649.832000"],
      "InstanceNumber": [1, 2, 3, 4, 5, 6, 7, 8, 9, 10, 11, 12, 13, 14, 15, 16, 17, 18, 19, 20, 21, 22, 23, 24, 25, 26, 27, 28, 29, 30, 31, 32, 33, 34, 35, 36, 37, 38, 39, 40, 41, 42, 43, 44, 45, 46, 47, 48, 49, 50, 51, 52, 53, 54, 55, 56, 57, 58, 59, 60, 61, 62, 63, 64, 65, 66, 67, 68, 69, 70, 71, 72, 73, 74, 75, 76, 77, 78, 79, 80, 81, 82, 83, 84, 85, 86, 87, 88, 89, 90, 91, 92, 93, 94, 95, 96, 97, 98, 99, 100, 101, 102, 103, 104, 105, 106, 107, 108, 109, 110, 111, 112, 113, 114, 115, 116, 117, 118, 119, 120, 121, 122, 123, 124, 125, 126, 127, 128, 129, 130, 131, 132, 133, 134, 135, 136, 137, 138, 139, 140, 141, 142, 143, 144, 145, 146, 147, 148, 149, 150, 151, 152, 153, 154, 155, 156, 157, 158, 159, 160, 161, 162, 163, 164, 165, 166, 167, 168, 169, 170, 171, 172, 173, 174, 175, 176, 177, 178, 179, 180, 181, 182, 183, 184, 185, 186, 187, 188, 189, 190],
      "WindowCenter": [4914.0, 4916.0, 4926.0, 4936.0, 4916.0, 4914.0, 4894.0, 4892.0, 4888.0, 4866.0, 4930.0, 4928.0, 4938.0, 4916.0, 4914.0, 4916.0, 4918.0, 4914.0, 4894.0, 4914.0, 4914.0, 4912.0, 4938.0, 4938.0, 4916.0, 4914.0, 4938.0, 4916.0, 4888.0, 4864.0, 4914.0, 4938.0, 4916.0, 4916.0, 4930.0, 4914.0, 4892.0, 4906.0, 4904.0, 4918.0, 4888.0, 4864.0, 4862.0, 4892.0, 4912.0, 4938.0, 4938.0, 4928.0, 4930.0, 4938.0, 4914.0, 4892.0, 4934.0, 4892.0, 4890.0, 4928.0, 4910.0, 4912.0, 4916.0, 4916.0, 4912.0, 4936.0, 4914.0, 4912.0, 4932.0, 4930.0, 4938.0, 4914.0, 4888.0, 4890.0, 4914.0, 4912.0, 4916.0, 4928.0, 4922.0, 4940.0, 4938.0, 4916.0, 4894.0, 4890.0, 4888.0, 4890.0, 4932.0, 4934.0, 4936.0, 4928.0, 4916.0, 4934.0, 4912.0, 4914.0, 4914.0, 4914.0, 4938.0, 4914.0, 4916.0, 4934.0, 4940.0, 4916.0, 4888.0, 4914.0, 4912.0, 4938.0, 4938.0, 4936.0, 4940.0, 4916.0, 4934.0, 4914.0, 4918.0, 4914.0, 4888.0, 4888.0, 4916.0, 4934.0, 4938.0, 4928.0, 4934.0, 4912.0, 4918.0, 4888.0, 4914.0, 4914.0, 4912.0, 4938.0, 4914.0, 4938.0, 4940.0, 4914.0, 4938.0, 4916.0, 4914.0, 4894.0, 4892.0, 4916.0, 4938.0, 4938.0, 4928.0, 4938.0, 4936.0, 4936.0, 4890.0, 4918.0, 4914.0, 4914.0, 4918.0, 4918.0, 4912.0, 4912.0, 4930.0, 4916.0, 4938.0, 4936.0, 4916.0, 4938.0, 4914.0, 4916.0, 4918.0, 4892.0, 4936.0, 4938.0, 4938.0, 4940.0, 4918.0, 4938.0, 4942.0, 4914.0, 4890.0, 4890.0, 4914.0, 4936.0, 4940.0, 4918.0, 4934.0, 4916.0, 4912.0, 4916.0, 4912.0, 4912.0, 4914.0, 4936.0, 4918.0, 4938.0, 4938.0, 4936.0, 4930.0, 4938.0, 4914.0, 4930.0, 4932.0, 4914.0],
      "WindowWidth": [18680.0, 18692.0, 18762.0, 18754.0, 18686.0, 18686.0, 18638.0, 18626.0, 18618.0, 18594.0, 18746.0, 18756.0, 18734.0, 18696.0, 18698.0, 18678.0, 18684.0, 18682.0, 18640.0, 18682.0, 18682.0, 18670.0, 18730.0, 18738.0, 18694.0, 18696.0, 18738.0, 18686.0, 18636.0, 18592.0, 18698.0, 18746.0, 18692.0, 18686.0, 18750.0, 18694.0, 18646.0, 18720.0, 18722.0, 18694.0, 18624.0, 18586.0, 18584.0, 18638.0, 18688.0, 18734.0, 18748.0, 18764.0, 18762.0, 18744.0, 18674.0, 18642.0, 18734.0, 18638.0, 18628.0, 18746.0, 18708.0, 18674.0, 18698.0, 18674.0, 18676.0, 18740.0, 18688.0, 18674.0, 18748.0, 18748.0, 18736.0, 18684.0, 18638.0, 18620.0, 18676.0, 18686.0, 18686.0, 18752.0, 18760.0, 18748.0, 18732.0, 18688.0, 18640.0, 18628.0, 18632.0, 18632.0, 18744.0, 18738.0, 18738.0, 18756.0, 18700.0, 18736.0, 18684.0, 18684.0, 18684.0, 18684.0, 18736.0, 18700.0, 18690.0, 18740.0, 18738.0, 18696.0, 18634.0, 18680.0, 18676.0, 18732.0, 18728.0, 18744.0, 18744.0, 18694.0, 18738.0, 18688.0, 18694.0, 18684.0, 18628.0, 18622.0, 18692.0, 18750.0, 18732.0, 18756.0, 18750.0, 18682.0, 18698.0, 18630.0, 18678.0, 18680.0, 18670.0, 18740.0, 18694.0, 18744.0, 18732.0, 18706.0, 18746.0, 18690.0, 18674.0, 18638.0, 18640.0, 18684.0, 18736.0, 18738.0, 18760.0, 18736.0, 18732.0, 18734.0, 18642.0, 18686.0, 18670.0, 18670.0, 18698.0, 18680.0, 18680.0, 18696.0, 18752.0, 18702.0, 18746.0, 18744.0, 18678.0, 18728.0, 18678.0, 18684.0, 18686.0, 18638.0, 18730.0, 18726.0, 18728.0, 18750.0, 18688.0, 18726.0, 18738.0, 18678.0, 18640.0, 18632.0, 18670.0, 18754.0, 18740.0, 18702.0, 18752.0, 18690.0, 18700.0, 18678.0, 18670.0, 18672.0, 18682.0, 18732.0, 18688.0, 18738.0, 18740.0, 18730.0, 18756.0, 18726.0, 18686.0, 18746.0, 18742.0, 18674.0]
    },
    "slices": {}
  }
}