{
  "AcquisitionMatrixPE": 104,
  "AcquisitionNumber": 1,
  "AcquisitionTime": "10:47:27.640000",
  "BandwidthPerPixelPhaseEncode": 17.17,
  "BaseResolution": 104,
  "BodyPartExamined": "BRAIN",
  "CoilString": "HC1-7;NC1_2",
  "ConsistencyInfo": "N4_VE11C_LATEST_20160120",
  "ConversionSoftware": "dcm2niix",
  "ConversionSoftwareVersion": "v1.0.20190902",
  "DerivedVendorReportedEchoSpacing": 0.000560011,
  "DeviceSerialNumber": "167006",
  "DwellTime": 2.1e-06,
  "EchoTime": 0.037,
  "EchoTrainLength": 104,
  "EffectiveEchoSpacing": 0.000560011,
  "FlipAngle": 52,
  "ImageComments": "Unaliased_MB4_PE3_LB",
  "ImageOrientationPatientDICOM": [0.999898, -0.00321427, 0.0139275, 0.00942411, 0.880853, -0.473296],
  "ImageType": [
    "ORIGINAL",
    "PRIMARY",
    "P",
    "MB",
    "ND",
    "MOSAIC"
],
  "ImagingFrequency": 123.259,
  "InPlanePhaseEncodingDirectionDICOM": "COL",
  "InstitutionAddress": "Chemin_Queen-Mary_4565_Montreal_District_CA_H3W_1W5",
  "InstitutionName": "IUGM",
  "InstitutionalDepartmentName": "Department",
  "MRAcquisitionType": "2D",
  "MagneticFieldStrength": 3,
  "Manufacturer": "Siemens",
  "ManufacturersModelName": "Prisma_fit",
  "Modality": "MR",
  "MultibandAccelerationFactor": 4,
  "PartialFourier": 1,
  "PatientPosition": "HFS",
  "PercentPhaseFOV": 100,
  "PhaseEncodingDirection": "j",
  "PhaseEncodingSteps": 104,
  "PhaseResolution": 1,
  "PixelBandwidth": 2290,
  "ProcedureStepDescription": "memory_things",
  "ProtocolName": "func_task-things_run-1",
  "PulseSequenceDetails": "%CustomerSeq%_cmrr_mbep2d_bold",
  "ReceiveCoilActiveElements": "HC1-7;NC1,2",
  "ReceiveCoilName": "HeadNeck_64",
  "ReconMatrixPE": 104,
  "RepetitionTime": 1.49,
  "SAR": 0.0503595,
  "ScanOptions": "FS",
  "ScanningSequence": "EP",
  "SequenceName": "epfid2d1_104",
  "SequenceVariant": "SK_SS",
  "SeriesDescription": "func_task-things_run-1",
  "SeriesNumber": 11,
  "ShimSetting": [612, -7196, -8845, 284, 6, -104, -14, -28],
  "SliceThickness": 2,
  "SliceTiming": [0, 0.7825, 0.0975, 0.88, 0.195, 0.98, 0.2925, 1.0775, 0.39, 1.175, 0.49, 1.2725, 0.5875, 1.37, 0.685, 0, 0.7825, 0.0975, 0.88, 0.195, 0.98, 0.2925, 1.0775, 0.39, 1.175, 0.49, 1.2725, 0.5875, 1.37, 0.685, 0, 0.7825, 0.0975, 0.88, 0.195, 0.98, 0.2925, 1.0775, 0.39, 1.175, 0.49, 1.2725, 0.5875, 1.37, 0.685, 0, 0.7825, 0.0975, 0.88, 0.195, 0.98, 0.2925, 1.0775, 0.39, 1.175, 0.49, 1.2725, 0.5875, 1.37, 0.685],
  "SoftwareVersions": "syngo_MR_E11",
  "SpacingBetweenSlices": 2,
  "StationName": "MRC35049",
  "TaskName": "things",
  "TotalReadoutTime": 0.0576811,
  "TxRefAmp": 272.81,
  "WipMemBlock": "e937fff0-a60a-49b4-8ca2-5798a1fd96e9||Sequence: R016 ve11c/master r/e634e98; Dec 19 2017 11:00:25 by eja",
  "dcmmeta_affine": [
    [-1.99979567527771, 0.01884821429848671, 0.021493589505553246, 105.8907470703125],
    [0.006428543943911791, 1.761705756187439, -0.9467583298683167, -54.89006805419922],
    [0.0278550423681736, 0.9465925097465515, 1.7615864276885986, -75.2392807006836],
    [0.0, 0.0, 0.0, 1.0]
],
  "dcmmeta_reorient_transform": [
    [0.0, -1.0, 0.0, 103.0],
    [1.0, 0.0, 0.0, 0.0],
    [0.0, 0.0, 1.0, 0.0],
    [0.0, 0.0, 0.0, 1.0]
],
  "dcmmeta_shape": [104, 104, 60, 190],
  "dcmmeta_slice_dim": 2,
  "dcmmeta_version": 0.6,
  "global": {
    "const": {
      "AcquisitionMatrix": [104, 0, 0, 104],
      "AngioFlag": "N",
      "BitsAllocated": 16,
      "BitsStored": 16,
      "BodyPartExamined": "BRAIN",
      "Columns": 832,
      "EchoNumbers": 1,
      "EchoTime": 37.0,
      "EchoTrainLength": 104,
      "FlipAngle": 52.0,
      "HighBit": 15,
      "ImageOrientationPatient": [0.99989784108867, -0.0032142719178, 0.01392752103803, 0.00942410712473, 0.8808529028393, -0.4732962600364],
      "ImagePositionPatient": [-842.61849366501, -765.48655491593, 356.68018818554],
      "ImageType": [
        "ORIGINAL",
        "PRIMARY",
        "P",
        "MB",
        "ND",
        "MOSAIC"
],
      "ImagedNucleus": "1H",
      "ImagingFrequency": 123.258869,
      "InPlanePhaseEncodingDirection": "COL",
      "LargestImagePixelValue": 4095,
      "MRAcquisitionType": "2D",
      "MagneticFieldStrength": 3.0,
      "Manufacturer": "SIEMENS",
      "ManufacturerModelName": "Prisma_fit",
      "Modality": "MR",
      "NumberOfAverages": 1.0,
      "NumberOfPhaseEncodingSteps": 104,
      "PercentPhaseFieldOfView": 100.0,
      "PercentSampling": 100.0,
      "PerformedProcedureStepStartTime": "102048.647000",
      "PhotometricInterpretation": "MONOCHROME2",
      "PixelBandwidth": 2290.0,
      "PixelRepresentation": 0,
      "PixelSpacing": [2.0, 2.0],
      "ProtocolName": "func_task-things_run-1",
      "RepetitionTime": 1490.0,
      "RescaleIntercept": -4096.0,
      "RescaleSlope": 2.0,
      "RescaleType": "US",
      "Rows": 832,
      "SAR": 0.05035951282313,
      "SamplesPerPixel": 1,
      "ScanOptions": "FS",
      "ScanningSequence": "EP",
      "SequenceName": "epfid2d1_104",
      "SequenceVariant": [
        "SK",
        "SS"
],
      "SeriesDescription": "func_task-things_run-1",
      "SeriesNumber": 11,
      "SeriesTime": "104855.853000",
      "SliceLocation": -39.148449931882,
      "SliceThickness": 2.0,
      "SmallestImagePixelValue": 0,
      "SoftwareVersions": "syngo MR E11",
      "SpacingBetweenSlices": 2.0000000473589,
      "SpecificCharacterSet": "ISO_IR 100",
      "StudyID": "1",
      "StudyTime": "102048.577000",
      "TransmitCoilName": "Body",
      "VariableFlipAngleFlag": "N",
      "WindowCenterWidthExplanation": "Algo1",
      "dBdt": 0.0},
    "slices": {}
  },
  "time": {
    "samples": {
      "AcquisitionNumber": [1, 2, 3, 4, 5, 6, 7, 8, 9, 10, 11, 12, 13, 14, 15, 16, 17, 18, 19, 20, 21, 22, 23, 24, 25, 26, 27, 28, 29, 30, 31, 32, 33, 34, 35, 36, 37, 38, 39, 40, 41, 42, 43, 44, 45, 46, 47, 48, 49, 50, 51, 52, 53, 54, 55, 56, 57, 58, 59, 60, 61, 62, 63, 64, 65, 66, 67, 68, 69, 70, 71, 72, 73, 74, 75, 76, 77, 78, 79, 80, 81, 82, 83, 84, 85, 86, 87, 88, 89, 90, 91, 92, 93, 94, 95, 96, 97, 98, 99, 100, 101, 102, 103, 104, 105, 106, 107, 108, 109, 110, 111, 112, 113, 114, 115, 116, 117, 118, 119, 120, 121, 122, 123, 124, 125, 126, 127, 128, 129, 130, 131, 132, 133, 134, 135, 136, 137, 138, 139, 140, 141, 142, 143, 144, 145, 146, 147, 148, 149, 150, 151, 152, 153, 154, 155, 156, 157, 158, 159, 160, 161, 162, 163, 164, 165, 166, 167, 168, 169, 170, 171, 172, 173, 174, 175, 176, 177, 178, 179, 180, 181, 182, 183, 184, 185, 186, 187, 188, 189, 190],
      "AcquisitionTime": ["104727.640000", "104729.130000", "104730.620000", "104732.110000", "104733.600000", "104735.090000", "104736.580000", "104738.070000", "104739.560000", "104741.050000", "104742.540000", "104744.030000", "104745.520000", "104747.010000", "104748.500000", "104749.990000", "104751.480000", "104752.970000", "104754.460000", "104755.950000", "104757.440000", "104758.930000", "104800.420000", "104801.910000", "104803.400000", "104804.890000", "104806.380000", "104807.870000", "104809.360000", "104810.850000", "104812.340000", "104813.830000", "104815.320000", "104816.810000", "104818.300000", "104819.790000", "104821.280000", "104822.770000", "104824.260000", "104825.750000", "104827.240000", "104828.730000", "104830.220000", "104831.710000", "104833.200000", "104834.690000", "104836.180000", "104837.670000", "104839.160000", "104840.650000", "104842.140000", "104843.630000", "104845.120000", "104846.610000", "104848.100000", "104849.590000", "104851.080000", "104852.570000", "104854.060000", "104855.550000", "104857.040000", "104858.530000", "104900.020000", "104901.510000", "104903.000000", "104904.490000", "104905.980000", "104907.470000", "104908.960000", "104910.450000", "104911.940000", "104913.430000", "104914.920000", "104916.410000", "104917.900000", "104919.390000", "104920.880000", "104922.370000", "104923.860000", "104925.350000", "104926.840000", "104928.330000", "104929.820000", "104931.310000", "104932.800000", "104934.290000", "104935.780000", "104937.270000", "104938.760000", "104940.250000", "104941.740000", "104943.230000", "104944.720000", "104946.210000", "104947.700000", "104949.190000", "104950.680000", "104952.170000", "104953.660000", "104955.150000", "104956.640000", "104958.130000", "104959.620000", "105001.110000", "105002.600000", "105004.090000", "105005.580000", "105007.070000", "105008.560000", "105010.050000", "105011.540000", "105013.030000", "105014.520000", "105016.010000", "105017.500000", "105018.990000", "105020.480000", "105021.970000", "105023.460000", "105024.950000", "105026.440000", "105027.930000", "105029.420000", "105030.910000", "105032.400000", "105033.890000", "105035.380000", "105036.870000", "105038.360000", "105039.850000", "105041.340000", "105042.830000", "105044.320000", "105045.810000", "105047.300000", "105048.790000", "105050.280000", "105051.770000", "105053.260000", "105054.750000", "105056.240000", "105057.730000", "105059.220000", "105100.710000", "105102.200000", "105103.690000", "105105.180000", "105106.670000", "105108.160000", "105109.650000", "105111.140000", "105112.630000", "105114.120000", "105115.610000", "105117.100000", "105118.590000", "105120.080000", "105121.570000", "105123.060000", "105124.550000", "105126.040000", "105127.530000", "105129.020000", "105130.510000", "105132.000000", "105133.490000", "105134.980000", "105136.470000", "105137.960000", "105139.450000", "105140.940000", "105142.430000", "105143.920000", "105145.410000", "105146.900000", "105148.390000", "105149.880000", "105151.370000", "105152.860000", "105154.350000", "105155.840000", "105157.330000", "105158.820000", "105200.310000", "105201.800000", "105203.290000", "105204.780000", "105206.270000", "105207.760000", "105209.250000"],
      "ContentTime": ["104855.855000", "104855.858000", "104855.860000", "104855.863000", "104855.865000", "104855.868000", "104855.870000", "104855.873000", "104855.875000", "104855.878000", "104855.880000", "104855.883000", "104855.885000", "104855.888000", "104855.890000", "104855.893000", "104855.895000", "104855.898000", "104855.900000", "104855.903000", "104855.905000", "104855.908000", "104855.910000", "104855.913000", "104855.915000", "104855.917000", "104855.920000", "104855.932000", "104855.935000", "104855.937000", "104855.940000", "104855.942000", "104916.257000", "104916.260000", "104916.262000", "104916.265000", "104916.267000", "104916.270000", "104916.272000", "104916.275000", "104916.277000", "104916.280000", "104916.282000", "104916.285000", "104916.287000", "104916.290000", "104916.292000", "104916.295000", "104916.297000", "104916.300000", "104916.302000", "104916.305000", "104935.771000", "104935.774000", "104935.777000", "104935.779000", "104935.782000", "104935.784000", "104935.787000", "104935.789000", "104935.802000", "104935.804000", "104935.807000", "104935.809000", "104935.812000", "104935.814000", "104935.817000", "104935.820000", "104935.822000", "104935.825000", "104935.827000", "104935.830000", "104935.832000", "104955.748000", "104955.750000", "104955.753000", "104955.756000", "104955.758000", "104955.761000", "104955.763000", "104955.766000", "104955.768000", "104955.771000", "104955.773000", "104955.776000", "104955.778000", "104955.781000", "104955.783000", "104955.786000", "104955.789000", "104955.791000", "104955.794000", "104955.797000", "105035.802000", "105035.805000", "105035.808000", "105035.810000", "105035.813000", "105035.815000", "105035.818000", "105035.820000", "105035.823000", "105035.825000", "105035.828000", "105035.830000", "105035.833000", "105035.835000", "105035.838000", "105035.841000", "105035.843000", "105035.846000", "105035.848000", "105035.851000", "105035.853000", "105035.856000", "105035.858000", "105035.861000", "105035.864000", "105035.866000", "105035.869000", "105035.871000", "105035.874000", "105035.876000", "105035.879000", "105035.881000", "105115.787000", "105115.790000", "105115.792000", "105115.795000", "105115.797000", "105115.800000", "105115.802000", "105115.805000", "105115.807000", "105115.810000", "105115.812000", "105115.815000", "105115.817000", "105115.820000", "105115.823000", "105115.825000", "105115.828000", "105115.830000", "105115.833000", "105115.835000", "105115.838000", "105115.840000", "105115.843000", "105115.845000", "105115.848000", "105115.850000", "105115.853000", "105155.793000", "105155.796000", "105155.799000", "105155.801000", "105155.804000", "105155.806000", "105155.809000", "105155.811000", "105155.814000", "105155.816000", "105155.819000", "105155.821000", "105155.824000", "105155.826000", "105155.829000", "105155.831000", "105155.834000", "105155.836000", "105155.839000", "105155.841000", "105155.844000", "105155.846000", "105155.849000", "105155.852000", "105155.854000", "105155.857000", "105155.859000", "105211.615000", "105211.618000", "105211.621000", "105211.623000", "105211.626000", "105211.628000", "105211.631000", "105211.633000", "105211.636000", "105211.639000", "105211.641000"],
      "InstanceCreationTime": ["104855.855000", "104855.858000", "104855.860000", "104855.863000", "104855.865000", "104855.868000", "104855.870000", "104855.873000", "104855.875000", "104855.878000", "104855.880000", "104855.883000", "104855.885000", "104855.888000", "104855.890000", "104855.893000", "104855.895000", "104855.898000", "104855.900000", "104855.903000", "104855.905000", "104855.908000", "104855.910000", "104855.913000", "104855.915000", "104855.917000", "104855.920000", "104855.932000", "104855.935000", "104855.937000", "104855.940000", "104855.942000", "104916.257000", "104916.260000", "104916.262000", "104916.265000", "104916.267000", "104916.270000", "104916.272000", "104916.275000", "104916.277000", "104916.280000", "104916.282000", "104916.285000", "104916.287000", "104916.290000", "104916.292000", "104916.295000", "104916.297000", "104916.300000", "104916.302000", "104916.305000", "104935.771000", "104935.774000", "104935.777000", "104935.779000", "104935.782000", "104935.784000", "104935.787000", "104935.789000", "104935.802000", "104935.804000", "104935.807000", "104935.809000", "104935.812000", "104935.814000", "104935.817000", "104935.820000", "104935.822000", "104935.825000", "104935.827000", "104935.830000", "104935.832000", "104955.748000", "104955.750000", "104955.753000", "104955.756000", "104955.758000", "104955.761000", "104955.763000", "104955.766000", "104955.768000", "104955.771000", "104955.773000", "104955.776000", "104955.778000", "104955.781000", "104955.783000", "104955.786000", "104955.789000", "104955.791000", "104955.794000", "104955.797000", "105035.802000", "105035.805000", "105035.808000", "105035.810000", "105035.813000", "105035.815000", "105035.818000", "105035.820000", "105035.823000", "105035.825000", "105035.828000", "105035.830000", "105035.833000", "105035.835000", "105035.838000", "105035.841000", "105035.843000", "105035.846000", "105035.848000", "105035.851000", "105035.853000", "105035.856000", "105035.858000", "105035.861000", "105035.864000", "105035.866000", "105035.869000", "105035.871000", "105035.874000", "105035.876000", "105035.879000", "105035.881000", "105115.787000", "105115.790000", "105115.792000", "105115.795000", "105115.797000", "105115.800000", "105115.802000", "105115.805000", "105115.807000", "105115.810000", "105115.812000", "105115.815000", "105115.817000", "105115.820000", "105115.823000", "105115.825000", "105115.828000", "105115.830000", "105115.833000", "105115.835000", "105115.838000", "105115.840000", "105115.843000", "105115.845000", "105115.848000", "105115.850000", "105115.853000", "105155.793000", "105155.796000", "105155.799000", "105155.801000", "105155.804000", "105155.806000", "105155.809000", "105155.811000", "105155.814000", "105155.816000", "105155.819000", "105155.821000", "105155.824000", "105155.826000", "105155.829000", "105155.831000", "105155.834000", "105155.836000", "105155.839000", "105155.841000", "105155.844000", "105155.846000", "105155.849000", "105155.852000", "105155.854000", "105155.857000", "105155.859000", "105211.615000", "105211.618000", "105211.621000", "105211.623000", "105211.626000", "105211.628000", "105211.631000", "105211.633000", "105211.636000", "105211.639000", "105211.641000"],
      "InstanceNumber": [1, 2, 3, 4, 5, 6, 7, 8, 9, 10, 11, 12, 13, 14, 15, 16, 17, 18, 19, 20, 21, 22, 23, 24, 25, 26, 27, 28, 29, 30, 31, 32, 33, 34, 35, 36, 37, 38, 39, 40, 41, 42, 43, 44, 45, 46, 47, 48, 49, 50, 51, 52, 53, 54, 55, 56, 57, 58, 59, 60, 61, 62, 63, 64, 65, 66, 67, 68, 69, 70, 71, 72, 73, 74, 75, 76, 77, 78, 79, 80, 81, 82, 83, 84, 85, 86, 87, 88, 89, 90, 91, 92, 93, 94, 95, 96, 97, 98, 99, 100, 101, 102, 103, 104, 105, 106, 107, 108, 109, 110, 111, 112, 113, 114, 115, 116, 117, 118, 119, 120, 121, 122, 123, 124, 125, 126, 127, 128, 129, 130, 131, 132, 133, 134, 135, 136, 137, 138, 139, 140, 141, 142, 143, 144, 145, 146, 147, 148, 149, 150, 151, 152, 153, 154, 155, 156, 157, 158, 159, 160, 161, 162, 163, 164, 165, 166, 167, 168, 169, 170, 171, 172, 173, 174, 175, 176, 177, 178, 179, 180, 181, 182, 183, 184, 185, 186, 187, 188, 189, 190],
      "WindowCenter": [4888.0, 4924.0, 4920.0, 4918.0, 4846.0, 4846.0, 4882.0, 4850.0, 4914.0, 4914.0, 4924.0, 4912.0, 4924.0, 4878.0, 4920.0, 4916.0, 4888.0, 4850.0, 4878.0, 4840.0, 4910.0, 4910.0, 4882.0, 4882.0, 4920.0, 4884.0, 4918.0, 4882.0, 4906.0, 4872.0, 4910.0, 4846.0, 4912.0, 4886.0, 4878.0, 4886.0, 4886.0, 4880.0, 4876.0, 4888.0, 4884.0, 4886.0, 4912.0, 4876.0, 4876.0, 4884.0, 4874.0, 4914.0, 4878.0, 4910.0, 4920.0, 4880.0, 4886.0, 4878.0, 4884.0, 4874.0, 4876.0, 4878.0, 4880.0, 4910.0, 4916.0, 4888.0, 4880.0, 4878.0, 4874.0, 4910.0, 4914.0, 4888.0, 4872.0, 4878.0, 4818.0, 4886.0, 4912.0, 4918.0, 4874.0, 4882.0, 4818.0, 4910.0, 4880.0, 4912.0, 4882.0, 4912.0, 4880.0, 4912.0, 4888.0, 4910.0, 4844.0, 4876.0, 4908.0, 4916.0, 4838.0, 4814.0, 4880.0, 4876.0, 4916.0, 4878.0, 4922.0, 4878.0, 4916.0, 4880.0, 4912.0, 4878.0, 4886.0, 4848.0, 4880.0, 4852.0, 4882.0, 4878.0, 4884.0, 4880.0, 4878.0, 4880.0, 4838.0, 4912.0, 4878.0, 4914.0, 4850.0, 4888.0, 4838.0, 4884.0, 4848.0, 4886.0, 4886.0, 4918.0, 4876.0, 4886.0, 4874.0, 4882.0, 4876.0, 4884.0, 4880.0, 4872.0, 4878.0, 4842.0, 4884.0, 4878.0, 4850.0, 4812.0, 4886.0, 4850.0, 4918.0, 4886.0, 4910.0, 4888.0, 4890.0, 4874.0, 4848.0, 4872.0, 4814.0, 4880.0, 4850.0, 4908.0, 4880.0, 4914.0, 4850.0, 4884.0, 4840.0, 4848.0, 4880.0, 4910.0, 4922.0, 4922.0, 4916.0, 4780.0, 4838.0, 4810.0, 4842.0, 4874.0, 4916.0, 4914.0, 4918.0, 4918.0, 4882.0, 4886.0, 4876.0, 4850.0, 4814.0, 4850.0, 4838.0, 4886.0, 4908.0, 4914.0, 4882.0, 4910.0, 4786.0, 4754.0, 4846.0, 4922.0, 4952.0, 4882.0],
      "WindowWidth": [18740.0, 18770.0, 18772.0, 18770.0, 18694.0, 18702.0, 18740.0, 18700.0, 18774.0, 18770.0, 18778.0, 18768.0, 18774.0, 18736.0, 18774.0, 18768.0, 18742.0, 18700.0, 18734.0, 18690.0, 18772.0, 18770.0, 18742.0, 18736.0, 18774.0, 18744.0, 18768.0, 18742.0, 18770.0, 18732.0, 18768.0, 18698.0, 18772.0, 18740.0, 18730.0, 18742.0, 18742.0, 18740.0, 18734.0, 18742.0, 18740.0, 18740.0, 18770.0, 18738.0, 18736.0, 18740.0, 18730.0, 18768.0, 18736.0, 18770.0, 18772.0, 18736.0, 18736.0, 18738.0, 18740.0, 18732.0, 18734.0, 18736.0, 18732.0, 18772.0, 18770.0, 18740.0, 18740.0, 18736.0, 18732.0, 18772.0, 18774.0, 18742.0, 18730.0, 18736.0, 18662.0, 18740.0, 18776.0, 18778.0, 18730.0, 18738.0, 18662.0, 18768.0, 18742.0, 18770.0, 18742.0, 18772.0, 18740.0, 18776.0, 18742.0, 18772.0, 18694.0, 18732.0, 18770.0, 18776.0, 18690.0, 18660.0, 18738.0, 18732.0, 18776.0, 18732.0, 18776.0, 18734.0, 18768.0, 18738.0, 18770.0, 18736.0, 18738.0, 18698.0, 18738.0, 18702.0, 18736.0, 18734.0, 18744.0, 18734.0, 18732.0, 18738.0, 18688.0, 18774.0, 18732.0, 18772.0, 18702.0, 18744.0, 18690.0, 18740.0, 18696.0, 18746.0, 18740.0, 18772.0, 18738.0, 18742.0, 18732.0, 18738.0, 18734.0, 18740.0, 18736.0, 18728.0, 18732.0, 18696.0, 18738.0, 18734.0, 18694.0, 18654.0, 18738.0, 18698.0, 18768.0, 18740.0, 18768.0, 18742.0, 18742.0, 18730.0, 18700.0, 18730.0, 18660.0, 18738.0, 18698.0, 18772.0, 18738.0, 18770.0, 18700.0, 18736.0, 18686.0, 18696.0, 18736.0, 18768.0, 18770.0, 18772.0, 18768.0, 18614.0, 18688.0, 18654.0, 18694.0, 18730.0, 18768.0, 18772.0, 18766.0, 18774.0, 18736.0, 18738.0, 18732.0, 18698.0, 18656.0, 18702.0, 18690.0, 18738.0, 18772.0, 18768.0, 18738.0, 18772.0, 18620.0, 18580.0, 18696.0, 18770.0, 18804.0, 18742.0]
    },
    "slices": {}
  }
}