{
  "AcquisitionMatrixPE": 104,
  "AcquisitionNumber": 1,
  "AcquisitionTime": "10:59:38.100000",
  "BandwidthPerPixelPhaseEncode": 17.17,
  "BaseResolution": 104,
  "BodyPartExamined": "BRAIN",
  "CoilString": "HC1-7;NC1_2",
  "ConsistencyInfo": "N4_VE11C_LATEST_20160120",
  "ConversionSoftware": "dcm2niix",
  "ConversionSoftwareVersion": "v1.0.20190902",
  "DerivedVendorReportedEchoSpacing": 0.000560011,
  "DeviceSerialNumber": "167006",
  "DwellTime": 2.1e-06,
  "EchoTime": 0.037,
  "EchoTrainLength": 104,
  "EffectiveEchoSpacing": 0.000560011,
  "FlipAngle": 52,
  "ImageComments": "Unaliased_MB4_PE3_LB",
  "ImageOrientationPatientDICOM": [0.999898, -0.00321427, 0.0139275, 0.00942411, 0.880853, -0.473296],
  "ImageType": [
    "ORIGINAL",
    "PRIMARY",
    "P",
    "MB",
    "ND",
    "MOSAIC"
],
  "ImagingFrequency": 123.259,
  "InPlanePhaseEncodingDirectionDICOM": "COL",
  "InstitutionAddress": "Chemin_Queen-Mary_4565_Montreal_District_CA_H3W_1W5",
  "InstitutionName": "IUGM",
  "InstitutionalDepartmentName": "Department",
  "MRAcquisitionType": "2D",
  "MagneticFieldStrength": 3,
  "Manufacturer": "Siemens",
  "ManufacturersModelName": "Prisma_fit",
  "Modality": "MR",
  "MultibandAccelerationFactor": 4,
  "PartialFourier": 1,
  "PatientPosition": "HFS",
  "PercentPhaseFOV": 100,
  "PhaseEncodingDirection": "j",
  "PhaseEncodingSteps": 104,
  "PhaseResolution": 1,
  "PixelBandwidth": 2290,
  "ProcedureStepDescription": "memory_things",
  "ProtocolName": "func_task-things_run-3",
  "PulseSequenceDetails": "%CustomerSeq%_cmrr_mbep2d_bold",
  "ReceiveCoilActiveElements": "HC1-7;NC1,2",
  "ReceiveCoilName": "HeadNeck_64",
  "ReconMatrixPE": 104,
  "RepetitionTime": 1.49,
  "SAR": 0.0503595,
  "ScanOptions": "FS",
  "ScanningSequence": "EP",
  "SequenceName": "epfid2d1_104",
  "SequenceVariant": "SK_SS",
  "SeriesDescription": "func_task-things_run-3",
  "SeriesNumber": 17,
  "ShimSetting": [612, -7196, -8845, 284, 6, -104, -14, -28],
  "SliceThickness": 2,
  "SliceTiming": [0, 0.7825, 0.0975, 0.88, 0.195, 0.98, 0.2925, 1.0775, 0.39, 1.175, 0.49, 1.2725, 0.5875, 1.37, 0.685, 0, 0.7825, 0.0975, 0.88, 0.195, 0.98, 0.2925, 1.0775, 0.39, 1.175, 0.49, 1.2725, 0.5875, 1.37, 0.685, 0, 0.7825, 0.0975, 0.88, 0.195, 0.98, 0.2925, 1.0775, 0.39, 1.175, 0.49, 1.2725, 0.5875, 1.37, 0.685, 0, 0.7825, 0.0975, 0.88, 0.195, 0.98, 0.2925, 1.0775, 0.39, 1.175, 0.49, 1.2725, 0.5875, 1.37, 0.685],
  "SoftwareVersions": "syngo_MR_E11",
  "SpacingBetweenSlices": 2,
  "StationName": "MRC35049",
  "TaskName": "things",
  "TotalReadoutTime": 0.0576811,
  "TxRefAmp": 272.81,
  "WipMemBlock": "c60b0ad2-b722-4440-835f-dfdf68a6b967||Sequence: R016 ve11c/master r/e634e98; Dec 19 2017 11:00:25 by eja",
  "dcmmeta_affine": [
    [-1.99979567527771, 0.01884821429848671, 0.021493589505553246, 105.8907470703125],
    [0.006428543943911791, 1.761705756187439, -0.9467583298683167, -54.89006805419922],
    [0.0278550423681736, 0.9465925097465515, 1.7615864276885986, -75.2392807006836],
    [0.0, 0.0, 0.0, 1.0]
],
  "dcmmeta_reorient_transform": [
    [0.0, -1.0, 0.0, 103.0],
    [1.0, 0.0, 0.0, 0.0],
    [0.0, 0.0, 1.0, 0.0],
    [0.0, 0.0, 0.0, 1.0]
],
  "dcmmeta_shape": [104, 104, 60, 190],
  "dcmmeta_slice_dim": 2,
  "dcmmeta_version": 0.6,
  "global": {
    "const": {
      "AcquisitionMatrix": [104, 0, 0, 104],
      "AngioFlag": "N",
      "BitsAllocated": 16,
      "BitsStored": 16,
      "BodyPartExamined": "BRAIN",
      "Columns": 832,
      "EchoNumbers": 1,
      "EchoTime": 37.0,
      "EchoTrainLength": 104,
      "FlipAngle": 52.0,
      "HighBit": 15,
      "ImageOrientationPatient": [0.99989784108867, -0.0032142719178, 0.01392752103803, 0.00942410712473, 0.8808529028393, -0.4732962600364],
      "ImagePositionPatient": [-842.61849366501, -765.48655491593, 356.68018818554],
      "ImageType": [
        "ORIGINAL",
        "PRIMARY",
        "P",
        "MB",
        "ND",
        "MOSAIC"
],
      "ImagedNucleus": "1H",
      "ImagingFrequency": 123.25888,
      "InPlanePhaseEncodingDirection": "COL",
      "LargestImagePixelValue": 4095,
      "MRAcquisitionType": "2D",
      "MagneticFieldStrength": 3.0,
      "Manufacturer": "SIEMENS",
      "ManufacturerModelName": "Prisma_fit",
      "Modality": "MR",
      "NumberOfAverages": 1.0,
      "NumberOfPhaseEncodingSteps": 104,
      "PercentPhaseFieldOfView": 100.0,
      "PercentSampling": 100.0,
      "PerformedProcedureStepStartTime": "102048.647000",
      "PhotometricInterpretation": "MONOCHROME2",
      "PixelBandwidth": 2290.0,
      "PixelRepresentation": 0,
      "PixelSpacing": [2.0, 2.0],
      "ProtocolName": "func_task-things_run-3",
      "RepetitionTime": 1490.0,
      "RescaleIntercept": -4096.0,
      "RescaleSlope": 2.0,
      "RescaleType": "US",
      "Rows": 832,
      "SAR": 0.05035951282313,
      "SamplesPerPixel": 1,
      "ScanOptions": "FS",
      "ScanningSequence": "EP",
      "SequenceName": "epfid2d1_104",
      "SequenceVariant": [
        "SK",
        "SS"
],
      "SeriesDescription": "func_task-things_run-3",
      "SeriesNumber": 17,
      "SeriesTime": "110110.861000",
      "SliceLocation": -39.148449931882,
      "SliceThickness": 2.0,
      "SmallestImagePixelValue": 0,
      "SoftwareVersions": "syngo MR E11",
      "SpacingBetweenSlices": 2.0000000473589,
      "SpecificCharacterSet": "ISO_IR 100",
      "StudyID": "1",
      "StudyTime": "102048.577000",
      "TransmitCoilName": "Body",
      "VariableFlipAngleFlag": "N",
      "WindowCenterWidthExplanation": "Algo1",
      "dBdt": 0.0},
    "slices": {}
  },
  "time": {
    "samples": {
      "AcquisitionNumber": [1, 2, 3, 4, 5, 6, 7, 8, 9, 10, 11, 12, 13, 14, 15, 16, 17, 18, 19, 20, 21, 22, 23, 24, 25, 26, 27, 28, 29, 30, 31, 32, 33, 34, 35, 36, 37, 38, 39, 40, 41, 42, 43, 44, 45, 46, 47, 48, 49, 50, 51, 52, 53, 54, 55, 56, 57, 58, 59, 60, 61, 62, 63, 64, 65, 66, 67, 68, 69, 70, 71, 72, 73, 74, 75, 76, 77, 78, 79, 80, 81, 82, 83, 84, 85, 86, 87, 88, 89, 90, 91, 92, 93, 94, 95, 96, 97, 98, 99, 100, 101, 102, 103, 104, 105, 106, 107, 108, 109, 110, 111, 112, 113, 114, 115, 116, 117, 118, 119, 120, 121, 122, 123, 124, 125, 126, 127, 128, 129, 130, 131, 132, 133, 134, 135, 136, 137, 138, 139, 140, 141, 142, 143, 144, 145, 146, 147, 148, 149, 150, 151, 152, 153, 154, 155, 156, 157, 158, 159, 160, 161, 162, 163, 164, 165, 166, 167, 168, 169, 170, 171, 172, 173, 174, 175, 176, 177, 178, 179, 180, 181, 182, 183, 184, 185, 186, 187, 188, 189, 190],
      "AcquisitionTime": ["105938.100000", "105939.590000", "105941.080000", "105942.570000", "105944.060000", "105945.550000", "105947.040000", "105948.530000", "105950.020000", "105951.510000", "105953.000000", "105954.490000", "105955.980000", "105957.470000", "105958.960000", "110000.450000", "110001.940000", "110003.430000", "110004.920000", "110006.410000", "110007.900000", "110009.390000", "110010.880000", "110012.370000", "110013.860000", "110015.350000", "110016.840000", "110018.330000", "110019.820000", "110021.310000", "110022.800000", "110024.290000", "110025.780000", "110027.270000", "110028.760000", "110030.250000", "110031.740000", "110033.230000", "110034.720000", "110036.210000", "110037.700000", "110039.190000", "110040.680000", "110042.170000", "110043.660000", "110045.150000", "110046.640000", "110048.130000", "110049.620000", "110051.110000", "110052.600000", "110054.090000", "110055.580000", "110057.070000", "110058.560000", "110100.050000", "110101.540000", "110103.030000", "110104.520000", "110106.010000", "110107.500000", "110108.990000", "110110.480000", "110111.970000", "110113.460000", "110114.950000", "110116.440000", "110117.930000", "110119.420000", "110120.910000", "110122.400000", "110123.890000", "110125.380000", "110126.870000", "110128.360000", "110129.850000", "110131.340000", "110132.830000", "110134.320000", "110135.810000", "110137.300000", "110138.790000", "110140.280000", "110141.770000", "110143.260000", "110144.750000", "110146.240000", "110147.730000", "110149.220000", "110150.710000", "110152.200000", "110153.690000", "110155.180000", "110156.670000", "110158.160000", "110159.650000", "110201.140000", "110202.630000", "110204.120000", "110205.610000", "110207.100000", "110208.590000", "110210.080000", "110211.570000", "110213.060000", "110214.550000", "110216.040000", "110217.530000", "110219.020000", "110220.510000", "110222.000000", "110223.490000", "110224.980000", "110226.470000", "110227.960000", "110229.450000", "110230.940000", "110232.430000", "110233.920000", "110235.410000", "110236.900000", "110238.390000", "110239.880000", "110241.370000", "110242.860000", "110244.350000", "110245.840000", "110247.330000", "110248.820000", "110250.310000", "110251.800000", "110253.290000", "110254.780000", "110256.270000", "110257.760000", "110259.250000", "110300.740000", "110302.230000", "110303.720000", "110305.210000", "110306.700000", "110308.190000", "110309.680000", "110311.170000", "110312.660000", "110314.150000", "110315.640000", "110317.130000", "110318.620000", "110320.110000", "110321.600000", "110323.090000", "110324.580000", "110326.070000", "110327.560000", "110329.050000", "110330.540000", "110332.030000", "110333.520000", "110335.010000", "110336.500000", "110337.990000", "110339.480000", "110340.970000", "110342.460000", "110343.950000", "110345.440000", "110346.930000", "110348.420000", "110349.910000", "110351.400000", "110352.890000", "110354.380000", "110355.870000", "110357.360000", "110358.850000", "110400.340000", "110401.830000", "110403.320000", "110404.810000", "110406.300000", "110407.790000", "110409.280000", "110410.770000", "110412.260000", "110413.750000", "110415.240000", "110416.730000", "110418.220000", "110419.710000"],
      "ContentTime": ["110110.863000", "110110.866000", "110110.868000", "110110.871000", "110110.873000", "110110.876000", "110110.878000", "110110.881000", "110110.883000", "110110.886000", "110110.889000", "110110.891000", "110110.894000", "110110.906000", "110110.909000", "110110.911000", "110110.914000", "110110.916000", "110110.919000", "110110.921000", "110110.924000", "110110.926000", "110110.929000", "110110.931000", "110110.934000", "110110.936000", "110110.939000", "110110.941000", "110110.944000", "110110.946000", "110110.949000", "110110.951000", "110110.954000", "110110.956000", "110110.959000", "110110.961000", "110110.964000", "110110.967000", "110110.969000", "110110.972000", "110130.728000", "110130.731000", "110130.740000", "110130.742000", "110130.745000", "110130.747000", "110130.750000", "110130.752000", "110130.755000", "110130.757000", "110130.760000", "110130.762000", "110130.765000", "110130.767000", "110130.770000", "110130.772000", "110130.775000", "110130.778000", "110130.780000", "110130.783000", "110150.722000", "110150.725000", "110150.728000", "110150.730000", "110150.733000", "110150.736000", "110150.738000", "110150.741000", "110150.743000", "110150.746000", "110150.748000", "110150.751000", "110150.753000", "110150.756000", "110150.758000", "110150.761000", "110150.763000", "110150.766000", "110150.776000", "110150.778000", "110210.727000", "110210.730000", "110210.733000", "110210.735000", "110210.738000", "110210.740000", "110210.743000", "110210.745000", "110210.748000", "110210.751000", "110210.753000", "110210.756000", "110210.758000", "110210.761000", "110210.763000", "110210.766000", "110210.768000", "110210.771000", "110210.773000", "110210.776000", "110210.779000", "110251.169000", "110251.171000", "110251.174000", "110251.177000", "110251.179000", "110251.182000", "110251.184000", "110251.187000", "110251.189000", "110251.192000", "110251.195000", "110251.197000", "110251.200000", "110251.202000", "110251.205000", "110251.207000", "110251.210000", "110251.221000", "110251.224000", "110251.226000", "110251.229000", "110251.232000", "110251.234000", "110251.237000", "110251.239000", "110251.242000", "110251.245000", "110330.760000", "110330.763000", "110330.765000", "110330.768000", "110330.770000", "110330.773000", "110330.775000", "110330.778000", "110330.780000", "110330.783000", "110330.785000", "110330.788000", "110330.791000", "110330.793000", "110330.796000", "110330.798000", "110330.801000", "110330.803000", "110330.806000", "110330.808000", "110330.811000", "110330.813000", "110330.816000", "110330.819000", "110330.821000", "110330.824000", "110330.826000", "110410.750000", "110410.753000", "110410.755000", "110410.758000", "110410.761000", "110410.763000", "110410.766000", "110410.768000", "110410.771000", "110410.773000", "110410.776000", "110410.778000", "110410.781000", "110410.784000", "110410.786000", "110410.789000", "110410.791000", "110410.794000", "110410.796000", "110410.799000", "110410.802000", "110410.804000", "110410.807000", "110410.809000", "110410.812000", "110410.814000", "110410.817000", "110421.674000", "110421.676000", "110421.679000", "110421.681000", "110421.684000", "110421.692000", "110421.694000", "110421.697000"],
      "InstanceCreationTime": ["110110.863000", "110110.866000", "110110.868000", "110110.871000", "110110.873000", "110110.876000", "110110.878000", "110110.881000", "110110.883000", "110110.886000", "110110.889000", "110110.891000", "110110.894000", "110110.906000", "110110.909000", "110110.911000", "110110.914000", "110110.916000", "110110.919000", "110110.921000", "110110.924000", "110110.926000", "110110.929000", "110110.931000", "110110.934000", "110110.936000", "110110.939000", "110110.941000", "110110.944000", "110110.946000", "110110.949000", "110110.951000", "110110.954000", "110110.956000", "110110.959000", "110110.961000", "110110.964000", "110110.967000", "110110.969000", "110110.972000", "110130.728000", "110130.731000", "110130.740000", "110130.742000", "110130.745000", "110130.747000", "110130.750000", "110130.752000", "110130.755000", "110130.757000", "110130.760000", "110130.762000", "110130.765000", "110130.767000", "110130.770000", "110130.772000", "110130.775000", "110130.778000", "110130.780000", "110130.783000", "110150.722000", "110150.725000", "110150.728000", "110150.730000", "110150.733000", "110150.736000", "110150.738000", "110150.741000", "110150.743000", "110150.746000", "110150.748000", "110150.751000", "110150.753000", "110150.756000", "110150.758000", "110150.761000", "110150.763000", "110150.766000", "110150.776000", "110150.778000", "110210.727000", "110210.730000", "110210.733000", "110210.735000", "110210.738000", "110210.740000", "110210.743000", "110210.745000", "110210.748000", "110210.751000", "110210.753000", "110210.756000", "110210.758000", "110210.761000", "110210.763000", "110210.766000", "110210.768000", "110210.771000", "110210.773000", "110210.776000", "110210.779000", "110251.169000", "110251.171000", "110251.174000", "110251.177000", "110251.179000", "110251.182000", "110251.184000", "110251.187000", "110251.189000", "110251.192000", "110251.195000", "110251.197000", "110251.200000", "110251.202000", "110251.205000", "110251.207000", "110251.210000", "110251.221000", "110251.224000", "110251.226000", "110251.229000", "110251.232000", "110251.234000", "110251.237000", "110251.239000", "110251.242000", "110251.245000", "110330.760000", "110330.763000", "110330.765000", "110330.768000", "110330.770000", "110330.773000", "110330.775000", "110330.778000", "110330.780000", "110330.783000", "110330.785000", "110330.788000", "110330.791000", "110330.793000", "110330.796000", "110330.798000", "110330.801000", "110330.803000", "110330.806000", "110330.808000", "110330.811000", "110330.813000", "110330.816000", "110330.819000", "110330.821000", "110330.824000", "110330.826000", "110410.750000", "110410.753000", "110410.755000", "110410.758000", "110410.761000", "110410.763000", "110410.766000", "110410.768000", "110410.771000", "110410.773000", "110410.776000", "110410.778000", "110410.781000", "110410.784000", "110410.786000", "110410.789000", "110410.791000", "110410.794000", "110410.796000", "110410.799000", "110410.802000", "110410.804000", "110410.807000", "110410.809000", "110410.812000", "110410.814000", "110410.817000", "110421.674000", "110421.676000", "110421.679000", "110421.681000", "110421.684000", "110421.692000", "110421.694000", "110421.697000"],
      "InstanceNumber": [1, 2, 3, 4, 5, 6, 7, 8, 9, 10, 11, 12, 13, 14, 15, 16, 17, 18, 19, 20, 21, 22, 23, 24, 25, 26, 27, 28, 29, 30, 31, 32, 33, 34, 35, 36, 37, 38, 39, 40, 41, 42, 43, 44, 45, 46, 47, 48, 49, 50, 51, 52, 53, 54, 55, 56, 57, 58, 59, 60, 61, 62, 63, 64, 65, 66, 67, 68, 69, 70, 71, 72, 73, 74, 75, 76, 77, 78, 79, 80, 81, 82, 83, 84, 85, 86, 87, 88, 89, 90, 91, 92, 93, 94, 95, 96, 97, 98, 99, 100, 101, 102, 103, 104, 105, 106, 107, 108, 109, 110, 111, 112, 113, 114, 115, 116, 117, 118, 119, 120, 121, 122, 123, 124, 125, 126, 127, 128, 129, 130, 131, 132, 133, 134, 135, 136, 137, 138, 139, 140, 141, 142, 143, 144, 145, 146, 147, 148, 149, 150, 151, 152, 153, 154, 155, 156, 157, 158, 159, 160, 161, 162, 163, 164, 165, 166, 167, 168, 169, 170, 171, 172, 173, 174, 175, 176, 177, 178, 179, 180, 181, 182, 183, 184, 185, 186, 187, 188, 189, 190],
      "WindowCenter": [4912.0, 4938.0, 4914.0, 4916.0, 4912.0, 4914.0, 4936.0, 4914.0, 4936.0, 4912.0, 4930.0, 4824.0, 4822.0, 4896.0, 4892.0, 4864.0, 4860.0, 4866.0, 4916.0, 4938.0, 4930.0, 4916.0, 4918.0, 4924.0, 4896.0, 4854.0, 4904.0, 4890.0, 4860.0, 4890.0, 4890.0, 4912.0, 4936.0, 4930.0, 4914.0, 4926.0, 4932.0, 4938.0, 4914.0, 4914.0, 4912.0, 4916.0, 4916.0, 4936.0, 4930.0, 4930.0, 4928.0, 4932.0, 4930.0, 4854.0, 4902.0, 4912.0, 4916.0, 4888.0, 4914.0, 4890.0, 4936.0, 4936.0, 4926.0, 4926.0, 4934.0, 4924.0, 4934.0, 4916.0, 4916.0, 4914.0, 4918.0, 4914.0, 4938.0, 4938.0, 4928.0, 4894.0, 4926.0, 4920.0, 4928.0, 4916.0, 4906.0, 4914.0, 4890.0, 4912.0, 4914.0, 4916.0, 4932.0, 4930.0, 4930.0, 4932.0, 4940.0, 4936.0, 4918.0, 4938.0, 4918.0, 4916.0, 4930.0, 4936.0, 4936.0, 4914.0, 4934.0, 4938.0, 4926.0, 4936.0, 4928.0, 4934.0, 4938.0, 4914.0, 4914.0, 4916.0, 4932.0, 4936.0, 4936.0, 4938.0, 4934.0, 4934.0, 4932.0, 4932.0, 4936.0, 4932.0, 4916.0, 4914.0, 4932.0, 4918.0, 4938.0, 4936.0, 4934.0, 4938.0, 4924.0, 4936.0, 4934.0, 4930.0, 4916.0, 4912.0, 4918.0, 4936.0, 4918.0, 4930.0, 4936.0, 4934.0, 4922.0, 4940.0, 4936.0, 4930.0, 4918.0, 4914.0, 4914.0, 4918.0, 4916.0, 4918.0, 4932.0, 4934.0, 4896.0, 4890.0, 4912.0, 4918.0, 4936.0, 4916.0, 4916.0, 4916.0, 4936.0, 4930.0, 4938.0, 4896.0, 4922.0, 4938.0, 4914.0, 4916.0, 4938.0, 4916.0, 4938.0, 4916.0, 4928.0, 4928.0, 4930.0, 4934.0, 4938.0, 4928.0, 4918.0, 4912.0, 4914.0, 4930.0, 4928.0, 4936.0, 4894.0, 4858.0, 4910.0, 4914.0, 4916.0, 4890.0, 4914.0, 4912.0, 4936.0, 4926.0],
      "WindowWidth": [18706.0, 18732.0, 18698.0, 18700.0, 18698.0, 18700.0, 18738.0, 18706.0, 18740.0, 18706.0, 18754.0, 18658.0, 18656.0, 18724.0, 18634.0, 18592.0, 18584.0, 18594.0, 18678.0, 18742.0, 18756.0, 18766.0, 18768.0, 18762.0, 18730.0, 18686.0, 18720.0, 18652.0, 18592.0, 18644.0, 18630.0, 18704.0, 18748.0, 18754.0, 18764.0, 18756.0, 18760.0, 18742.0, 18704.0, 18686.0, 18694.0, 18692.0, 18694.0, 18736.0, 18748.0, 18758.0, 18750.0, 18742.0, 18758.0, 18690.0, 18722.0, 18684.0, 18692.0, 18630.0, 18692.0, 18650.0, 18740.0, 18742.0, 18756.0, 18756.0, 18748.0, 18758.0, 18740.0, 18700.0, 18698.0, 18684.0, 18692.0, 18694.0, 18736.0, 18738.0, 18762.0, 18732.0, 18756.0, 18762.0, 18750.0, 18692.0, 18722.0, 18702.0, 18628.0, 18680.0, 18686.0, 18690.0, 18762.0, 18754.0, 18760.0, 18756.0, 18752.0, 18750.0, 18706.0, 18730.0, 18696.0, 18702.0, 18756.0, 18752.0, 18738.0, 18696.0, 18746.0, 18736.0, 18754.0, 18746.0, 18758.0, 18742.0, 18734.0, 18702.0, 18700.0, 18700.0, 18742.0, 18740.0, 18746.0, 18744.0, 18744.0, 18744.0, 18742.0, 18752.0, 18736.0, 18754.0, 18712.0, 18710.0, 18746.0, 18702.0, 18736.0, 18738.0, 18740.0, 18738.0, 18760.0, 18744.0, 18752.0, 18750.0, 18702.0, 18694.0, 18700.0, 18746.0, 18708.0, 18754.0, 18738.0, 18750.0, 18754.0, 18746.0, 18750.0, 18748.0, 18696.0, 18708.0, 18704.0, 18696.0, 18704.0, 18708.0, 18754.0, 18750.0, 18732.0, 18724.0, 18716.0, 18702.0, 18732.0, 18676.0, 18704.0, 18700.0, 18742.0, 18754.0, 18744.0, 18732.0, 18754.0, 18738.0, 18704.0, 18686.0, 18734.0, 18694.0, 18742.0, 18706.0, 18760.0, 18752.0, 18752.0, 18750.0, 18740.0, 18754.0, 18700.0, 18690.0, 18678.0, 18752.0, 18748.0, 18744.0, 18728.0, 18690.0, 18712.0, 18686.0, 18700.0, 18638.0, 18690.0, 18710.0, 18742.0, 18756.0]
    },
    "slices": {}
  }
}