{
  "AcquisitionMatrixPE": 104,
  "AcquisitionNumber": 1,
  "AcquisitionTime": "11:12:5.230000",
  "BandwidthPerPixelPhaseEncode": 17.17,
  "BaseResolution": 104,
  "BodyPartExamined": "BRAIN",
  "CoilString": "HC1-7;NC1_2",
  "ConsistencyInfo": "N4_VE11C_LATEST_20160120",
  "ConversionSoftware": "dcm2niix",
  "ConversionSoftwareVersion": "v1.0.20190902",
  "DerivedVendorReportedEchoSpacing": 0.000560011,
  "DeviceSerialNumber": "167006",
  "DwellTime": 2.1e-06,
  "EchoTime": 0.037,
  "EchoTrainLength": 104,
  "EffectiveEchoSpacing": 0.000560011,
  "FlipAngle": 52,
  "ImageComments": "Unaliased_MB4_PE3_LB",
  "ImageOrientationPatientDICOM": [0.999898, -0.00321427, 0.0139275, 0.00942411, 0.880853, -0.473296],
  "ImageType": [
    "ORIGINAL",
    "PRIMARY",
    "M",
    "MB",
    "ND",
    "MOSAIC"
],
  "ImagingFrequency": 123.259,
  "InPlanePhaseEncodingDirectionDICOM": "COL",
  "InstitutionAddress": "Chemin_Queen-Mary_4565_Montreal_District_CA_H3W_1W5",
  "InstitutionName": "IUGM",
  "InstitutionalDepartmentName": "Department",
  "MRAcquisitionType": "2D",
  "MagneticFieldStrength": 3,
  "Manufacturer": "Siemens",
  "ManufacturersModelName": "Prisma_fit",
  "Modality": "MR",
  "MultibandAccelerationFactor": 4,
  "PartialFourier": 1,
  "PatientPosition": "HFS",
  "PercentPhaseFOV": 100,
  "PhaseEncodingDirection": "j",
  "PhaseEncodingSteps": 104,
  "PhaseResolution": 1,
  "PixelBandwidth": 2290,
  "ProcedureStepDescription": "memory_things",
  "ProtocolName": "func_task-things_run-5",
  "PulseSequenceDetails": "%CustomerSeq%_cmrr_mbep2d_bold",
  "ReceiveCoilActiveElements": "HC1-7;NC1,2",
  "ReceiveCoilName": "HeadNeck_64",
  "ReconMatrixPE": 104,
  "RepetitionTime": 1.49,
  "SAR": 0.0503595,
  "ScanOptions": "FS",
  "ScanningSequence": "EP",
  "SequenceName": "epfid2d1_104",
  "SequenceVariant": "SK_SS",
  "SeriesDescription": "func_task-things_run-5",
  "SeriesNumber": 22,
  "ShimSetting": [612, -7196, -8845, 284, 6, -104, -14, -28],
  "SliceThickness": 2,
  "SliceTiming": [0, 0.785, 0.0975, 0.8825, 0.1975, 0.98, 0.295, 1.0775, 0.3925, 1.1775, 0.49, 1.275, 0.5875, 1.3725, 0.6875, 0, 0.785, 0.0975, 0.8825, 0.1975, 0.98, 0.295, 1.0775, 0.3925, 1.1775, 0.49, 1.275, 0.5875, 1.3725, 0.6875, 0, 0.785, 0.0975, 0.8825, 0.1975, 0.98, 0.295, 1.0775, 0.3925, 1.1775, 0.49, 1.275, 0.5875, 1.3725, 0.6875, 0, 0.785, 0.0975, 0.8825, 0.1975, 0.98, 0.295, 1.0775, 0.3925, 1.1775, 0.49, 1.275, 0.5875, 1.3725, 0.6875],
  "SoftwareVersions": "syngo_MR_E11",
  "SpacingBetweenSlices": 2,
  "StationName": "MRC35049",
  "TaskName": "things",
  "TotalReadoutTime": 0.0576811,
  "TxRefAmp": 272.81,
  "WipMemBlock": "c2a8c3af-de6f-4277-8728-295157f1b600||Sequence: R016 ve11c/master r/e634e98; Dec 19 2017 11:00:25 by eja",
  "dcmmeta_affine": [
    [-1.99979567527771, 0.01884821429848671, 0.021493589505553246, 105.8907470703125],
    [0.006428543943911791, 1.761705756187439, -0.9467583298683167, -54.89006805419922],
    [0.0278550423681736, 0.9465925097465515, 1.7615864276885986, -75.2392807006836],
    [0.0, 0.0, 0.0, 1.0]
],
  "dcmmeta_reorient_transform": [
    [0.0, -1.0, 0.0, 103.0],
    [1.0, 0.0, 0.0, 0.0],
    [0.0, 0.0, 1.0, 0.0],
    [0.0, 0.0, 0.0, 1.0]
],
  "dcmmeta_shape": [104, 104, 60, 190],
  "dcmmeta_slice_dim": 2,
  "dcmmeta_version": 0.6,
  "global": {
    "const": {
      "AcquisitionMatrix": [104, 0, 0, 104],
      "AngioFlag": "N",
      "BitsAllocated": 16,
      "BitsStored": 16,
      "BodyPartExamined": "BRAIN",
      "Columns": 832,
      "EchoNumbers": 1,
      "EchoTime": 37.0,
      "EchoTrainLength": 104,
      "FlipAngle": 52.0,
      "HighBit": 15,
      "ImageOrientationPatient": [0.99989784108867, -0.0032142719178, 0.01392752103803, 0.00942410712473, 0.8808529028393, -0.4732962600364],
      "ImagePositionPatient": [-842.61849366501, -765.48655491593, 356.68018818554],
      "ImageType": [
        "ORIGINAL",
        "PRIMARY",
        "M",
        "MB",
        "ND",
        "MOSAIC"
],
      "ImagedNucleus": "1H",
      "ImagingFrequency": 123.258884,
      "InPlanePhaseEncodingDirection": "COL",
      "MRAcquisitionType": "2D",
      "MagneticFieldStrength": 3.0,
      "Manufacturer": "SIEMENS",
      "ManufacturerModelName": "Prisma_fit",
      "Modality": "MR",
      "NumberOfAverages": 1.0,
      "NumberOfPhaseEncodingSteps": 104,
      "PercentPhaseFieldOfView": 100.0,
      "PercentSampling": 100.0,
      "PerformedProcedureStepStartTime": "102048.647000",
      "PhotometricInterpretation": "MONOCHROME2",
      "PixelBandwidth": 2290.0,
      "PixelRepresentation": 0,
      "PixelSpacing": [2.0, 2.0],
      "ProtocolName": "func_task-things_run-5",
      "RepetitionTime": 1490.0,
      "Rows": 832,
      "SAR": 0.05035951282313,
      "SamplesPerPixel": 1,
      "ScanOptions": "FS",
      "ScanningSequence": "EP",
      "SequenceName": "epfid2d1_104",
      "SequenceVariant": [
        "SK",
        "SS"
],
      "SeriesDescription": "func_task-things_run-5",
      "SeriesNumber": 22,
      "SeriesTime": "111330.738000",
      "SliceLocation": -39.148449931882,
      "SliceThickness": 2.0,
      "SmallestImagePixelValue": 0,
      "SoftwareVersions": "syngo MR E11",
      "SpacingBetweenSlices": 2.0000000473589,
      "SpecificCharacterSet": "ISO_IR 100",
      "StudyID": "1",
      "StudyTime": "102048.577000",
      "TransmitCoilName": "Body",
      "VariableFlipAngleFlag": "N",
      "WindowCenterWidthExplanation": "Algo1",
      "dBdt": 0.0},
    "slices": {}
  },
  "time": {
    "samples": {
      "AcquisitionNumber": [1, 2, 3, 4, 5, 6, 7, 8, 9, 10, 11, 12, 13, 14, 15, 16, 17, 18, 19, 20, 21, 22, 23, 24, 25, 26, 27, 28, 29, 30, 31, 32, 33, 34, 35, 36, 37, 38, 39, 40, 41, 42, 43, 44, 45, 46, 47, 48, 49, 50, 51, 52, 53, 54, 55, 56, 57, 58, 59, 60, 61, 62, 63, 64, 65, 66, 67, 68, 69, 70, 71, 72, 73, 74, 75, 76, 77, 78, 79, 80, 81, 82, 83, 84, 85, 86, 87, 88, 89, 90, 91, 92, 93, 94, 95, 96, 97, 98, 99, 100, 101, 102, 103, 104, 105, 106, 107, 108, 109, 110, 111, 112, 113, 114, 115, 116, 117, 118, 119, 120, 121, 122, 123, 124, 125, 126, 127, 128, 129, 130, 131, 132, 133, 134, 135, 136, 137, 138, 139, 140, 141, 142, 143, 144, 145, 146, 147, 148, 149, 150, 151, 152, 153, 154, 155, 156, 157, 158, 159, 160, 161, 162, 163, 164, 165, 166, 167, 168, 169, 170, 171, 172, 173, 174, 175, 176, 177, 178, 179, 180, 181, 182, 183, 184, 185, 186, 187, 188, 189, 190],
      "AcquisitionTime": ["111205.230000", "111206.720000", "111208.210000", "111209.700000", "111211.190000", "111212.680000", "111214.170000", "111215.660000", "111217.150000", "111218.640000", "111220.130000", "111221.620000", "111223.110000", "111224.600000", "111226.090000", "111227.580000", "111229.070000", "111230.560000", "111232.050000", "111233.540000", "111235.030000", "111236.520000", "111238.010000", "111239.500000", "111240.990000", "111242.480000", "111243.970000", "111245.460000", "111246.950000", "111248.440000", "111249.930000", "111251.420000", "111252.910000", "111254.400000", "111255.890000", "111257.380000", "111258.870000", "111300.360000", "111301.850000", "111303.340000", "111304.830000", "111306.320000", "111307.810000", "111309.300000", "111310.790000", "111312.280000", "111313.770000", "111315.260000", "111316.750000", "111318.240000", "111319.730000", "111321.220000", "111322.710000", "111324.200000", "111325.690000", "111327.180000", "111328.670000", "111330.160000", "111331.650000", "111333.140000", "111334.630000", "111336.120000", "111337.610000", "111339.100000", "111340.590000", "111342.080000", "111343.570000", "111345.060000", "111346.550000", "111348.040000", "111349.530000", "111351.020000", "111352.510000", "111354.000000", "111355.490000", "111356.980000", "111358.470000", "111359.960000", "111401.450000", "111402.940000", "111404.430000", "111405.920000", "111407.410000", "111408.900000", "111410.390000", "111411.880000", "111413.370000", "111414.860000", "111416.350000", "111417.840000", "111419.330000", "111420.820000", "111422.310000", "111423.800000", "111425.290000", "111426.780000", "111428.270000", "111429.760000", "111431.250000", "111432.740000", "111434.230000", "111435.720000", "111437.210000", "111438.700000", "111440.190000", "111441.680000", "111443.170000", "111444.660000", "111446.150000", "111447.640000", "111449.130000", "111450.620000", "111452.110000", "111453.600000", "111455.090000", "111456.580000", "111458.070000", "111459.560000", "111501.050000", "111502.540000", "111504.030000", "111505.520000", "111507.010000", "111508.500000", "111509.990000", "111511.480000", "111512.970000", "111514.460000", "111515.950000", "111517.440000", "111518.930000", "111520.420000", "111521.910000", "111523.400000", "111524.890000", "111526.380000", "111527.870000", "111529.360000", "111530.850000", "111532.340000", "111533.830000", "111535.320000", "111536.810000", "111538.300000", "111539.790000", "111541.280000", "111542.770000", "111544.260000", "111545.750000", "111547.240000", "111548.730000", "111550.220000", "111551.710000", "111553.200000", "111554.690000", "111556.180000", "111557.670000", "111559.160000", "111600.650000", "111602.140000", "111603.630000", "111605.120000", "111606.610000", "111608.100000", "111609.590000", "111611.080000", "111612.570000", "111614.060000", "111615.550000", "111617.040000", "111618.530000", "111620.020000", "111621.510000", "111623.000000", "111624.490000", "111625.980000", "111627.470000", "111628.960000", "111630.450000", "111631.940000", "111633.430000", "111634.920000", "111636.410000", "111637.900000", "111639.390000", "111640.880000", "111642.370000", "111643.860000", "111645.350000", "111646.840000"],
      "ContentTime": ["111330.740000", "111330.744000", "111330.748000", "111330.751000", "111330.754000", "111330.758000", "111330.761000", "111330.764000", "111330.768000", "111330.771000", "111330.774000", "111330.778000", "111330.781000", "111330.784000", "111330.788000", "111330.791000", "111330.794000", "111330.797000", "111330.801000", "111330.804000", "111330.807000", "111330.811000", "111330.814000", "111330.817000", "111330.821000", "111330.824000", "111330.827000", "111330.830000", "111330.842000", "111330.846000", "111350.695000", "111350.699000", "111350.702000", "111350.705000", "111350.709000", "111350.712000", "111350.715000", "111350.718000", "111350.722000", "111350.725000", "111350.728000", "111350.732000", "111350.735000", "111350.738000", "111350.741000", "111350.745000", "111350.748000", "111350.751000", "111350.755000", "111350.758000", "111350.761000", "111410.695000", "111410.699000", "111410.702000", "111410.705000", "111410.709000", "111410.712000", "111410.715000", "111410.719000", "111410.722000", "111410.725000", "111410.728000", "111410.732000", "111410.735000", "111410.738000", "111410.742000", "111410.745000", "111410.748000", "111410.752000", "111410.755000", "111410.759000", "111430.695000", "111430.699000", "111430.702000", "111430.706000", "111430.709000", "111430.727000", "111430.730000", "111430.734000", "111430.737000", "111430.740000", "111430.744000", "111430.747000", "111430.750000", "111430.754000", "111430.757000", "111430.760000", "111430.764000", "111430.767000", "111430.770000", "111430.773000", "111510.695000", "111510.699000", "111510.702000", "111510.705000", "111510.709000", "111510.712000", "111510.715000", "111510.719000", "111510.722000", "111510.725000", "111510.729000", "111510.732000", "111510.735000", "111510.738000", "111510.742000", "111510.745000", "111510.748000", "111510.751000", "111510.755000", "111510.758000", "111510.761000", "111510.765000", "111510.773000", "111510.776000", "111510.780000", "111510.783000", "111510.791000", "111510.795000", "111510.798000", "111510.801000", "111510.805000", "111510.808000", "111550.695000", "111550.699000", "111550.703000", "111550.706000", "111550.709000", "111550.712000", "111550.716000", "111550.719000", "111550.723000", "111550.726000", "111550.734000", "111550.738000", "111550.741000", "111550.744000", "111550.748000", "111550.751000", "111550.754000", "111550.758000", "111550.761000", "111550.764000", "111550.767000", "111550.771000", "111550.774000", "111550.777000", "111550.781000", "111550.784000", "111550.787000", "111630.695000", "111630.699000", "111630.702000", "111630.706000", "111630.709000", "111630.712000", "111630.715000", "111630.719000", "111630.722000", "111630.725000", "111630.729000", "111630.732000", "111630.735000", "111630.739000", "111630.742000", "111630.745000", "111630.748000", "111630.752000", "111630.755000", "111630.758000", "111630.762000", "111630.765000", "111630.768000", "111630.772000", "111630.775000", "111630.778000", "111630.781000", "111649.323000", "111649.326000", "111649.330000", "111649.333000", "111649.337000", "111649.340000", "111649.343000", "111649.347000", "111649.350000", "111649.354000", "111649.357000", "111649.361000", "111649.365000"],
      "InstanceCreationTime": ["111330.740000", "111330.744000", "111330.748000", "111330.751000", "111330.754000", "111330.758000", "111330.761000", "111330.764000", "111330.768000", "111330.771000", "111330.774000", "111330.778000", "111330.781000", "111330.784000", "111330.788000", "111330.791000", "111330.794000", "111330.797000", "111330.801000", "111330.804000", "111330.807000", "111330.811000", "111330.814000", "111330.817000", "111330.821000", "111330.824000", "111330.827000", "111330.830000", "111330.842000", "111330.846000", "111350.695000", "111350.699000", "111350.702000", "111350.705000", "111350.709000", "111350.712000", "111350.715000", "111350.718000", "111350.722000", "111350.725000", "111350.728000", "111350.732000", "111350.735000", "111350.738000", "111350.741000", "111350.745000", "111350.748000", "111350.751000", "111350.755000", "111350.758000", "111350.761000", "111410.695000", "111410.699000", "111410.702000", "111410.705000", "111410.709000", "111410.712000", "111410.715000", "111410.719000", "111410.722000", "111410.725000", "111410.728000", "111410.732000", "111410.735000", "111410.738000", "111410.742000", "111410.745000", "111410.748000", "111410.752000", "111410.755000", "111410.759000", "111430.695000", "111430.699000", "111430.702000", "111430.706000", "111430.709000", "111430.727000", "111430.730000", "111430.734000", "111430.737000", "111430.740000", "111430.744000", "111430.747000", "111430.750000", "111430.754000", "111430.757000", "111430.760000", "111430.764000", "111430.767000", "111430.770000", "111430.773000", "111510.695000", "111510.699000", "111510.702000", "111510.705000", "111510.709000", "111510.712000", "111510.715000", "111510.719000", "111510.722000", "111510.725000", "111510.729000", "111510.732000", "111510.735000", "111510.738000", "111510.742000", "111510.745000", "111510.748000", "111510.751000", "111510.755000", "111510.758000", "111510.761000", "111510.765000", "111510.773000", "111510.776000", "111510.780000", "111510.783000", "111510.791000", "111510.795000", "111510.798000", "111510.801000", "111510.805000", "111510.808000", "111550.695000", "111550.699000", "111550.703000", "111550.706000", "111550.709000", "111550.712000", "111550.716000", "111550.719000", "111550.723000", "111550.726000", "111550.734000", "111550.738000", "111550.741000", "111550.744000", "111550.748000", "111550.751000", "111550.754000", "111550.758000", "111550.761000", "111550.764000", "111550.767000", "111550.771000", "111550.774000", "111550.777000", "111550.781000", "111550.784000", "111550.787000", "111630.695000", "111630.699000", "111630.702000", "111630.706000", "111630.709000", "111630.712000", "111630.715000", "111630.719000", "111630.722000", "111630.725000", "111630.729000", "111630.732000", "111630.735000", "111630.739000", "111630.742000", "111630.745000", "111630.748000", "111630.752000", "111630.755000", "111630.758000", "111630.762000", "111630.765000", "111630.768000", "111630.772000", "111630.775000", "111630.778000", "111630.781000", "111649.323000", "111649.326000", "111649.330000", "111649.333000", "111649.337000", "111649.340000", "111649.343000", "111649.347000", "111649.350000", "111649.354000", "111649.357000", "111649.361000", "111649.365000"],
      "InstanceNumber": [1, 2, 3, 4, 5, 6, 7, 8, 9, 10, 11, 12, 13, 14, 15, 16, 17, 18, 19, 20, 21, 22, 23, 24, 25, 26, 27, 28, 29, 30, 31, 32, 33, 34, 35, 36, 37, 38, 39, 40, 41, 42, 43, 44, 45, 46, 47, 48, 49, 50, 51, 52, 53, 54, 55, 56, 57, 58, 59, 60, 61, 62, 63, 64, 65, 66, 67, 68, 69, 70, 71, 72, 73, 74, 75, 76, 77, 78, 79, 80, 81, 82, 83, 84, 85, 86, 87, 88, 89, 90, 91, 92, 93, 94, 95, 96, 97, 98, 99, 100, 101, 102, 103, 104, 105, 106, 107, 108, 109, 110, 111, 112, 113, 114, 115, 116, 117, 118, 119, 120, 121, 122, 123, 124, 125, 126, 127, 128, 129, 130, 131, 132, 133, 134, 135, 136, 137, 138, 139, 140, 141, 142, 143, 144, 145, 146, 147, 148, 149, 150, 151, 152, 153, 154, 155, 156, 157, 158, 159, 160, 161, 162, 163, 164, 165, 166, 167, 168, 169, 170, 171, 172, 173, 174, 175, 176, 177, 178, 179, 180, 181, 182, 183, 184, 185, 186, 187, 188, 189, 190],
      "LargestImagePixelValue": [46398, 45339, 44000, 46324, 46433, 44629, 45587, 46712, 45745, 44302, 42355, 45062, 46699, 44453, 44423, 45356, 42938, 43605, 44349, 43225, 44451, 44817, 43494, 44746, 45551, 43641, 43839, 45193, 44951, 45021, 42514, 43592, 46373, 43911, 43010, 45687, 45838, 42541, 44424, 46395, 46179, 45211, 44360, 42762, 43378, 44057, 43262, 42362, 43895, 45208, 45349, 44566, 43685, 44545, 43390, 42332, 44762, 43677, 42699, 43574, 43010, 42331, 43110, 42821, 42464, 42539, 43345, 43171, 43078, 43035, 42597, 42364, 42694, 42310, 42371, 43680, 43080, 43144, 43597, 42977, 42897, 42696, 41879, 42624, 42402, 42302, 43262, 42679, 43207, 42379, 42545, 42666, 42070, 42128, 42691, 41520, 43212, 42619, 43117, 42485, 42819, 42499, 42969, 42752, 42980, 43065, 42683, 43151, 43002, 45865, 46231, 45265, 41880, 43535, 45276, 42426, 45546, 45143, 44027, 44860, 42928, 43514, 43261, 42411, 43533, 42679, 44117, 42661, 42977, 45242, 44138, 42903, 43025, 42027, 42084, 42469, 41875, 44983, 43546, 44059, 44885, 43183, 44664, 42776, 44419, 45157, 43550, 42115, 42871, 44692, 42699, 43300, 43835, 42554, 44303, 42463, 43967, 42631, 42389, 43216, 42596, 42804, 42972, 43055, 42459, 43358, 42282, 42020, 42403, 41975, 42390, 42683, 42262, 42636, 42024, 42322, 41966, 42235, 41829, 41957, 42142, 42459, 41796, 41930, 41665, 42594, 42634, 42090, 42594, 42413],
      "WindowCenter": [10985.0, 10913.0, 10877.0, 10856.0, 10851.0, 10854.0, 10913.0, 10960.0, 10912.0, 10874.0, 10883.0, 10913.0, 10947.0, 10910.0, 10859.0, 10838.0, 10803.0, 10834.0, 10867.0, 10866.0, 10885.0, 10904.0, 10905.0, 10881.0, 10866.0, 10828.0, 10827.0, 10861.0, 10870.0, 10898.0, 10891.0, 10881.0, 10886.0, 10849.0, 10834.0, 10867.0, 10890.0, 10870.0, 10887.0, 10915.0, 10874.0, 10840.0, 10833.0, 10831.0, 10836.0, 10841.0, 10811.0, 10792.0, 10817.0, 10839.0, 10860.0, 10877.0, 10864.0, 10832.0, 10817.0, 10826.0, 10876.0, 10875.0, 10839.0, 10826.0, 10829.0, 10848.0, 10858.0, 10826.0, 10799.0, 10790.0, 10824.0, 10824.0, 10811.0, 10814.0, 10819.0, 10814.0, 10804.0, 10758.0, 10761.0, 10814.0, 10832.0, 10825.0, 10813.0, 10814.0, 10832.0, 10840.0, 10845.0, 10841.0, 10821.0, 10807.0, 10813.0, 10811.0, 10821.0, 10820.0, 10819.0, 10824.0, 10811.0, 10811.0, 10809.0, 10790.0, 10815.0, 10805.0, 10813.0, 10818.0, 10815.0, 10827.0, 10828.0, 10815.0, 10805.0, 10805.0, 10800.0, 10818.0, 10846.0, 10862.0, 10870.0, 10854.0, 10832.0, 10859.0, 10874.0, 10833.0, 10847.0, 10847.0, 10840.0, 10844.0, 10824.0, 10827.0, 10822.0, 10812.0, 10813.0, 10805.0, 10850.0, 10811.0, 10819.0, 10848.0, 10825.0, 10810.0, 10816.0, 10806.0, 10809.0, 10813.0, 10818.0, 10857.0, 10834.0, 10827.0, 10842.0, 10846.0, 10852.0, 10839.0, 10844.0, 10844.0, 10842.0, 10852.0, 10853.0, 10839.0, 10789.0, 10781.0, 10800.0, 10802.0, 10844.0, 10830.0, 10841.0, 10812.0, 10798.0, 10812.0, 10811.0, 10807.0, 10799.0, 10797.0, 10792.0, 10814.0, 10790.0, 10802.0, 10840.0, 10827.0, 10798.0, 10785.0, 10776.0, 10787.0, 10805.0, 10825.0, 10824.0, 10821.0, 10805.0, 10797.0, 10794.0, 10802.0, 10786.0, 10792.0, 10791.0, 10811.0, 10823.0, 10809.0, 10800.0, 10803.0],
      "WindowWidth": [23639.0, 23442.0, 23344.0, 23273.0, 23257.0, 23272.0, 23400.0, 23505.0, 23398.0, 23308.0, 23336.0, 23392.0, 23463.0, 23391.0, 23277.0, 23223.0, 23151.0, 23216.0, 23287.0, 23291.0, 23329.0, 23369.0, 23385.0, 23320.0, 23284.0, 23209.0, 23201.0, 23270.0, 23294.0, 23358.0, 23350.0, 23328.0, 23328.0, 23257.0, 23230.0, 23284.0, 23341.0, 23313.0, 23337.0, 23399.0, 23301.0, 23226.0, 23210.0, 23216.0, 23224.0, 23232.0, 23166.0, 23130.0, 23183.0, 23227.0, 23273.0, 23319.0, 23290.0, 23214.0, 23185.0, 23210.0, 23314.0, 23317.0, 23243.0, 23203.0, 23213.0, 23259.0, 23278.0, 23209.0, 23146.0, 23126.0, 23208.0, 23204.0, 23171.0, 23176.0, 23191.0, 23178.0, 23168.0, 23054.0, 23057.0, 23167.0, 23218.0, 23202.0, 23176.0, 23181.0, 23220.0, 23242.0, 23253.0, 23239.0, 23195.0, 23167.0, 23174.0, 23175.0, 23194.0, 23195.0, 23190.0, 23202.0, 23174.0, 23176.0, 23174.0, 23130.0, 23182.0, 23159.0, 23173.0, 23189.0, 23177.0, 23207.0, 23216.0, 23182.0, 23157.0, 23159.0, 23148.0, 23182.0, 23252.0, 23271.0, 23289.0, 23260.0, 23220.0, 23271.0, 23301.0, 23221.0, 23239.0, 23246.0, 23230.0, 23235.0, 23200.0, 23199.0, 23187.0, 23169.0, 23166.0, 23153.0, 23251.0, 23166.0, 23184.0, 23238.0, 23192.0, 23163.0, 23175.0, 23157.0, 23163.0, 23170.0, 23187.0, 23258.0, 23218.0, 23198.0, 23229.0, 23249.0, 23249.0, 23230.0, 23236.0, 23229.0, 23232.0, 23264.0, 23265.0, 23224.0, 23126.0, 23102.0, 23136.0, 23148.0, 23239.0, 23214.0, 23237.0, 23172.0, 23141.0, 23165.0, 23171.0, 23156.0, 23139.0, 23134.0, 23125.0, 23176.0, 23124.0, 23149.0, 23236.0, 23210.0, 23142.0, 23113.0, 23090.0, 23113.0, 23161.0, 23203.0, 23203.0, 23192.0, 23163.0, 23139.0, 23133.0, 23155.0, 23111.0, 23132.0, 23132.0, 23174.0, 23211.0, 23180.0, 23156.0, 23165.0]
    },
    "slices": {}
  }
}