{
  "AcquisitionMatrixPE": 104,
  "AcquisitionNumber": 1,
  "AcquisitionTime": "10:47:27.640000",
  "BandwidthPerPixelPhaseEncode": 17.17,
  "BaseResolution": 104,
  "BodyPartExamined": "BRAIN",
  "CoilString": "HC1-7;NC1_2",
  "ConsistencyInfo": "N4_VE11C_LATEST_20160120",
  "ConversionSoftware": "dcm2niix",
  "ConversionSoftwareVersion": "v1.0.20190902",
  "DerivedVendorReportedEchoSpacing": 0.000560011,
  "DeviceSerialNumber": "167006",
  "DwellTime": 2.1e-06,
  "EchoTime": 0.037,
  "EchoTrainLength": 104,
  "EffectiveEchoSpacing": 0.000560011,
  "FlipAngle": 52,
  "ImageComments": "Unaliased_MB4_PE3_LB",
  "ImageOrientationPatientDICOM": [0.999898, -0.00321427, 0.0139275, 0.00942411, 0.880853, -0.473296],
  "ImageType": [
    "ORIGINAL",
    "PRIMARY",
    "M",
    "MB",
    "ND",
    "MOSAIC"
],
  "ImagingFrequency": 123.259,
  "InPlanePhaseEncodingDirectionDICOM": "COL",
  "InstitutionAddress": "Chemin_Queen-Mary_4565_Montreal_District_CA_H3W_1W5",
  "InstitutionName": "IUGM",
  "InstitutionalDepartmentName": "Department",
  "MRAcquisitionType": "2D",
  "MagneticFieldStrength": 3,
  "Manufacturer": "Siemens",
  "ManufacturersModelName": "Prisma_fit",
  "Modality": "MR",
  "MultibandAccelerationFactor": 4,
  "PartialFourier": 1,
  "PatientPosition": "HFS",
  "PercentPhaseFOV": 100,
  "PhaseEncodingDirection": "j",
  "PhaseEncodingSteps": 104,
  "PhaseResolution": 1,
  "PixelBandwidth": 2290,
  "ProcedureStepDescription": "memory_things",
  "ProtocolName": "func_task-things_run-1",
  "PulseSequenceDetails": "%CustomerSeq%_cmrr_mbep2d_bold",
  "ReceiveCoilActiveElements": "HC1-7;NC1,2",
  "ReceiveCoilName": "HeadNeck_64",
  "ReconMatrixPE": 104,
  "RepetitionTime": 1.49,
  "SAR": 0.0503595,
  "ScanOptions": "FS",
  "ScanningSequence": "EP",
  "SequenceName": "epfid2d1_104",
  "SequenceVariant": "SK_SS",
  "SeriesDescription": "func_task-things_run-1",
  "SeriesNumber": 10,
  "ShimSetting": [612, -7196, -8845, 284, 6, -104, -14, -28],
  "SliceThickness": 2,
  "SliceTiming": [0, 0.7825, 0.0975, 0.88, 0.195, 0.98, 0.2925, 1.0775, 0.39, 1.175, 0.49, 1.2725, 0.5875, 1.37, 0.685, 0, 0.7825, 0.0975, 0.88, 0.195, 0.98, 0.2925, 1.0775, 0.39, 1.175, 0.49, 1.2725, 0.5875, 1.37, 0.685, 0, 0.7825, 0.0975, 0.88, 0.195, 0.98, 0.2925, 1.0775, 0.39, 1.175, 0.49, 1.2725, 0.5875, 1.37, 0.685, 0, 0.7825, 0.0975, 0.88, 0.195, 0.98, 0.2925, 1.0775, 0.39, 1.175, 0.49, 1.2725, 0.5875, 1.37, 0.685],
  "SoftwareVersions": "syngo_MR_E11",
  "SpacingBetweenSlices": 2,
  "StationName": "MRC35049",
  "TaskName": "things",
  "TotalReadoutTime": 0.0576811,
  "TxRefAmp": 272.81,
  "WipMemBlock": "e937fff0-a60a-49b4-8ca2-5798a1fd96e9||Sequence: R016 ve11c/master r/e634e98; Dec 19 2017 11:00:25 by eja",
  "dcmmeta_affine": [
    [-1.99979567527771, 0.01884821429848671, 0.021493589505553246, 105.8907470703125],
    [0.006428543943911791, 1.761705756187439, -0.9467583298683167, -54.89006805419922],
    [0.0278550423681736, 0.9465925097465515, 1.7615864276885986, -75.2392807006836],
    [0.0, 0.0, 0.0, 1.0]
],
  "dcmmeta_reorient_transform": [
    [0.0, -1.0, 0.0, 103.0],
    [1.0, 0.0, 0.0, 0.0],
    [0.0, 0.0, 1.0, 0.0],
    [0.0, 0.0, 0.0, 1.0]
],
  "dcmmeta_shape": [104, 104, 60, 190],
  "dcmmeta_slice_dim": 2,
  "dcmmeta_version": 0.6,
  "global": {
    "const": {
      "AcquisitionMatrix": [104, 0, 0, 104],
      "AngioFlag": "N",
      "BitsAllocated": 16,
      "BitsStored": 16,
      "BodyPartExamined": "BRAIN",
      "Columns": 832,
      "EchoNumbers": 1,
      "EchoTime": 37.0,
      "EchoTrainLength": 104,
      "FlipAngle": 52.0,
      "HighBit": 15,
      "ImageOrientationPatient": [0.99989784108867, -0.0032142719178, 0.01392752103803, 0.00942410712473, 0.8808529028393, -0.4732962600364],
      "ImagePositionPatient": [-842.61849366501, -765.48655491593, 356.68018818554],
      "ImageType": [
        "ORIGINAL",
        "PRIMARY",
        "M",
        "MB",
        "ND",
        "MOSAIC"
],
      "ImagedNucleus": "1H",
      "ImagingFrequency": 123.258869,
      "InPlanePhaseEncodingDirection": "COL",
      "MRAcquisitionType": "2D",
      "MagneticFieldStrength": 3.0,
      "Manufacturer": "SIEMENS",
      "ManufacturerModelName": "Prisma_fit",
      "Modality": "MR",
      "NumberOfAverages": 1.0,
      "NumberOfPhaseEncodingSteps": 104,
      "PercentPhaseFieldOfView": 100.0,
      "PercentSampling": 100.0,
      "PerformedProcedureStepStartTime": "102048.647000",
      "PhotometricInterpretation": "MONOCHROME2",
      "PixelBandwidth": 2290.0,
      "PixelRepresentation": 0,
      "PixelSpacing": [2.0, 2.0],
      "ProtocolName": "func_task-things_run-1",
      "RepetitionTime": 1490.0,
      "Rows": 832,
      "SAR": 0.05035951282313,
      "SamplesPerPixel": 1,
      "ScanOptions": "FS",
      "ScanningSequence": "EP",
      "SequenceName": "epfid2d1_104",
      "SequenceVariant": [
        "SK",
        "SS"
],
      "SeriesDescription": "func_task-things_run-1",
      "SeriesNumber": 10,
      "SeriesTime": "104855.671000",
      "SliceLocation": -39.148449931882,
      "SliceThickness": 2.0,
      "SmallestImagePixelValue": 0,
      "SoftwareVersions": "syngo MR E11",
      "SpacingBetweenSlices": 2.0000000473589,
      "SpecificCharacterSet": "ISO_IR 100",
      "StudyID": "1",
      "StudyTime": "102048.577000",
      "TransmitCoilName": "Body",
      "VariableFlipAngleFlag": "N",
      "WindowCenterWidthExplanation": "Algo1",
      "dBdt": 0.0},
    "slices": {}
  },
  "time": {
    "samples": {
      "AcquisitionNumber": [1, 2, 3, 4, 5, 6, 7, 8, 9, 10, 11, 12, 13, 14, 15, 16, 17, 18, 19, 20, 21, 22, 23, 24, 25, 26, 27, 28, 29, 30, 31, 32, 33, 34, 35, 36, 37, 38, 39, 40, 41, 42, 43, 44, 45, 46, 47, 48, 49, 50, 51, 52, 53, 54, 55, 56, 57, 58, 59, 60, 61, 62, 63, 64, 65, 66, 67, 68, 69, 70, 71, 72, 73, 74, 75, 76, 77, 78, 79, 80, 81, 82, 83, 84, 85, 86, 87, 88, 89, 90, 91, 92, 93, 94, 95, 96, 97, 98, 99, 100, 101, 102, 103, 104, 105, 106, 107, 108, 109, 110, 111, 112, 113, 114, 115, 116, 117, 118, 119, 120, 121, 122, 123, 124, 125, 126, 127, 128, 129, 130, 131, 132, 133, 134, 135, 136, 137, 138, 139, 140, 141, 142, 143, 144, 145, 146, 147, 148, 149, 150, 151, 152, 153, 154, 155, 156, 157, 158, 159, 160, 161, 162, 163, 164, 165, 166, 167, 168, 169, 170, 171, 172, 173, 174, 175, 176, 177, 178, 179, 180, 181, 182, 183, 184, 185, 186, 187, 188, 189, 190],
      "AcquisitionTime": ["104727.640000", "104729.130000", "104730.620000", "104732.110000", "104733.600000", "104735.090000", "104736.580000", "104738.070000", "104739.560000", "104741.050000", "104742.540000", "104744.030000", "104745.520000", "104747.010000", "104748.500000", "104749.990000", "104751.480000", "104752.970000", "104754.460000", "104755.950000", "104757.440000", "104758.930000", "104800.420000", "104801.910000", "104803.400000", "104804.890000", "104806.380000", "104807.870000", "104809.360000", "104810.850000", "104812.340000", "104813.830000", "104815.320000", "104816.810000", "104818.300000", "104819.790000", "104821.280000", "104822.770000", "104824.260000", "104825.750000", "104827.240000", "104828.730000", "104830.220000", "104831.710000", "104833.200000", "104834.690000", "104836.180000", "104837.670000", "104839.160000", "104840.650000", "104842.140000", "104843.630000", "104845.120000", "104846.610000", "104848.100000", "104849.590000", "104851.080000", "104852.570000", "104854.060000", "104855.550000", "104857.040000", "104858.530000", "104900.020000", "104901.510000", "104903.000000", "104904.490000", "104905.980000", "104907.470000", "104908.960000", "104910.450000", "104911.940000", "104913.430000", "104914.920000", "104916.410000", "104917.900000", "104919.390000", "104920.880000", "104922.370000", "104923.860000", "104925.350000", "104926.840000", "104928.330000", "104929.820000", "104931.310000", "104932.800000", "104934.290000", "104935.780000", "104937.270000", "104938.760000", "104940.250000", "104941.740000", "104943.230000", "104944.720000", "104946.210000", "104947.700000", "104949.190000", "104950.680000", "104952.170000", "104953.660000", "104955.150000", "104956.640000", "104958.130000", "104959.620000", "105001.110000", "105002.600000", "105004.090000", "105005.580000", "105007.070000", "105008.560000", "105010.050000", "105011.540000", "105013.030000", "105014.520000", "105016.010000", "105017.500000", "105018.990000", "105020.480000", "105021.970000", "105023.460000", "105024.950000", "105026.440000", "105027.930000", "105029.420000", "105030.910000", "105032.400000", "105033.890000", "105035.380000", "105036.870000", "105038.360000", "105039.850000", "105041.340000", "105042.830000", "105044.320000", "105045.810000", "105047.300000", "105048.790000", "105050.280000", "105051.770000", "105053.260000", "105054.750000", "105056.240000", "105057.730000", "105059.220000", "105100.710000", "105102.200000", "105103.690000", "105105.180000", "105106.670000", "105108.160000", "105109.650000", "105111.140000", "105112.630000", "105114.120000", "105115.610000", "105117.100000", "105118.590000", "105120.080000", "105121.570000", "105123.060000", "105124.550000", "105126.040000", "105127.530000", "105129.020000", "105130.510000", "105132.000000", "105133.490000", "105134.980000", "105136.470000", "105137.960000", "105139.450000", "105140.940000", "105142.430000", "105143.920000", "105145.410000", "105146.900000", "105148.390000", "105149.880000", "105151.370000", "105152.860000", "105154.350000", "105155.840000", "105157.330000", "105158.820000", "105200.310000", "105201.800000", "105203.290000", "105204.780000", "105206.270000", "105207.760000", "105209.250000"],
      "ContentTime": ["104855.674000", "104855.678000", "104855.681000", "104855.685000", "104855.688000", "104855.691000", "104855.695000", "104855.698000", "104855.702000", "104855.705000", "104855.709000", "104855.712000", "104855.715000", "104855.719000", "104855.722000", "104855.725000", "104855.729000", "104855.732000", "104855.735000", "104855.739000", "104855.742000", "104855.766000", "104855.769000", "104855.772000", "104855.776000", "104855.779000", "104855.782000", "104855.786000", "104855.789000", "104855.792000", "104855.795000", "104855.799000", "104915.640000", "104915.644000", "104915.647000", "104915.650000", "104915.654000", "104915.657000", "104915.660000", "104915.664000", "104915.667000", "104915.670000", "104915.673000", "104915.684000", "104915.688000", "104915.691000", "104915.694000", "104915.698000", "104915.701000", "104915.704000", "104915.707000", "104915.711000", "104935.640000", "104935.644000", "104935.647000", "104935.650000", "104935.654000", "104935.657000", "104935.660000", "104935.663000", "104935.667000", "104935.670000", "104935.673000", "104935.677000", "104935.680000", "104935.683000", "104935.687000", "104935.690000", "104935.693000", "104935.696000", "104935.700000", "104935.703000", "104935.706000", "104955.639000", "104955.643000", "104955.646000", "104955.649000", "104955.653000", "104955.656000", "104955.659000", "104955.663000", "104955.666000", "104955.669000", "104955.673000", "104955.676000", "104955.680000", "104955.683000", "104955.686000", "104955.690000", "104955.693000", "104955.696000", "104955.700000", "104955.703000", "105035.640000", "105035.644000", "105035.647000", "105035.651000", "105035.654000", "105035.657000", "105035.660000", "105035.664000", "105035.667000", "105035.670000", "105035.674000", "105035.677000", "105035.681000", "105035.684000", "105035.687000", "105035.691000", "105035.694000", "105035.697000", "105035.701000", "105035.704000", "105035.707000", "105035.711000", "105035.714000", "105035.718000", "105035.721000", "105035.724000", "105035.737000", "105035.741000", "105035.744000", "105035.747000", "105035.751000", "105035.754000", "105115.640000", "105115.644000", "105115.647000", "105115.650000", "105115.654000", "105115.657000", "105115.660000", "105115.664000", "105115.667000", "105115.670000", "105115.673000", "105115.677000", "105115.680000", "105115.683000", "105115.687000", "105115.690000", "105115.693000", "105115.697000", "105115.700000", "105115.703000", "105115.707000", "105115.710000", "105115.713000", "105115.717000", "105115.720000", "105115.723000", "105115.726000", "105155.640000", "105155.644000", "105155.647000", "105155.650000", "105155.654000", "105155.657000", "105155.660000", "105155.664000", "105155.667000", "105155.670000", "105155.674000", "105155.677000", "105155.680000", "105155.684000", "105155.687000", "105155.690000", "105155.693000", "105155.697000", "105155.700000", "105155.704000", "105155.707000", "105155.710000", "105155.713000", "105155.717000", "105155.720000", "105155.723000", "105155.727000", "105211.534000", "105211.538000", "105211.541000", "105211.545000", "105211.548000", "105211.552000", "105211.556000", "105211.559000", "105211.563000", "105211.566000", "105211.569000"],
      "InstanceCreationTime": ["104855.674000", "104855.678000", "104855.681000", "104855.685000", "104855.688000", "104855.691000", "104855.695000", "104855.698000", "104855.702000", "104855.705000", "104855.709000", "104855.712000", "104855.715000", "104855.719000", "104855.722000", "104855.725000", "104855.729000", "104855.732000", "104855.735000", "104855.739000", "104855.742000", "104855.766000", "104855.769000", "104855.772000", "104855.776000", "104855.779000", "104855.782000", "104855.786000", "104855.789000", "104855.792000", "104855.795000", "104855.799000", "104915.640000", "104915.644000", "104915.647000", "104915.650000", "104915.654000", "104915.657000", "104915.660000", "104915.664000", "104915.667000", "104915.670000", "104915.673000", "104915.684000", "104915.688000", "104915.691000", "104915.694000", "104915.698000", "104915.701000", "104915.704000", "104915.707000", "104915.711000", "104935.640000", "104935.644000", "104935.647000", "104935.650000", "104935.654000", "104935.657000", "104935.660000", "104935.663000", "104935.667000", "104935.670000", "104935.673000", "104935.677000", "104935.680000", "104935.683000", "104935.687000", "104935.690000", "104935.693000", "104935.696000", "104935.700000", "104935.703000", "104935.706000", "104955.639000", "104955.643000", "104955.646000", "104955.649000", "104955.653000", "104955.656000", "104955.659000", "104955.663000", "104955.666000", "104955.669000", "104955.673000", "104955.676000", "104955.680000", "104955.683000", "104955.686000", "104955.690000", "104955.693000", "104955.696000", "104955.700000", "104955.703000", "105035.640000", "105035.644000", "105035.647000", "105035.651000", "105035.654000", "105035.657000", "105035.660000", "105035.664000", "105035.667000", "105035.670000", "105035.674000", "105035.677000", "105035.681000", "105035.684000", "105035.687000", "105035.691000", "105035.694000", "105035.697000", "105035.701000", "105035.704000", "105035.707000", "105035.711000", "105035.714000", "105035.718000", "105035.721000", "105035.724000", "105035.737000", "105035.741000", "105035.744000", "105035.747000", "105035.751000", "105035.754000", "105115.640000", "105115.644000", "105115.647000", "105115.650000", "105115.654000", "105115.657000", "105115.660000", "105115.664000", "105115.667000", "105115.670000", "105115.673000", "105115.677000", "105115.680000", "105115.683000", "105115.687000", "105115.690000", "105115.693000", "105115.697000", "105115.700000", "105115.703000", "105115.707000", "105115.710000", "105115.713000", "105115.717000", "105115.720000", "105115.723000", "105115.726000", "105155.640000", "105155.644000", "105155.647000", "105155.650000", "105155.654000", "105155.657000", "105155.660000", "105155.664000", "105155.667000", "105155.670000", "105155.674000", "105155.677000", "105155.680000", "105155.684000", "105155.687000", "105155.690000", "105155.693000", "105155.697000", "105155.700000", "105155.704000", "105155.707000", "105155.710000", "105155.713000", "105155.717000", "105155.720000", "105155.723000", "105155.727000", "105211.534000", "105211.538000", "105211.541000", "105211.545000", "105211.548000", "105211.552000", "105211.556000", "105211.559000", "105211.563000", "105211.566000", "105211.569000"],
      "InstanceNumber": [1, 2, 3, 4, 5, 6, 7, 8, 9, 10, 11, 12, 13, 14, 15, 16, 17, 18, 19, 20, 21, 22, 23, 24, 25, 26, 27, 28, 29, 30, 31, 32, 33, 34, 35, 36, 37, 38, 39, 40, 41, 42, 43, 44, 45, 46, 47, 48, 49, 50, 51, 52, 53, 54, 55, 56, 57, 58, 59, 60, 61, 62, 63, 64, 65, 66, 67, 68, 69, 70, 71, 72, 73, 74, 75, 76, 77, 78, 79, 80, 81, 82, 83, 84, 85, 86, 87, 88, 89, 90, 91, 92, 93, 94, 95, 96, 97, 98, 99, 100, 101, 102, 103, 104, 105, 106, 107, 108, 109, 110, 111, 112, 113, 114, 115, 116, 117, 118, 119, 120, 121, 122, 123, 124, 125, 126, 127, 128, 129, 130, 131, 132, 133, 134, 135, 136, 137, 138, 139, 140, 141, 142, 143, 144, 145, 146, 147, 148, 149, 150, 151, 152, 153, 154, 155, 156, 157, 158, 159, 160, 161, 162, 163, 164, 165, 166, 167, 168, 169, 170, 171, 172, 173, 174, 175, 176, 177, 178, 179, 180, 181, 182, 183, 184, 185, 186, 187, 188, 189, 190],
      "LargestImagePixelValue": [48508, 47487, 46713, 46814, 45831, 45704, 46585, 45804, 46287, 45764, 45640, 45268, 45511, 44401, 45666, 44924, 45586, 44485, 45560, 44592, 45591, 45275, 45133, 44973, 45413, 43678, 44837, 44014, 44583, 44274, 45042, 44165, 45396, 44750, 44206, 45165, 44503, 44765, 44601, 44927, 44374, 44627, 44738, 44223, 44426, 45667, 44330, 45456, 44303, 44844, 44912, 43925, 43896, 44552, 44612, 44589, 44535, 45137, 44513, 45232, 44767, 44963, 44925, 45401, 44734, 45132, 44781, 44944, 44111, 45054, 44207, 45357, 44566, 44934, 43875, 45214, 43822, 45466, 44671, 45145, 45230, 45048, 45210, 45127, 45361, 45115, 44327, 45271, 45064, 44645, 44555, 44566, 45319, 45207, 45201, 44890, 45732, 45031, 45662, 45806, 45587, 45471, 45239, 45591, 45849, 45350, 45312, 45785, 45643, 45695, 45500, 46249, 45003, 45778, 45404, 45414, 45070, 45830, 45293, 45951, 45626, 45631, 46579, 45918, 45690, 45833, 45726, 45762, 45712, 45633, 45707, 45669, 45964, 45804, 46060, 45545, 45689, 45670, 45619, 45718, 45795, 45897, 45634, 46139, 45768, 45937, 45770, 45648, 45658, 46016, 45974, 45670, 45678, 45679, 45886, 45922, 45881, 45707, 45920, 46402, 46159, 45620, 45824, 44926, 45711, 45325, 45642, 46119, 45815, 45934, 46173, 45894, 45596, 46078, 45719, 45617, 45734, 45799, 46090, 45663, 45396, 46204, 45330, 45704, 45801, 44907, 45653, 45834, 46034, 45968],
      "WindowCenter": [11132.0, 11074.0, 11050.0, 11040.0, 11033.0, 11037.0, 11055.0, 11051.0, 11048.0, 11044.0, 11050.0, 11041.0, 11045.0, 11035.0, 11043.0, 11025.0, 11028.0, 11019.0, 11029.0, 11018.0, 11025.0, 11023.0, 11008.0, 11018.0, 11033.0, 11013.0, 11023.0, 11012.0, 11014.0, 11011.0, 11027.0, 11011.0, 11002.0, 10976.0, 10963.0, 10998.0, 11015.0, 11004.0, 10996.0, 11009.0, 11040.0, 11017.0, 11026.0, 10992.0, 11021.0, 10996.0, 10961.0, 10962.0, 10985.0, 11009.0, 11018.0, 11008.0, 10985.0, 10971.0, 10965.0, 10972.0, 10967.0, 10977.0, 10969.0, 10985.0, 10982.0, 10977.0, 10964.0, 10975.0, 10965.0, 10969.0, 10957.0, 10963.0, 10960.0, 10976.0, 10983.0, 10991.0, 10968.0, 10963.0, 10968.0, 10991.0, 10987.0, 10993.0, 10983.0, 10981.0, 10994.0, 10988.0, 10986.0, 10980.0, 10994.0, 10974.0, 10966.0, 10970.0, 10978.0, 10977.0, 10994.0, 10984.0, 10968.0, 10961.0, 10950.0, 10962.0, 10974.0, 10960.0, 10954.0, 10971.0, 10983.0, 10975.0, 10951.0, 10947.0, 10955.0, 10958.0, 10958.0, 10963.0, 10965.0, 10963.0, 10950.0, 10982.0, 10981.0, 10984.0, 10955.0, 10943.0, 10960.0, 10985.0, 10979.0, 10976.0, 10973.0, 10975.0, 10974.0, 10953.0, 10939.0, 10947.0, 10965.0, 10968.0, 10949.0, 10940.0, 10930.0, 10948.0, 10948.0, 10957.0, 10956.0, 10956.0, 10945.0, 10967.0, 11005.0, 11015.0, 11010.0, 10998.0, 10990.0, 10978.0, 10963.0, 10959.0, 10953.0, 10950.0, 10949.0, 10943.0, 10949.0, 10941.0, 10943.0, 10945.0, 10956.0, 10958.0, 10963.0, 10963.0, 10969.0, 10970.0, 10976.0, 10973.0, 10989.0, 10982.0, 10992.0, 10985.0, 10970.0, 10968.0, 10971.0, 10993.0, 10998.0, 10991.0, 10971.0, 10946.0, 10963.0, 10969.0, 10981.0, 10976.0, 10968.0, 10925.0, 10895.0, 10903.0, 10936.0, 10963.0, 10975.0, 10973.0, 10979.0, 10968.0, 10973.0, 10982.0],
      "WindowWidth": [23983.0, 23815.0, 23740.0, 23705.0, 23686.0, 23691.0, 23727.0, 23721.0, 23713.0, 23704.0, 23720.0, 23703.0, 23708.0, 23688.0, 23700.0, 23664.0, 23670.0, 23651.0, 23670.0, 23647.0, 23658.0, 23658.0, 23622.0, 23645.0, 23677.0, 23640.0, 23659.0, 23639.0, 23637.0, 23632.0, 23667.0, 23632.0, 23609.0, 23552.0, 23521.0, 23597.0, 23641.0, 23616.0, 23596.0, 23623.0, 23698.0, 23645.0, 23668.0, 23590.0, 23652.0, 23592.0, 23516.0, 23514.0, 23566.0, 23623.0, 23640.0, 23623.0, 23574.0, 23540.0, 23522.0, 23540.0, 23530.0, 23551.0, 23536.0, 23569.0, 23567.0, 23548.0, 23523.0, 23544.0, 23525.0, 23532.0, 23509.0, 23523.0, 23518.0, 23549.0, 23568.0, 23582.0, 23537.0, 23522.0, 23535.0, 23587.0, 23582.0, 23587.0, 23572.0, 23562.0, 23590.0, 23575.0, 23570.0, 23559.0, 23588.0, 23548.0, 23527.0, 23534.0, 23552.0, 23551.0, 23593.0, 23571.0, 23531.0, 23514.0, 23489.0, 23516.0, 23542.0, 23513.0, 23493.0, 23532.0, 23560.0, 23542.0, 23489.0, 23476.0, 23493.0, 23505.0, 23504.0, 23513.0, 23519.0, 23513.0, 23486.0, 23555.0, 23560.0, 23565.0, 23500.0, 23468.0, 23508.0, 23564.0, 23554.0, 23543.0, 23537.0, 23541.0, 23539.0, 23494.0, 23460.0, 23474.0, 23515.0, 23522.0, 23478.0, 23455.0, 23432.0, 23473.0, 23476.0, 23494.0, 23494.0, 23497.0, 23468.0, 23518.0, 23610.0, 23634.0, 23623.0, 23593.0, 23576.0, 23547.0, 23512.0, 23499.0, 23488.0, 23480.0, 23475.0, 23464.0, 23479.0, 23460.0, 23466.0, 23467.0, 23493.0, 23496.0, 23516.0, 23511.0, 23524.0, 23527.0, 23542.0, 23537.0, 23569.0, 23557.0, 23577.0, 23567.0, 23529.0, 23522.0, 23533.0, 23580.0, 23594.0, 23576.0, 23530.0, 23469.0, 23507.0, 23520.0, 23549.0, 23540.0, 23521.0, 23427.0, 23356.0, 23368.0, 23445.0, 23511.0, 23537.0, 23537.0, 23547.0, 23524.0, 23536.0, 23559.0]
    },
    "slices": {}
  }
}