{
  "AcquisitionMatrixPE": 104,
  "AcquisitionNumber": 1,
  "AcquisitionTime": "10:56:39.122500",
  "BandwidthPerPixelPhaseEncode": 17.17,
  "BaseResolution": 104,
  "BodyPartExamined": "BRAIN",
  "CoilString": "HC1-7;NC1_2",
  "ConsistencyInfo": "N4_VE11C_LATEST_20160120",
  "ConversionSoftware": "dcm2niix",
  "ConversionSoftwareVersion": "v1.0.20190902",
  "DerivedVendorReportedEchoSpacing": 0.000560011,
  "DeviceSerialNumber": "167006",
  "DwellTime": 2.1e-06,
  "EchoTime": 0.037,
  "EchoTrainLength": 104,
  "EffectiveEchoSpacing": 0.000560011,
  "FlipAngle": 52,
  "HeudiconvVersion": "0.10.0",
  "ImageComments": "Unaliased_MB4_PE3_LB",
  "ImageOrientationPatientDICOM": [0.999543, 0.0109774, 0.0281664, 0.00436141, 0.869623, -0.493697],
  "ImageType": [
    "ORIGINAL",
    "PRIMARY",
    "P",
    "MB",
    "ND",
    "MOSAIC"
],
  "ImagingFrequency": 123.259,
  "InPlanePhaseEncodingDirectionDICOM": "COL",
  "InstitutionAddress": "Chemin_Queen-Mary_4565_Montreal_District_CA_H3W_1W5",
  "InstitutionName": "IUGM",
  "InstitutionalDepartmentName": "Department",
  "MRAcquisitionType": "2D",
  "MagneticFieldStrength": 3,
  "Manufacturer": "Siemens",
  "ManufacturersModelName": "Prisma_fit",
  "Modality": "MR",
  "MultibandAccelerationFactor": 4,
  "PartialFourier": 1,
  "PatientPosition": "HFS",
  "PercentPhaseFOV": 100,
  "PhaseEncodingDirection": "j",
  "PhaseEncodingSteps": 104,
  "PhaseResolution": 1,
  "PixelBandwidth": 2290,
  "ProcedureStepDescription": "memory_things",
  "ProtocolName": "func_task-things_run-2",
  "PulseSequenceDetails": "%CustomerSeq%_cmrr_mbep2d_bold",
  "ReceiveCoilActiveElements": "HC1-7;NC1,2",
  "ReceiveCoilName": "HeadNeck_64",
  "ReconMatrixPE": 104,
  "RepetitionTime": 1.49,
  "SAR": 0.0388922,
  "ScanOptions": "FS",
  "ScanningSequence": "EP",
  "SequenceName": "epfid2d1_104",
  "SequenceVariant": "SK_SS",
  "SeriesDescription": "func_task-things_run-2",
  "SeriesNumber": 14,
  "ShimSetting": [623, -7187, -8865, 297, -1, -136, -29, 6],
  "SliceThickness": 2,
  "SliceTiming": [0, 0.785, 0.0975, 0.8825, 0.1975, 0.98, 0.295, 1.0775, 0.3925, 1.175, 0.49, 1.275, 0.5875, 1.3725, 0.685, 0, 0.785, 0.0975, 0.8825, 0.1975, 0.98, 0.295, 1.0775, 0.3925, 1.175, 0.49, 1.275, 0.5875, 1.3725, 0.685, 0, 0.785, 0.0975, 0.8825, 0.1975, 0.98, 0.295, 1.0775, 0.3925, 1.175, 0.49, 1.275, 0.5875, 1.3725, 0.685, 0, 0.785, 0.0975, 0.8825, 0.1975, 0.98, 0.295, 1.0775, 0.3925, 1.175, 0.49, 1.275, 0.5875, 1.3725, 0.685],
  "SoftwareVersions": "syngo_MR_E11",
  "SpacingBetweenSlices": 2,
  "StationName": "MRC35049",
  "TaskName": "things",
  "TotalReadoutTime": 0.0576811,
  "TxRefAmp": 249.489,
  "WipMemBlock": "b085d13c-b147-4b60-ae73-8da1d95777b5||Sequence: R016 ve11c/master r/e634e98; Dec 19 2017 11:00:25 by eja",
  "dcmmeta_affine": [
    [-1.9990859031677246, 0.008722823113203049, 0.0598272979259491, 105.36073303222656],
    [-0.02195485681295395, 1.7392463684082031, -0.987187922000885, -51.32891082763672],
    [0.05633273720741272, 0.9873934984207153, 1.7383557558059692, -94.30843353271484],
    [0.0, 0.0, 0.0, 1.0]
],
  "dcmmeta_reorient_transform": [
    [0.0, -1.0, 0.0, 103.0],
    [1.0, 0.0, 0.0, 0.0],
    [0.0, 0.0, 1.0, 0.0],
    [0.0, 0.0, 0.0, 1.0]
],
  "dcmmeta_shape": [104, 104, 60, 190],
  "dcmmeta_slice_dim": 2,
  "dcmmeta_version": 0.6,
  "global": {
    "const": {
      "AcquisitionMatrix": [104, 0, 0, 104],
      "AngioFlag": "N",
      "BitsAllocated": 16,
      "BitsStored": 16,
      "BodyPartExamined": "BRAIN",
      "Columns": 832,
      "EchoNumbers": 1,
      "EchoTime": 37.0,
      "EchoTrainLength": 104,
      "FlipAngle": 52.0,
      "HighBit": 15,
      "ImageOrientationPatient": [0.99954297143056, 0.01097742822562, 0.02816636883434, 0.00436141163012, 0.86962319644359, -0.4936967432502],
      "ImagePositionPatient": [-837.10157358999, -768.8907225324, 346.29921111969],
      "ImageType": [
        "ORIGINAL",
        "PRIMARY",
        "P",
        "MB",
        "ND",
        "MOSAIC"
],
      "ImagedNucleus": "1H",
      "ImagingFrequency": 123.258883,
      "InPlanePhaseEncodingDirection": "COL",
      "LargestImagePixelValue": 4095,
      "MRAcquisitionType": "2D",
      "MagneticFieldStrength": 3.0,
      "Manufacturer": "SIEMENS",
      "ManufacturerModelName": "Prisma_fit",
      "Modality": "MR",
      "NumberOfAverages": 1.0,
      "NumberOfPhaseEncodingSteps": 104,
      "PercentPhaseFieldOfView": 100.0,
      "PercentSampling": 100.0,
      "PerformedProcedureStepStartTime": "104706.719000",
      "PhotometricInterpretation": "MONOCHROME2",
      "PixelBandwidth": 2290.0,
      "PixelRepresentation": 0,
      "PixelSpacing": [2.0, 2.0],
      "ProtocolName": "func_task-things_run-2",
      "RepetitionTime": 1490.0,
      "RescaleIntercept": -4096.0,
      "RescaleSlope": 2.0,
      "RescaleType": "US",
      "Rows": 832,
      "SAR": 0.03889219930789,
      "SamplesPerPixel": 1,
      "ScanOptions": "FS",
      "ScanningSequence": "EP",
      "SequenceName": "epfid2d1_104",
      "SequenceVariant": [
        "SK",
        "SS"
],
      "SeriesDescription": "func_task-things_run-2",
      "SeriesNumber": 14,
      "SeriesTime": "105757.566000",
      "SliceLocation": -53.483437530649,
      "SliceThickness": 2.0,
      "SmallestImagePixelValue": 0,
      "SoftwareVersions": "syngo MR E11",
      "SpacingBetweenSlices": 2.0000000287868,
      "SpecificCharacterSet": "ISO_IR 100",
      "StudyID": "1",
      "StudyTime": "104706.638000",
      "TransmitCoilName": "Body",
      "VariableFlipAngleFlag": "N",
      "WindowCenterWidthExplanation": "Algo1",
      "dBdt": 0.0},
    "slices": {}
  },
  "time": {
    "samples": {
      "AcquisitionNumber": [1, 2, 3, 4, 5, 6, 7, 8, 9, 10, 11, 12, 13, 14, 15, 16, 17, 18, 19, 20, 21, 22, 23, 24, 25, 26, 27, 28, 29, 30, 31, 32, 33, 34, 35, 36, 37, 38, 39, 40, 41, 42, 43, 44, 45, 46, 47, 48, 49, 50, 51, 52, 53, 54, 55, 56, 57, 58, 59, 60, 61, 62, 63, 64, 65, 66, 67, 68, 69, 70, 71, 72, 73, 74, 75, 76, 77, 78, 79, 80, 81, 82, 83, 84, 85, 86, 87, 88, 89, 90, 91, 92, 93, 94, 95, 96, 97, 98, 99, 100, 101, 102, 103, 104, 105, 106, 107, 108, 109, 110, 111, 112, 113, 114, 115, 116, 117, 118, 119, 120, 121, 122, 123, 124, 125, 126, 127, 128, 129, 130, 131, 132, 133, 134, 135, 136, 137, 138, 139, 140, 141, 142, 143, 144, 145, 146, 147, 148, 149, 150, 151, 152, 153, 154, 155, 156, 157, 158, 159, 160, 161, 162, 163, 164, 165, 166, 167, 168, 169, 170, 171, 172, 173, 174, 175, 176, 177, 178, 179, 180, 181, 182, 183, 184, 185, 186, 187, 188, 189, 190],
      "AcquisitionTime": ["105639.122500", "105640.612500", "105642.102500", "105643.592500", "105645.082500", "105646.572500", "105648.062500", "105649.552500", "105651.042500", "105652.532500", "105654.022500", "105655.512500", "105657.002500", "105658.492500", "105659.982500", "105701.472500", "105702.962500", "105704.452500", "105705.942500", "105707.432500", "105708.922500", "105710.412500", "105711.902500", "105713.392500", "105714.882500", "105716.372500", "105717.862500", "105719.352500", "105720.842500", "105722.332500", "105723.822500", "105725.312500", "105726.802500", "105728.292500", "105729.782500", "105731.272500", "105732.762500", "105734.252500", "105735.742500", "105737.232500", "105738.722500", "105740.212500", "105741.702500", "105743.192500", "105744.682500", "105746.172500", "105747.662500", "105749.152500", "105750.642500", "105752.132500", "105753.622500", "105755.112500", "105756.602500", "105758.092500", "105759.582500", "105801.072500", "105802.562500", "105804.052500", "105805.542500", "105807.032500", "105808.522500", "105810.012500", "105811.502500", "105812.992500", "105814.482500", "105815.972500", "105817.462500", "105818.952500", "105820.442500", "105821.932500", "105823.422500", "105824.912500", "105826.402500", "105827.892500", "105829.382500", "105830.872500", "105832.362500", "105833.852500", "105835.342500", "105836.832500", "105838.322500", "105839.812500", "105841.302500", "105842.792500", "105844.282500", "105845.772500", "105847.262500", "105848.752500", "105850.242500", "105851.732500", "105853.222500", "105854.712500", "105856.202500", "105857.692500", "105859.182500", "105900.672500", "105902.162500", "105903.652500", "105905.142500", "105906.632500", "105908.122500", "105909.612500", "105911.102500", "105912.592500", "105914.082500", "105915.572500", "105917.062500", "105918.552500", "105920.042500", "105921.532500", "105923.022500", "105924.512500", "105926.002500", "105927.492500", "105928.982500", "105930.472500", "105931.962500", "105933.452500", "105934.942500", "105936.432500", "105937.922500", "105939.412500", "105940.902500", "105942.392500", "105943.882500", "105945.372500", "105946.862500", "105948.352500", "105949.842500", "105951.332500", "105952.822500", "105954.312500", "105955.802500", "105957.292500", "105958.782500", "110000.272500", "110001.762500", "110003.252500", "110004.742500", "110006.232500", "110007.722500", "110009.212500", "110010.702500", "110012.192500", "110013.682500", "110015.172500", "110016.662500", "110018.152500", "110019.642500", "110021.132500", "110022.622500", "110024.112500", "110025.602500", "110027.092500", "110028.582500", "110030.072500", "110031.562500", "110033.052500", "110034.542500", "110036.032500", "110037.522500", "110039.012500", "110040.502500", "110041.992500", "110043.482500", "110044.972500", "110046.462500", "110047.952500", "110049.442500", "110050.932500", "110052.422500", "110053.912500", "110055.402500", "110056.892500", "110058.382500", "110059.872500", "110101.362500", "110102.852500", "110104.342500", "110105.832500", "110107.322500", "110108.812500", "110110.302500", "110111.792500", "110113.282500", "110114.772500", "110116.262500", "110117.752500", "110119.242500", "110120.732500"],
      "ContentTime": ["105757.568000", "105757.571000", "105757.573000", "105757.576000", "105757.579000", "105757.581000", "105757.584000", "105757.587000", "105757.589000", "105757.592000", "105757.601000", "105757.603000", "105757.606000", "105757.610000", "105757.612000", "105757.615000", "105757.618000", "105757.620000", "105757.623000", "105757.625000", "105757.628000", "105757.630000", "105757.633000", "105817.503000", "105817.505000", "105817.508000", "105817.510000", "105817.513000", "105817.515000", "105817.518000", "105817.520000", "105817.523000", "105817.525000", "105817.528000", "105817.530000", "105817.533000", "105817.535000", "105817.538000", "105817.540000", "105817.543000", "105817.545000", "105817.548000", "105817.550000", "105817.553000", "105837.502000", "105837.504000", "105837.507000", "105837.509000", "105837.512000", "105837.514000", "105837.517000", "105837.519000", "105837.522000", "105837.525000", "105837.527000", "105837.530000", "105837.532000", "105837.535000", "105837.537000", "105837.540000", "105837.542000", "105837.545000", "105837.547000", "105837.550000", "105857.958000", "105857.961000", "105857.963000", "105857.966000", "105857.968000", "105857.971000", "105857.974000", "105857.979000", "105857.982000", "105857.984000", "105857.987000", "105857.989000", "105857.992000", "105857.994000", "105857.997000", "105857.999000", "105858.002000", "105858.004000", "105858.007000", "105858.009000", "105917.507000", "105917.510000", "105917.512000", "105917.515000", "105917.517000", "105917.520000", "105917.522000", "105917.525000", "105917.527000", "105917.530000", "105917.532000", "105917.535000", "105917.538000", "105917.540000", "105917.543000", "105917.545000", "105917.548000", "105917.550000", "105917.553000", "105917.555000", "105957.543000", "105957.545000", "105957.548000", "105957.550000", "105957.553000", "105957.555000", "105957.558000", "105957.561000", "105957.563000", "105957.566000", "105957.568000", "105957.571000", "105957.573000", "105957.576000", "105957.578000", "105957.580000", "105957.583000", "105957.585000", "105957.588000", "105957.590000", "105957.593000", "105957.595000", "105957.598000", "105957.600000", "105957.603000", "105957.605000", "105957.608000", "105957.610000", "110037.527000", "110037.530000", "110037.533000", "110037.535000", "110037.538000", "110037.540000", "110037.543000", "110037.545000", "110037.548000", "110037.550000", "110037.553000", "110037.555000", "110037.558000", "110037.560000", "110037.563000", "110037.565000", "110037.568000", "110037.570000", "110037.573000", "110037.575000", "110037.578000", "110037.580000", "110037.583000", "110037.585000", "110037.587000", "110037.590000", "110037.593000", "110057.474000", "110057.477000", "110057.479000", "110057.482000", "110057.484000", "110057.487000", "110057.489000", "110057.492000", "110057.494000", "110057.497000", "110057.499000", "110057.502000", "110057.504000", "110057.507000", "110122.744000", "110122.747000", "110122.749000", "110122.752000", "110122.755000", "110122.757000", "110122.760000", "110122.762000", "110122.765000", "110122.767000", "110122.770000", "110122.772000", "110122.775000", "110122.777000", "110122.780000", "110122.783000", "110122.786000"],
      "InstanceCreationTime": ["105757.568000", "105757.571000", "105757.573000", "105757.576000", "105757.579000", "105757.581000", "105757.584000", "105757.587000", "105757.589000", "105757.592000", "105757.601000", "105757.603000", "105757.606000", "105757.610000", "105757.612000", "105757.615000", "105757.618000", "105757.620000", "105757.623000", "105757.625000", "105757.628000", "105757.630000", "105757.633000", "105817.503000", "105817.505000", "105817.508000", "105817.510000", "105817.513000", "105817.515000", "105817.518000", "105817.520000", "105817.523000", "105817.525000", "105817.528000", "105817.530000", "105817.533000", "105817.535000", "105817.538000", "105817.540000", "105817.543000", "105817.545000", "105817.548000", "105817.550000", "105817.553000", "105837.502000", "105837.504000", "105837.507000", "105837.509000", "105837.512000", "105837.514000", "105837.517000", "105837.519000", "105837.522000", "105837.525000", "105837.527000", "105837.530000", "105837.532000", "105837.535000", "105837.537000", "105837.540000", "105837.542000", "105837.545000", "105837.547000", "105837.550000", "105857.958000", "105857.961000", "105857.963000", "105857.966000", "105857.968000", "105857.971000", "105857.974000", "105857.979000", "105857.982000", "105857.984000", "105857.987000", "105857.989000", "105857.992000", "105857.994000", "105857.997000", "105857.999000", "105858.002000", "105858.004000", "105858.007000", "105858.009000", "105917.507000", "105917.510000", "105917.512000", "105917.515000", "105917.517000", "105917.520000", "105917.522000", "105917.525000", "105917.527000", "105917.530000", "105917.532000", "105917.535000", "105917.538000", "105917.540000", "105917.543000", "105917.545000", "105917.548000", "105917.550000", "105917.553000", "105917.555000", "105957.543000", "105957.545000", "105957.548000", "105957.550000", "105957.553000", "105957.555000", "105957.558000", "105957.561000", "105957.563000", "105957.566000", "105957.568000", "105957.571000", "105957.573000", "105957.576000", "105957.578000", "105957.580000", "105957.583000", "105957.585000", "105957.588000", "105957.590000", "105957.593000", "105957.595000", "105957.598000", "105957.600000", "105957.603000", "105957.605000", "105957.608000", "105957.610000", "110037.527000", "110037.530000", "110037.533000", "110037.535000", "110037.538000", "110037.540000", "110037.543000", "110037.545000", "110037.548000", "110037.550000", "110037.553000", "110037.555000", "110037.558000", "110037.560000", "110037.563000", "110037.565000", "110037.568000", "110037.570000", "110037.573000", "110037.575000", "110037.578000", "110037.580000", "110037.583000", "110037.585000", "110037.587000", "110037.590000", "110037.593000", "110057.474000", "110057.477000", "110057.479000", "110057.482000", "110057.484000", "110057.487000", "110057.489000", "110057.492000", "110057.494000", "110057.497000", "110057.499000", "110057.502000", "110057.504000", "110057.507000", "110122.744000", "110122.747000", "110122.749000", "110122.752000", "110122.755000", "110122.757000", "110122.760000", "110122.762000", "110122.765000", "110122.767000", "110122.770000", "110122.772000", "110122.775000", "110122.777000", "110122.780000", "110122.783000", "110122.786000"],
      "InstanceNumber": [1, 2, 3, 4, 5, 6, 7, 8, 9, 10, 11, 12, 13, 14, 15, 16, 17, 18, 19, 20, 21, 22, 23, 24, 25, 26, 27, 28, 29, 30, 31, 32, 33, 34, 35, 36, 37, 38, 39, 40, 41, 42, 43, 44, 45, 46, 47, 48, 49, 50, 51, 52, 53, 54, 55, 56, 57, 58, 59, 60, 61, 62, 63, 64, 65, 66, 67, 68, 69, 70, 71, 72, 73, 74, 75, 76, 77, 78, 79, 80, 81, 82, 83, 84, 85, 86, 87, 88, 89, 90, 91, 92, 93, 94, 95, 96, 97, 98, 99, 100, 101, 102, 103, 104, 105, 106, 107, 108, 109, 110, 111, 112, 113, 114, 115, 116, 117, 118, 119, 120, 121, 122, 123, 124, 125, 126, 127, 128, 129, 130, 131, 132, 133, 134, 135, 136, 137, 138, 139, 140, 141, 142, 143, 144, 145, 146, 147, 148, 149, 150, 151, 152, 153, 154, 155, 156, 157, 158, 159, 160, 161, 162, 163, 164, 165, 166, 167, 168, 169, 170, 171, 172, 173, 174, 175, 176, 177, 178, 179, 180, 181, 182, 183, 184, 185, 186, 187, 188, 189, 190],
      "WindowCenter": [4778.0, 4774.0, 4772.0, 4770.0, 4780.0, 4782.0, 4780.0, 4788.0, 4780.0, 4776.0, 4772.0, 4772.0, 4770.0, 4778.0, 4780.0, 4776.0, 4786.0, 4782.0, 4776.0, 4782.0, 4772.0, 4778.0, 4776.0, 4772.0, 4774.0, 4776.0, 4774.0, 4804.0, 4776.0, 4780.0, 4778.0, 4804.0, 4780.0, 4778.0, 4788.0, 4810.0, 4770.0, 4778.0, 4776.0, 4768.0, 4774.0, 4774.0, 4770.0, 4778.0, 4776.0, 4802.0, 4786.0, 4782.0, 4774.0, 4778.0, 4776.0, 4770.0, 4778.0, 4772.0, 4774.0, 4778.0, 4780.0, 4774.0, 4784.0, 4782.0, 4774.0, 4784.0, 4784.0, 4772.0, 4770.0, 4766.0, 4768.0, 4774.0, 4786.0, 4802.0, 4794.0, 4790.0, 4780.0, 4782.0, 4768.0, 4772.0, 4772.0, 4768.0, 4774.0, 4780.0, 4776.0, 4788.0, 4784.0, 4776.0, 4778.0, 4772.0, 4776.0, 4772.0, 4770.0, 4782.0, 4778.0, 4780.0, 4780.0, 4776.0, 4774.0, 4778.0, 4770.0, 4774.0, 4778.0, 4772.0, 4774.0, 4780.0, 4770.0, 4784.0, 4784.0, 4772.0, 4778.0, 4780.0, 4766.0, 4776.0, 4782.0, 4774.0, 4772.0, 4784.0, 4778.0, 4774.0, 4776.0, 4774.0, 4770.0, 4774.0, 4774.0, 4776.0, 4784.0, 4774.0, 4780.0, 4782.0, 4774.0, 4782.0, 4780.0, 4770.0, 4772.0, 4782.0, 4774.0, 4774.0, 4772.0, 4772.0, 4776.0, 4776.0, 4774.0, 4778.0, 4774.0, 4778.0, 4788.0, 4778.0, 4774.0, 4782.0, 4772.0, 4774.0, 4780.0, 4774.0, 4770.0, 4780.0, 4772.0, 4772.0, 4782.0, 4774.0, 4776.0, 4792.0, 4794.0, 4776.0, 4766.0, 4772.0, 4772.0, 4768.0, 4770.0, 4770.0, 4776.0, 4792.0, 4812.0, 4780.0, 4784.0, 4770.0, 4776.0, 4792.0, 4784.0, 4768.0, 4770.0, 4768.0, 4766.0, 4786.0, 4784.0, 4780.0, 4784.0, 4784.0, 4776.0, 4790.0, 4828.0, 4792.0, 4748.0, 4738.0],
      "WindowWidth": [18582.0, 18578.0, 18572.0, 18572.0, 18584.0, 18582.0, 18584.0, 18588.0, 18582.0, 18576.0, 18576.0, 18576.0, 18570.0, 18582.0, 18582.0, 18580.0, 18586.0, 18582.0, 18580.0, 18584.0, 18578.0, 18582.0, 18576.0, 18574.0, 18576.0, 18580.0, 18578.0, 18616.0, 18582.0, 18586.0, 18580.0, 18616.0, 18582.0, 18582.0, 18588.0, 18614.0, 18576.0, 18578.0, 18578.0, 18570.0, 18578.0, 18576.0, 18572.0, 18582.0, 18576.0, 18612.0, 18588.0, 18586.0, 18576.0, 18580.0, 18578.0, 18574.0, 18584.0, 18572.0, 18576.0, 18582.0, 18580.0, 18582.0, 18582.0, 18580.0, 18576.0, 18578.0, 18582.0, 18576.0, 18572.0, 18570.0, 18572.0, 18576.0, 18584.0, 18610.0, 18584.0, 18588.0, 18582.0, 18580.0, 18570.0, 18574.0, 18570.0, 18570.0, 18578.0, 18580.0, 18578.0, 18584.0, 18584.0, 18582.0, 18582.0, 18578.0, 18578.0, 18574.0, 18574.0, 18586.0, 18582.0, 18582.0, 18580.0, 18578.0, 18580.0, 18580.0, 18576.0, 18576.0, 18582.0, 18574.0, 18578.0, 18580.0, 18576.0, 18584.0, 18590.0, 18574.0, 18584.0, 18582.0, 18570.0, 18578.0, 18582.0, 18578.0, 18572.0, 18584.0, 18584.0, 18576.0, 18578.0, 18580.0, 18574.0, 18582.0, 18576.0, 18580.0, 18590.0, 18580.0, 18580.0, 18590.0, 18578.0, 18584.0, 18576.0, 18570.0, 18576.0, 18582.0, 18576.0, 18574.0, 18576.0, 18576.0, 18580.0, 18582.0, 18582.0, 18578.0, 18576.0, 18582.0, 18588.0, 18582.0, 18580.0, 18584.0, 18574.0, 18574.0, 18584.0, 18578.0, 18572.0, 18578.0, 18572.0, 18574.0, 18582.0, 18576.0, 18576.0, 18586.0, 18584.0, 18576.0, 18572.0, 18572.0, 18572.0, 18572.0, 18574.0, 18570.0, 18582.0, 18588.0, 18624.0, 18586.0, 18586.0, 18568.0, 18580.0, 18590.0, 18584.0, 18576.0, 18572.0, 18572.0, 18574.0, 18588.0, 18586.0, 18582.0, 18584.0, 18584.0, 18578.0, 18582.0, 18602.0, 18582.0, 18540.0, 18532.0]
    },
    "slices": {}
  }
}