{
  "AcquisitionMatrixPE": 104,
  "AcquisitionNumber": 1,
  "AcquisitionTime": "11:02:44.787500",
  "BandwidthPerPixelPhaseEncode": 17.17,
  "BaseResolution": 104,
  "BodyPartExamined": "BRAIN",
  "CoilString": "HC1-7;NC1_2",
  "ConsistencyInfo": "N4_VE11C_LATEST_20160120",
  "ConversionSoftware": "dcm2niix",
  "ConversionSoftwareVersion": "v1.0.20190902",
  "DerivedVendorReportedEchoSpacing": 0.000560011,
  "DeviceSerialNumber": "167006",
  "DwellTime": 2.1e-06,
  "EchoTime": 0.037,
  "EchoTrainLength": 104,
  "EffectiveEchoSpacing": 0.000560011,
  "FlipAngle": 52,
  "HeudiconvVersion": "0.10.0",
  "ImageComments": "Unaliased_MB4_PE3_LB",
  "ImageOrientationPatientDICOM": [0.999543, 0.0109774, 0.0281664, 0.00436141, 0.869623, -0.493697],
  "ImageType": [
    "ORIGINAL",
    "PRIMARY",
    "P",
    "MB",
    "ND",
    "MOSAIC"
],
  "ImagingFrequency": 123.259,
  "InPlanePhaseEncodingDirectionDICOM": "COL",
  "InstitutionAddress": "Chemin_Queen-Mary_4565_Montreal_District_CA_H3W_1W5",
  "InstitutionName": "IUGM",
  "InstitutionalDepartmentName": "Department",
  "MRAcquisitionType": "2D",
  "MagneticFieldStrength": 3,
  "Manufacturer": "Siemens",
  "ManufacturersModelName": "Prisma_fit",
  "Modality": "MR",
  "MultibandAccelerationFactor": 4,
  "PartialFourier": 1,
  "PatientPosition": "HFS",
  "PercentPhaseFOV": 100,
  "PhaseEncodingDirection": "j",
  "PhaseEncodingSteps": 104,
  "PhaseResolution": 1,
  "PixelBandwidth": 2290,
  "ProcedureStepDescription": "memory_things",
  "ProtocolName": "func_task-things_run-3",
  "PulseSequenceDetails": "%CustomerSeq%_cmrr_mbep2d_bold",
  "ReceiveCoilActiveElements": "HC1-7;NC1,2",
  "ReceiveCoilName": "HeadNeck_64",
  "ReconMatrixPE": 104,
  "RepetitionTime": 1.49,
  "SAR": 0.0388922,
  "ScanOptions": "FS",
  "ScanningSequence": "EP",
  "SequenceName": "epfid2d1_104",
  "SequenceVariant": "SK_SS",
  "SeriesDescription": "func_task-things_run-3",
  "SeriesNumber": 17,
  "ShimSetting": [623, -7187, -8865, 297, -1, -136, -29, 6],
  "SliceThickness": 2,
  "SliceTiming": [0, 0.785, 0.1, 0.8825, 0.1975, 0.98, 0.295, 1.08, 0.3925, 1.1775, 0.49, 1.275, 0.59, 1.3725, 0.6875, 0, 0.785, 0.1, 0.8825, 0.1975, 0.98, 0.295, 1.08, 0.3925, 1.1775, 0.49, 1.275, 0.59, 1.3725, 0.6875, 0, 0.785, 0.1, 0.8825, 0.1975, 0.98, 0.295, 1.08, 0.3925, 1.1775, 0.49, 1.275, 0.59, 1.3725, 0.6875, 0, 0.785, 0.1, 0.8825, 0.1975, 0.98, 0.295, 1.08, 0.3925, 1.1775, 0.49, 1.275, 0.59, 1.3725, 0.6875],
  "SoftwareVersions": "syngo_MR_E11",
  "SpacingBetweenSlices": 2,
  "StationName": "MRC35049",
  "TaskName": "things",
  "TotalReadoutTime": 0.0576811,
  "TxRefAmp": 249.489,
  "WipMemBlock": "de52a77b-15c8-4523-8e49-94e407b7f16d||Sequence: R016 ve11c/master r/e634e98; Dec 19 2017 11:00:25 by eja",
  "dcmmeta_affine": [
    [-1.9990859031677246, 0.008722823113203049, 0.0598272979259491, 105.36073303222656],
    [-0.02195485681295395, 1.7392463684082031, -0.987187922000885, -51.32891082763672],
    [0.05633273720741272, 0.9873934984207153, 1.7383557558059692, -94.30843353271484],
    [0.0, 0.0, 0.0, 1.0]
],
  "dcmmeta_reorient_transform": [
    [0.0, -1.0, 0.0, 103.0],
    [1.0, 0.0, 0.0, 0.0],
    [0.0, 0.0, 1.0, 0.0],
    [0.0, 0.0, 0.0, 1.0]
],
  "dcmmeta_shape": [104, 104, 60, 190],
  "dcmmeta_slice_dim": 2,
  "dcmmeta_version": 0.6,
  "global": {
    "const": {
      "AcquisitionMatrix": [104, 0, 0, 104],
      "AngioFlag": "N",
      "BitsAllocated": 16,
      "BitsStored": 16,
      "BodyPartExamined": "BRAIN",
      "Columns": 832,
      "EchoNumbers": 1,
      "EchoTime": 37.0,
      "EchoTrainLength": 104,
      "FlipAngle": 52.0,
      "HighBit": 15,
      "ImageOrientationPatient": [0.99954297143056, 0.01097742822562, 0.02816636883434, 0.00436141163012, 0.86962319644359, -0.4936967432502],
      "ImagePositionPatient": [-837.10157358999, -768.8907225324, 346.29921111969],
      "ImageType": [
        "ORIGINAL",
        "PRIMARY",
        "P",
        "MB",
        "ND",
        "MOSAIC"
],
      "ImagedNucleus": "1H",
      "ImagingFrequency": 123.258887,
      "InPlanePhaseEncodingDirection": "COL",
      "LargestImagePixelValue": 4095,
      "MRAcquisitionType": "2D",
      "MagneticFieldStrength": 3.0,
      "Manufacturer": "SIEMENS",
      "ManufacturerModelName": "Prisma_fit",
      "Modality": "MR",
      "NumberOfAverages": 1.0,
      "NumberOfPhaseEncodingSteps": 104,
      "PercentPhaseFieldOfView": 100.0,
      "PercentSampling": 100.0,
      "PerformedProcedureStepStartTime": "104706.719000",
      "PhotometricInterpretation": "MONOCHROME2",
      "PixelBandwidth": 2290.0,
      "PixelRepresentation": 0,
      "PixelSpacing": [2.0, 2.0],
      "ProtocolName": "func_task-things_run-3",
      "RepetitionTime": 1490.0,
      "RescaleIntercept": -4096.0,
      "RescaleSlope": 2.0,
      "RescaleType": "US",
      "Rows": 832,
      "SAR": 0.03889219930789,
      "SamplesPerPixel": 1,
      "ScanOptions": "FS",
      "ScanningSequence": "EP",
      "SequenceName": "epfid2d1_104",
      "SequenceVariant": [
        "SK",
        "SS"
],
      "SeriesDescription": "func_task-things_run-3",
      "SeriesNumber": 17,
      "SeriesTime": "110417.678000",
      "SliceLocation": -53.483437530649,
      "SliceThickness": 2.0,
      "SmallestImagePixelValue": 0,
      "SoftwareVersions": "syngo MR E11",
      "SpacingBetweenSlices": 2.0000000287868,
      "SpecificCharacterSet": "ISO_IR 100",
      "StudyID": "1",
      "StudyTime": "104706.638000",
      "TransmitCoilName": "Body",
      "VariableFlipAngleFlag": "N",
      "WindowCenterWidthExplanation": "Algo1",
      "dBdt": 0.0},
    "slices": {}
  },
  "time": {
    "samples": {
      "AcquisitionNumber": [1, 2, 3, 4, 5, 6, 7, 8, 9, 10, 11, 12, 13, 14, 15, 16, 17, 18, 19, 20, 21, 22, 23, 24, 25, 26, 27, 28, 29, 30, 31, 32, 33, 34, 35, 36, 37, 38, 39, 40, 41, 42, 43, 44, 45, 46, 47, 48, 49, 50, 51, 52, 53, 54, 55, 56, 57, 58, 59, 60, 61, 62, 63, 64, 65, 66, 67, 68, 69, 70, 71, 72, 73, 74, 75, 76, 77, 78, 79, 80, 81, 82, 83, 84, 85, 86, 87, 88, 89, 90, 91, 92, 93, 94, 95, 96, 97, 98, 99, 100, 101, 102, 103, 104, 105, 106, 107, 108, 109, 110, 111, 112, 113, 114, 115, 116, 117, 118, 119, 120, 121, 122, 123, 124, 125, 126, 127, 128, 129, 130, 131, 132, 133, 134, 135, 136, 137, 138, 139, 140, 141, 142, 143, 144, 145, 146, 147, 148, 149, 150, 151, 152, 153, 154, 155, 156, 157, 158, 159, 160, 161, 162, 163, 164, 165, 166, 167, 168, 169, 170, 171, 172, 173, 174, 175, 176, 177, 178, 179, 180, 181, 182, 183, 184, 185, 186, 187, 188, 189, 190],
      "AcquisitionTime": ["110244.787500", "110246.277500", "110247.767500", "110249.257500", "110250.747500", "110252.237500", "110253.727500", "110255.217500", "110256.707500", "110258.197500", "110259.687500", "110301.177500", "110302.667500", "110304.157500", "110305.647500", "110307.137500", "110308.627500", "110310.117500", "110311.607500", "110313.097500", "110314.587500", "110316.077500", "110317.567500", "110319.057500", "110320.547500", "110322.037500", "110323.527500", "110325.017500", "110326.507500", "110327.997500", "110329.487500", "110330.977500", "110332.467500", "110333.957500", "110335.447500", "110336.937500", "110338.427500", "110339.917500", "110341.407500", "110342.897500", "110344.387500", "110345.877500", "110347.367500", "110348.857500", "110350.347500", "110351.837500", "110353.327500", "110354.817500", "110356.307500", "110357.797500", "110359.287500", "110400.777500", "110402.267500", "110403.757500", "110405.247500", "110406.737500", "110408.227500", "110409.717500", "110411.207500", "110412.697500", "110414.187500", "110415.677500", "110417.167500", "110418.657500", "110420.147500", "110421.637500", "110423.127500", "110424.617500", "110426.107500", "110427.597500", "110429.087500", "110430.577500", "110432.067500", "110433.557500", "110435.047500", "110436.537500", "110438.027500", "110439.517500", "110441.007500", "110442.497500", "110443.987500", "110445.477500", "110446.967500", "110448.457500", "110449.947500", "110451.437500", "110452.927500", "110454.417500", "110455.907500", "110457.397500", "110458.887500", "110500.377500", "110501.867500", "110503.357500", "110504.847500", "110506.337500", "110507.827500", "110509.317500", "110510.807500", "110512.297500", "110513.787500", "110515.277500", "110516.767500", "110518.257500", "110519.747500", "110521.237500", "110522.727500", "110524.217500", "110525.707500", "110527.197500", "110528.687500", "110530.177500", "110531.667500", "110533.157500", "110534.647500", "110536.137500", "110537.627500", "110539.117500", "110540.607500", "110542.097500", "110543.587500", "110545.077500", "110546.567500", "110548.057500", "110549.547500", "110551.037500", "110552.527500", "110554.017500", "110555.507500", "110556.997500", "110558.487500", "110559.977500", "110601.467500", "110602.957500", "110604.447500", "110605.937500", "110607.427500", "110608.917500", "110610.407500", "110611.897500", "110613.387500", "110614.877500", "110616.367500", "110617.857500", "110619.347500", "110620.837500", "110622.327500", "110623.817500", "110625.307500", "110626.797500", "110628.287500", "110629.777500", "110631.267500", "110632.757500", "110634.247500", "110635.737500", "110637.227500", "110638.717500", "110640.207500", "110641.697500", "110643.187500", "110644.677500", "110646.167500", "110647.657500", "110649.147500", "110650.637500", "110652.127500", "110653.617500", "110655.107500", "110656.597500", "110658.087500", "110659.577500", "110701.067500", "110702.557500", "110704.047500", "110705.537500", "110707.027500", "110708.517500", "110710.007500", "110711.497500", "110712.987500", "110714.477500", "110715.967500", "110717.457500", "110718.947500", "110720.437500", "110721.927500", "110723.417500", "110724.907500", "110726.397500"],
      "ContentTime": ["110417.680000", "110417.683000", "110417.685000", "110417.688000", "110417.690000", "110417.693000", "110417.695000", "110417.698000", "110417.700000", "110417.703000", "110417.705000", "110417.708000", "110417.710000", "110417.713000", "110417.715000", "110417.718000", "110417.720000", "110417.723000", "110417.725000", "110417.728000", "110417.730000", "110417.733000", "110417.736000", "110417.738000", "110417.741000", "110417.743000", "110417.746000", "110417.748000", "110417.751000", "110417.753000", "110417.756000", "110417.758000", "110417.761000", "110417.763000", "110417.766000", "110417.768000", "110417.771000", "110417.773000", "110417.776000", "110417.778000", "110437.540000", "110437.543000", "110437.545000", "110437.548000", "110437.551000", "110437.553000", "110437.556000", "110437.559000", "110437.561000", "110437.564000", "110437.566000", "110437.569000", "110437.571000", "110437.574000", "110437.576000", "110437.579000", "110437.581000", "110437.584000", "110437.586000", "110437.589000", "110457.545000", "110457.547000", "110457.550000", "110457.553000", "110457.555000", "110457.558000", "110457.560000", "110457.563000", "110457.565000", "110457.568000", "110457.570000", "110457.573000", "110457.576000", "110457.578000", "110457.582000", "110457.585000", "110457.587000", "110457.590000", "110457.593000", "110457.595000", "110517.555000", "110517.558000", "110517.570000", "110517.572000", "110517.575000", "110517.577000", "110517.580000", "110517.582000", "110517.585000", "110517.587000", "110517.590000", "110517.592000", "110517.595000", "110517.597000", "110517.600000", "110517.603000", "110517.605000", "110517.607000", "110517.610000", "110517.613000", "110517.615000", "110557.581000", "110557.583000", "110557.586000", "110557.588000", "110557.591000", "110557.593000", "110557.596000", "110557.598000", "110557.601000", "110557.603000", "110557.606000", "110557.608000", "110557.611000", "110557.613000", "110557.616000", "110557.619000", "110557.621000", "110557.624000", "110557.627000", "110557.629000", "110557.632000", "110557.635000", "110557.638000", "110557.641000", "110557.644000", "110557.647000", "110557.650000", "110637.571000", "110637.573000", "110637.576000", "110637.578000", "110637.581000", "110637.583000", "110637.586000", "110637.588000", "110637.591000", "110637.593000", "110637.596000", "110637.598000", "110637.601000", "110637.604000", "110637.606000", "110637.609000", "110637.611000", "110637.614000", "110637.616000", "110637.619000", "110637.621000", "110637.624000", "110637.626000", "110637.629000", "110637.631000", "110637.634000", "110637.636000", "110717.572000", "110717.575000", "110717.577000", "110717.580000", "110717.582000", "110717.585000", "110717.588000", "110717.590000", "110717.592000", "110717.595000", "110717.598000", "110717.600000", "110717.603000", "110717.605000", "110717.608000", "110717.610000", "110717.613000", "110717.615000", "110717.618000", "110717.620000", "110717.623000", "110717.625000", "110717.628000", "110717.630000", "110717.633000", "110717.635000", "110717.638000", "110728.666000", "110728.670000", "110728.672000", "110728.683000", "110728.685000", "110728.688000", "110728.691000", "110728.693000"],
      "InstanceCreationTime": ["110417.680000", "110417.683000", "110417.685000", "110417.688000", "110417.690000", "110417.693000", "110417.695000", "110417.698000", "110417.700000", "110417.703000", "110417.705000", "110417.708000", "110417.710000", "110417.713000", "110417.715000", "110417.718000", "110417.720000", "110417.723000", "110417.725000", "110417.728000", "110417.730000", "110417.733000", "110417.736000", "110417.738000", "110417.741000", "110417.743000", "110417.746000", "110417.748000", "110417.751000", "110417.753000", "110417.756000", "110417.758000", "110417.761000", "110417.763000", "110417.766000", "110417.768000", "110417.771000", "110417.773000", "110417.776000", "110417.778000", "110437.540000", "110437.543000", "110437.545000", "110437.548000", "110437.551000", "110437.553000", "110437.556000", "110437.559000", "110437.561000", "110437.564000", "110437.566000", "110437.569000", "110437.571000", "110437.574000", "110437.576000", "110437.579000", "110437.581000", "110437.584000", "110437.586000", "110437.589000", "110457.545000", "110457.547000", "110457.550000", "110457.553000", "110457.555000", "110457.558000", "110457.560000", "110457.563000", "110457.565000", "110457.568000", "110457.570000", "110457.573000", "110457.576000", "110457.578000", "110457.582000", "110457.585000", "110457.587000", "110457.590000", "110457.593000", "110457.595000", "110517.555000", "110517.558000", "110517.570000", "110517.572000", "110517.575000", "110517.577000", "110517.580000", "110517.582000", "110517.585000", "110517.587000", "110517.590000", "110517.592000", "110517.595000", "110517.597000", "110517.600000", "110517.603000", "110517.605000", "110517.607000", "110517.610000", "110517.613000", "110517.615000", "110557.581000", "110557.583000", "110557.586000", "110557.588000", "110557.591000", "110557.593000", "110557.596000", "110557.598000", "110557.601000", "110557.603000", "110557.606000", "110557.608000", "110557.611000", "110557.613000", "110557.616000", "110557.619000", "110557.621000", "110557.624000", "110557.627000", "110557.629000", "110557.632000", "110557.635000", "110557.638000", "110557.641000", "110557.644000", "110557.647000", "110557.650000", "110637.571000", "110637.573000", "110637.576000", "110637.578000", "110637.581000", "110637.583000", "110637.586000", "110637.588000", "110637.591000", "110637.593000", "110637.596000", "110637.598000", "110637.601000", "110637.604000", "110637.606000", "110637.609000", "110637.611000", "110637.614000", "110637.616000", "110637.619000", "110637.621000", "110637.624000", "110637.626000", "110637.629000", "110637.631000", "110637.634000", "110637.636000", "110717.572000", "110717.575000", "110717.577000", "110717.580000", "110717.582000", "110717.585000", "110717.588000", "110717.590000", "110717.592000", "110717.595000", "110717.598000", "110717.600000", "110717.603000", "110717.605000", "110717.608000", "110717.610000", "110717.613000", "110717.615000", "110717.618000", "110717.620000", "110717.623000", "110717.625000", "110717.628000", "110717.630000", "110717.633000", "110717.635000", "110717.638000", "110728.666000", "110728.670000", "110728.672000", "110728.683000", "110728.685000", "110728.688000", "110728.691000", "110728.693000"],
      "InstanceNumber": [1, 2, 3, 4, 5, 6, 7, 8, 9, 10, 11, 12, 13, 14, 15, 16, 17, 18, 19, 20, 21, 22, 23, 24, 25, 26, 27, 28, 29, 30, 31, 32, 33, 34, 35, 36, 37, 38, 39, 40, 41, 42, 43, 44, 45, 46, 47, 48, 49, 50, 51, 52, 53, 54, 55, 56, 57, 58, 59, 60, 61, 62, 63, 64, 65, 66, 67, 68, 69, 70, 71, 72, 73, 74, 75, 76, 77, 78, 79, 80, 81, 82, 83, 84, 85, 86, 87, 88, 89, 90, 91, 92, 93, 94, 95, 96, 97, 98, 99, 100, 101, 102, 103, 104, 105, 106, 107, 108, 109, 110, 111, 112, 113, 114, 115, 116, 117, 118, 119, 120, 121, 122, 123, 124, 125, 126, 127, 128, 129, 130, 131, 132, 133, 134, 135, 136, 137, 138, 139, 140, 141, 142, 143, 144, 145, 146, 147, 148, 149, 150, 151, 152, 153, 154, 155, 156, 157, 158, 159, 160, 161, 162, 163, 164, 165, 166, 167, 168, 169, 170, 171, 172, 173, 174, 175, 176, 177, 178, 179, 180, 181, 182, 183, 184, 185, 186, 187, 188, 189, 190],
      "WindowCenter": [4788.0, 4756.0, 4750.0, 4750.0, 4754.0, 4776.0, 4784.0, 4790.0, 4830.0, 4832.0, 4834.0, 4788.0, 4742.0, 4764.0, 4740.0, 4746.0, 4774.0, 4786.0, 4820.0, 4826.0, 4828.0, 4828.0, 4778.0, 4740.0, 4740.0, 4742.0, 4748.0, 4778.0, 4784.0, 4824.0, 4822.0, 4796.0, 4800.0, 4796.0, 4774.0, 4774.0, 4750.0, 4774.0, 4750.0, 4788.0, 4830.0, 4826.0, 4818.0, 4790.0, 4796.0, 4758.0, 4766.0, 4746.0, 4752.0, 4752.0, 4788.0, 4794.0, 4792.0, 4798.0, 4794.0, 4782.0, 4818.0, 4792.0, 4782.0, 4752.0, 4748.0, 4772.0, 4820.0, 4800.0, 4816.0, 4792.0, 4828.0, 4834.0, 4790.0, 4748.0, 4738.0, 4740.0, 4744.0, 4776.0, 4824.0, 4824.0, 4818.0, 4794.0, 4790.0, 4782.0, 4790.0, 4782.0, 4752.0, 4778.0, 4774.0, 4774.0, 4796.0, 4794.0, 4786.0, 4784.0, 4780.0, 4796.0, 4828.0, 4792.0, 4754.0, 4790.0, 4790.0, 4752.0, 4750.0, 4756.0, 4776.0, 4820.0, 4796.0, 4788.0, 4822.0, 4794.0, 4782.0, 4794.0, 4786.0, 4754.0, 4752.0, 4756.0, 4780.0, 4782.0, 4784.0, 4784.0, 4826.0, 4820.0, 4788.0, 4826.0, 4790.0, 4778.0, 4796.0, 4792.0, 4760.0, 4748.0, 4744.0, 4752.0, 4782.0, 4782.0, 4792.0, 4822.0, 4816.0, 4794.0, 4828.0, 4790.0, 4752.0, 4746.0, 4746.0, 4780.0, 4788.0, 4786.0, 4824.0, 4828.0, 4818.0, 4788.0, 4778.0, 4752.0, 4748.0, 4780.0, 4788.0, 4784.0, 4798.0, 4800.0, 4790.0, 4818.0, 4790.0, 4778.0, 4786.0, 4782.0, 4776.0, 4788.0, 4794.0, 4786.0, 4792.0, 4786.0, 4780.0, 4786.0, 4782.0, 4786.0, 4818.0, 4792.0, 4784.0, 4786.0, 4784.0, 4782.0, 4790.0, 4788.0, 4792.0, 4796.0, 4790.0, 4762.0, 4752.0, 4786.0, 4758.0, 4784.0, 4830.0, 4822.0, 4786.0, 4796.0],
      "WindowWidth": [18570.0, 18542.0, 18534.0, 18542.0, 18542.0, 18570.0, 18580.0, 18582.0, 18606.0, 18582.0, 18610.0, 18578.0, 18532.0, 18568.0, 18532.0, 18536.0, 18574.0, 18584.0, 18620.0, 18566.0, 18568.0, 18608.0, 18572.0, 18534.0, 18536.0, 18536.0, 18542.0, 18578.0, 18584.0, 18616.0, 18616.0, 18588.0, 18586.0, 18588.0, 18572.0, 18574.0, 18544.0, 18570.0, 18542.0, 18582.0, 18602.0, 18596.0, 18618.0, 18584.0, 18578.0, 18540.0, 18570.0, 18538.0, 18544.0, 18544.0, 18582.0, 18590.0, 18588.0, 18584.0, 18586.0, 18580.0, 18618.0, 18582.0, 18580.0, 18540.0, 18534.0, 18570.0, 18614.0, 18578.0, 18612.0, 18584.0, 18604.0, 18600.0, 18584.0, 18540.0, 18530.0, 18534.0, 18534.0, 18576.0, 18620.0, 18616.0, 18618.0, 18586.0, 18588.0, 18576.0, 18584.0, 18572.0, 18540.0, 18570.0, 18570.0, 18572.0, 18582.0, 18582.0, 18574.0, 18576.0, 18574.0, 18582.0, 18610.0, 18578.0, 18542.0, 18576.0, 18580.0, 18542.0, 18542.0, 18544.0, 18578.0, 18614.0, 18584.0, 18580.0, 18614.0, 18584.0, 18574.0, 18580.0, 18576.0, 18544.0, 18542.0, 18542.0, 18574.0, 18574.0, 18578.0, 18578.0, 18614.0, 18618.0, 18586.0, 18616.0, 18580.0, 18574.0, 18570.0, 18574.0, 18536.0, 18536.0, 18538.0, 18542.0, 18576.0, 18582.0, 18584.0, 18614.0, 18620.0, 18584.0, 18616.0, 18582.0, 18538.0, 18536.0, 18532.0, 18574.0, 18580.0, 18580.0, 18614.0, 18600.0, 18606.0, 18580.0, 18578.0, 18536.0, 18538.0, 18576.0, 18580.0, 18576.0, 18586.0, 18584.0, 18582.0, 18610.0, 18584.0, 18570.0, 18582.0, 18576.0, 18568.0, 18576.0, 18580.0, 18580.0, 18582.0, 18578.0, 18578.0, 18580.0, 18576.0, 18576.0, 18616.0, 18582.0, 18582.0, 18578.0, 18576.0, 18578.0, 18576.0, 18580.0, 18580.0, 18582.0, 18580.0, 18546.0, 18540.0, 18578.0, 18538.0, 18580.0, 18616.0, 18614.0, 18580.0, 18580.0]
    },
    "slices": {}
  }
}