{
  "AcquisitionMatrixPE": 104,
  "AcquisitionNumber": 1,
  "AcquisitionTime": "11:08:50.912500",
  "BandwidthPerPixelPhaseEncode": 17.17,
  "BaseResolution": 104,
  "BodyPartExamined": "BRAIN",
  "CoilString": "HC1-7;NC1_2",
  "ConsistencyInfo": "N4_VE11C_LATEST_20160120",
  "ConversionSoftware": "dcm2niix",
  "ConversionSoftwareVersion": "v1.0.20190902",
  "DerivedVendorReportedEchoSpacing": 0.000560011,
  "DeviceSerialNumber": "167006",
  "DwellTime": 2.1e-06,
  "EchoTime": 0.037,
  "EchoTrainLength": 104,
  "EffectiveEchoSpacing": 0.000560011,
  "FlipAngle": 52,
  "HeudiconvVersion": "0.10.0",
  "ImageComments": "Unaliased_MB4_PE3_LB",
  "ImageOrientationPatientDICOM": [0.999543, 0.0109774, 0.0281664, 0.00436141, 0.869623, -0.493697],
  "ImageType": [
    "ORIGINAL",
    "PRIMARY",
    "P",
    "MB",
    "ND",
    "MOSAIC"
],
  "ImagingFrequency": 123.259,
  "InPlanePhaseEncodingDirectionDICOM": "COL",
  "InstitutionAddress": "Chemin_Queen-Mary_4565_Montreal_District_CA_H3W_1W5",
  "InstitutionName": "IUGM",
  "InstitutionalDepartmentName": "Department",
  "MRAcquisitionType": "2D",
  "MagneticFieldStrength": 3,
  "Manufacturer": "Siemens",
  "ManufacturersModelName": "Prisma_fit",
  "Modality": "MR",
  "MultibandAccelerationFactor": 4,
  "PartialFourier": 1,
  "PatientPosition": "HFS",
  "PercentPhaseFOV": 100,
  "PhaseEncodingDirection": "j",
  "PhaseEncodingSteps": 104,
  "PhaseResolution": 1,
  "PixelBandwidth": 2290,
  "ProcedureStepDescription": "memory_things",
  "ProtocolName": "func_task-things_run-4",
  "PulseSequenceDetails": "%CustomerSeq%_cmrr_mbep2d_bold",
  "ReceiveCoilActiveElements": "HC1-7;NC1,2",
  "ReceiveCoilName": "HeadNeck_64",
  "ReconMatrixPE": 104,
  "RepetitionTime": 1.49,
  "SAR": 0.0388922,
  "ScanOptions": "FS",
  "ScanningSequence": "EP",
  "SequenceName": "epfid2d1_104",
  "SequenceVariant": "SK_SS",
  "SeriesDescription": "func_task-things_run-4",
  "SeriesNumber": 20,
  "ShimSetting": [623, -7187, -8865, 297, -1, -136, -29, 6],
  "SliceThickness": 2,
  "SliceTiming": [0, 0.7825, 0.0975, 0.8825, 0.195, 0.98, 0.2925, 1.0775, 0.3925, 1.175, 0.49, 1.2725, 0.5875, 1.3725, 0.685, 0, 0.7825, 0.0975, 0.8825, 0.195, 0.98, 0.2925, 1.0775, 0.3925, 1.175, 0.49, 1.2725, 0.5875, 1.3725, 0.685, 0, 0.7825, 0.0975, 0.8825, 0.195, 0.98, 0.2925, 1.0775, 0.3925, 1.175, 0.49, 1.2725, 0.5875, 1.3725, 0.685, 0, 0.7825, 0.0975, 0.8825, 0.195, 0.98, 0.2925, 1.0775, 0.3925, 1.175, 0.49, 1.2725, 0.5875, 1.3725, 0.685],
  "SoftwareVersions": "syngo_MR_E11",
  "SpacingBetweenSlices": 2,
  "StationName": "MRC35049",
  "TaskName": "things",
  "TotalReadoutTime": 0.0576811,
  "TxRefAmp": 249.489,
  "WipMemBlock": "4e30b100-4485-4595-8161-7361035b8dbd||Sequence: R016 ve11c/master r/e634e98; Dec 19 2017 11:00:25 by eja",
  "dcmmeta_affine": [
    [-1.9990859031677246, 0.008722823113203049, 0.0598272979259491, 105.36073303222656],
    [-0.02195485681295395, 1.7392463684082031, -0.987187922000885, -51.32891082763672],
    [0.05633273720741272, 0.9873934984207153, 1.7383557558059692, -94.30843353271484],
    [0.0, 0.0, 0.0, 1.0]
],
  "dcmmeta_reorient_transform": [
    [0.0, -1.0, 0.0, 103.0],
    [1.0, 0.0, 0.0, 0.0],
    [0.0, 0.0, 1.0, 0.0],
    [0.0, 0.0, 0.0, 1.0]
],
  "dcmmeta_shape": [104, 104, 60, 190],
  "dcmmeta_slice_dim": 2,
  "dcmmeta_version": 0.6,
  "global": {
    "const": {
      "AcquisitionMatrix": [104, 0, 0, 104],
      "AngioFlag": "N",
      "BitsAllocated": 16,
      "BitsStored": 16,
      "BodyPartExamined": "BRAIN",
      "Columns": 832,
      "EchoNumbers": 1,
      "EchoTime": 37.0,
      "EchoTrainLength": 104,
      "FlipAngle": 52.0,
      "HighBit": 15,
      "ImageOrientationPatient": [0.99954297143056, 0.01097742822562, 0.02816636883434, 0.00436141163012, 0.86962319644359, -0.4936967432502],
      "ImagePositionPatient": [-837.10157358999, -768.8907225324, 346.29921111969],
      "ImageType": [
        "ORIGINAL",
        "PRIMARY",
        "P",
        "MB",
        "ND",
        "MOSAIC"
],
      "ImagedNucleus": "1H",
      "ImagingFrequency": 123.258891,
      "InPlanePhaseEncodingDirection": "COL",
      "LargestImagePixelValue": 4095,
      "MRAcquisitionType": "2D",
      "MagneticFieldStrength": 3.0,
      "Manufacturer": "SIEMENS",
      "ManufacturerModelName": "Prisma_fit",
      "Modality": "MR",
      "NumberOfAverages": 1.0,
      "NumberOfPhaseEncodingSteps": 104,
      "PercentPhaseFieldOfView": 100.0,
      "PercentSampling": 100.0,
      "PerformedProcedureStepStartTime": "104706.719000",
      "PhotometricInterpretation": "MONOCHROME2",
      "PixelBandwidth": 2290.0,
      "PixelRepresentation": 0,
      "PixelSpacing": [2.0, 2.0],
      "ProtocolName": "func_task-things_run-4",
      "RepetitionTime": 1490.0,
      "RescaleIntercept": -4096.0,
      "RescaleSlope": 2.0,
      "RescaleType": "US",
      "Rows": 832,
      "SAR": 0.03889219930789,
      "SamplesPerPixel": 1,
      "ScanOptions": "FS",
      "ScanningSequence": "EP",
      "SequenceName": "epfid2d1_104",
      "SequenceVariant": [
        "SK",
        "SS"
],
      "SeriesDescription": "func_task-things_run-4",
      "SeriesNumber": 20,
      "SeriesTime": "111008.463000",
      "SliceLocation": -53.483437530649,
      "SliceThickness": 2.0,
      "SmallestImagePixelValue": 0,
      "SoftwareVersions": "syngo MR E11",
      "SpacingBetweenSlices": 2.0000000287868,
      "SpecificCharacterSet": "ISO_IR 100",
      "StudyID": "1",
      "StudyTime": "104706.638000",
      "TransmitCoilName": "Body",
      "VariableFlipAngleFlag": "N",
      "WindowCenterWidthExplanation": "Algo1",
      "dBdt": 0.0},
    "slices": {}
  },
  "time": {
    "samples": {
      "AcquisitionNumber": [1, 2, 3, 4, 5, 6, 7, 8, 9, 10, 11, 12, 13, 14, 15, 16, 17, 18, 19, 20, 21, 22, 23, 24, 25, 26, 27, 28, 29, 30, 31, 32, 33, 34, 35, 36, 37, 38, 39, 40, 41, 42, 43, 44, 45, 46, 47, 48, 49, 50, 51, 52, 53, 54, 55, 56, 57, 58, 59, 60, 61, 62, 63, 64, 65, 66, 67, 68, 69, 70, 71, 72, 73, 74, 75, 76, 77, 78, 79, 80, 81, 82, 83, 84, 85, 86, 87, 88, 89, 90, 91, 92, 93, 94, 95, 96, 97, 98, 99, 100, 101, 102, 103, 104, 105, 106, 107, 108, 109, 110, 111, 112, 113, 114, 115, 116, 117, 118, 119, 120, 121, 122, 123, 124, 125, 126, 127, 128, 129, 130, 131, 132, 133, 134, 135, 136, 137, 138, 139, 140, 141, 142, 143, 144, 145, 146, 147, 148, 149, 150, 151, 152, 153, 154, 155, 156, 157, 158, 159, 160, 161, 162, 163, 164, 165, 166, 167, 168, 169, 170, 171, 172, 173, 174, 175, 176, 177, 178, 179, 180, 181, 182, 183, 184, 185, 186, 187, 188, 189, 190],
      "AcquisitionTime": ["110850.912500", "110852.402500", "110853.892500", "110855.382500", "110856.872500", "110858.362500", "110859.852500", "110901.342500", "110902.832500", "110904.322500", "110905.812500", "110907.302500", "110908.792500", "110910.282500", "110911.772500", "110913.262500", "110914.752500", "110916.242500", "110917.732500", "110919.222500", "110920.712500", "110922.202500", "110923.692500", "110925.182500", "110926.672500", "110928.162500", "110929.652500", "110931.142500", "110932.632500", "110934.122500", "110935.612500", "110937.102500", "110938.592500", "110940.082500", "110941.572500", "110943.062500", "110944.552500", "110946.042500", "110947.532500", "110949.022500", "110950.512500", "110952.002500", "110953.492500", "110954.982500", "110956.472500", "110957.962500", "110959.452500", "111000.942500", "111002.432500", "111003.922500", "111005.412500", "111006.902500", "111008.392500", "111009.882500", "111011.372500", "111012.862500", "111014.352500", "111015.842500", "111017.332500", "111018.822500", "111020.312500", "111021.802500", "111023.292500", "111024.782500", "111026.272500", "111027.762500", "111029.252500", "111030.742500", "111032.232500", "111033.722500", "111035.212500", "111036.702500", "111038.192500", "111039.682500", "111041.172500", "111042.662500", "111044.152500", "111045.642500", "111047.132500", "111048.622500", "111050.112500", "111051.602500", "111053.092500", "111054.582500", "111056.072500", "111057.562500", "111059.052500", "111100.542500", "111102.032500", "111103.522500", "111105.012500", "111106.502500", "111107.992500", "111109.482500", "111110.972500", "111112.462500", "111113.952500", "111115.442500", "111116.932500", "111118.422500", "111119.912500", "111121.402500", "111122.892500", "111124.382500", "111125.872500", "111127.362500", "111128.852500", "111130.342500", "111131.832500", "111133.322500", "111134.812500", "111136.302500", "111137.792500", "111139.282500", "111140.772500", "111142.262500", "111143.752500", "111145.242500", "111146.732500", "111148.222500", "111149.712500", "111151.202500", "111152.692500", "111154.182500", "111155.672500", "111157.162500", "111158.652500", "111200.142500", "111201.632500", "111203.122500", "111204.612500", "111206.102500", "111207.592500", "111209.082500", "111210.572500", "111212.062500", "111213.552500", "111215.042500", "111216.532500", "111218.022500", "111219.512500", "111221.002500", "111222.492500", "111223.982500", "111225.472500", "111226.962500", "111228.452500", "111229.942500", "111231.432500", "111232.922500", "111234.412500", "111235.902500", "111237.392500", "111238.882500", "111240.372500", "111241.862500", "111243.352500", "111244.842500", "111246.332500", "111247.822500", "111249.312500", "111250.802500", "111252.292500", "111253.782500", "111255.272500", "111256.762500", "111258.252500", "111259.742500", "111301.232500", "111302.722500", "111304.212500", "111305.702500", "111307.192500", "111308.682500", "111310.172500", "111311.662500", "111313.152500", "111314.642500", "111316.132500", "111317.622500", "111319.112500", "111320.602500", "111322.092500", "111323.582500", "111325.072500", "111326.562500", "111328.052500", "111329.542500", "111331.032500", "111332.522500"],
      "ContentTime": ["111008.465000", "111008.468000", "111008.471000", "111008.473000", "111008.476000", "111008.479000", "111008.481000", "111008.483000", "111008.486000", "111008.488000", "111008.491000", "111008.494000", "111008.496000", "111008.499000", "111008.501000", "111008.504000", "111008.506000", "111008.509000", "111008.511000", "111008.514000", "111008.516000", "111028.426000", "111028.429000", "111028.431000", "111028.434000", "111028.437000", "111028.439000", "111028.441000", "111028.444000", "111028.446000", "111028.449000", "111028.451000", "111028.454000", "111028.456000", "111028.459000", "111028.461000", "111028.464000", "111028.467000", "111028.469000", "111028.471000", "111028.474000", "111048.402000", "111048.405000", "111048.408000", "111048.410000", "111048.412000", "111048.415000", "111048.417000", "111048.420000", "111048.422000", "111048.425000", "111048.427000", "111048.430000", "111048.432000", "111048.435000", "111048.437000", "111048.440000", "111048.442000", "111048.445000", "111048.447000", "111048.450000", "111048.452000", "111108.396000", "111108.398000", "111108.401000", "111108.403000", "111108.406000", "111108.408000", "111108.411000", "111108.413000", "111108.416000", "111108.419000", "111108.421000", "111108.424000", "111108.426000", "111108.429000", "111108.431000", "111108.434000", "111108.436000", "111108.439000", "111108.441000", "111108.444000", "111128.395000", "111128.397000", "111128.400000", "111128.402000", "111128.405000", "111128.408000", "111128.410000", "111128.412000", "111128.415000", "111128.417000", "111128.420000", "111128.422000", "111128.425000", "111128.427000", "111128.430000", "111128.432000", "111128.435000", "111128.437000", "111128.440000", "111128.442000", "111208.449000", "111208.452000", "111208.455000", "111208.457000", "111208.460000", "111208.462000", "111208.465000", "111208.476000", "111208.478000", "111208.481000", "111208.483000", "111208.494000", "111208.496000", "111208.499000", "111208.501000", "111208.504000", "111208.506000", "111208.509000", "111208.511000", "111208.514000", "111208.516000", "111208.519000", "111208.521000", "111208.524000", "111208.526000", "111208.529000", "111208.531000", "111208.534000", "111208.536000", "111208.539000", "111248.856000", "111248.859000", "111248.861000", "111248.864000", "111248.866000", "111248.869000", "111248.871000", "111248.874000", "111248.876000", "111248.879000", "111248.881000", "111248.884000", "111248.887000", "111248.889000", "111248.892000", "111248.894000", "111248.897000", "111248.899000", "111248.902000", "111248.904000", "111248.907000", "111248.909000", "111248.912000", "111248.914000", "111248.917000", "111248.919000", "111328.430000", "111328.433000", "111328.440000", "111328.442000", "111328.445000", "111328.447000", "111328.450000", "111328.452000", "111328.455000", "111328.457000", "111328.460000", "111328.462000", "111328.465000", "111328.467000", "111328.470000", "111328.473000", "111328.475000", "111328.478000", "111328.480000", "111328.483000", "111328.485000", "111328.488000", "111328.490000", "111328.493000", "111328.495000", "111328.498000", "111328.500000", "111334.636000", "111334.639000", "111334.642000", "111334.644000", "111334.647000"],
      "InstanceCreationTime": ["111008.465000", "111008.468000", "111008.471000", "111008.473000", "111008.476000", "111008.479000", "111008.481000", "111008.483000", "111008.486000", "111008.488000", "111008.491000", "111008.494000", "111008.496000", "111008.499000", "111008.501000", "111008.504000", "111008.506000", "111008.509000", "111008.511000", "111008.514000", "111008.516000", "111028.426000", "111028.429000", "111028.431000", "111028.434000", "111028.437000", "111028.439000", "111028.441000", "111028.444000", "111028.446000", "111028.449000", "111028.451000", "111028.454000", "111028.456000", "111028.459000", "111028.461000", "111028.464000", "111028.467000", "111028.469000", "111028.471000", "111028.474000", "111048.402000", "111048.405000", "111048.408000", "111048.410000", "111048.412000", "111048.415000", "111048.417000", "111048.420000", "111048.422000", "111048.425000", "111048.427000", "111048.430000", "111048.432000", "111048.435000", "111048.437000", "111048.440000", "111048.442000", "111048.445000", "111048.447000", "111048.450000", "111048.452000", "111108.396000", "111108.398000", "111108.401000", "111108.403000", "111108.406000", "111108.408000", "111108.411000", "111108.413000", "111108.416000", "111108.419000", "111108.421000", "111108.424000", "111108.426000", "111108.429000", "111108.431000", "111108.434000", "111108.436000", "111108.439000", "111108.441000", "111108.444000", "111128.395000", "111128.397000", "111128.400000", "111128.402000", "111128.405000", "111128.408000", "111128.410000", "111128.412000", "111128.415000", "111128.417000", "111128.420000", "111128.422000", "111128.425000", "111128.427000", "111128.430000", "111128.432000", "111128.435000", "111128.437000", "111128.440000", "111128.442000", "111208.449000", "111208.452000", "111208.455000", "111208.457000", "111208.460000", "111208.462000", "111208.465000", "111208.476000", "111208.478000", "111208.481000", "111208.483000", "111208.494000", "111208.496000", "111208.499000", "111208.501000", "111208.504000", "111208.506000", "111208.509000", "111208.511000", "111208.514000", "111208.516000", "111208.519000", "111208.521000", "111208.524000", "111208.526000", "111208.529000", "111208.531000", "111208.534000", "111208.536000", "111208.539000", "111248.856000", "111248.859000", "111248.861000", "111248.864000", "111248.866000", "111248.869000", "111248.871000", "111248.874000", "111248.876000", "111248.879000", "111248.881000", "111248.884000", "111248.887000", "111248.889000", "111248.892000", "111248.894000", "111248.897000", "111248.899000", "111248.902000", "111248.904000", "111248.907000", "111248.909000", "111248.912000", "111248.914000", "111248.917000", "111248.919000", "111328.430000", "111328.433000", "111328.440000", "111328.442000", "111328.445000", "111328.447000", "111328.450000", "111328.452000", "111328.455000", "111328.457000", "111328.460000", "111328.462000", "111328.465000", "111328.467000", "111328.470000", "111328.473000", "111328.475000", "111328.478000", "111328.480000", "111328.483000", "111328.485000", "111328.488000", "111328.490000", "111328.493000", "111328.495000", "111328.498000", "111328.500000", "111334.636000", "111334.639000", "111334.642000", "111334.644000", "111334.647000"],
      "InstanceNumber": [1, 2, 3, 4, 5, 6, 7, 8, 9, 10, 11, 12, 13, 14, 15, 16, 17, 18, 19, 20, 21, 22, 23, 24, 25, 26, 27, 28, 29, 30, 31, 32, 33, 34, 35, 36, 37, 38, 39, 40, 41, 42, 43, 44, 45, 46, 47, 48, 49, 50, 51, 52, 53, 54, 55, 56, 57, 58, 59, 60, 61, 62, 63, 64, 65, 66, 67, 68, 69, 70, 71, 72, 73, 74, 75, 76, 77, 78, 79, 80, 81, 82, 83, 84, 85, 86, 87, 88, 89, 90, 91, 92, 93, 94, 95, 96, 97, 98, 99, 100, 101, 102, 103, 104, 105, 106, 107, 108, 109, 110, 111, 112, 113, 114, 115, 116, 117, 118, 119, 120, 121, 122, 123, 124, 125, 126, 127, 128, 129, 130, 131, 132, 133, 134, 135, 136, 137, 138, 139, 140, 141, 142, 143, 144, 145, 146, 147, 148, 149, 150, 151, 152, 153, 154, 155, 156, 157, 158, 159, 160, 161, 162, 163, 164, 165, 166, 167, 168, 169, 170, 171, 172, 173, 174, 175, 176, 177, 178, 179, 180, 181, 182, 183, 184, 185, 186, 187, 188, 189, 190],
      "WindowCenter": [4720.0, 4716.0, 4740.0, 4738.0, 4740.0, 4744.0, 4738.0, 4748.0, 4764.0, 4834.0, 4832.0, 4744.0, 4792.0, 4854.0, 4858.0, 4792.0, 4742.0, 4752.0, 4788.0, 4828.0, 4838.0, 4830.0, 4750.0, 4764.0, 4860.0, 4862.0, 4824.0, 4762.0, 4754.0, 4834.0, 4834.0, 4822.0, 4752.0, 4740.0, 4718.0, 4736.0, 4762.0, 4790.0, 4738.0, 4750.0, 4750.0, 4748.0, 4784.0, 4792.0, 4752.0, 4738.0, 4736.0, 4718.0, 4720.0, 4736.0, 4738.0, 4742.0, 4752.0, 4760.0, 4752.0, 4742.0, 4746.0, 4746.0, 4716.0, 4738.0, 4738.0, 4738.0, 4742.0, 4744.0, 4756.0, 4792.0, 4748.0, 4744.0, 4744.0, 4768.0, 4770.0, 4718.0, 4760.0, 4796.0, 4736.0, 4716.0, 4720.0, 4746.0, 4746.0, 4748.0, 4748.0, 4746.0, 4742.0, 4758.0, 4802.0, 4832.0, 4762.0, 4732.0, 4854.0, 4820.0, 4764.0, 4738.0, 4750.0, 4832.0, 4834.0, 4798.0, 4748.0, 4738.0, 4760.0, 4764.0, 4764.0, 4748.0, 4800.0, 4792.0, 4748.0, 4738.0, 4736.0, 4716.0, 4762.0, 4768.0, 4720.0, 4738.0, 4764.0, 4762.0, 4740.0, 4742.0, 4748.0, 4758.0, 4798.0, 4842.0, 4798.0, 4714.0, 4788.0, 4830.0, 4732.0, 4726.0, 4758.0, 4728.0, 4718.0, 4738.0, 4736.0, 4750.0, 4806.0, 4806.0, 4760.0, 4712.0, 4758.0, 4794.0, 4764.0, 4738.0, 4740.0, 4750.0, 4784.0, 4826.0, 4864.0, 4836.0, 4734.0, 4762.0, 4888.0, 4888.0, 4826.0, 4738.0, 4788.0, 4866.0, 4864.0, 4836.0, 4720.0, 4822.0, 4862.0, 4860.0, 4796.0, 4738.0, 4754.0, 4822.0, 4836.0, 4864.0, 4834.0, 4714.0, 4854.0, 4892.0, 4892.0, 4822.0, 4746.0, 4842.0, 4864.0, 4842.0, 4766.0, 4740.0, 4820.0, 4856.0, 4828.0, 4764.0, 4746.0, 4836.0, 4860.0, 4838.0, 4726.0, 4758.0, 4824.0, 4826.0],
      "WindowWidth": [18498.0, 18500.0, 18530.0, 18530.0, 18530.0, 18530.0, 18524.0, 18536.0, 18542.0, 18598.0, 18600.0, 18528.0, 18610.0, 18692.0, 18692.0, 18610.0, 18536.0, 18538.0, 18584.0, 18610.0, 18602.0, 18610.0, 18532.0, 18570.0, 18696.0, 18696.0, 18658.0, 18568.0, 18542.0, 18612.0, 18604.0, 18612.0, 18534.0, 18526.0, 18498.0, 18532.0, 18570.0, 18606.0, 18530.0, 18532.0, 18536.0, 18532.0, 18570.0, 18576.0, 18532.0, 18528.0, 18528.0, 18498.0, 18498.0, 18530.0, 18534.0, 18536.0, 18534.0, 18542.0, 18534.0, 18530.0, 18532.0, 18534.0, 18500.0, 18526.0, 18528.0, 18528.0, 18534.0, 18532.0, 18536.0, 18570.0, 18530.0, 18536.0, 18528.0, 18536.0, 18530.0, 18496.0, 18568.0, 18614.0, 18532.0, 18498.0, 18498.0, 18532.0, 18532.0, 18528.0, 18528.0, 18530.0, 18526.0, 18534.0, 18574.0, 18590.0, 18534.0, 18530.0, 18696.0, 18650.0, 18574.0, 18536.0, 18534.0, 18604.0, 18604.0, 18574.0, 18532.0, 18536.0, 18568.0, 18574.0, 18568.0, 18530.0, 18568.0, 18566.0, 18532.0, 18530.0, 18532.0, 18492.0, 18528.0, 18534.0, 18494.0, 18538.0, 18574.0, 18570.0, 18532.0, 18532.0, 18532.0, 18536.0, 18576.0, 18594.0, 18568.0, 18494.0, 18608.0, 18664.0, 18528.0, 18498.0, 18528.0, 18496.0, 18498.0, 18532.0, 18524.0, 18530.0, 18568.0, 18564.0, 18532.0, 18496.0, 18564.0, 18618.0, 18576.0, 18536.0, 18530.0, 18536.0, 18570.0, 18608.0, 18618.0, 18590.0, 18500.0, 18574.0, 18734.0, 18728.0, 18664.0, 18536.0, 18564.0, 18594.0, 18592.0, 18602.0, 18498.0, 18654.0, 18700.0, 18700.0, 18620.0, 18528.0, 18534.0, 18606.0, 18574.0, 18590.0, 18596.0, 18494.0, 18698.0, 18724.0, 18730.0, 18658.0, 18528.0, 18578.0, 18596.0, 18588.0, 18540.0, 18534.0, 18656.0, 18694.0, 18666.0, 18572.0, 18528.0, 18594.0, 18598.0, 18598.0, 18496.0, 18568.0, 18660.0, 18662.0]
    },
    "slices": {}
  }
}