{
  "AcquisitionMatrixPE": 104,
  "AcquisitionNumber": 1,
  "AcquisitionTime": "11:21:4.262500",
  "BandwidthPerPixelPhaseEncode": 17.17,
  "BaseResolution": 104,
  "BodyPartExamined": "BRAIN",
  "CoilString": "HC1-7;NC1_2",
  "ConsistencyInfo": "N4_VE11C_LATEST_20160120",
  "ConversionSoftware": "dcm2niix",
  "ConversionSoftwareVersion": "v1.0.20190902",
  "DerivedVendorReportedEchoSpacing": 0.000560011,
  "DeviceSerialNumber": "167006",
  "DwellTime": 2.1e-06,
  "EchoTime": 0.037,
  "EchoTrainLength": 104,
  "EffectiveEchoSpacing": 0.000560011,
  "FlipAngle": 52,
  "HeudiconvVersion": "0.10.0",
  "ImageComments": "Unaliased_MB4_PE3_LB",
  "ImageOrientationPatientDICOM": [0.999543, 0.0109774, 0.0281664, 0.00436141, 0.869623, -0.493697],
  "ImageType": [
    "ORIGINAL",
    "PRIMARY",
    "P",
    "MB",
    "ND",
    "MOSAIC"
],
  "ImagingFrequency": 123.259,
  "InPlanePhaseEncodingDirectionDICOM": "COL",
  "InstitutionAddress": "Chemin_Queen-Mary_4565_Montreal_District_CA_H3W_1W5",
  "InstitutionName": "IUGM",
  "InstitutionalDepartmentName": "Department",
  "MRAcquisitionType": "2D",
  "MagneticFieldStrength": 3,
  "Manufacturer": "Siemens",
  "ManufacturersModelName": "Prisma_fit",
  "Modality": "MR",
  "MultibandAccelerationFactor": 4,
  "PartialFourier": 1,
  "PatientPosition": "HFS",
  "PercentPhaseFOV": 100,
  "PhaseEncodingDirection": "j",
  "PhaseEncodingSteps": 104,
  "PhaseResolution": 1,
  "PixelBandwidth": 2290,
  "ProcedureStepDescription": "memory_things",
  "ProtocolName": "func_task-things_run-6",
  "PulseSequenceDetails": "%CustomerSeq%_cmrr_mbep2d_bold",
  "ReceiveCoilActiveElements": "HC1-7;NC1,2",
  "ReceiveCoilName": "HeadNeck_64",
  "ReconMatrixPE": 104,
  "RepetitionTime": 1.49,
  "SAR": 0.0388922,
  "ScanOptions": "FS",
  "ScanningSequence": "EP",
  "SequenceName": "epfid2d1_104",
  "SequenceVariant": "SK_SS",
  "SeriesDescription": "func_task-things_run-6",
  "SeriesNumber": 26,
  "ShimSetting": [623, -7187, -8865, 297, -1, -136, -29, 6],
  "SliceThickness": 2,
  "SliceTiming": [0, 0.785, 0.0975, 0.8825, 0.1975, 0.98, 0.295, 1.0775, 0.3925, 1.175, 0.49, 1.275, 0.5875, 1.3725, 0.685, 0, 0.785, 0.0975, 0.8825, 0.1975, 0.98, 0.295, 1.0775, 0.3925, 1.175, 0.49, 1.275, 0.5875, 1.3725, 0.685, 0, 0.785, 0.0975, 0.8825, 0.1975, 0.98, 0.295, 1.0775, 0.3925, 1.175, 0.49, 1.275, 0.5875, 1.3725, 0.685, 0, 0.785, 0.0975, 0.8825, 0.1975, 0.98, 0.295, 1.0775, 0.3925, 1.175, 0.49, 1.275, 0.5875, 1.3725, 0.685],
  "SoftwareVersions": "syngo_MR_E11",
  "SpacingBetweenSlices": 2,
  "StationName": "MRC35049",
  "TaskName": "things",
  "TotalReadoutTime": 0.0576811,
  "TxRefAmp": 249.489,
  "WipMemBlock": "67a30303-a26a-4dce-841d-8a875e0b377c||Sequence: R016 ve11c/master r/e634e98; Dec 19 2017 11:00:25 by eja",
  "dcmmeta_affine": [
    [-1.9990859031677246, 0.008722823113203049, 0.0598272979259491, 105.36073303222656],
    [-0.02195485681295395, 1.7392463684082031, -0.987187922000885, -51.32891082763672],
    [0.05633273720741272, 0.9873934984207153, 1.7383557558059692, -94.30843353271484],
    [0.0, 0.0, 0.0, 1.0]
],
  "dcmmeta_reorient_transform": [
    [0.0, -1.0, 0.0, 103.0],
    [1.0, 0.0, 0.0, 0.0],
    [0.0, 0.0, 1.0, 0.0],
    [0.0, 0.0, 0.0, 1.0]
],
  "dcmmeta_shape": [104, 104, 60, 190],
  "dcmmeta_slice_dim": 2,
  "dcmmeta_version": 0.6,
  "global": {
    "const": {
      "AcquisitionMatrix": [104, 0, 0, 104],
      "AngioFlag": "N",
      "BitsAllocated": 16,
      "BitsStored": 16,
      "BodyPartExamined": "BRAIN",
      "Columns": 832,
      "EchoNumbers": 1,
      "EchoTime": 37.0,
      "EchoTrainLength": 104,
      "FlipAngle": 52.0,
      "HighBit": 15,
      "ImageOrientationPatient": [0.99954297143056, 0.01097742822562, 0.02816636883434, 0.00436141163012, 0.86962319644359, -0.4936967432502],
      "ImagePositionPatient": [-837.10157358999, -768.8907225324, 346.29921111969],
      "ImageType": [
        "ORIGINAL",
        "PRIMARY",
        "P",
        "MB",
        "ND",
        "MOSAIC"
],
      "ImagedNucleus": "1H",
      "ImagingFrequency": 123.258894,
      "InPlanePhaseEncodingDirection": "COL",
      "LargestImagePixelValue": 4095,
      "MRAcquisitionType": "2D",
      "MagneticFieldStrength": 3.0,
      "Manufacturer": "SIEMENS",
      "ManufacturerModelName": "Prisma_fit",
      "Modality": "MR",
      "NumberOfAverages": 1.0,
      "NumberOfPhaseEncodingSteps": 104,
      "PercentPhaseFieldOfView": 100.0,
      "PercentSampling": 100.0,
      "PerformedProcedureStepStartTime": "104706.719000",
      "PhotometricInterpretation": "MONOCHROME2",
      "PixelBandwidth": 2290.0,
      "PixelRepresentation": 0,
      "PixelSpacing": [2.0, 2.0],
      "ProtocolName": "func_task-things_run-6",
      "RepetitionTime": 1490.0,
      "RescaleIntercept": -4096.0,
      "RescaleSlope": 2.0,
      "RescaleType": "US",
      "Rows": 832,
      "SAR": 0.03889219930789,
      "SamplesPerPixel": 1,
      "ScanOptions": "FS",
      "ScanningSequence": "EP",
      "SequenceName": "epfid2d1_104",
      "SequenceVariant": [
        "SK",
        "SS"
],
      "SeriesDescription": "func_task-things_run-6",
      "SeriesNumber": 26,
      "SeriesTime": "112217.592000",
      "SliceLocation": -53.483437530649,
      "SliceThickness": 2.0,
      "SmallestImagePixelValue": 0,
      "SoftwareVersions": "syngo MR E11",
      "SpacingBetweenSlices": 2.0000000287868,
      "SpecificCharacterSet": "ISO_IR 100",
      "StudyID": "1",
      "StudyTime": "104706.638000",
      "TransmitCoilName": "Body",
      "VariableFlipAngleFlag": "N",
      "WindowCenterWidthExplanation": "Algo1",
      "dBdt": 0.0},
    "slices": {}
  },
  "time": {
    "samples": {
      "AcquisitionNumber": [1, 2, 3, 4, 5, 6, 7, 8, 9, 10, 11, 12, 13, 14, 15, 16, 17, 18, 19, 20, 21, 22, 23, 24, 25, 26, 27, 28, 29, 30, 31, 32, 33, 34, 35, 36, 37, 38, 39, 40, 41, 42, 43, 44, 45, 46, 47, 48, 49, 50, 51, 52, 53, 54, 55, 56, 57, 58, 59, 60, 61, 62, 63, 64, 65, 66, 67, 68, 69, 70, 71, 72, 73, 74, 75, 76, 77, 78, 79, 80, 81, 82, 83, 84, 85, 86, 87, 88, 89, 90, 91, 92, 93, 94, 95, 96, 97, 98, 99, 100, 101, 102, 103, 104, 105, 106, 107, 108, 109, 110, 111, 112, 113, 114, 115, 116, 117, 118, 119, 120, 121, 122, 123, 124, 125, 126, 127, 128, 129, 130, 131, 132, 133, 134, 135, 136, 137, 138, 139, 140, 141, 142, 143, 144, 145, 146, 147, 148, 149, 150, 151, 152, 153, 154, 155, 156, 157, 158, 159, 160, 161, 162, 163, 164, 165, 166, 167, 168, 169, 170, 171, 172, 173, 174, 175, 176, 177, 178, 179, 180, 181, 182, 183, 184, 185, 186, 187, 188, 189, 190],
      "AcquisitionTime": ["112104.262500", "112105.752500", "112107.242500", "112108.732500", "112110.222500", "112111.712500", "112113.202500", "112114.692500", "112116.182500", "112117.672500", "112119.162500", "112120.652500", "112122.142500", "112123.632500", "112125.122500", "112126.612500", "112128.102500", "112129.592500", "112131.082500", "112132.572500", "112134.062500", "112135.552500", "112137.042500", "112138.532500", "112140.022500", "112141.512500", "112143.002500", "112144.492500", "112145.982500", "112147.472500", "112148.962500", "112150.452500", "112151.942500", "112153.432500", "112154.922500", "112156.412500", "112157.902500", "112159.392500", "112200.882500", "112202.372500", "112203.862500", "112205.352500", "112206.842500", "112208.332500", "112209.822500", "112211.312500", "112212.802500", "112214.292500", "112215.782500", "112217.272500", "112218.762500", "112220.252500", "112221.742500", "112223.232500", "112224.722500", "112226.212500", "112227.702500", "112229.192500", "112230.682500", "112232.172500", "112233.662500", "112235.152500", "112236.642500", "112238.132500", "112239.622500", "112241.112500", "112242.602500", "112244.092500", "112245.582500", "112247.072500", "112248.562500", "112250.052500", "112251.542500", "112253.032500", "112254.522500", "112256.012500", "112257.502500", "112258.992500", "112300.482500", "112301.972500", "112303.462500", "112304.952500", "112306.442500", "112307.932500", "112309.422500", "112310.912500", "112312.402500", "112313.892500", "112315.382500", "112316.872500", "112318.362500", "112319.852500", "112321.342500", "112322.832500", "112324.322500", "112325.812500", "112327.302500", "112328.792500", "112330.282500", "112331.772500", "112333.262500", "112334.752500", "112336.242500", "112337.732500", "112339.222500", "112340.712500", "112342.202500", "112343.692500", "112345.182500", "112346.672500", "112348.162500", "112349.652500", "112351.142500", "112352.632500", "112354.122500", "112355.612500", "112357.102500", "112358.592500", "112400.082500", "112401.572500", "112403.062500", "112404.552500", "112406.042500", "112407.532500", "112409.022500", "112410.512500", "112412.002500", "112413.492500", "112414.982500", "112416.472500", "112417.962500", "112419.452500", "112420.942500", "112422.432500", "112423.922500", "112425.412500", "112426.902500", "112428.392500", "112429.882500", "112431.372500", "112432.862500", "112434.352500", "112435.842500", "112437.332500", "112438.822500", "112440.312500", "112441.802500", "112443.292500", "112444.782500", "112446.272500", "112447.762500", "112449.252500", "112450.742500", "112452.232500", "112453.722500", "112455.212500", "112456.702500", "112458.192500", "112459.682500", "112501.172500", "112502.662500", "112504.152500", "112505.642500", "112507.132500", "112508.622500", "112510.112500", "112511.602500", "112513.092500", "112514.582500", "112516.072500", "112517.562500", "112519.052500", "112520.542500", "112522.032500", "112523.522500", "112525.012500", "112526.502500", "112527.992500", "112529.482500", "112530.972500", "112532.462500", "112533.952500", "112535.442500", "112536.932500", "112538.422500", "112539.912500", "112541.402500", "112542.892500", "112544.382500", "112545.872500"],
      "ContentTime": ["112217.594000", "112217.597000", "112217.613000", "112217.616000", "112217.618000", "112217.621000", "112217.623000", "112217.626000", "112217.628000", "112217.631000", "112217.633000", "112217.636000", "112217.638000", "112217.641000", "112217.643000", "112217.646000", "112237.547000", "112237.549000", "112237.552000", "112237.554000", "112237.557000", "112237.559000", "112237.562000", "112237.564000", "112237.567000", "112237.570000", "112237.572000", "112237.575000", "112237.577000", "112237.580000", "112237.582000", "112237.585000", "112237.587000", "112237.590000", "112237.592000", "112237.595000", "112237.597000", "112257.540000", "112257.542000", "112257.545000", "112257.547000", "112257.550000", "112257.552000", "112257.555000", "112257.558000", "112257.563000", "112257.566000", "112257.568000", "112257.571000", "112257.574000", "112257.576000", "112257.578000", "112257.581000", "112257.584000", "112257.586000", "112257.588000", "112257.591000", "112317.539000", "112317.542000", "112317.545000", "112317.548000", "112317.551000", "112317.554000", "112317.556000", "112317.559000", "112317.561000", "112317.564000", "112317.567000", "112317.569000", "112317.572000", "112317.574000", "112317.576000", "112317.579000", "112317.582000", "112317.584000", "112317.587000", "112317.589000", "112337.561000", "112337.563000", "112337.575000", "112337.577000", "112337.580000", "112337.582000", "112337.585000", "112337.587000", "112337.590000", "112337.592000", "112337.595000", "112337.597000", "112337.600000", "112337.602000", "112337.605000", "112337.608000", "112337.610000", "112337.613000", "112337.615000", "112337.618000", "112337.620000", "112417.603000", "112417.606000", "112417.608000", "112417.619000", "112417.622000", "112417.624000", "112417.627000", "112417.630000", "112417.632000", "112417.635000", "112417.637000", "112417.640000", "112417.642000", "112417.645000", "112417.647000", "112417.650000", "112417.652000", "112417.655000", "112417.657000", "112417.660000", "112417.662000", "112417.665000", "112417.667000", "112417.670000", "112417.672000", "112417.675000", "112417.677000", "112417.680000", "112417.683000", "112417.685000", "112457.571000", "112457.574000", "112457.577000", "112457.579000", "112457.582000", "112457.584000", "112457.587000", "112457.589000", "112457.592000", "112457.594000", "112457.597000", "112457.601000", "112457.603000", "112457.606000", "112457.608000", "112457.611000", "112457.613000", "112457.616000", "112457.619000", "112457.621000", "112457.624000", "112457.626000", "112457.629000", "112457.631000", "112457.634000", "112457.636000", "112457.639000", "112537.579000", "112537.582000", "112537.584000", "112537.587000", "112537.589000", "112537.592000", "112537.594000", "112537.597000", "112537.600000", "112537.602000", "112537.605000", "112537.607000", "112537.610000", "112537.612000", "112537.615000", "112537.617000", "112537.620000", "112537.622000", "112537.625000", "112537.627000", "112537.630000", "112537.632000", "112537.635000", "112537.638000", "112537.640000", "112537.643000", "112537.645000", "112548.513000", "112548.516000", "112548.518000", "112548.521000", "112548.523000", "112548.539000", "112548.541000", "112548.544000"],
      "InstanceCreationTime": ["112217.594000", "112217.597000", "112217.613000", "112217.616000", "112217.618000", "112217.621000", "112217.623000", "112217.626000", "112217.628000", "112217.631000", "112217.633000", "112217.636000", "112217.638000", "112217.641000", "112217.643000", "112217.646000", "112237.547000", "112237.549000", "112237.552000", "112237.554000", "112237.557000", "112237.559000", "112237.562000", "112237.564000", "112237.567000", "112237.570000", "112237.572000", "112237.575000", "112237.577000", "112237.580000", "112237.582000", "112237.585000", "112237.587000", "112237.590000", "112237.592000", "112237.595000", "112237.597000", "112257.540000", "112257.542000", "112257.545000", "112257.547000", "112257.550000", "112257.552000", "112257.555000", "112257.558000", "112257.563000", "112257.566000", "112257.568000", "112257.571000", "112257.574000", "112257.576000", "112257.578000", "112257.581000", "112257.584000", "112257.586000", "112257.588000", "112257.591000", "112317.539000", "112317.542000", "112317.545000", "112317.548000", "112317.551000", "112317.554000", "112317.556000", "112317.559000", "112317.561000", "112317.564000", "112317.567000", "112317.569000", "112317.572000", "112317.574000", "112317.576000", "112317.579000", "112317.582000", "112317.584000", "112317.587000", "112317.589000", "112337.561000", "112337.563000", "112337.575000", "112337.577000", "112337.580000", "112337.582000", "112337.585000", "112337.587000", "112337.590000", "112337.592000", "112337.595000", "112337.597000", "112337.600000", "112337.602000", "112337.605000", "112337.608000", "112337.610000", "112337.613000", "112337.615000", "112337.618000", "112337.620000", "112417.603000", "112417.606000", "112417.608000", "112417.619000", "112417.622000", "112417.624000", "112417.627000", "112417.630000", "112417.632000", "112417.635000", "112417.637000", "112417.640000", "112417.642000", "112417.645000", "112417.647000", "112417.650000", "112417.652000", "112417.655000", "112417.657000", "112417.660000", "112417.662000", "112417.665000", "112417.667000", "112417.670000", "112417.672000", "112417.675000", "112417.677000", "112417.680000", "112417.683000", "112417.685000", "112457.571000", "112457.574000", "112457.577000", "112457.579000", "112457.582000", "112457.584000", "112457.587000", "112457.589000", "112457.592000", "112457.594000", "112457.597000", "112457.601000", "112457.603000", "112457.606000", "112457.608000", "112457.611000", "112457.613000", "112457.616000", "112457.619000", "112457.621000", "112457.624000", "112457.626000", "112457.629000", "112457.631000", "112457.634000", "112457.636000", "112457.639000", "112537.579000", "112537.582000", "112537.584000", "112537.587000", "112537.589000", "112537.592000", "112537.594000", "112537.597000", "112537.600000", "112537.602000", "112537.605000", "112537.607000", "112537.610000", "112537.612000", "112537.615000", "112537.617000", "112537.620000", "112537.622000", "112537.625000", "112537.627000", "112537.630000", "112537.632000", "112537.635000", "112537.638000", "112537.640000", "112537.643000", "112537.645000", "112548.513000", "112548.516000", "112548.518000", "112548.521000", "112548.523000", "112548.539000", "112548.541000", "112548.544000"],
      "InstanceNumber": [1, 2, 3, 4, 5, 6, 7, 8, 9, 10, 11, 12, 13, 14, 15, 16, 17, 18, 19, 20, 21, 22, 23, 24, 25, 26, 27, 28, 29, 30, 31, 32, 33, 34, 35, 36, 37, 38, 39, 40, 41, 42, 43, 44, 45, 46, 47, 48, 49, 50, 51, 52, 53, 54, 55, 56, 57, 58, 59, 60, 61, 62, 63, 64, 65, 66, 67, 68, 69, 70, 71, 72, 73, 74, 75, 76, 77, 78, 79, 80, 81, 82, 83, 84, 85, 86, 87, 88, 89, 90, 91, 92, 93, 94, 95, 96, 97, 98, 99, 100, 101, 102, 103, 104, 105, 106, 107, 108, 109, 110, 111, 112, 113, 114, 115, 116, 117, 118, 119, 120, 121, 122, 123, 124, 125, 126, 127, 128, 129, 130, 131, 132, 133, 134, 135, 136, 137, 138, 139, 140, 141, 142, 143, 144, 145, 146, 147, 148, 149, 150, 151, 152, 153, 154, 155, 156, 157, 158, 159, 160, 161, 162, 163, 164, 165, 166, 167, 168, 169, 170, 171, 172, 173, 174, 175, 176, 177, 178, 179, 180, 181, 182, 183, 184, 185, 186, 187, 188, 189, 190],
      "WindowCenter": [4724.0, 4800.0, 4778.0, 4730.0, 4718.0, 4704.0, 4762.0, 4760.0, 4736.0, 4722.0, 4756.0, 4798.0, 4840.0, 4872.0, 4772.0, 4734.0, 4818.0, 4850.0, 4786.0, 4734.0, 4746.0, 4798.0, 4832.0, 4802.0, 4792.0, 4790.0, 4802.0, 4734.0, 4706.0, 4758.0, 4814.0, 4758.0, 4734.0, 4718.0, 4784.0, 4798.0, 4800.0, 4792.0, 4792.0, 4768.0, 4716.0, 4736.0, 4760.0, 4714.0, 4776.0, 4804.0, 4758.0, 4716.0, 4736.0, 4732.0, 4734.0, 4712.0, 4720.0, 4728.0, 4754.0, 4760.0, 4798.0, 4842.0, 4844.0, 4738.0, 4760.0, 4858.0, 4856.0, 4786.0, 4736.0, 4754.0, 4822.0, 4834.0, 4862.0, 4870.0, 4796.0, 4734.0, 4884.0, 4890.0, 4852.0, 4758.0, 4724.0, 4796.0, 4840.0, 4862.0, 4868.0, 4722.0, 4762.0, 4860.0, 4860.0, 4786.0, 4728.0, 4832.0, 4828.0, 4796.0, 4758.0, 4724.0, 4716.0, 4714.0, 4738.0, 4726.0, 4774.0, 4758.0, 4722.0, 4716.0, 4738.0, 4728.0, 4808.0, 4846.0, 4772.0, 4712.0, 4760.0, 4816.0, 4760.0, 4736.0, 4724.0, 4760.0, 4794.0, 4796.0, 4790.0, 4760.0, 4800.0, 4838.0, 4766.0, 4706.0, 4818.0, 4854.0, 4814.0, 4740.0, 4748.0, 4802.0, 4842.0, 4836.0, 4802.0, 4730.0, 4714.0, 4758.0, 4786.0, 4760.0, 4724.0, 4838.0, 4844.0, 4796.0, 4720.0, 4732.0, 4758.0, 4758.0, 4740.0, 4722.0, 4808.0, 4866.0, 4838.0, 4758.0, 4734.0, 4782.0, 4792.0, 4758.0, 4736.0, 4748.0, 4800.0, 4844.0, 4864.0, 4804.0, 4726.0, 4734.0, 4786.0, 4814.0, 4762.0, 4734.0, 4728.0, 4792.0, 4836.0, 4842.0, 4802.0, 4722.0, 4736.0, 4762.0, 4706.0, 4734.0, 4768.0, 4722.0, 4714.0, 4736.0, 4712.0, 4718.0, 4744.0, 4752.0, 4756.0, 4788.0, 4832.0, 4838.0, 4774.0, 4714.0, 4762.0, 4818.0],
      "WindowWidth": [18500.0, 18556.0, 18532.0, 18496.0, 18494.0, 18498.0, 18576.0, 18578.0, 18532.0, 18498.0, 18534.0, 18570.0, 18576.0, 18608.0, 18536.0, 18534.0, 18656.0, 18694.0, 18612.0, 18538.0, 18530.0, 18570.0, 18608.0, 18578.0, 18576.0, 18572.0, 18566.0, 18496.0, 18494.0, 18572.0, 18654.0, 18570.0, 18536.0, 18498.0, 18566.0, 18576.0, 18572.0, 18568.0, 18572.0, 18536.0, 18498.0, 18536.0, 18568.0, 18494.0, 18530.0, 18558.0, 18528.0, 18494.0, 18534.0, 18532.0, 18534.0, 18492.0, 18494.0, 18498.0, 18532.0, 18542.0, 18578.0, 18584.0, 18582.0, 18500.0, 18576.0, 18700.0, 18704.0, 18612.0, 18534.0, 18534.0, 18604.0, 18606.0, 18592.0, 18608.0, 18570.0, 18538.0, 18738.0, 18734.0, 18698.0, 18570.0, 18498.0, 18572.0, 18584.0, 18582.0, 18612.0, 18492.0, 18568.0, 18704.0, 18704.0, 18610.0, 18502.0, 18596.0, 18600.0, 18578.0, 18538.0, 18494.0, 18490.0, 18500.0, 18534.0, 18496.0, 18536.0, 18530.0, 18498.0, 18500.0, 18532.0, 18500.0, 18558.0, 18570.0, 18528.0, 18500.0, 18576.0, 18650.0, 18578.0, 18534.0, 18502.0, 18534.0, 18574.0, 18578.0, 18572.0, 18536.0, 18572.0, 18588.0, 18526.0, 18496.0, 18654.0, 18704.0, 18648.0, 18538.0, 18534.0, 18576.0, 18592.0, 18598.0, 18576.0, 18498.0, 18502.0, 18572.0, 18604.0, 18566.0, 18496.0, 18590.0, 18584.0, 18564.0, 18498.0, 18534.0, 18572.0, 18570.0, 18536.0, 18502.0, 18572.0, 18602.0, 18586.0, 18534.0, 18532.0, 18604.0, 18618.0, 18570.0, 18536.0, 18530.0, 18576.0, 18590.0, 18618.0, 18570.0, 18498.0, 18540.0, 18614.0, 18652.0, 18578.0, 18528.0, 18504.0, 18574.0, 18592.0, 18590.0, 18570.0, 18498.0, 18540.0, 18574.0, 18490.0, 18496.0, 18534.0, 18496.0, 18496.0, 18530.0, 18496.0, 18498.0, 18534.0, 18530.0, 18534.0, 18570.0, 18596.0, 18586.0, 18536.0, 18498.0, 18576.0, 18660.0]
    },
    "slices": {}
  }
}