{
  "AcquisitionMatrixPE": 104,
  "AcquisitionNumber": 1,
  "AcquisitionTime": "10:50:36.265000",
  "BandwidthPerPixelPhaseEncode": 17.17,
  "BaseResolution": 104,
  "BodyPartExamined": "BRAIN",
  "CoilString": "HC1-7;NC1_2",
  "ConsistencyInfo": "N4_VE11C_LATEST_20160120",
  "ConversionSoftware": "dcm2niix",
  "ConversionSoftwareVersion": "v1.0.20190902",
  "DerivedVendorReportedEchoSpacing": 0.000560011,
  "DeviceSerialNumber": "167006",
  "DwellTime": 2.1e-06,
  "EchoTime": 0.037,
  "EchoTrainLength": 104,
  "EffectiveEchoSpacing": 0.000560011,
  "FlipAngle": 52,
  "HeudiconvVersion": "0.10.0",
  "ImageComments": "Unaliased_MB4_PE3_LB",
  "ImageOrientationPatientDICOM": [0.999543, 0.0109774, 0.0281664, 0.00436141, 0.869623, -0.493697],
  "ImageType": [
    "ORIGINAL",
    "PRIMARY",
    "P",
    "MB",
    "ND",
    "MOSAIC"
],
  "ImagingFrequency": 123.259,
  "InPlanePhaseEncodingDirectionDICOM": "COL",
  "InstitutionAddress": "Chemin_Queen-Mary_4565_Montreal_District_CA_H3W_1W5",
  "InstitutionName": "IUGM",
  "InstitutionalDepartmentName": "Department",
  "MRAcquisitionType": "2D",
  "MagneticFieldStrength": 3,
  "Manufacturer": "Siemens",
  "ManufacturersModelName": "Prisma_fit",
  "Modality": "MR",
  "MultibandAccelerationFactor": 4,
  "PartialFourier": 1,
  "PatientPosition": "HFS",
  "PercentPhaseFOV": 100,
  "PhaseEncodingDirection": "j",
  "PhaseEncodingSteps": 104,
  "PhaseResolution": 1,
  "PixelBandwidth": 2290,
  "ProcedureStepDescription": "memory_things",
  "ProtocolName": "func_task-things_run-1",
  "PulseSequenceDetails": "%CustomerSeq%_cmrr_mbep2d_bold",
  "ReceiveCoilActiveElements": "HC1-7;NC1,2",
  "ReceiveCoilName": "HeadNeck_64",
  "ReconMatrixPE": 104,
  "RepetitionTime": 1.49,
  "SAR": 0.0388922,
  "ScanOptions": "FS",
  "ScanningSequence": "EP",
  "SequenceName": "epfid2d1_104",
  "SequenceVariant": "SK_SS",
  "SeriesDescription": "func_task-things_run-1",
  "SeriesNumber": 11,
  "ShimSetting": [623, -7187, -8865, 297, -1, -136, -29, 6],
  "SliceThickness": 2,
  "SliceTiming": [0, 0.785, 0.0975, 0.8825, 0.195, 0.98, 0.295, 1.0775, 0.3925, 1.175, 0.49, 1.275, 0.5875, 1.3725, 0.685, 0, 0.785, 0.0975, 0.8825, 0.195, 0.98, 0.295, 1.0775, 0.3925, 1.175, 0.49, 1.275, 0.5875, 1.3725, 0.685, 0, 0.785, 0.0975, 0.8825, 0.195, 0.98, 0.295, 1.0775, 0.3925, 1.175, 0.49, 1.275, 0.5875, 1.3725, 0.685, 0, 0.785, 0.0975, 0.8825, 0.195, 0.98, 0.295, 1.0775, 0.3925, 1.175, 0.49, 1.275, 0.5875, 1.3725, 0.685],
  "SoftwareVersions": "syngo_MR_E11",
  "SpacingBetweenSlices": 2,
  "StationName": "MRC35049",
  "TaskName": "things",
  "TotalReadoutTime": 0.0576811,
  "TxRefAmp": 249.489,
  "WipMemBlock": "5739e981-7352-4f0d-a5a1-8884404e7926||Sequence: R016 ve11c/master r/e634e98; Dec 19 2017 11:00:25 by eja",
  "dcmmeta_affine": [
    [-1.9990859031677246, 0.008722823113203049, 0.0598272979259491, 105.36073303222656],
    [-0.02195485681295395, 1.7392463684082031, -0.987187922000885, -51.32891082763672],
    [0.05633273720741272, 0.9873934984207153, 1.7383557558059692, -94.30843353271484],
    [0.0, 0.0, 0.0, 1.0]
],
  "dcmmeta_reorient_transform": [
    [0.0, -1.0, 0.0, 103.0],
    [1.0, 0.0, 0.0, 0.0],
    [0.0, 0.0, 1.0, 0.0],
    [0.0, 0.0, 0.0, 1.0]
],
  "dcmmeta_shape": [104, 104, 60, 190],
  "dcmmeta_slice_dim": 2,
  "dcmmeta_version": 0.6,
  "global": {
    "const": {
      "AcquisitionMatrix": [104, 0, 0, 104],
      "AngioFlag": "N",
      "BitsAllocated": 16,
      "BitsStored": 16,
      "BodyPartExamined": "BRAIN",
      "Columns": 832,
      "EchoNumbers": 1,
      "EchoTime": 37.0,
      "EchoTrainLength": 104,
      "FlipAngle": 52.0,
      "HighBit": 15,
      "ImageOrientationPatient": [0.99954297143056, 0.01097742822562, 0.02816636883434, 0.00436141163012, 0.86962319644359, -0.4936967432502],
      "ImagePositionPatient": [-837.10157358999, -768.8907225324, 346.29921111969],
      "ImageType": [
        "ORIGINAL",
        "PRIMARY",
        "P",
        "MB",
        "ND",
        "MOSAIC"
],
      "ImagedNucleus": "1H",
      "ImagingFrequency": 123.258879,
      "InPlanePhaseEncodingDirection": "COL",
      "LargestImagePixelValue": 4095,
      "MRAcquisitionType": "2D",
      "MagneticFieldStrength": 3.0,
      "Manufacturer": "SIEMENS",
      "ManufacturerModelName": "Prisma_fit",
      "Modality": "MR",
      "NumberOfAverages": 1.0,
      "NumberOfPhaseEncodingSteps": 104,
      "PercentPhaseFieldOfView": 100.0,
      "PercentSampling": 100.0,
      "PerformedProcedureStepStartTime": "104706.719000",
      "PhotometricInterpretation": "MONOCHROME2",
      "PixelBandwidth": 2290.0,
      "PixelRepresentation": 0,
      "PixelSpacing": [2.0, 2.0],
      "ProtocolName": "func_task-things_run-1",
      "RepetitionTime": 1490.0,
      "RescaleIntercept": -4096.0,
      "RescaleSlope": 2.0,
      "RescaleType": "US",
      "Rows": 832,
      "SAR": 0.03889219930789,
      "SamplesPerPixel": 1,
      "ScanOptions": "FS",
      "ScanningSequence": "EP",
      "SequenceName": "epfid2d1_104",
      "SequenceVariant": [
        "SK",
        "SS"
],
      "SeriesDescription": "func_task-things_run-1",
      "SeriesNumber": 11,
      "SeriesTime": "105148.442000",
      "SliceLocation": -53.483437530649,
      "SliceThickness": 2.0,
      "SmallestImagePixelValue": 0,
      "SoftwareVersions": "syngo MR E11",
      "SpacingBetweenSlices": 2.0000000287868,
      "SpecificCharacterSet": "ISO_IR 100",
      "StudyID": "1",
      "StudyTime": "104706.638000",
      "TransmitCoilName": "Body",
      "VariableFlipAngleFlag": "N",
      "WindowCenterWidthExplanation": "Algo1",
      "dBdt": 0.0},
    "slices": {}
  },
  "time": {
    "samples": {
      "AcquisitionNumber": [1, 2, 3, 4, 5, 6, 7, 8, 9, 10, 11, 12, 13, 14, 15, 16, 17, 18, 19, 20, 21, 22, 23, 24, 25, 26, 27, 28, 29, 30, 31, 32, 33, 34, 35, 36, 37, 38, 39, 40, 41, 42, 43, 44, 45, 46, 47, 48, 49, 50, 51, 52, 53, 54, 55, 56, 57, 58, 59, 60, 61, 62, 63, 64, 65, 66, 67, 68, 69, 70, 71, 72, 73, 74, 75, 76, 77, 78, 79, 80, 81, 82, 83, 84, 85, 86, 87, 88, 89, 90, 91, 92, 93, 94, 95, 96, 97, 98, 99, 100, 101, 102, 103, 104, 105, 106, 107, 108, 109, 110, 111, 112, 113, 114, 115, 116, 117, 118, 119, 120, 121, 122, 123, 124, 125, 126, 127, 128, 129, 130, 131, 132, 133, 134, 135, 136, 137, 138, 139, 140, 141, 142, 143, 144, 145, 146, 147, 148, 149, 150, 151, 152, 153, 154, 155, 156, 157, 158, 159, 160, 161, 162, 163, 164, 165, 166, 167, 168, 169, 170, 171, 172, 173, 174, 175, 176, 177, 178, 179, 180, 181, 182, 183, 184, 185, 186, 187, 188, 189, 190],
      "AcquisitionTime": ["105036.265000", "105037.755000", "105039.245000", "105040.735000", "105042.225000", "105043.715000", "105045.205000", "105046.695000", "105048.185000", "105049.675000", "105051.165000", "105052.655000", "105054.145000", "105055.635000", "105057.125000", "105058.615000", "105100.105000", "105101.595000", "105103.085000", "105104.575000", "105106.065000", "105107.555000", "105109.045000", "105110.535000", "105112.025000", "105113.515000", "105115.005000", "105116.495000", "105117.985000", "105119.475000", "105120.965000", "105122.455000", "105123.945000", "105125.435000", "105126.925000", "105128.415000", "105129.905000", "105131.395000", "105132.885000", "105134.375000", "105135.865000", "105137.355000", "105138.845000", "105140.335000", "105141.825000", "105143.315000", "105144.805000", "105146.295000", "105147.785000", "105149.275000", "105150.765000", "105152.255000", "105153.745000", "105155.235000", "105156.725000", "105158.215000", "105159.705000", "105201.195000", "105202.685000", "105204.175000", "105205.665000", "105207.155000", "105208.645000", "105210.135000", "105211.625000", "105213.115000", "105214.605000", "105216.095000", "105217.585000", "105219.075000", "105220.565000", "105222.055000", "105223.545000", "105225.035000", "105226.525000", "105228.015000", "105229.505000", "105230.995000", "105232.485000", "105233.975000", "105235.465000", "105236.955000", "105238.445000", "105239.935000", "105241.425000", "105242.915000", "105244.405000", "105245.895000", "105247.385000", "105248.875000", "105250.365000", "105251.855000", "105253.345000", "105254.835000", "105256.325000", "105257.815000", "105259.305000", "105300.795000", "105302.285000", "105303.775000", "105305.265000", "105306.755000", "105308.245000", "105309.735000", "105311.225000", "105312.715000", "105314.205000", "105315.695000", "105317.185000", "105318.675000", "105320.165000", "105321.655000", "105323.145000", "105324.635000", "105326.125000", "105327.615000", "105329.105000", "105330.595000", "105332.085000", "105333.575000", "105335.065000", "105336.555000", "105338.045000", "105339.535000", "105341.025000", "105342.515000", "105344.005000", "105345.495000", "105346.985000", "105348.475000", "105349.965000", "105351.455000", "105352.945000", "105354.435000", "105355.925000", "105357.415000", "105358.905000", "105400.395000", "105401.885000", "105403.375000", "105404.865000", "105406.355000", "105407.845000", "105409.335000", "105410.825000", "105412.315000", "105413.805000", "105415.295000", "105416.785000", "105418.275000", "105419.765000", "105421.255000", "105422.745000", "105424.235000", "105425.725000", "105427.215000", "105428.705000", "105430.195000", "105431.685000", "105433.175000", "105434.665000", "105436.155000", "105437.645000", "105439.135000", "105440.625000", "105442.115000", "105443.605000", "105445.095000", "105446.585000", "105448.075000", "105449.565000", "105451.055000", "105452.545000", "105454.035000", "105455.525000", "105457.015000", "105458.505000", "105459.995000", "105501.485000", "105502.975000", "105504.465000", "105505.955000", "105507.445000", "105508.935000", "105510.425000", "105511.915000", "105513.405000", "105514.895000", "105516.385000", "105517.875000"],
      "ContentTime": ["105148.444000", "105148.447000", "105148.455000", "105148.457000", "105148.460000", "105148.462000", "105148.465000", "105148.467000", "105148.470000", "105148.472000", "105148.475000", "105148.477000", "105148.488000", "105148.491000", "105208.401000", "105208.404000", "105208.407000", "105208.409000", "105208.412000", "105208.414000", "105208.417000", "105208.419000", "105208.422000", "105208.424000", "105208.427000", "105208.429000", "105208.432000", "105208.434000", "105208.437000", "105208.439000", "105208.442000", "105208.444000", "105208.447000", "105208.449000", "105228.405000", "105228.408000", "105228.410000", "105228.413000", "105228.415000", "105228.418000", "105228.420000", "105228.423000", "105228.425000", "105228.428000", "105228.430000", "105228.433000", "105228.435000", "105228.438000", "105228.440000", "105228.443000", "105228.445000", "105228.448000", "105228.450000", "105228.459000", "105248.398000", "105248.401000", "105248.403000", "105248.406000", "105248.409000", "105248.411000", "105248.414000", "105248.416000", "105248.419000", "105248.421000", "105248.424000", "105248.426000", "105248.429000", "105248.431000", "105248.434000", "105248.436000", "105248.439000", "105248.441000", "105248.444000", "105248.446000", "105308.393000", "105308.397000", "105308.400000", "105308.403000", "105308.406000", "105308.409000", "105308.412000", "105308.415000", "105308.418000", "105308.420000", "105308.423000", "105308.425000", "105308.428000", "105308.430000", "105308.433000", "105308.436000", "105308.438000", "105308.440000", "105308.443000", "105308.445000", "105328.397000", "105328.400000", "105328.402000", "105328.405000", "105328.407000", "105328.410000", "105328.412000", "105328.420000", "105328.422000", "105328.425000", "105328.427000", "105328.430000", "105328.433000", "105328.436000", "105328.439000", "105328.442000", "105328.444000", "105328.447000", "105328.449000", "105328.452000", "105408.422000", "105408.425000", "105408.427000", "105408.430000", "105408.432000", "105408.435000", "105408.437000", "105408.440000", "105408.442000", "105408.445000", "105408.447000", "105408.450000", "105408.452000", "105408.455000", "105408.457000", "105408.460000", "105408.462000", "105408.465000", "105408.467000", "105408.470000", "105408.472000", "105408.475000", "105408.477000", "105408.480000", "105408.482000", "105408.485000", "105408.487000", "105448.424000", "105448.426000", "105448.429000", "105448.432000", "105448.434000", "105448.437000", "105448.439000", "105448.442000", "105448.444000", "105448.447000", "105448.449000", "105448.452000", "105448.454000", "105448.457000", "105448.460000", "105448.463000", "105448.465000", "105448.468000", "105448.470000", "105448.473000", "105448.475000", "105448.478000", "105448.480000", "105448.483000", "105448.485000", "105448.488000", "105448.490000", "105520.533000", "105520.536000", "105520.539000", "105520.542000", "105520.545000", "105520.548000", "105520.551000", "105520.554000", "105520.556000", "105520.559000", "105520.562000", "105520.565000", "105520.568000", "105520.571000", "105520.574000", "105520.576000", "105520.579000", "105520.582000", "105520.585000", "105520.588000", "105520.591000", "105520.595000"],
      "InstanceCreationTime": ["105148.444000", "105148.447000", "105148.455000", "105148.457000", "105148.460000", "105148.462000", "105148.465000", "105148.467000", "105148.470000", "105148.472000", "105148.475000", "105148.477000", "105148.488000", "105148.491000", "105208.401000", "105208.404000", "105208.407000", "105208.409000", "105208.412000", "105208.414000", "105208.417000", "105208.419000", "105208.422000", "105208.424000", "105208.427000", "105208.429000", "105208.432000", "105208.434000", "105208.437000", "105208.439000", "105208.442000", "105208.444000", "105208.447000", "105208.449000", "105228.405000", "105228.408000", "105228.410000", "105228.413000", "105228.415000", "105228.418000", "105228.420000", "105228.423000", "105228.425000", "105228.428000", "105228.430000", "105228.433000", "105228.435000", "105228.438000", "105228.440000", "105228.443000", "105228.445000", "105228.448000", "105228.450000", "105228.459000", "105248.398000", "105248.401000", "105248.403000", "105248.406000", "105248.409000", "105248.411000", "105248.414000", "105248.416000", "105248.419000", "105248.421000", "105248.424000", "105248.426000", "105248.429000", "105248.431000", "105248.434000", "105248.436000", "105248.439000", "105248.441000", "105248.444000", "105248.446000", "105308.393000", "105308.397000", "105308.400000", "105308.403000", "105308.406000", "105308.409000", "105308.412000", "105308.415000", "105308.418000", "105308.420000", "105308.423000", "105308.425000", "105308.428000", "105308.430000", "105308.433000", "105308.436000", "105308.438000", "105308.440000", "105308.443000", "105308.445000", "105328.397000", "105328.400000", "105328.402000", "105328.405000", "105328.407000", "105328.410000", "105328.412000", "105328.420000", "105328.422000", "105328.425000", "105328.427000", "105328.430000", "105328.433000", "105328.436000", "105328.439000", "105328.442000", "105328.444000", "105328.447000", "105328.449000", "105328.452000", "105408.422000", "105408.425000", "105408.427000", "105408.430000", "105408.432000", "105408.435000", "105408.437000", "105408.440000", "105408.442000", "105408.445000", "105408.447000", "105408.450000", "105408.452000", "105408.455000", "105408.457000", "105408.460000", "105408.462000", "105408.465000", "105408.467000", "105408.470000", "105408.472000", "105408.475000", "105408.477000", "105408.480000", "105408.482000", "105408.485000", "105408.487000", "105448.424000", "105448.426000", "105448.429000", "105448.432000", "105448.434000", "105448.437000", "105448.439000", "105448.442000", "105448.444000", "105448.447000", "105448.449000", "105448.452000", "105448.454000", "105448.457000", "105448.460000", "105448.463000", "105448.465000", "105448.468000", "105448.470000", "105448.473000", "105448.475000", "105448.478000", "105448.480000", "105448.483000", "105448.485000", "105448.488000", "105448.490000", "105520.533000", "105520.536000", "105520.539000", "105520.542000", "105520.545000", "105520.548000", "105520.551000", "105520.554000", "105520.556000", "105520.559000", "105520.562000", "105520.565000", "105520.568000", "105520.571000", "105520.574000", "105520.576000", "105520.579000", "105520.582000", "105520.585000", "105520.588000", "105520.591000", "105520.595000"],
      "InstanceNumber": [1, 2, 3, 4, 5, 6, 7, 8, 9, 10, 11, 12, 13, 14, 15, 16, 17, 18, 19, 20, 21, 22, 23, 24, 25, 26, 27, 28, 29, 30, 31, 32, 33, 34, 35, 36, 37, 38, 39, 40, 41, 42, 43, 44, 45, 46, 47, 48, 49, 50, 51, 52, 53, 54, 55, 56, 57, 58, 59, 60, 61, 62, 63, 64, 65, 66, 67, 68, 69, 70, 71, 72, 73, 74, 75, 76, 77, 78, 79, 80, 81, 82, 83, 84, 85, 86, 87, 88, 89, 90, 91, 92, 93, 94, 95, 96, 97, 98, 99, 100, 101, 102, 103, 104, 105, 106, 107, 108, 109, 110, 111, 112, 113, 114, 115, 116, 117, 118, 119, 120, 121, 122, 123, 124, 125, 126, 127, 128, 129, 130, 131, 132, 133, 134, 135, 136, 137, 138, 139, 140, 141, 142, 143, 144, 145, 146, 147, 148, 149, 150, 151, 152, 153, 154, 155, 156, 157, 158, 159, 160, 161, 162, 163, 164, 165, 166, 167, 168, 169, 170, 171, 172, 173, 174, 175, 176, 177, 178, 179, 180, 181, 182, 183, 184, 185, 186, 187, 188, 189, 190],
      "WindowCenter": [4786.0, 4776.0, 4780.0, 4778.0, 4780.0, 4812.0, 4814.0, 4816.0, 4788.0, 4810.0, 4816.0, 4818.0, 4790.0, 4786.0, 4774.0, 4778.0, 4820.0, 4824.0, 4790.0, 4786.0, 4774.0, 4776.0, 4772.0, 4780.0, 4784.0, 4810.0, 4818.0, 4818.0, 4806.0, 4790.0, 4780.0, 4778.0, 4780.0, 4774.0, 4780.0, 4814.0, 4784.0, 4808.0, 4814.0, 4810.0, 4782.0, 4786.0, 4780.0, 4780.0, 4790.0, 4782.0, 4776.0, 4800.0, 4804.0, 4820.0, 4792.0, 4810.0, 4824.0, 4792.0, 4798.0, 4784.0, 4776.0, 4776.0, 4772.0, 4780.0, 4784.0, 4808.0, 4794.0, 4788.0, 4786.0, 4790.0, 4786.0, 4798.0, 4782.0, 4778.0, 4804.0, 4798.0, 4782.0, 4812.0, 4808.0, 4812.0, 4784.0, 4786.0, 4782.0, 4782.0, 4788.0, 4800.0, 4806.0, 4790.0, 4804.0, 4778.0, 4786.0, 4782.0, 4782.0, 4812.0, 4782.0, 4806.0, 4814.0, 4804.0, 4806.0, 4786.0, 4802.0, 4800.0, 4786.0, 4784.0, 4782.0, 4800.0, 4782.0, 4806.0, 4780.0, 4784.0, 4808.0, 4790.0, 4806.0, 4790.0, 4794.0, 4782.0, 4772.0, 4776.0, 4798.0, 4802.0, 4806.0, 4810.0, 4812.0, 4794.0, 4786.0, 4784.0, 4808.0, 4776.0, 4776.0, 4782.0, 4776.0, 4800.0, 4786.0, 4784.0, 4788.0, 4790.0, 4780.0, 4812.0, 4804.0, 4800.0, 4788.0, 4802.0, 4800.0, 4786.0, 4798.0, 4808.0, 4810.0, 4808.0, 4790.0, 4786.0, 4804.0, 4806.0, 4802.0, 4802.0, 4778.0, 4808.0, 4792.0, 4782.0, 4790.0, 4788.0, 4780.0, 4784.0, 4784.0, 4776.0, 4786.0, 4788.0, 4782.0, 4776.0, 4776.0, 4804.0, 4794.0, 4784.0, 4780.0, 4790.0, 4808.0, 4802.0, 4778.0, 4784.0, 4782.0, 4798.0, 4786.0, 4806.0, 4812.0, 4814.0, 4804.0, 4804.0, 4808.0, 4802.0, 4800.0, 4778.0, 4782.0, 4790.0, 4808.0, 4792.0],
      "WindowWidth": [18574.0, 18572.0, 18574.0, 18572.0, 18574.0, 18614.0, 18618.0, 18616.0, 18586.0, 18614.0, 18616.0, 18618.0, 18584.0, 18586.0, 18574.0, 18574.0, 18606.0, 18612.0, 18582.0, 18586.0, 18572.0, 18574.0, 18572.0, 18578.0, 18584.0, 18616.0, 18616.0, 18622.0, 18614.0, 18584.0, 18580.0, 18578.0, 18584.0, 18580.0, 18582.0, 18618.0, 18588.0, 18616.0, 18622.0, 18616.0, 18586.0, 18584.0, 18582.0, 18582.0, 18586.0, 18580.0, 18576.0, 18610.0, 18614.0, 18614.0, 18586.0, 18620.0, 18612.0, 18590.0, 18610.0, 18586.0, 18578.0, 18578.0, 18580.0, 18582.0, 18586.0, 18620.0, 18586.0, 18590.0, 18586.0, 18584.0, 18588.0, 18608.0, 18586.0, 18576.0, 18614.0, 18614.0, 18584.0, 18624.0, 18618.0, 18622.0, 18590.0, 18588.0, 18586.0, 18584.0, 18592.0, 18614.0, 18616.0, 18586.0, 18618.0, 18582.0, 18586.0, 18584.0, 18584.0, 18618.0, 18592.0, 18618.0, 18618.0, 18616.0, 18616.0, 18588.0, 18610.0, 18614.0, 18586.0, 18586.0, 18580.0, 18612.0, 18584.0, 18616.0, 18584.0, 18584.0, 18622.0, 18586.0, 18620.0, 18584.0, 18588.0, 18582.0, 18578.0, 18578.0, 18616.0, 18616.0, 18616.0, 18622.0, 18618.0, 18588.0, 18590.0, 18586.0, 18622.0, 18580.0, 18580.0, 18584.0, 18580.0, 18614.0, 18588.0, 18588.0, 18590.0, 18588.0, 18588.0, 18620.0, 18620.0, 18614.0, 18590.0, 18618.0, 18614.0, 18592.0, 18610.0, 18618.0, 18624.0, 18624.0, 18590.0, 18592.0, 18618.0, 18618.0, 18618.0, 18620.0, 18584.0, 18618.0, 18592.0, 18586.0, 18584.0, 18590.0, 18588.0, 18588.0, 18588.0, 18580.0, 18588.0, 18584.0, 18586.0, 18582.0, 18580.0, 18616.0, 18596.0, 18588.0, 18588.0, 18586.0, 18618.0, 18616.0, 18580.0, 18584.0, 18588.0, 18616.0, 18588.0, 18618.0, 18622.0, 18622.0, 18618.0, 18616.0, 18618.0, 18618.0, 18614.0, 18584.0, 18588.0, 18592.0, 18620.0, 18584.0]
    },
    "slices": {}
  }
}