{
  "AcquisitionMatrixPE": 104,
  "AcquisitionNumber": 1,
  "AcquisitionTime": "11:15:0.255000",
  "BandwidthPerPixelPhaseEncode": 17.17,
  "BaseResolution": 104,
  "BodyPartExamined": "BRAIN",
  "CoilString": "HC1-7;NC1_2",
  "ConsistencyInfo": "N4_VE11C_LATEST_20160120",
  "ConversionSoftware": "dcm2niix",
  "ConversionSoftwareVersion": "v1.0.20190902",
  "DerivedVendorReportedEchoSpacing": 0.000560011,
  "DeviceSerialNumber": "167006",
  "DwellTime": 2.1e-06,
  "EchoTime": 0.037,
  "EchoTrainLength": 104,
  "EffectiveEchoSpacing": 0.000560011,
  "FlipAngle": 52,
  "HeudiconvVersion": "0.10.0",
  "ImageComments": "Unaliased_MB4_PE3_LB",
  "ImageOrientationPatientDICOM": [0.999543, 0.0109774, 0.0281664, 0.00436141, 0.869623, -0.493697],
  "ImageType": [
    "ORIGINAL",
    "PRIMARY",
    "P",
    "MB",
    "ND",
    "MOSAIC"
],
  "ImagingFrequency": 123.259,
  "InPlanePhaseEncodingDirectionDICOM": "COL",
  "InstitutionAddress": "Chemin_Queen-Mary_4565_Montreal_District_CA_H3W_1W5",
  "InstitutionName": "IUGM",
  "InstitutionalDepartmentName": "Department",
  "MRAcquisitionType": "2D",
  "MagneticFieldStrength": 3,
  "Manufacturer": "Siemens",
  "ManufacturersModelName": "Prisma_fit",
  "Modality": "MR",
  "MultibandAccelerationFactor": 4,
  "PartialFourier": 1,
  "PatientPosition": "HFS",
  "PercentPhaseFOV": 100,
  "PhaseEncodingDirection": "j",
  "PhaseEncodingSteps": 104,
  "PhaseResolution": 1,
  "PixelBandwidth": 2290,
  "ProcedureStepDescription": "memory_things",
  "ProtocolName": "func_task-things_run-5",
  "PulseSequenceDetails": "%CustomerSeq%_cmrr_mbep2d_bold",
  "ReceiveCoilActiveElements": "HC1-7;NC1,2",
  "ReceiveCoilName": "HeadNeck_64",
  "ReconMatrixPE": 104,
  "RepetitionTime": 1.49,
  "SAR": 0.0388922,
  "ScanOptions": "FS",
  "ScanningSequence": "EP",
  "SequenceName": "epfid2d1_104",
  "SequenceVariant": "SK_SS",
  "SeriesDescription": "func_task-things_run-5",
  "SeriesNumber": 23,
  "ShimSetting": [623, -7187, -8865, 297, -1, -136, -29, 6],
  "SliceThickness": 2,
  "SliceTiming": [0, 0.7825, 0.0975, 0.88, 0.195, 0.98, 0.2925, 1.0775, 0.39, 1.175, 0.49, 1.2725, 0.5875, 1.37, 0.685, 0, 0.7825, 0.0975, 0.88, 0.195, 0.98, 0.2925, 1.0775, 0.39, 1.175, 0.49, 1.2725, 0.5875, 1.37, 0.685, 0, 0.7825, 0.0975, 0.88, 0.195, 0.98, 0.2925, 1.0775, 0.39, 1.175, 0.49, 1.2725, 0.5875, 1.37, 0.685, 0, 0.7825, 0.0975, 0.88, 0.195, 0.98, 0.2925, 1.0775, 0.39, 1.175, 0.49, 1.2725, 0.5875, 1.37, 0.685],
  "SoftwareVersions": "syngo_MR_E11",
  "SpacingBetweenSlices": 2,
  "StationName": "MRC35049",
  "TaskName": "things",
  "TotalReadoutTime": 0.0576811,
  "TxRefAmp": 249.489,
  "WipMemBlock": "690a47df-53a5-43a0-910c-8c771020762f||Sequence: R016 ve11c/master r/e634e98; Dec 19 2017 11:00:25 by eja",
  "dcmmeta_affine": [
    [-1.9990859031677246, 0.008722823113203049, 0.0598272979259491, 105.36073303222656],
    [-0.02195485681295395, 1.7392463684082031, -0.987187922000885, -51.32891082763672],
    [0.05633273720741272, 0.9873934984207153, 1.7383557558059692, -94.30843353271484],
    [0.0, 0.0, 0.0, 1.0]
],
  "dcmmeta_reorient_transform": [
    [0.0, -1.0, 0.0, 103.0],
    [1.0, 0.0, 0.0, 0.0],
    [0.0, 0.0, 1.0, 0.0],
    [0.0, 0.0, 0.0, 1.0]
],
  "dcmmeta_shape": [104, 104, 60, 190],
  "dcmmeta_slice_dim": 2,
  "dcmmeta_version": 0.6,
  "global": {
    "const": {
      "AcquisitionMatrix": [104, 0, 0, 104],
      "AngioFlag": "N",
      "BitsAllocated": 16,
      "BitsStored": 16,
      "BodyPartExamined": "BRAIN",
      "Columns": 832,
      "EchoNumbers": 1,
      "EchoTime": 37.0,
      "EchoTrainLength": 104,
      "FlipAngle": 52.0,
      "HighBit": 15,
      "ImageOrientationPatient": [0.99954297143056, 0.01097742822562, 0.02816636883434, 0.00436141163012, 0.86962319644359, -0.4936967432502],
      "ImagePositionPatient": [-837.10157358999, -768.8907225324, 346.29921111969],
      "ImageType": [
        "ORIGINAL",
        "PRIMARY",
        "P",
        "MB",
        "ND",
        "MOSAIC"
],
      "ImagedNucleus": "1H",
      "ImagingFrequency": 123.258892,
      "InPlanePhaseEncodingDirection": "COL",
      "LargestImagePixelValue": 4095,
      "MRAcquisitionType": "2D",
      "MagneticFieldStrength": 3.0,
      "Manufacturer": "SIEMENS",
      "ManufacturerModelName": "Prisma_fit",
      "Modality": "MR",
      "NumberOfAverages": 1.0,
      "NumberOfPhaseEncodingSteps": 104,
      "PercentPhaseFieldOfView": 100.0,
      "PercentSampling": 100.0,
      "PerformedProcedureStepStartTime": "104706.719000",
      "PhotometricInterpretation": "MONOCHROME2",
      "PixelBandwidth": 2290.0,
      "PixelRepresentation": 0,
      "PixelSpacing": [2.0, 2.0],
      "ProtocolName": "func_task-things_run-5",
      "RepetitionTime": 1490.0,
      "RescaleIntercept": -4096.0,
      "RescaleSlope": 2.0,
      "RescaleType": "US",
      "Rows": 832,
      "SAR": 0.03889219930789,
      "SamplesPerPixel": 1,
      "ScanOptions": "FS",
      "ScanningSequence": "EP",
      "SequenceName": "epfid2d1_104",
      "SequenceVariant": [
        "SK",
        "SS"
],
      "SeriesDescription": "func_task-things_run-5",
      "SeriesNumber": 23,
      "SeriesTime": "111637.629000",
      "SliceLocation": -53.483437530649,
      "SliceThickness": 2.0,
      "SmallestImagePixelValue": 0,
      "SoftwareVersions": "syngo MR E11",
      "SpacingBetweenSlices": 2.0000000287868,
      "SpecificCharacterSet": "ISO_IR 100",
      "StudyID": "1",
      "StudyTime": "104706.638000",
      "TransmitCoilName": "Body",
      "VariableFlipAngleFlag": "N",
      "WindowCenterWidthExplanation": "Algo1",
      "dBdt": 0.0},
    "slices": {}
  },
  "time": {
    "samples": {
      "AcquisitionNumber": [1, 2, 3, 4, 5, 6, 7, 8, 9, 10, 11, 12, 13, 14, 15, 16, 17, 18, 19, 20, 21, 22, 23, 24, 25, 26, 27, 28, 29, 30, 31, 32, 33, 34, 35, 36, 37, 38, 39, 40, 41, 42, 43, 44, 45, 46, 47, 48, 49, 50, 51, 52, 53, 54, 55, 56, 57, 58, 59, 60, 61, 62, 63, 64, 65, 66, 67, 68, 69, 70, 71, 72, 73, 74, 75, 76, 77, 78, 79, 80, 81, 82, 83, 84, 85, 86, 87, 88, 89, 90, 91, 92, 93, 94, 95, 96, 97, 98, 99, 100, 101, 102, 103, 104, 105, 106, 107, 108, 109, 110, 111, 112, 113, 114, 115, 116, 117, 118, 119, 120, 121, 122, 123, 124, 125, 126, 127, 128, 129, 130, 131, 132, 133, 134, 135, 136, 137, 138, 139, 140, 141, 142, 143, 144, 145, 146, 147, 148, 149, 150, 151, 152, 153, 154, 155, 156, 157, 158, 159, 160, 161, 162, 163, 164, 165, 166, 167, 168, 169, 170, 171, 172, 173, 174, 175, 176, 177, 178, 179, 180, 181, 182, 183, 184, 185, 186, 187, 188, 189, 190],
      "AcquisitionTime": ["111500.255000", "111501.745000", "111503.235000", "111504.725000", "111506.215000", "111507.705000", "111509.195000", "111510.685000", "111512.175000", "111513.665000", "111515.155000", "111516.645000", "111518.135000", "111519.625000", "111521.115000", "111522.605000", "111524.095000", "111525.585000", "111527.075000", "111528.565000", "111530.055000", "111531.545000", "111533.035000", "111534.525000", "111536.015000", "111537.505000", "111538.995000", "111540.485000", "111541.975000", "111543.465000", "111544.955000", "111546.445000", "111547.935000", "111549.425000", "111550.915000", "111552.405000", "111553.895000", "111555.385000", "111556.875000", "111558.365000", "111559.855000", "111601.345000", "111602.835000", "111604.325000", "111605.815000", "111607.305000", "111608.795000", "111610.285000", "111611.775000", "111613.265000", "111614.755000", "111616.245000", "111617.735000", "111619.225000", "111620.715000", "111622.205000", "111623.695000", "111625.185000", "111626.675000", "111628.165000", "111629.655000", "111631.145000", "111632.635000", "111634.125000", "111635.615000", "111637.105000", "111638.595000", "111640.085000", "111641.575000", "111643.065000", "111644.555000", "111646.045000", "111647.535000", "111649.025000", "111650.515000", "111652.005000", "111653.495000", "111654.985000", "111656.475000", "111657.965000", "111659.455000", "111700.945000", "111702.435000", "111703.925000", "111705.415000", "111706.905000", "111708.395000", "111709.885000", "111711.375000", "111712.865000", "111714.355000", "111715.845000", "111717.335000", "111718.825000", "111720.315000", "111721.805000", "111723.295000", "111724.785000", "111726.275000", "111727.765000", "111729.255000", "111730.745000", "111732.235000", "111733.725000", "111735.215000", "111736.705000", "111738.195000", "111739.685000", "111741.175000", "111742.665000", "111744.155000", "111745.645000", "111747.135000", "111748.625000", "111750.115000", "111751.605000", "111753.095000", "111754.585000", "111756.075000", "111757.565000", "111759.055000", "111800.545000", "111802.035000", "111803.525000", "111805.015000", "111806.505000", "111807.995000", "111809.485000", "111810.975000", "111812.465000", "111813.955000", "111815.445000", "111816.935000", "111818.425000", "111819.915000", "111821.405000", "111822.895000", "111824.385000", "111825.875000", "111827.365000", "111828.855000", "111830.345000", "111831.835000", "111833.325000", "111834.815000", "111836.305000", "111837.795000", "111839.285000", "111840.775000", "111842.265000", "111843.755000", "111845.245000", "111846.735000", "111848.225000", "111849.715000", "111851.205000", "111852.695000", "111854.185000", "111855.675000", "111857.165000", "111858.655000", "111900.145000", "111901.635000", "111903.125000", "111904.615000", "111906.105000", "111907.595000", "111909.085000", "111910.575000", "111912.065000", "111913.555000", "111915.045000", "111916.535000", "111918.025000", "111919.515000", "111921.005000", "111922.495000", "111923.985000", "111925.475000", "111926.965000", "111928.455000", "111929.945000", "111931.435000", "111932.925000", "111934.415000", "111935.905000", "111937.395000", "111938.885000", "111940.375000", "111941.865000"],
      "ContentTime": ["111637.631000", "111637.634000", "111637.636000", "111637.639000", "111637.641000", "111637.644000", "111637.646000", "111637.649000", "111637.652000", "111637.655000", "111637.658000", "111637.664000", "111637.667000", "111637.669000", "111637.672000", "111637.674000", "111637.677000", "111637.679000", "111637.682000", "111637.684000", "111637.687000", "111637.689000", "111637.692000", "111637.694000", "111637.697000", "111637.699000", "111637.702000", "111637.704000", "111637.707000", "111637.710000", "111637.712000", "111637.714000", "111637.717000", "111637.720000", "111637.722000", "111637.724000", "111637.727000", "111637.729000", "111637.732000", "111637.734000", "111657.502000", "111657.505000", "111657.508000", "111657.510000", "111657.513000", "111657.515000", "111657.518000", "111657.520000", "111657.523000", "111657.525000", "111657.528000", "111657.530000", "111657.533000", "111657.535000", "111657.538000", "111657.540000", "111657.542000", "111657.545000", "111657.547000", "111657.550000", "111717.502000", "111717.505000", "111717.507000", "111717.510000", "111717.512000", "111717.515000", "111717.517000", "111717.521000", "111717.525000", "111717.528000", "111717.531000", "111717.533000", "111717.536000", "111717.539000", "111717.542000", "111717.545000", "111717.547000", "111717.550000", "111717.552000", "111717.555000", "111737.507000", "111737.510000", "111737.513000", "111737.515000", "111737.518000", "111737.520000", "111737.523000", "111737.525000", "111737.528000", "111737.530000", "111737.533000", "111737.535000", "111737.538000", "111737.540000", "111737.543000", "111737.545000", "111737.548000", "111737.550000", "111737.553000", "111737.555000", "111737.558000", "111817.561000", "111817.564000", "111817.566000", "111817.569000", "111817.571000", "111817.574000", "111817.576000", "111817.579000", "111817.581000", "111817.584000", "111817.586000", "111817.589000", "111817.594000", "111817.596000", "111817.599000", "111817.602000", "111817.604000", "111817.607000", "111817.609000", "111817.612000", "111817.615000", "111817.618000", "111817.621000", "111817.624000", "111817.626000", "111817.629000", "111817.632000", "111817.635000", "111817.638000", "111817.640000", "111857.529000", "111857.531000", "111857.534000", "111857.536000", "111857.539000", "111857.541000", "111857.544000", "111857.546000", "111857.549000", "111857.551000", "111857.554000", "111857.556000", "111857.559000", "111857.562000", "111857.564000", "111857.567000", "111857.569000", "111857.572000", "111857.574000", "111857.577000", "111857.579000", "111857.582000", "111857.584000", "111857.587000", "111857.590000", "111857.592000", "111857.595000", "111937.531000", "111937.534000", "111937.536000", "111937.539000", "111937.541000", "111937.544000", "111937.546000", "111937.549000", "111937.551000", "111937.554000", "111937.556000", "111937.559000", "111937.561000", "111937.564000", "111937.566000", "111937.569000", "111937.571000", "111937.574000", "111937.576000", "111937.579000", "111937.581000", "111937.584000", "111937.586000", "111937.589000", "111937.591000", "111937.594000", "111937.596000", "111944.142000", "111944.144000", "111944.147000", "111944.150000", "111944.158000"],
      "InstanceCreationTime": ["111637.631000", "111637.634000", "111637.636000", "111637.639000", "111637.641000", "111637.644000", "111637.646000", "111637.649000", "111637.652000", "111637.655000", "111637.658000", "111637.664000", "111637.667000", "111637.669000", "111637.672000", "111637.674000", "111637.677000", "111637.679000", "111637.682000", "111637.684000", "111637.687000", "111637.689000", "111637.692000", "111637.694000", "111637.697000", "111637.699000", "111637.702000", "111637.704000", "111637.707000", "111637.710000", "111637.712000", "111637.714000", "111637.717000", "111637.720000", "111637.722000", "111637.724000", "111637.727000", "111637.729000", "111637.732000", "111637.734000", "111657.502000", "111657.505000", "111657.508000", "111657.510000", "111657.513000", "111657.515000", "111657.518000", "111657.520000", "111657.523000", "111657.525000", "111657.528000", "111657.530000", "111657.533000", "111657.535000", "111657.538000", "111657.540000", "111657.542000", "111657.545000", "111657.547000", "111657.550000", "111717.502000", "111717.505000", "111717.507000", "111717.510000", "111717.512000", "111717.515000", "111717.517000", "111717.521000", "111717.525000", "111717.528000", "111717.531000", "111717.533000", "111717.536000", "111717.539000", "111717.542000", "111717.545000", "111717.547000", "111717.550000", "111717.552000", "111717.555000", "111737.507000", "111737.510000", "111737.513000", "111737.515000", "111737.518000", "111737.520000", "111737.523000", "111737.525000", "111737.528000", "111737.530000", "111737.533000", "111737.535000", "111737.538000", "111737.540000", "111737.543000", "111737.545000", "111737.548000", "111737.550000", "111737.553000", "111737.555000", "111737.558000", "111817.561000", "111817.564000", "111817.566000", "111817.569000", "111817.571000", "111817.574000", "111817.576000", "111817.579000", "111817.581000", "111817.584000", "111817.586000", "111817.589000", "111817.594000", "111817.596000", "111817.599000", "111817.602000", "111817.604000", "111817.607000", "111817.609000", "111817.612000", "111817.615000", "111817.618000", "111817.621000", "111817.624000", "111817.626000", "111817.629000", "111817.632000", "111817.635000", "111817.638000", "111817.640000", "111857.529000", "111857.531000", "111857.534000", "111857.536000", "111857.539000", "111857.541000", "111857.544000", "111857.546000", "111857.549000", "111857.551000", "111857.554000", "111857.556000", "111857.559000", "111857.562000", "111857.564000", "111857.567000", "111857.569000", "111857.572000", "111857.574000", "111857.577000", "111857.579000", "111857.582000", "111857.584000", "111857.587000", "111857.590000", "111857.592000", "111857.595000", "111937.531000", "111937.534000", "111937.536000", "111937.539000", "111937.541000", "111937.544000", "111937.546000", "111937.549000", "111937.551000", "111937.554000", "111937.556000", "111937.559000", "111937.561000", "111937.564000", "111937.566000", "111937.569000", "111937.571000", "111937.574000", "111937.576000", "111937.579000", "111937.581000", "111937.584000", "111937.586000", "111937.589000", "111937.591000", "111937.594000", "111937.596000", "111944.142000", "111944.144000", "111944.147000", "111944.150000", "111944.158000"],
      "InstanceNumber": [1, 2, 3, 4, 5, 6, 7, 8, 9, 10, 11, 12, 13, 14, 15, 16, 17, 18, 19, 20, 21, 22, 23, 24, 25, 26, 27, 28, 29, 30, 31, 32, 33, 34, 35, 36, 37, 38, 39, 40, 41, 42, 43, 44, 45, 46, 47, 48, 49, 50, 51, 52, 53, 54, 55, 56, 57, 58, 59, 60, 61, 62, 63, 64, 65, 66, 67, 68, 69, 70, 71, 72, 73, 74, 75, 76, 77, 78, 79, 80, 81, 82, 83, 84, 85, 86, 87, 88, 89, 90, 91, 92, 93, 94, 95, 96, 97, 98, 99, 100, 101, 102, 103, 104, 105, 106, 107, 108, 109, 110, 111, 112, 113, 114, 115, 116, 117, 118, 119, 120, 121, 122, 123, 124, 125, 126, 127, 128, 129, 130, 131, 132, 133, 134, 135, 136, 137, 138, 139, 140, 141, 142, 143, 144, 145, 146, 147, 148, 149, 150, 151, 152, 153, 154, 155, 156, 157, 158, 159, 160, 161, 162, 163, 164, 165, 166, 167, 168, 169, 170, 171, 172, 173, 174, 175, 176, 177, 178, 179, 180, 181, 182, 183, 184, 185, 186, 187, 188, 189, 190],
      "WindowCenter": [4716.0, 4736.0, 4738.0, 4734.0, 4718.0, 4754.0, 4806.0, 4838.0, 4740.0, 4708.0, 4756.0, 4818.0, 4858.0, 4822.0, 4736.0, 4742.0, 4832.0, 4864.0, 4840.0, 4762.0, 4734.0, 4822.0, 4886.0, 4850.0, 4762.0, 4712.0, 4754.0, 4794.0, 4796.0, 4834.0, 4842.0, 4812.0, 4696.0, 4756.0, 4888.0, 4916.0, 4854.0, 4758.0, 4714.0, 4762.0, 4796.0, 4822.0, 4792.0, 4752.0, 4788.0, 4776.0, 4722.0, 4734.0, 4850.0, 4858.0, 4820.0, 4734.0, 4728.0, 4832.0, 4836.0, 4802.0, 4748.0, 4734.0, 4762.0, 4786.0, 4788.0, 4734.0, 4766.0, 4804.0, 4796.0, 4724.0, 4736.0, 4764.0, 4758.0, 4722.0, 4780.0, 4778.0, 4728.0, 4708.0, 4790.0, 4850.0, 4796.0, 4738.0, 4808.0, 4840.0, 4806.0, 4722.0, 4736.0, 4762.0, 4792.0, 4784.0, 4736.0, 4718.0, 4768.0, 4836.0, 4808.0, 4762.0, 4712.0, 4758.0, 4788.0, 4708.0, 4742.0, 4782.0, 4736.0, 4708.0, 4732.0, 4760.0, 4760.0, 4734.0, 4712.0, 4722.0, 4750.0, 4756.0, 4754.0, 4792.0, 4834.0, 4804.0, 4718.0, 4758.0, 4886.0, 4860.0, 4820.0, 4734.0, 4722.0, 4790.0, 4800.0, 4834.0, 4866.0, 4802.0, 4710.0, 4826.0, 4886.0, 4784.0, 4706.0, 4718.0, 4724.0, 4724.0, 4724.0, 4746.0, 4762.0, 4836.0, 4806.0, 4724.0, 4730.0, 4812.0, 4818.0, 4816.0, 4754.0, 4718.0, 4752.0, 4794.0, 4800.0, 4828.0, 4768.0, 4722.0, 4732.0, 4756.0, 4704.0, 4710.0, 4710.0, 4710.0, 4710.0, 4716.0, 4724.0, 4720.0, 4726.0, 4776.0, 4806.0, 4732.0, 4732.0, 4784.0, 4816.0, 4788.0, 4736.0, 4756.0, 4844.0, 4842.0, 4798.0, 4736.0, 4760.0, 4792.0, 4790.0, 4762.0, 4734.0, 4760.0, 4842.0, 4866.0, 4798.0, 4714.0, 4760.0, 4846.0, 4818.0, 4788.0, 4736.0, 4724.0],
      "WindowWidth": [18496.0, 18526.0, 18526.0, 18526.0, 18500.0, 18534.0, 18560.0, 18588.0, 18508.0, 18492.0, 18576.0, 18664.0, 18710.0, 18664.0, 18534.0, 18526.0, 18602.0, 18600.0, 18598.0, 18534.0, 18532.0, 18664.0, 18738.0, 18696.0, 18580.0, 18498.0, 18536.0, 18574.0, 18570.0, 18604.0, 18578.0, 18556.0, 18456.0, 18580.0, 18746.0, 18774.0, 18710.0, 18572.0, 18496.0, 18540.0, 18572.0, 18610.0, 18574.0, 18534.0, 18570.0, 18534.0, 18494.0, 18536.0, 18704.0, 18704.0, 18656.0, 18538.0, 18502.0, 18598.0, 18598.0, 18572.0, 18530.0, 18528.0, 18574.0, 18610.0, 18610.0, 18528.0, 18532.0, 18566.0, 18570.0, 18496.0, 18532.0, 18574.0, 18568.0, 18496.0, 18530.0, 18534.0, 18496.0, 18496.0, 18614.0, 18692.0, 18618.0, 18528.0, 18562.0, 18586.0, 18580.0, 18496.0, 18532.0, 18578.0, 18620.0, 18608.0, 18534.0, 18498.0, 18536.0, 18592.0, 18566.0, 18536.0, 18494.0, 18568.0, 18612.0, 18500.0, 18498.0, 18524.0, 18500.0, 18498.0, 18534.0, 18572.0, 18572.0, 18534.0, 18494.0, 18498.0, 18530.0, 18536.0, 18534.0, 18570.0, 18592.0, 18558.0, 18492.0, 18568.0, 18738.0, 18708.0, 18656.0, 18538.0, 18496.0, 18574.0, 18582.0, 18598.0, 18618.0, 18568.0, 18492.0, 18662.0, 18746.0, 18612.0, 18494.0, 18496.0, 18498.0, 18494.0, 18502.0, 18526.0, 18536.0, 18588.0, 18558.0, 18494.0, 18532.0, 18656.0, 18664.0, 18654.0, 18568.0, 18498.0, 18536.0, 18574.0, 18580.0, 18598.0, 18536.0, 18500.0, 18532.0, 18572.0, 18496.0, 18494.0, 18492.0, 18492.0, 18494.0, 18494.0, 18498.0, 18494.0, 18500.0, 18534.0, 18562.0, 18492.0, 18530.0, 18610.0, 18654.0, 18608.0, 18532.0, 18532.0, 18584.0, 18588.0, 18570.0, 18528.0, 18574.0, 18622.0, 18622.0, 18572.0, 18526.0, 18536.0, 18586.0, 18612.0, 18570.0, 18492.0, 18572.0, 18694.0, 18658.0, 18616.0, 18534.0, 18500.0]
    },
    "slices": {}
  }
}