{
  "AcquisitionMatrixPE": 104,
  "AcquisitionNumber": 1,
  "AcquisitionTime": "11:15:0.255000",
  "BandwidthPerPixelPhaseEncode": 17.17,
  "BaseResolution": 104,
  "BodyPartExamined": "BRAIN",
  "CoilString": "HC1-7;NC1_2",
  "ConsistencyInfo": "N4_VE11C_LATEST_20160120",
  "ConversionSoftware": "dcm2niix",
  "ConversionSoftwareVersion": "v1.0.20190902",
  "DerivedVendorReportedEchoSpacing": 0.000560011,
  "DeviceSerialNumber": "167006",
  "DwellTime": 2.1e-06,
  "EchoTime": 0.037,
  "EchoTrainLength": 104,
  "EffectiveEchoSpacing": 0.000560011,
  "FlipAngle": 52,
  "HeudiconvVersion": "0.10.0",
  "ImageComments": "Unaliased_MB4_PE3_LB",
  "ImageOrientationPatientDICOM": [0.999543, 0.0109774, 0.0281664, 0.00436141, 0.869623, -0.493697],
  "ImageType": [
    "ORIGINAL",
    "PRIMARY",
    "M",
    "MB",
    "ND",
    "MOSAIC"
],
  "ImagingFrequency": 123.259,
  "InPlanePhaseEncodingDirectionDICOM": "COL",
  "InstitutionAddress": "Chemin_Queen-Mary_4565_Montreal_District_CA_H3W_1W5",
  "InstitutionName": "IUGM",
  "InstitutionalDepartmentName": "Department",
  "MRAcquisitionType": "2D",
  "MagneticFieldStrength": 3,
  "Manufacturer": "Siemens",
  "ManufacturersModelName": "Prisma_fit",
  "Modality": "MR",
  "MultibandAccelerationFactor": 4,
  "PartialFourier": 1,
  "PatientPosition": "HFS",
  "PercentPhaseFOV": 100,
  "PhaseEncodingDirection": "j",
  "PhaseEncodingSteps": 104,
  "PhaseResolution": 1,
  "PixelBandwidth": 2290,
  "ProcedureStepDescription": "memory_things",
  "ProtocolName": "func_task-things_run-5",
  "PulseSequenceDetails": "%CustomerSeq%_cmrr_mbep2d_bold",
  "ReceiveCoilActiveElements": "HC1-7;NC1,2",
  "ReceiveCoilName": "HeadNeck_64",
  "ReconMatrixPE": 104,
  "RepetitionTime": 1.49,
  "SAR": 0.0388922,
  "ScanOptions": "FS",
  "ScanningSequence": "EP",
  "SequenceName": "epfid2d1_104",
  "SequenceVariant": "SK_SS",
  "SeriesDescription": "func_task-things_run-5",
  "SeriesNumber": 22,
  "ShimSetting": [623, -7187, -8865, 297, -1, -136, -29, 6],
  "SliceThickness": 2,
  "SliceTiming": [0, 0.7825, 0.0975, 0.88, 0.195, 0.98, 0.2925, 1.0775, 0.39, 1.175, 0.49, 1.2725, 0.5875, 1.37, 0.685, 0, 0.7825, 0.0975, 0.88, 0.195, 0.98, 0.2925, 1.0775, 0.39, 1.175, 0.49, 1.2725, 0.5875, 1.37, 0.685, 0, 0.7825, 0.0975, 0.88, 0.195, 0.98, 0.2925, 1.0775, 0.39, 1.175, 0.49, 1.2725, 0.5875, 1.37, 0.685, 0, 0.7825, 0.0975, 0.88, 0.195, 0.98, 0.2925, 1.0775, 0.39, 1.175, 0.49, 1.2725, 0.5875, 1.37, 0.685],
  "SoftwareVersions": "syngo_MR_E11",
  "SpacingBetweenSlices": 2,
  "StationName": "MRC35049",
  "TaskName": "things",
  "TotalReadoutTime": 0.0576811,
  "TxRefAmp": 249.489,
  "WipMemBlock": "690a47df-53a5-43a0-910c-8c771020762f||Sequence: R016 ve11c/master r/e634e98; Dec 19 2017 11:00:25 by eja",
  "dcmmeta_affine": [
    [-1.9990859031677246, 0.008722823113203049, 0.0598272979259491, 105.36073303222656],
    [-0.02195485681295395, 1.7392463684082031, -0.987187922000885, -51.32891082763672],
    [0.05633273720741272, 0.9873934984207153, 1.7383557558059692, -94.30843353271484],
    [0.0, 0.0, 0.0, 1.0]
],
  "dcmmeta_reorient_transform": [
    [0.0, -1.0, 0.0, 103.0],
    [1.0, 0.0, 0.0, 0.0],
    [0.0, 0.0, 1.0, 0.0],
    [0.0, 0.0, 0.0, 1.0]
],
  "dcmmeta_shape": [104, 104, 60, 190],
  "dcmmeta_slice_dim": 2,
  "dcmmeta_version": 0.6,
  "global": {
    "const": {
      "AcquisitionMatrix": [104, 0, 0, 104],
      "AngioFlag": "N",
      "BitsAllocated": 16,
      "BitsStored": 16,
      "BodyPartExamined": "BRAIN",
      "Columns": 832,
      "EchoNumbers": 1,
      "EchoTime": 37.0,
      "EchoTrainLength": 104,
      "FlipAngle": 52.0,
      "HighBit": 15,
      "ImageOrientationPatient": [0.99954297143056, 0.01097742822562, 0.02816636883434, 0.00436141163012, 0.86962319644359, -0.4936967432502],
      "ImagePositionPatient": [-837.10157358999, -768.8907225324, 346.29921111969],
      "ImageType": [
        "ORIGINAL",
        "PRIMARY",
        "M",
        "MB",
        "ND",
        "MOSAIC"
],
      "ImagedNucleus": "1H",
      "ImagingFrequency": 123.258892,
      "InPlanePhaseEncodingDirection": "COL",
      "MRAcquisitionType": "2D",
      "MagneticFieldStrength": 3.0,
      "Manufacturer": "SIEMENS",
      "ManufacturerModelName": "Prisma_fit",
      "Modality": "MR",
      "NumberOfAverages": 1.0,
      "NumberOfPhaseEncodingSteps": 104,
      "PercentPhaseFieldOfView": 100.0,
      "PercentSampling": 100.0,
      "PerformedProcedureStepStartTime": "104706.719000",
      "PhotometricInterpretation": "MONOCHROME2",
      "PixelBandwidth": 2290.0,
      "PixelRepresentation": 0,
      "PixelSpacing": [2.0, 2.0],
      "ProtocolName": "func_task-things_run-5",
      "RepetitionTime": 1490.0,
      "Rows": 832,
      "SAR": 0.03889219930789,
      "SamplesPerPixel": 1,
      "ScanOptions": "FS",
      "ScanningSequence": "EP",
      "SequenceName": "epfid2d1_104",
      "SequenceVariant": [
        "SK",
        "SS"
],
      "SeriesDescription": "func_task-things_run-5",
      "SeriesNumber": 22,
      "SeriesTime": "111637.429000",
      "SliceLocation": -53.483437530649,
      "SliceThickness": 2.0,
      "SmallestImagePixelValue": 0,
      "SoftwareVersions": "syngo MR E11",
      "SpacingBetweenSlices": 2.0000000287868,
      "SpecificCharacterSet": "ISO_IR 100",
      "StudyID": "1",
      "StudyTime": "104706.638000",
      "TransmitCoilName": "Body",
      "VariableFlipAngleFlag": "N",
      "WindowCenterWidthExplanation": "Algo1",
      "dBdt": 0.0},
    "slices": {}
  },
  "time": {
    "samples": {
      "AcquisitionNumber": [1, 2, 3, 4, 5, 6, 7, 8, 9, 10, 11, 12, 13, 14, 15, 16, 17, 18, 19, 20, 21, 22, 23, 24, 25, 26, 27, 28, 29, 30, 31, 32, 33, 34, 35, 36, 37, 38, 39, 40, 41, 42, 43, 44, 45, 46, 47, 48, 49, 50, 51, 52, 53, 54, 55, 56, 57, 58, 59, 60, 61, 62, 63, 64, 65, 66, 67, 68, 69, 70, 71, 72, 73, 74, 75, 76, 77, 78, 79, 80, 81, 82, 83, 84, 85, 86, 87, 88, 89, 90, 91, 92, 93, 94, 95, 96, 97, 98, 99, 100, 101, 102, 103, 104, 105, 106, 107, 108, 109, 110, 111, 112, 113, 114, 115, 116, 117, 118, 119, 120, 121, 122, 123, 124, 125, 126, 127, 128, 129, 130, 131, 132, 133, 134, 135, 136, 137, 138, 139, 140, 141, 142, 143, 144, 145, 146, 147, 148, 149, 150, 151, 152, 153, 154, 155, 156, 157, 158, 159, 160, 161, 162, 163, 164, 165, 166, 167, 168, 169, 170, 171, 172, 173, 174, 175, 176, 177, 178, 179, 180, 181, 182, 183, 184, 185, 186, 187, 188, 189, 190],
      "AcquisitionTime": ["111500.255000", "111501.745000", "111503.235000", "111504.725000", "111506.215000", "111507.705000", "111509.195000", "111510.685000", "111512.175000", "111513.665000", "111515.155000", "111516.645000", "111518.135000", "111519.625000", "111521.115000", "111522.605000", "111524.095000", "111525.585000", "111527.075000", "111528.565000", "111530.055000", "111531.545000", "111533.035000", "111534.525000", "111536.015000", "111537.505000", "111538.995000", "111540.485000", "111541.975000", "111543.465000", "111544.955000", "111546.445000", "111547.935000", "111549.425000", "111550.915000", "111552.405000", "111553.895000", "111555.385000", "111556.875000", "111558.365000", "111559.855000", "111601.345000", "111602.835000", "111604.325000", "111605.815000", "111607.305000", "111608.795000", "111610.285000", "111611.775000", "111613.265000", "111614.755000", "111616.245000", "111617.735000", "111619.225000", "111620.715000", "111622.205000", "111623.695000", "111625.185000", "111626.675000", "111628.165000", "111629.655000", "111631.145000", "111632.635000", "111634.125000", "111635.615000", "111637.105000", "111638.595000", "111640.085000", "111641.575000", "111643.065000", "111644.555000", "111646.045000", "111647.535000", "111649.025000", "111650.515000", "111652.005000", "111653.495000", "111654.985000", "111656.475000", "111657.965000", "111659.455000", "111700.945000", "111702.435000", "111703.925000", "111705.415000", "111706.905000", "111708.395000", "111709.885000", "111711.375000", "111712.865000", "111714.355000", "111715.845000", "111717.335000", "111718.825000", "111720.315000", "111721.805000", "111723.295000", "111724.785000", "111726.275000", "111727.765000", "111729.255000", "111730.745000", "111732.235000", "111733.725000", "111735.215000", "111736.705000", "111738.195000", "111739.685000", "111741.175000", "111742.665000", "111744.155000", "111745.645000", "111747.135000", "111748.625000", "111750.115000", "111751.605000", "111753.095000", "111754.585000", "111756.075000", "111757.565000", "111759.055000", "111800.545000", "111802.035000", "111803.525000", "111805.015000", "111806.505000", "111807.995000", "111809.485000", "111810.975000", "111812.465000", "111813.955000", "111815.445000", "111816.935000", "111818.425000", "111819.915000", "111821.405000", "111822.895000", "111824.385000", "111825.875000", "111827.365000", "111828.855000", "111830.345000", "111831.835000", "111833.325000", "111834.815000", "111836.305000", "111837.795000", "111839.285000", "111840.775000", "111842.265000", "111843.755000", "111845.245000", "111846.735000", "111848.225000", "111849.715000", "111851.205000", "111852.695000", "111854.185000", "111855.675000", "111857.165000", "111858.655000", "111900.145000", "111901.635000", "111903.125000", "111904.615000", "111906.105000", "111907.595000", "111909.085000", "111910.575000", "111912.065000", "111913.555000", "111915.045000", "111916.535000", "111918.025000", "111919.515000", "111921.005000", "111922.495000", "111923.985000", "111925.475000", "111926.965000", "111928.455000", "111929.945000", "111931.435000", "111932.925000", "111934.415000", "111935.905000", "111937.395000", "111938.885000", "111940.375000", "111941.865000"],
      "ContentTime": ["111637.433000", "111637.437000", "111637.440000", "111637.443000", "111637.446000", "111637.450000", "111637.453000", "111637.456000", "111637.460000", "111637.463000", "111637.466000", "111637.470000", "111637.473000", "111637.490000", "111637.493000", "111637.496000", "111637.500000", "111637.509000", "111637.512000", "111637.515000", "111637.518000", "111637.522000", "111637.525000", "111637.529000", "111637.532000", "111637.535000", "111637.539000", "111637.542000", "111637.545000", "111637.549000", "111637.552000", "111637.555000", "111637.558000", "111637.562000", "111637.565000", "111637.568000", "111637.572000", "111637.575000", "111637.578000", "111637.581000", "111657.395000", "111657.399000", "111657.402000", "111657.405000", "111657.409000", "111657.412000", "111657.415000", "111657.419000", "111657.422000", "111657.425000", "111657.428000", "111657.432000", "111657.435000", "111657.438000", "111657.441000", "111657.445000", "111657.448000", "111657.451000", "111657.455000", "111657.458000", "111717.395000", "111717.399000", "111717.402000", "111717.405000", "111717.409000", "111717.412000", "111717.415000", "111717.419000", "111717.422000", "111717.425000", "111717.428000", "111717.432000", "111717.435000", "111717.438000", "111717.442000", "111717.446000", "111717.449000", "111717.453000", "111717.456000", "111717.459000", "111737.396000", "111737.400000", "111737.403000", "111737.406000", "111737.410000", "111737.413000", "111737.416000", "111737.420000", "111737.423000", "111737.426000", "111737.429000", "111737.433000", "111737.436000", "111737.439000", "111737.443000", "111737.446000", "111737.449000", "111737.453000", "111737.456000", "111737.459000", "111737.463000", "111817.395000", "111817.399000", "111817.402000", "111817.405000", "111817.409000", "111817.412000", "111817.416000", "111817.419000", "111817.422000", "111817.429000", "111817.432000", "111817.435000", "111817.438000", "111817.442000", "111817.445000", "111817.448000", "111817.452000", "111817.468000", "111817.471000", "111817.475000", "111817.478000", "111817.481000", "111817.485000", "111817.488000", "111817.493000", "111817.497000", "111817.500000", "111817.503000", "111817.506000", "111817.510000", "111857.395000", "111857.399000", "111857.402000", "111857.405000", "111857.409000", "111857.412000", "111857.416000", "111857.419000", "111857.422000", "111857.426000", "111857.429000", "111857.432000", "111857.436000", "111857.439000", "111857.442000", "111857.446000", "111857.449000", "111857.452000", "111857.455000", "111857.459000", "111857.462000", "111857.466000", "111857.469000", "111857.472000", "111857.475000", "111857.479000", "111857.482000", "111937.395000", "111937.399000", "111937.402000", "111937.405000", "111937.409000", "111937.412000", "111937.415000", "111937.419000", "111937.422000", "111937.425000", "111937.429000", "111937.432000", "111937.436000", "111937.439000", "111937.442000", "111937.446000", "111937.449000", "111937.452000", "111937.455000", "111937.459000", "111937.462000", "111937.465000", "111937.469000", "111937.472000", "111937.475000", "111937.479000", "111937.482000", "111944.101000", "111944.105000", "111944.109000", "111944.112000", "111944.116000"],
      "InstanceCreationTime": ["111637.433000", "111637.437000", "111637.440000", "111637.443000", "111637.446000", "111637.450000", "111637.453000", "111637.456000", "111637.460000", "111637.463000", "111637.466000", "111637.470000", "111637.473000", "111637.490000", "111637.493000", "111637.496000", "111637.500000", "111637.509000", "111637.512000", "111637.515000", "111637.518000", "111637.522000", "111637.525000", "111637.529000", "111637.532000", "111637.535000", "111637.539000", "111637.542000", "111637.545000", "111637.549000", "111637.552000", "111637.555000", "111637.558000", "111637.562000", "111637.565000", "111637.568000", "111637.572000", "111637.575000", "111637.578000", "111637.581000", "111657.395000", "111657.399000", "111657.402000", "111657.405000", "111657.409000", "111657.412000", "111657.415000", "111657.419000", "111657.422000", "111657.425000", "111657.428000", "111657.432000", "111657.435000", "111657.438000", "111657.441000", "111657.445000", "111657.448000", "111657.451000", "111657.455000", "111657.458000", "111717.395000", "111717.399000", "111717.402000", "111717.405000", "111717.409000", "111717.412000", "111717.415000", "111717.419000", "111717.422000", "111717.425000", "111717.428000", "111717.432000", "111717.435000", "111717.438000", "111717.442000", "111717.446000", "111717.449000", "111717.453000", "111717.456000", "111717.459000", "111737.396000", "111737.400000", "111737.403000", "111737.406000", "111737.410000", "111737.413000", "111737.416000", "111737.420000", "111737.423000", "111737.426000", "111737.429000", "111737.433000", "111737.436000", "111737.439000", "111737.443000", "111737.446000", "111737.449000", "111737.453000", "111737.456000", "111737.459000", "111737.463000", "111817.395000", "111817.399000", "111817.402000", "111817.405000", "111817.409000", "111817.412000", "111817.416000", "111817.419000", "111817.422000", "111817.429000", "111817.432000", "111817.435000", "111817.438000", "111817.442000", "111817.445000", "111817.448000", "111817.452000", "111817.468000", "111817.471000", "111817.475000", "111817.478000", "111817.481000", "111817.485000", "111817.488000", "111817.493000", "111817.497000", "111817.500000", "111817.503000", "111817.506000", "111817.510000", "111857.395000", "111857.399000", "111857.402000", "111857.405000", "111857.409000", "111857.412000", "111857.416000", "111857.419000", "111857.422000", "111857.426000", "111857.429000", "111857.432000", "111857.436000", "111857.439000", "111857.442000", "111857.446000", "111857.449000", "111857.452000", "111857.455000", "111857.459000", "111857.462000", "111857.466000", "111857.469000", "111857.472000", "111857.475000", "111857.479000", "111857.482000", "111937.395000", "111937.399000", "111937.402000", "111937.405000", "111937.409000", "111937.412000", "111937.415000", "111937.419000", "111937.422000", "111937.425000", "111937.429000", "111937.432000", "111937.436000", "111937.439000", "111937.442000", "111937.446000", "111937.449000", "111937.452000", "111937.455000", "111937.459000", "111937.462000", "111937.465000", "111937.469000", "111937.472000", "111937.475000", "111937.479000", "111937.482000", "111944.101000", "111944.105000", "111944.109000", "111944.112000", "111944.116000"],
      "InstanceNumber": [1, 2, 3, 4, 5, 6, 7, 8, 9, 10, 11, 12, 13, 14, 15, 16, 17, 18, 19, 20, 21, 22, 23, 24, 25, 26, 27, 28, 29, 30, 31, 32, 33, 34, 35, 36, 37, 38, 39, 40, 41, 42, 43, 44, 45, 46, 47, 48, 49, 50, 51, 52, 53, 54, 55, 56, 57, 58, 59, 60, 61, 62, 63, 64, 65, 66, 67, 68, 69, 70, 71, 72, 73, 74, 75, 76, 77, 78, 79, 80, 81, 82, 83, 84, 85, 86, 87, 88, 89, 90, 91, 92, 93, 94, 95, 96, 97, 98, 99, 100, 101, 102, 103, 104, 105, 106, 107, 108, 109, 110, 111, 112, 113, 114, 115, 116, 117, 118, 119, 120, 121, 122, 123, 124, 125, 126, 127, 128, 129, 130, 131, 132, 133, 134, 135, 136, 137, 138, 139, 140, 141, 142, 143, 144, 145, 146, 147, 148, 149, 150, 151, 152, 153, 154, 155, 156, 157, 158, 159, 160, 161, 162, 163, 164, 165, 166, 167, 168, 169, 170, 171, 172, 173, 174, 175, 176, 177, 178, 179, 180, 181, 182, 183, 184, 185, 186, 187, 188, 189, 190],
      "LargestImagePixelValue": [49875, 48914, 48185, 47416, 47233, 45081, 43221, 44970, 47315, 48171, 47997, 47542, 46710, 45048, 44249, 44781, 42382, 45028, 47272, 46343, 46859, 46669, 46487, 45905, 44407, 44847, 44859, 44663, 44951, 44060, 44766, 47071, 46992, 47194, 47590, 46403, 44305, 44268, 44610, 43886, 44932, 46281, 46138, 45848, 44246, 44612, 45741, 46830, 46427, 45763, 44719, 44876, 43920, 43228, 45999, 46523, 46958, 46727, 46737, 46025, 46123, 44688, 43635, 45442, 46632, 47270, 46927, 46349, 45673, 44055, 45353, 47552, 47170, 47179, 46637, 46767, 45406, 43729, 42911, 46497, 46827, 46895, 47072, 46332, 46079, 46321, 45920, 46171, 44358, 44766, 46469, 47253, 47025, 46376, 45806, 44535, 44543, 47267, 47181, 46812, 47089, 46333, 45765, 45017, 45676, 46574, 46366, 46460, 45584, 44746, 45068, 46300, 46376, 46055, 46741, 46037, 45011, 44715, 45313, 45155, 45343, 45810, 46237, 47046, 47079, 47497, 46905, 44671, 44470, 46006, 46139, 46508, 46610, 45818, 45901, 45774, 46864, 47190, 46676, 47817, 46350, 45700, 45192, 44429, 45771, 46821, 46469, 46375, 47370, 46525, 46963, 47300, 45088, 46737, 46447, 46532, 46358, 46009, 46619, 46279, 46455, 45626, 47005, 46950, 47281, 47746, 46785, 46176, 46352, 45872, 45164, 47084, 46927, 47829, 47644, 47382, 46681, 46445, 45881, 44860, 45014, 46587, 47644, 46973, 47426, 47536, 46515, 46556, 46064, 46544],
      "WindowCenter": [11150.0, 11113.0, 11079.0, 11029.0, 10995.0, 10949.0, 10909.0, 10944.0, 10991.0, 11014.0, 10995.0, 10977.0, 10976.0, 10963.0, 10967.0, 10978.0, 10937.0, 10948.0, 10954.0, 10925.0, 10917.0, 10937.0, 10968.0, 10985.0, 10967.0, 10952.0, 10946.0, 10944.0, 10939.0, 10936.0, 10955.0, 10998.0, 10990.0, 10986.0, 10945.0, 10913.0, 10927.0, 10989.0, 11023.0, 11019.0, 11003.0, 10988.0, 10960.0, 10952.0, 10934.0, 10936.0, 10937.0, 10928.0, 10928.0, 10948.0, 10975.0, 11005.0, 10987.0, 10957.0, 10958.0, 10920.0, 10931.0, 10945.0, 10971.0, 10973.0, 10979.0, 10959.0, 10943.0, 10963.0, 10973.0, 10956.0, 10921.0, 10920.0, 10968.0, 11007.0, 11036.0, 11056.0, 11020.0, 10965.0, 10921.0, 10916.0, 10939.0, 10971.0, 10984.0, 11007.0, 10976.0, 10911.0, 10880.0, 10902.0, 10963.0, 10988.0, 10967.0, 10957.0, 10922.0, 10922.0, 10938.0, 10929.0, 10899.0, 10917.0, 10967.0, 10999.0, 11005.0, 11023.0, 10991.0, 10975.0, 10938.0, 10911.0, 10918.0, 10952.0, 10998.0, 10999.0, 10965.0, 10945.0, 10920.0, 10905.0, 10904.0, 10919.0, 10931.0, 10925.0, 10931.0, 10945.0, 10975.0, 10991.0, 10978.0, 10959.0, 10953.0, 10942.0, 10945.0, 10962.0, 10949.0, 10917.0, 10911.0, 10927.0, 10979.0, 11022.0, 11000.0, 10960.0, 10946.0, 10947.0, 10961.0, 10976.0, 10998.0, 10973.0, 10937.0, 10908.0, 10878.0, 10911.0, 10948.0, 10969.0, 10977.0, 10977.0, 10959.0, 10944.0, 10949.0, 10925.0, 10930.0, 10949.0, 10966.0, 11018.0, 11009.0, 10966.0, 10930.0, 10959.0, 11014.0, 11048.0, 11037.0, 11003.0, 10973.0, 10933.0, 10889.0, 10905.0, 10939.0, 10965.0, 10987.0, 10990.0, 10957.0, 10957.0, 10949.0, 10947.0, 10963.0, 10993.0, 11007.0, 11010.0, 10977.0, 10941.0, 10937.0, 10961.0, 10964.0, 10929.0, 10916.0, 10927.0, 10957.0, 10972.0, 10952.0, 10929.0],
      "WindowWidth": [24090.0, 23953.0, 23855.0, 23730.0, 23641.0, 23539.0, 23459.0, 23523.0, 23622.0, 23676.0, 23634.0, 23588.0, 23597.0, 23571.0, 23581.0, 23604.0, 23518.0, 23527.0, 23534.0, 23478.0, 23456.0, 23499.0, 23571.0, 23611.0, 23579.0, 23535.0, 23521.0, 23515.0, 23506.0, 23504.0, 23554.0, 23643.0, 23623.0, 23622.0, 23522.0, 23448.0, 23486.0, 23628.0, 23707.0, 23700.0, 23657.0, 23609.0, 23546.0, 23533.0, 23503.0, 23503.0, 23506.0, 23481.0, 23490.0, 23528.0, 23591.0, 23670.0, 23628.0, 23558.0, 23547.0, 23459.0, 23481.0, 23516.0, 23579.0, 23584.0, 23600.0, 23560.0, 23529.0, 23563.0, 23584.0, 23543.0, 23465.0, 23465.0, 23574.0, 23669.0, 23732.0, 23771.0, 23703.0, 23574.0, 23465.0, 23454.0, 23503.0, 23593.0, 23626.0, 23661.0, 23593.0, 23445.0, 23372.0, 23417.0, 23562.0, 23616.0, 23572.0, 23549.0, 23477.0, 23473.0, 23506.0, 23485.0, 23417.0, 23454.0, 23573.0, 23653.0, 23667.0, 23705.0, 23623.0, 23589.0, 23504.0, 23442.0, 23457.0, 23537.0, 23640.0, 23642.0, 23562.0, 23511.0, 23470.0, 23440.0, 23432.0, 23463.0, 23490.0, 23479.0, 23488.0, 23519.0, 23589.0, 23633.0, 23598.0, 23550.0, 23546.0, 23513.0, 23515.0, 23565.0, 23528.0, 23457.0, 23444.0, 23482.0, 23601.0, 23700.0, 23652.0, 23556.0, 23522.0, 23533.0, 23558.0, 23590.0, 23640.0, 23581.0, 23500.0, 23430.0, 23362.0, 23444.0, 23532.0, 23581.0, 23592.0, 23586.0, 23544.0, 23514.0, 23524.0, 23472.0, 23485.0, 23521.0, 23569.0, 23681.0, 23669.0, 23569.0, 23492.0, 23553.0, 23674.0, 23759.0, 23737.0, 23654.0, 23586.0, 23489.0, 23391.0, 23421.0, 23503.0, 23564.0, 23617.0, 23632.0, 23554.0, 23546.0, 23531.0, 23515.0, 23558.0, 23631.0, 23659.0, 23670.0, 23589.0, 23505.0, 23503.0, 23551.0, 23552.0, 23477.0, 23464.0, 23477.0, 23548.0, 23586.0, 23538.0, 23478.0]
    },
    "slices": {}
  }
}