{
  "AcquisitionMatrixPE": 104,
  "AcquisitionNumber": 1,
  "AcquisitionTime": "11:21:4.262500",
  "BandwidthPerPixelPhaseEncode": 17.17,
  "BaseResolution": 104,
  "BodyPartExamined": "BRAIN",
  "CoilString": "HC1-7;NC1_2",
  "ConsistencyInfo": "N4_VE11C_LATEST_20160120",
  "ConversionSoftware": "dcm2niix",
  "ConversionSoftwareVersion": "v1.0.20190902",
  "DerivedVendorReportedEchoSpacing": 0.000560011,
  "DeviceSerialNumber": "167006",
  "DwellTime": 2.1e-06,
  "EchoTime": 0.037,
  "EchoTrainLength": 104,
  "EffectiveEchoSpacing": 0.000560011,
  "FlipAngle": 52,
  "HeudiconvVersion": "0.10.0",
  "ImageComments": "Unaliased_MB4_PE3_LB",
  "ImageOrientationPatientDICOM": [0.999543, 0.0109774, 0.0281664, 0.00436141, 0.869623, -0.493697],
  "ImageType": [
    "ORIGINAL",
    "PRIMARY",
    "M",
    "MB",
    "ND",
    "MOSAIC"
],
  "ImagingFrequency": 123.259,
  "InPlanePhaseEncodingDirectionDICOM": "COL",
  "InstitutionAddress": "Chemin_Queen-Mary_4565_Montreal_District_CA_H3W_1W5",
  "InstitutionName": "IUGM",
  "InstitutionalDepartmentName": "Department",
  "MRAcquisitionType": "2D",
  "MagneticFieldStrength": 3,
  "Manufacturer": "Siemens",
  "ManufacturersModelName": "Prisma_fit",
  "Modality": "MR",
  "MultibandAccelerationFactor": 4,
  "PartialFourier": 1,
  "PatientPosition": "HFS",
  "PercentPhaseFOV": 100,
  "PhaseEncodingDirection": "j",
  "PhaseEncodingSteps": 104,
  "PhaseResolution": 1,
  "PixelBandwidth": 2290,
  "ProcedureStepDescription": "memory_things",
  "ProtocolName": "func_task-things_run-6",
  "PulseSequenceDetails": "%CustomerSeq%_cmrr_mbep2d_bold",
  "ReceiveCoilActiveElements": "HC1-7;NC1,2",
  "ReceiveCoilName": "HeadNeck_64",
  "ReconMatrixPE": 104,
  "RepetitionTime": 1.49,
  "SAR": 0.0388922,
  "ScanOptions": "FS",
  "ScanningSequence": "EP",
  "SequenceName": "epfid2d1_104",
  "SequenceVariant": "SK_SS",
  "SeriesDescription": "func_task-things_run-6",
  "SeriesNumber": 25,
  "ShimSetting": [623, -7187, -8865, 297, -1, -136, -29, 6],
  "SliceThickness": 2,
  "SliceTiming": [0, 0.785, 0.0975, 0.8825, 0.1975, 0.98, 0.295, 1.0775, 0.3925, 1.175, 0.49, 1.275, 0.5875, 1.3725, 0.685, 0, 0.785, 0.0975, 0.8825, 0.1975, 0.98, 0.295, 1.0775, 0.3925, 1.175, 0.49, 1.275, 0.5875, 1.3725, 0.685, 0, 0.785, 0.0975, 0.8825, 0.1975, 0.98, 0.295, 1.0775, 0.3925, 1.175, 0.49, 1.275, 0.5875, 1.3725, 0.685, 0, 0.785, 0.0975, 0.8825, 0.1975, 0.98, 0.295, 1.0775, 0.3925, 1.175, 0.49, 1.275, 0.5875, 1.3725, 0.685],
  "SoftwareVersions": "syngo_MR_E11",
  "SpacingBetweenSlices": 2,
  "StationName": "MRC35049",
  "TaskName": "things",
  "TotalReadoutTime": 0.0576811,
  "TxRefAmp": 249.489,
  "WipMemBlock": "67a30303-a26a-4dce-841d-8a875e0b377c||Sequence: R016 ve11c/master r/e634e98; Dec 19 2017 11:00:25 by eja",
  "dcmmeta_affine": [
    [-1.9990859031677246, 0.008722823113203049, 0.0598272979259491, 105.36073303222656],
    [-0.02195485681295395, 1.7392463684082031, -0.987187922000885, -51.32891082763672],
    [0.05633273720741272, 0.9873934984207153, 1.7383557558059692, -94.30843353271484],
    [0.0, 0.0, 0.0, 1.0]
],
  "dcmmeta_reorient_transform": [
    [0.0, -1.0, 0.0, 103.0],
    [1.0, 0.0, 0.0, 0.0],
    [0.0, 0.0, 1.0, 0.0],
    [0.0, 0.0, 0.0, 1.0]
],
  "dcmmeta_shape": [104, 104, 60, 190],
  "dcmmeta_slice_dim": 2,
  "dcmmeta_version": 0.6,
  "global": {
    "const": {
      "AcquisitionMatrix": [104, 0, 0, 104],
      "AngioFlag": "N",
      "BitsAllocated": 16,
      "BitsStored": 16,
      "BodyPartExamined": "BRAIN",
      "Columns": 832,
      "EchoNumbers": 1,
      "EchoTime": 37.0,
      "EchoTrainLength": 104,
      "FlipAngle": 52.0,
      "HighBit": 15,
      "ImageOrientationPatient": [0.99954297143056, 0.01097742822562, 0.02816636883434, 0.00436141163012, 0.86962319644359, -0.4936967432502],
      "ImagePositionPatient": [-837.10157358999, -768.8907225324, 346.29921111969],
      "ImageType": [
        "ORIGINAL",
        "PRIMARY",
        "M",
        "MB",
        "ND",
        "MOSAIC"
],
      "ImagedNucleus": "1H",
      "ImagingFrequency": 123.258894,
      "InPlanePhaseEncodingDirection": "COL",
      "MRAcquisitionType": "2D",
      "MagneticFieldStrength": 3.0,
      "Manufacturer": "SIEMENS",
      "ManufacturerModelName": "Prisma_fit",
      "Modality": "MR",
      "NumberOfAverages": 1.0,
      "NumberOfPhaseEncodingSteps": 104,
      "PercentPhaseFieldOfView": 100.0,
      "PercentSampling": 100.0,
      "PerformedProcedureStepStartTime": "104706.719000",
      "PhotometricInterpretation": "MONOCHROME2",
      "PixelBandwidth": 2290.0,
      "PixelRepresentation": 0,
      "PixelSpacing": [2.0, 2.0],
      "ProtocolName": "func_task-things_run-6",
      "RepetitionTime": 1490.0,
      "Rows": 832,
      "SAR": 0.03889219930789,
      "SamplesPerPixel": 1,
      "ScanOptions": "FS",
      "ScanningSequence": "EP",
      "SequenceName": "epfid2d1_104",
      "SequenceVariant": [
        "SK",
        "SS"
],
      "SeriesDescription": "func_task-things_run-6",
      "SeriesNumber": 25,
      "SeriesTime": "112217.496000",
      "SliceLocation": -53.483437530649,
      "SliceThickness": 2.0,
      "SmallestImagePixelValue": 0,
      "SoftwareVersions": "syngo MR E11",
      "SpacingBetweenSlices": 2.0000000287868,
      "SpecificCharacterSet": "ISO_IR 100",
      "StudyID": "1",
      "StudyTime": "104706.638000",
      "TransmitCoilName": "Body",
      "VariableFlipAngleFlag": "N",
      "WindowCenterWidthExplanation": "Algo1",
      "dBdt": 0.0},
    "slices": {}
  },
  "time": {
    "samples": {
      "AcquisitionNumber": [1, 2, 3, 4, 5, 6, 7, 8, 9, 10, 11, 12, 13, 14, 15, 16, 17, 18, 19, 20, 21, 22, 23, 24, 25, 26, 27, 28, 29, 30, 31, 32, 33, 34, 35, 36, 37, 38, 39, 40, 41, 42, 43, 44, 45, 46, 47, 48, 49, 50, 51, 52, 53, 54, 55, 56, 57, 58, 59, 60, 61, 62, 63, 64, 65, 66, 67, 68, 69, 70, 71, 72, 73, 74, 75, 76, 77, 78, 79, 80, 81, 82, 83, 84, 85, 86, 87, 88, 89, 90, 91, 92, 93, 94, 95, 96, 97, 98, 99, 100, 101, 102, 103, 104, 105, 106, 107, 108, 109, 110, 111, 112, 113, 114, 115, 116, 117, 118, 119, 120, 121, 122, 123, 124, 125, 126, 127, 128, 129, 130, 131, 132, 133, 134, 135, 136, 137, 138, 139, 140, 141, 142, 143, 144, 145, 146, 147, 148, 149, 150, 151, 152, 153, 154, 155, 156, 157, 158, 159, 160, 161, 162, 163, 164, 165, 166, 167, 168, 169, 170, 171, 172, 173, 174, 175, 176, 177, 178, 179, 180, 181, 182, 183, 184, 185, 186, 187, 188, 189, 190],
      "AcquisitionTime": ["112104.262500", "112105.752500", "112107.242500", "112108.732500", "112110.222500", "112111.712500", "112113.202500", "112114.692500", "112116.182500", "112117.672500", "112119.162500", "112120.652500", "112122.142500", "112123.632500", "112125.122500", "112126.612500", "112128.102500", "112129.592500", "112131.082500", "112132.572500", "112134.062500", "112135.552500", "112137.042500", "112138.532500", "112140.022500", "112141.512500", "112143.002500", "112144.492500", "112145.982500", "112147.472500", "112148.962500", "112150.452500", "112151.942500", "112153.432500", "112154.922500", "112156.412500", "112157.902500", "112159.392500", "112200.882500", "112202.372500", "112203.862500", "112205.352500", "112206.842500", "112208.332500", "112209.822500", "112211.312500", "112212.802500", "112214.292500", "112215.782500", "112217.272500", "112218.762500", "112220.252500", "112221.742500", "112223.232500", "112224.722500", "112226.212500", "112227.702500", "112229.192500", "112230.682500", "112232.172500", "112233.662500", "112235.152500", "112236.642500", "112238.132500", "112239.622500", "112241.112500", "112242.602500", "112244.092500", "112245.582500", "112247.072500", "112248.562500", "112250.052500", "112251.542500", "112253.032500", "112254.522500", "112256.012500", "112257.502500", "112258.992500", "112300.482500", "112301.972500", "112303.462500", "112304.952500", "112306.442500", "112307.932500", "112309.422500", "112310.912500", "112312.402500", "112313.892500", "112315.382500", "112316.872500", "112318.362500", "112319.852500", "112321.342500", "112322.832500", "112324.322500", "112325.812500", "112327.302500", "112328.792500", "112330.282500", "112331.772500", "112333.262500", "112334.752500", "112336.242500", "112337.732500", "112339.222500", "112340.712500", "112342.202500", "112343.692500", "112345.182500", "112346.672500", "112348.162500", "112349.652500", "112351.142500", "112352.632500", "112354.122500", "112355.612500", "112357.102500", "112358.592500", "112400.082500", "112401.572500", "112403.062500", "112404.552500", "112406.042500", "112407.532500", "112409.022500", "112410.512500", "112412.002500", "112413.492500", "112414.982500", "112416.472500", "112417.962500", "112419.452500", "112420.942500", "112422.432500", "112423.922500", "112425.412500", "112426.902500", "112428.392500", "112429.882500", "112431.372500", "112432.862500", "112434.352500", "112435.842500", "112437.332500", "112438.822500", "112440.312500", "112441.802500", "112443.292500", "112444.782500", "112446.272500", "112447.762500", "112449.252500", "112450.742500", "112452.232500", "112453.722500", "112455.212500", "112456.702500", "112458.192500", "112459.682500", "112501.172500", "112502.662500", "112504.152500", "112505.642500", "112507.132500", "112508.622500", "112510.112500", "112511.602500", "112513.092500", "112514.582500", "112516.072500", "112517.562500", "112519.052500", "112520.542500", "112522.032500", "112523.522500", "112525.012500", "112526.502500", "112527.992500", "112529.482500", "112530.972500", "112532.462500", "112533.952500", "112535.442500", "112536.932500", "112538.422500", "112539.912500", "112541.402500", "112542.892500", "112544.382500", "112545.872500"],
      "ContentTime": ["112217.499000", "112217.503000", "112217.506000", "112217.510000", "112217.513000", "112217.516000", "112217.519000", "112217.523000", "112217.528000", "112217.532000", "112217.535000", "112217.538000", "112217.541000", "112217.545000", "112217.548000", "112217.551000", "112237.437000", "112237.441000", "112237.455000", "112237.458000", "112237.461000", "112237.465000", "112237.468000", "112237.471000", "112237.476000", "112237.480000", "112237.483000", "112237.486000", "112237.490000", "112237.493000", "112237.496000", "112237.499000", "112237.503000", "112237.506000", "112237.510000", "112237.513000", "112237.516000", "112257.437000", "112257.441000", "112257.444000", "112257.448000", "112257.451000", "112257.454000", "112257.457000", "112257.461000", "112257.464000", "112257.467000", "112257.471000", "112257.474000", "112257.477000", "112257.480000", "112257.484000", "112257.487000", "112257.490000", "112257.494000", "112257.497000", "112257.500000", "112317.437000", "112317.441000", "112317.444000", "112317.447000", "112317.451000", "112317.454000", "112317.457000", "112317.461000", "112317.464000", "112317.467000", "112317.471000", "112317.474000", "112317.477000", "112317.480000", "112317.484000", "112317.487000", "112317.490000", "112317.494000", "112317.497000", "112317.500000", "112337.437000", "112337.441000", "112337.444000", "112337.448000", "112337.451000", "112337.471000", "112337.474000", "112337.478000", "112337.481000", "112337.485000", "112337.488000", "112337.491000", "112337.495000", "112337.498000", "112337.501000", "112337.505000", "112337.508000", "112337.511000", "112337.515000", "112337.518000", "112337.521000", "112417.437000", "112417.441000", "112417.444000", "112417.448000", "112417.451000", "112417.454000", "112417.458000", "112417.461000", "112417.464000", "112417.468000", "112417.471000", "112417.474000", "112417.477000", "112417.481000", "112417.484000", "112417.487000", "112417.491000", "112417.495000", "112417.498000", "112417.501000", "112417.505000", "112417.509000", "112417.513000", "112417.517000", "112417.521000", "112417.524000", "112417.528000", "112417.532000", "112417.545000", "112417.549000", "112457.437000", "112457.441000", "112457.444000", "112457.448000", "112457.451000", "112457.454000", "112457.458000", "112457.461000", "112457.464000", "112457.468000", "112457.471000", "112457.474000", "112457.478000", "112457.481000", "112457.484000", "112457.488000", "112457.491000", "112457.494000", "112457.498000", "112457.501000", "112457.504000", "112457.508000", "112457.511000", "112457.514000", "112457.517000", "112457.521000", "112457.524000", "112537.437000", "112537.441000", "112537.451000", "112537.455000", "112537.458000", "112537.462000", "112537.465000", "112537.468000", "112537.472000", "112537.475000", "112537.478000", "112537.482000", "112537.485000", "112537.488000", "112537.491000", "112537.495000", "112537.498000", "112537.502000", "112537.505000", "112537.508000", "112537.511000", "112537.515000", "112537.518000", "112537.522000", "112537.525000", "112537.528000", "112537.531000", "112548.455000", "112548.459000", "112548.462000", "112548.466000", "112548.469000", "112548.472000", "112548.476000", "112548.479000"],
      "InstanceCreationTime": ["112217.499000", "112217.503000", "112217.506000", "112217.510000", "112217.513000", "112217.516000", "112217.519000", "112217.523000", "112217.528000", "112217.532000", "112217.535000", "112217.538000", "112217.541000", "112217.545000", "112217.548000", "112217.551000", "112237.437000", "112237.441000", "112237.455000", "112237.458000", "112237.461000", "112237.465000", "112237.468000", "112237.471000", "112237.476000", "112237.480000", "112237.483000", "112237.486000", "112237.490000", "112237.493000", "112237.496000", "112237.499000", "112237.503000", "112237.506000", "112237.510000", "112237.513000", "112237.516000", "112257.437000", "112257.441000", "112257.444000", "112257.448000", "112257.451000", "112257.454000", "112257.457000", "112257.461000", "112257.464000", "112257.467000", "112257.471000", "112257.474000", "112257.477000", "112257.480000", "112257.484000", "112257.487000", "112257.490000", "112257.494000", "112257.497000", "112257.500000", "112317.437000", "112317.441000", "112317.444000", "112317.447000", "112317.451000", "112317.454000", "112317.457000", "112317.461000", "112317.464000", "112317.467000", "112317.471000", "112317.474000", "112317.477000", "112317.480000", "112317.484000", "112317.487000", "112317.490000", "112317.494000", "112317.497000", "112317.500000", "112337.437000", "112337.441000", "112337.444000", "112337.448000", "112337.451000", "112337.471000", "112337.474000", "112337.478000", "112337.481000", "112337.485000", "112337.488000", "112337.491000", "112337.495000", "112337.498000", "112337.501000", "112337.505000", "112337.508000", "112337.511000", "112337.515000", "112337.518000", "112337.521000", "112417.437000", "112417.441000", "112417.444000", "112417.448000", "112417.451000", "112417.454000", "112417.458000", "112417.461000", "112417.464000", "112417.468000", "112417.471000", "112417.474000", "112417.477000", "112417.481000", "112417.484000", "112417.487000", "112417.491000", "112417.495000", "112417.498000", "112417.501000", "112417.505000", "112417.509000", "112417.513000", "112417.517000", "112417.521000", "112417.524000", "112417.528000", "112417.532000", "112417.545000", "112417.549000", "112457.437000", "112457.441000", "112457.444000", "112457.448000", "112457.451000", "112457.454000", "112457.458000", "112457.461000", "112457.464000", "112457.468000", "112457.471000", "112457.474000", "112457.478000", "112457.481000", "112457.484000", "112457.488000", "112457.491000", "112457.494000", "112457.498000", "112457.501000", "112457.504000", "112457.508000", "112457.511000", "112457.514000", "112457.517000", "112457.521000", "112457.524000", "112537.437000", "112537.441000", "112537.451000", "112537.455000", "112537.458000", "112537.462000", "112537.465000", "112537.468000", "112537.472000", "112537.475000", "112537.478000", "112537.482000", "112537.485000", "112537.488000", "112537.491000", "112537.495000", "112537.498000", "112537.502000", "112537.505000", "112537.508000", "112537.511000", "112537.515000", "112537.518000", "112537.522000", "112537.525000", "112537.528000", "112537.531000", "112548.455000", "112548.459000", "112548.462000", "112548.466000", "112548.469000", "112548.472000", "112548.476000", "112548.479000"],
      "InstanceNumber": [1, 2, 3, 4, 5, 6, 7, 8, 9, 10, 11, 12, 13, 14, 15, 16, 17, 18, 19, 20, 21, 22, 23, 24, 25, 26, 27, 28, 29, 30, 31, 32, 33, 34, 35, 36, 37, 38, 39, 40, 41, 42, 43, 44, 45, 46, 47, 48, 49, 50, 51, 52, 53, 54, 55, 56, 57, 58, 59, 60, 61, 62, 63, 64, 65, 66, 67, 68, 69, 70, 71, 72, 73, 74, 75, 76, 77, 78, 79, 80, 81, 82, 83, 84, 85, 86, 87, 88, 89, 90, 91, 92, 93, 94, 95, 96, 97, 98, 99, 100, 101, 102, 103, 104, 105, 106, 107, 108, 109, 110, 111, 112, 113, 114, 115, 116, 117, 118, 119, 120, 121, 122, 123, 124, 125, 126, 127, 128, 129, 130, 131, 132, 133, 134, 135, 136, 137, 138, 139, 140, 141, 142, 143, 144, 145, 146, 147, 148, 149, 150, 151, 152, 153, 154, 155, 156, 157, 158, 159, 160, 161, 162, 163, 164, 165, 166, 167, 168, 169, 170, 171, 172, 173, 174, 175, 176, 177, 178, 179, 180, 181, 182, 183, 184, 185, 186, 187, 188, 189, 190],
      "LargestImagePixelValue": [49429, 46437, 47016, 47246, 46455, 47307, 47352, 46386, 45706, 43991, 44515, 44253, 43983, 45487, 46854, 47553, 47495, 44935, 44740, 43891, 43302, 43712, 45001, 45036, 45705, 46285, 44574, 46348, 46897, 47478, 45680, 44314, 44622, 44851, 45683, 45540, 45467, 45684, 46576, 46775, 46994, 46561, 45791, 44816, 43277, 45588, 46515, 47169, 47218, 46122, 45171, 45795, 44467, 44673, 45320, 44720, 44569, 43640, 45576, 46664, 47430, 46844, 45101, 42775, 43573, 43289, 44293, 44938, 44406, 46515, 47469, 47315, 46962, 46141, 44548, 43585, 43709, 44027, 43409, 44247, 47364, 47155, 46504, 46439, 45297, 43695, 43816, 43572, 46457, 46329, 46395, 45676, 45964, 45522, 45089, 44267, 44461, 45855, 46752, 46357, 45462, 44281, 43749, 44750, 47801, 46575, 46699, 45383, 44307, 44125, 44925, 44909, 44653, 45128, 45172, 45060, 44321, 45253, 46435, 46357, 47431, 46278, 44221, 43763, 43229, 43830, 44850, 47102, 46691, 46170, 46448, 47162, 46102, 45458, 44358, 43480, 45615, 46341, 46443, 46618, 46096, 45779, 44856, 43929, 43509, 43977, 46175, 46830, 46531, 45352, 45052, 44523, 44252, 43577, 43393, 43670, 46145, 47047, 46861, 46611, 45834, 45401, 44218, 44084, 43649, 44060, 44011, 45905, 47078, 46317, 46149, 45979, 45755, 44442, 45294, 47020, 46606, 45940, 45456, 45735, 45842, 45571, 45266, 44861, 44307, 45875, 46857, 46160, 47331, 46360],
      "WindowCenter": [11040.0, 10950.0, 10926.0, 10971.0, 10969.0, 10973.0, 10958.0, 10933.0, 10931.0, 10919.0, 10927.0, 10912.0, 10897.0, 10924.0, 10933.0, 10930.0, 10915.0, 10888.0, 10946.0, 10981.0, 10979.0, 10969.0, 10945.0, 10926.0, 10909.0, 10911.0, 10920.0, 10955.0, 10938.0, 10898.0, 10866.0, 10899.0, 10965.0, 10990.0, 10968.0, 10956.0, 10953.0, 10966.0, 10973.0, 10952.0, 10921.0, 10920.0, 10936.0, 10945.0, 10956.0, 10999.0, 10988.0, 10954.0, 10919.0, 10903.0, 10921.0, 10954.0, 10940.0, 10933.0, 10933.0, 10913.0, 10907.0, 10904.0, 10957.0, 10964.0, 10937.0, 10883.0, 10870.0, 10899.0, 10956.0, 10960.0, 10956.0, 10929.0, 10912.0, 10927.0, 10927.0, 10896.0, 10907.0, 10925.0, 10932.0, 10944.0, 10932.0, 10922.0, 10913.0, 10922.0, 10948.0, 10910.0, 10873.0, 10884.0, 10916.0, 10932.0, 10940.0, 10928.0, 10917.0, 10889.0, 10885.0, 10907.0, 10915.0, 10925.0, 10919.0, 10902.0, 10898.0, 10916.0, 10917.0, 10898.0, 10886.0, 10906.0, 10968.0, 11059.0, 11067.0, 10980.0, 10939.0, 10911.0, 10937.0, 10953.0, 10961.0, 10943.0, 10911.0, 10888.0, 10892.0, 10892.0, 10894.0, 10944.0, 10972.0, 10959.0, 10931.0, 10880.0, 10883.0, 10935.0, 10965.0, 10959.0, 10929.0, 10903.0, 10916.0, 10938.0, 10946.0, 10965.0, 10949.0, 10933.0, 10918.0, 10892.0, 10917.0, 10931.0, 10943.0, 10946.0, 10952.0, 10983.0, 10980.0, 10973.0, 10953.0, 10945.0, 10939.0, 10905.0, 10879.0, 10889.0, 10931.0, 10953.0, 10954.0, 10927.0, 10906.0, 10895.0, 10927.0, 10930.0, 10906.0, 10891.0, 10904.0, 10945.0, 10963.0, 10959.0, 10939.0, 10927.0, 10909.0, 10912.0, 10912.0, 10897.0, 10935.0, 10974.0, 10988.0, 10972.0, 10967.0, 10941.0, 10903.0, 10924.0, 10951.0, 10978.0, 10972.0, 10948.0, 10925.0, 10916.0, 10919.0, 10944.0, 10962.0, 10921.0, 10862.0, 10863.0],
      "WindowWidth": [23803.0, 23574.0, 23492.0, 23582.0, 23580.0, 23580.0, 23540.0, 23488.0, 23484.0, 23461.0, 23477.0, 23441.0, 23408.0, 23466.0, 23482.0, 23474.0, 23448.0, 23383.0, 23515.0, 23600.0, 23601.0, 23571.0, 23508.0, 23467.0, 23429.0, 23430.0, 23455.0, 23536.0, 23493.0, 23405.0, 23335.0, 23414.0, 23560.0, 23623.0, 23568.0, 23536.0, 23526.0, 23565.0, 23573.0, 23538.0, 23443.0, 23447.0, 23487.0, 23516.0, 23544.0, 23642.0, 23613.0, 23533.0, 23448.0, 23411.0, 23456.0, 23528.0, 23503.0, 23484.0, 23478.0, 23438.0, 23424.0, 23424.0, 23539.0, 23554.0, 23492.0, 23367.0, 23336.0, 23409.0, 23539.0, 23555.0, 23547.0, 23475.0, 23434.0, 23465.0, 23465.0, 23393.0, 23423.0, 23459.0, 23479.0, 23514.0, 23489.0, 23459.0, 23445.0, 23466.0, 23504.0, 23435.0, 23337.0, 23361.0, 23445.0, 23486.0, 23503.0, 23478.0, 23440.0, 23373.0, 23362.0, 23425.0, 23435.0, 23465.0, 23453.0, 23420.0, 23404.0, 23448.0, 23441.0, 23401.0, 23378.0, 23426.0, 23571.0, 23785.0, 23796.0, 23600.0, 23507.0, 23437.0, 23502.0, 23539.0, 23552.0, 23506.0, 23443.0, 23380.0, 23391.0, 23395.0, 23398.0, 23512.0, 23574.0, 23548.0, 23476.0, 23364.0, 23376.0, 23491.0, 23565.0, 23552.0, 23481.0, 23401.0, 23432.0, 23496.0, 23511.0, 23551.0, 23517.0, 23495.0, 23453.0, 23399.0, 23449.0, 23479.0, 23509.0, 23517.0, 23528.0, 23593.0, 23597.0, 23580.0, 23538.0, 23514.0, 23494.0, 23421.0, 23361.0, 23380.0, 23484.0, 23538.0, 23541.0, 23483.0, 23429.0, 23404.0, 23467.0, 23474.0, 23418.0, 23384.0, 23416.0, 23507.0, 23554.0, 23545.0, 23500.0, 23475.0, 23434.0, 23435.0, 23444.0, 23395.0, 23486.0, 23585.0, 23618.0, 23580.0, 23567.0, 23514.0, 23414.0, 23463.0, 23528.0, 23590.0, 23572.0, 23520.0, 23464.0, 23444.0, 23451.0, 23506.0, 23541.0, 23456.0, 23314.0, 23325.0]
    },
    "slices": {}
  }
}