{
  "AcquisitionMatrixPE": 104,
  "AcquisitionNumber": 1,
  "AcquisitionTime": "11:02:44.787500",
  "BandwidthPerPixelPhaseEncode": 17.17,
  "BaseResolution": 104,
  "BodyPartExamined": "BRAIN",
  "CoilString": "HC1-7;NC1_2",
  "ConsistencyInfo": "N4_VE11C_LATEST_20160120",
  "ConversionSoftware": "dcm2niix",
  "ConversionSoftwareVersion": "v1.0.20190902",
  "DerivedVendorReportedEchoSpacing": 0.000560011,
  "DeviceSerialNumber": "167006",
  "DwellTime": 2.1e-06,
  "EchoTime": 0.037,
  "EchoTrainLength": 104,
  "EffectiveEchoSpacing": 0.000560011,
  "FlipAngle": 52,
  "HeudiconvVersion": "0.10.0",
  "ImageComments": "Unaliased_MB4_PE3_LB",
  "ImageOrientationPatientDICOM": [0.999543, 0.0109774, 0.0281664, 0.00436141, 0.869623, -0.493697],
  "ImageType": [
    "ORIGINAL",
    "PRIMARY",
    "M",
    "MB",
    "ND",
    "MOSAIC"
],
  "ImagingFrequency": 123.259,
  "InPlanePhaseEncodingDirectionDICOM": "COL",
  "InstitutionAddress": "Chemin_Queen-Mary_4565_Montreal_District_CA_H3W_1W5",
  "InstitutionName": "IUGM",
  "InstitutionalDepartmentName": "Department",
  "MRAcquisitionType": "2D",
  "MagneticFieldStrength": 3,
  "Manufacturer": "Siemens",
  "ManufacturersModelName": "Prisma_fit",
  "Modality": "MR",
  "MultibandAccelerationFactor": 4,
  "PartialFourier": 1,
  "PatientPosition": "HFS",
  "PercentPhaseFOV": 100,
  "PhaseEncodingDirection": "j",
  "PhaseEncodingSteps": 104,
  "PhaseResolution": 1,
  "PixelBandwidth": 2290,
  "ProcedureStepDescription": "memory_things",
  "ProtocolName": "func_task-things_run-3",
  "PulseSequenceDetails": "%CustomerSeq%_cmrr_mbep2d_bold",
  "ReceiveCoilActiveElements": "HC1-7;NC1,2",
  "ReceiveCoilName": "HeadNeck_64",
  "ReconMatrixPE": 104,
  "RepetitionTime": 1.49,
  "SAR": 0.0388922,
  "ScanOptions": "FS",
  "ScanningSequence": "EP",
  "SequenceName": "epfid2d1_104",
  "SequenceVariant": "SK_SS",
  "SeriesDescription": "func_task-things_run-3",
  "SeriesNumber": 16,
  "ShimSetting": [623, -7187, -8865, 297, -1, -136, -29, 6],
  "SliceThickness": 2,
  "SliceTiming": [0, 0.785, 0.1, 0.8825, 0.1975, 0.98, 0.295, 1.08, 0.3925, 1.1775, 0.49, 1.275, 0.59, 1.3725, 0.6875, 0, 0.785, 0.1, 0.8825, 0.1975, 0.98, 0.295, 1.08, 0.3925, 1.1775, 0.49, 1.275, 0.59, 1.3725, 0.6875, 0, 0.785, 0.1, 0.8825, 0.1975, 0.98, 0.295, 1.08, 0.3925, 1.1775, 0.49, 1.275, 0.59, 1.3725, 0.6875, 0, 0.785, 0.1, 0.8825, 0.1975, 0.98, 0.295, 1.08, 0.3925, 1.1775, 0.49, 1.275, 0.59, 1.3725, 0.6875],
  "SoftwareVersions": "syngo_MR_E11",
  "SpacingBetweenSlices": 2,
  "StationName": "MRC35049",
  "TaskName": "things",
  "TotalReadoutTime": 0.0576811,
  "TxRefAmp": 249.489,
  "WipMemBlock": "de52a77b-15c8-4523-8e49-94e407b7f16d||Sequence: R016 ve11c/master r/e634e98; Dec 19 2017 11:00:25 by eja",
  "dcmmeta_affine": [
    [-1.9990859031677246, 0.008722823113203049, 0.0598272979259491, 105.36073303222656],
    [-0.02195485681295395, 1.7392463684082031, -0.987187922000885, -51.32891082763672],
    [0.05633273720741272, 0.9873934984207153, 1.7383557558059692, -94.30843353271484],
    [0.0, 0.0, 0.0, 1.0]
],
  "dcmmeta_reorient_transform": [
    [0.0, -1.0, 0.0, 103.0],
    [1.0, 0.0, 0.0, 0.0],
    [0.0, 0.0, 1.0, 0.0],
    [0.0, 0.0, 0.0, 1.0]
],
  "dcmmeta_shape": [104, 104, 60, 190],
  "dcmmeta_slice_dim": 2,
  "dcmmeta_version": 0.6,
  "global": {
    "const": {
      "AcquisitionMatrix": [104, 0, 0, 104],
      "AngioFlag": "N",
      "BitsAllocated": 16,
      "BitsStored": 16,
      "BodyPartExamined": "BRAIN",
      "Columns": 832,
      "EchoNumbers": 1,
      "EchoTime": 37.0,
      "EchoTrainLength": 104,
      "FlipAngle": 52.0,
      "HighBit": 15,
      "ImageOrientationPatient": [0.99954297143056, 0.01097742822562, 0.02816636883434, 0.00436141163012, 0.86962319644359, -0.4936967432502],
      "ImagePositionPatient": [-837.10157358999, -768.8907225324, 346.29921111969],
      "ImageType": [
        "ORIGINAL",
        "PRIMARY",
        "M",
        "MB",
        "ND",
        "MOSAIC"
],
      "ImagedNucleus": "1H",
      "ImagingFrequency": 123.258887,
      "InPlanePhaseEncodingDirection": "COL",
      "MRAcquisitionType": "2D",
      "MagneticFieldStrength": 3.0,
      "Manufacturer": "SIEMENS",
      "ManufacturerModelName": "Prisma_fit",
      "Modality": "MR",
      "NumberOfAverages": 1.0,
      "NumberOfPhaseEncodingSteps": 104,
      "PercentPhaseFieldOfView": 100.0,
      "PercentSampling": 100.0,
      "PerformedProcedureStepStartTime": "104706.719000",
      "PhotometricInterpretation": "MONOCHROME2",
      "PixelBandwidth": 2290.0,
      "PixelRepresentation": 0,
      "PixelSpacing": [2.0, 2.0],
      "ProtocolName": "func_task-things_run-3",
      "RepetitionTime": 1490.0,
      "Rows": 832,
      "SAR": 0.03889219930789,
      "SamplesPerPixel": 1,
      "ScanOptions": "FS",
      "ScanningSequence": "EP",
      "SequenceName": "epfid2d1_104",
      "SequenceVariant": [
        "SK",
        "SS"
],
      "SeriesDescription": "func_task-things_run-3",
      "SeriesNumber": 16,
      "SeriesTime": "110417.473000",
      "SliceLocation": -53.483437530649,
      "SliceThickness": 2.0,
      "SmallestImagePixelValue": 0,
      "SoftwareVersions": "syngo MR E11",
      "SpacingBetweenSlices": 2.0000000287868,
      "SpecificCharacterSet": "ISO_IR 100",
      "StudyID": "1",
      "StudyTime": "104706.638000",
      "TransmitCoilName": "Body",
      "VariableFlipAngleFlag": "N",
      "WindowCenterWidthExplanation": "Algo1",
      "dBdt": 0.0},
    "slices": {}
  },
  "time": {
    "samples": {
      "AcquisitionNumber": [1, 2, 3, 4, 5, 6, 7, 8, 9, 10, 11, 12, 13, 14, 15, 16, 17, 18, 19, 20, 21, 22, 23, 24, 25, 26, 27, 28, 29, 30, 31, 32, 33, 34, 35, 36, 37, 38, 39, 40, 41, 42, 43, 44, 45, 46, 47, 48, 49, 50, 51, 52, 53, 54, 55, 56, 57, 58, 59, 60, 61, 62, 63, 64, 65, 66, 67, 68, 69, 70, 71, 72, 73, 74, 75, 76, 77, 78, 79, 80, 81, 82, 83, 84, 85, 86, 87, 88, 89, 90, 91, 92, 93, 94, 95, 96, 97, 98, 99, 100, 101, 102, 103, 104, 105, 106, 107, 108, 109, 110, 111, 112, 113, 114, 115, 116, 117, 118, 119, 120, 121, 122, 123, 124, 125, 126, 127, 128, 129, 130, 131, 132, 133, 134, 135, 136, 137, 138, 139, 140, 141, 142, 143, 144, 145, 146, 147, 148, 149, 150, 151, 152, 153, 154, 155, 156, 157, 158, 159, 160, 161, 162, 163, 164, 165, 166, 167, 168, 169, 170, 171, 172, 173, 174, 175, 176, 177, 178, 179, 180, 181, 182, 183, 184, 185, 186, 187, 188, 189, 190],
      "AcquisitionTime": ["110244.787500", "110246.277500", "110247.767500", "110249.257500", "110250.747500", "110252.237500", "110253.727500", "110255.217500", "110256.707500", "110258.197500", "110259.687500", "110301.177500", "110302.667500", "110304.157500", "110305.647500", "110307.137500", "110308.627500", "110310.117500", "110311.607500", "110313.097500", "110314.587500", "110316.077500", "110317.567500", "110319.057500", "110320.547500", "110322.037500", "110323.527500", "110325.017500", "110326.507500", "110327.997500", "110329.487500", "110330.977500", "110332.467500", "110333.957500", "110335.447500", "110336.937500", "110338.427500", "110339.917500", "110341.407500", "110342.897500", "110344.387500", "110345.877500", "110347.367500", "110348.857500", "110350.347500", "110351.837500", "110353.327500", "110354.817500", "110356.307500", "110357.797500", "110359.287500", "110400.777500", "110402.267500", "110403.757500", "110405.247500", "110406.737500", "110408.227500", "110409.717500", "110411.207500", "110412.697500", "110414.187500", "110415.677500", "110417.167500", "110418.657500", "110420.147500", "110421.637500", "110423.127500", "110424.617500", "110426.107500", "110427.597500", "110429.087500", "110430.577500", "110432.067500", "110433.557500", "110435.047500", "110436.537500", "110438.027500", "110439.517500", "110441.007500", "110442.497500", "110443.987500", "110445.477500", "110446.967500", "110448.457500", "110449.947500", "110451.437500", "110452.927500", "110454.417500", "110455.907500", "110457.397500", "110458.887500", "110500.377500", "110501.867500", "110503.357500", "110504.847500", "110506.337500", "110507.827500", "110509.317500", "110510.807500", "110512.297500", "110513.787500", "110515.277500", "110516.767500", "110518.257500", "110519.747500", "110521.237500", "110522.727500", "110524.217500", "110525.707500", "110527.197500", "110528.687500", "110530.177500", "110531.667500", "110533.157500", "110534.647500", "110536.137500", "110537.627500", "110539.117500", "110540.607500", "110542.097500", "110543.587500", "110545.077500", "110546.567500", "110548.057500", "110549.547500", "110551.037500", "110552.527500", "110554.017500", "110555.507500", "110556.997500", "110558.487500", "110559.977500", "110601.467500", "110602.957500", "110604.447500", "110605.937500", "110607.427500", "110608.917500", "110610.407500", "110611.897500", "110613.387500", "110614.877500", "110616.367500", "110617.857500", "110619.347500", "110620.837500", "110622.327500", "110623.817500", "110625.307500", "110626.797500", "110628.287500", "110629.777500", "110631.267500", "110632.757500", "110634.247500", "110635.737500", "110637.227500", "110638.717500", "110640.207500", "110641.697500", "110643.187500", "110644.677500", "110646.167500", "110647.657500", "110649.147500", "110650.637500", "110652.127500", "110653.617500", "110655.107500", "110656.597500", "110658.087500", "110659.577500", "110701.067500", "110702.557500", "110704.047500", "110705.537500", "110707.027500", "110708.517500", "110710.007500", "110711.497500", "110712.987500", "110714.477500", "110715.967500", "110717.457500", "110718.947500", "110720.437500", "110721.927500", "110723.417500", "110724.907500", "110726.397500"],
      "ContentTime": ["110417.476000", "110417.480000", "110417.483000", "110417.487000", "110417.490000", "110417.493000", "110417.497000", "110417.500000", "110417.503000", "110417.507000", "110417.510000", "110417.513000", "110417.516000", "110417.538000", "110417.541000", "110417.544000", "110417.547000", "110417.551000", "110417.554000", "110417.560000", "110417.563000", "110417.567000", "110417.570000", "110417.573000", "110417.577000", "110417.580000", "110417.583000", "110417.587000", "110417.590000", "110417.593000", "110417.597000", "110417.600000", "110417.603000", "110417.606000", "110417.610000", "110417.613000", "110417.616000", "110417.620000", "110417.623000", "110417.626000", "110437.437000", "110437.441000", "110437.444000", "110437.448000", "110437.451000", "110437.454000", "110437.457000", "110437.461000", "110437.464000", "110437.467000", "110437.470000", "110437.474000", "110437.477000", "110437.480000", "110437.484000", "110437.487000", "110437.496000", "110437.499000", "110437.503000", "110437.506000", "110457.437000", "110457.441000", "110457.444000", "110457.447000", "110457.451000", "110457.454000", "110457.457000", "110457.460000", "110457.464000", "110457.467000", "110457.471000", "110457.474000", "110457.477000", "110457.480000", "110457.484000", "110457.487000", "110457.490000", "110457.493000", "110457.497000", "110457.500000", "110517.437000", "110517.441000", "110517.444000", "110517.456000", "110517.459000", "110517.463000", "110517.466000", "110517.469000", "110517.473000", "110517.476000", "110517.479000", "110517.483000", "110517.486000", "110517.489000", "110517.493000", "110517.496000", "110517.499000", "110517.503000", "110517.506000", "110517.509000", "110517.512000", "110557.438000", "110557.442000", "110557.445000", "110557.449000", "110557.452000", "110557.455000", "110557.459000", "110557.462000", "110557.465000", "110557.469000", "110557.472000", "110557.475000", "110557.478000", "110557.482000", "110557.485000", "110557.488000", "110557.492000", "110557.506000", "110557.509000", "110557.513000", "110557.516000", "110557.519000", "110557.522000", "110557.526000", "110557.529000", "110557.532000", "110557.536000", "110637.437000", "110637.441000", "110637.444000", "110637.448000", "110637.451000", "110637.454000", "110637.458000", "110637.461000", "110637.464000", "110637.468000", "110637.471000", "110637.474000", "110637.478000", "110637.481000", "110637.484000", "110637.488000", "110637.491000", "110637.494000", "110637.498000", "110637.501000", "110637.504000", "110637.508000", "110637.511000", "110637.514000", "110637.518000", "110637.521000", "110637.524000", "110717.437000", "110717.441000", "110717.445000", "110717.448000", "110717.451000", "110717.454000", "110717.458000", "110717.461000", "110717.464000", "110717.468000", "110717.471000", "110717.474000", "110717.478000", "110717.481000", "110717.484000", "110717.488000", "110717.491000", "110717.495000", "110717.498000", "110717.501000", "110717.504000", "110717.508000", "110717.511000", "110717.514000", "110717.517000", "110717.521000", "110717.525000", "110728.597000", "110728.601000", "110728.604000", "110728.615000", "110728.619000", "110728.622000", "110728.626000", "110728.629000"],
      "InstanceCreationTime": ["110417.476000", "110417.480000", "110417.483000", "110417.487000", "110417.490000", "110417.493000", "110417.497000", "110417.500000", "110417.503000", "110417.507000", "110417.510000", "110417.513000", "110417.516000", "110417.538000", "110417.541000", "110417.544000", "110417.547000", "110417.551000", "110417.554000", "110417.560000", "110417.563000", "110417.567000", "110417.570000", "110417.573000", "110417.577000", "110417.580000", "110417.583000", "110417.587000", "110417.590000", "110417.593000", "110417.597000", "110417.600000", "110417.603000", "110417.606000", "110417.610000", "110417.613000", "110417.616000", "110417.620000", "110417.623000", "110417.626000", "110437.437000", "110437.441000", "110437.444000", "110437.448000", "110437.451000", "110437.454000", "110437.457000", "110437.461000", "110437.464000", "110437.467000", "110437.470000", "110437.474000", "110437.477000", "110437.480000", "110437.484000", "110437.487000", "110437.496000", "110437.499000", "110437.503000", "110437.506000", "110457.437000", "110457.441000", "110457.444000", "110457.447000", "110457.451000", "110457.454000", "110457.457000", "110457.460000", "110457.464000", "110457.467000", "110457.471000", "110457.474000", "110457.477000", "110457.480000", "110457.484000", "110457.487000", "110457.490000", "110457.493000", "110457.497000", "110457.500000", "110517.437000", "110517.441000", "110517.444000", "110517.456000", "110517.459000", "110517.463000", "110517.466000", "110517.469000", "110517.473000", "110517.476000", "110517.479000", "110517.483000", "110517.486000", "110517.489000", "110517.493000", "110517.496000", "110517.499000", "110517.503000", "110517.506000", "110517.509000", "110517.512000", "110557.438000", "110557.442000", "110557.445000", "110557.449000", "110557.452000", "110557.455000", "110557.459000", "110557.462000", "110557.465000", "110557.469000", "110557.472000", "110557.475000", "110557.478000", "110557.482000", "110557.485000", "110557.488000", "110557.492000", "110557.506000", "110557.509000", "110557.513000", "110557.516000", "110557.519000", "110557.522000", "110557.526000", "110557.529000", "110557.532000", "110557.536000", "110637.437000", "110637.441000", "110637.444000", "110637.448000", "110637.451000", "110637.454000", "110637.458000", "110637.461000", "110637.464000", "110637.468000", "110637.471000", "110637.474000", "110637.478000", "110637.481000", "110637.484000", "110637.488000", "110637.491000", "110637.494000", "110637.498000", "110637.501000", "110637.504000", "110637.508000", "110637.511000", "110637.514000", "110637.518000", "110637.521000", "110637.524000", "110717.437000", "110717.441000", "110717.445000", "110717.448000", "110717.451000", "110717.454000", "110717.458000", "110717.461000", "110717.464000", "110717.468000", "110717.471000", "110717.474000", "110717.478000", "110717.481000", "110717.484000", "110717.488000", "110717.491000", "110717.495000", "110717.498000", "110717.501000", "110717.504000", "110717.508000", "110717.511000", "110717.514000", "110717.517000", "110717.521000", "110717.525000", "110728.597000", "110728.601000", "110728.604000", "110728.615000", "110728.619000", "110728.622000", "110728.626000", "110728.629000"],
      "InstanceNumber": [1, 2, 3, 4, 5, 6, 7, 8, 9, 10, 11, 12, 13, 14, 15, 16, 17, 18, 19, 20, 21, 22, 23, 24, 25, 26, 27, 28, 29, 30, 31, 32, 33, 34, 35, 36, 37, 38, 39, 40, 41, 42, 43, 44, 45, 46, 47, 48, 49, 50, 51, 52, 53, 54, 55, 56, 57, 58, 59, 60, 61, 62, 63, 64, 65, 66, 67, 68, 69, 70, 71, 72, 73, 74, 75, 76, 77, 78, 79, 80, 81, 82, 83, 84, 85, 86, 87, 88, 89, 90, 91, 92, 93, 94, 95, 96, 97, 98, 99, 100, 101, 102, 103, 104, 105, 106, 107, 108, 109, 110, 111, 112, 113, 114, 115, 116, 117, 118, 119, 120, 121, 122, 123, 124, 125, 126, 127, 128, 129, 130, 131, 132, 133, 134, 135, 136, 137, 138, 139, 140, 141, 142, 143, 144, 145, 146, 147, 148, 149, 150, 151, 152, 153, 154, 155, 156, 157, 158, 159, 160, 161, 162, 163, 164, 165, 166, 167, 168, 169, 170, 171, 172, 173, 174, 175, 176, 177, 178, 179, 180, 181, 182, 183, 184, 185, 186, 187, 188, 189, 190],
      "LargestImagePixelValue": [47353, 47235, 46340, 45665, 44898, 44059, 44929, 45901, 44190, 44828, 46131, 45864, 45790, 45078, 43825, 44826, 45881, 45042, 45034, 44155, 45650, 46312, 45746, 45646, 45411, 45211, 44986, 44780, 45173, 45656, 45963, 45530, 45600, 46273, 45184, 44900, 45676, 45843, 45770, 45023, 45515, 45578, 45387, 45321, 45946, 45327, 45724, 45798, 45371, 45934, 45737, 44837, 45436, 45202, 45482, 45064, 45038, 45438, 45921, 45398, 45158, 45206, 45369, 45474, 45678, 45568, 45600, 45596, 45249, 44657, 45394, 45110, 44788, 44825, 44567, 44570, 44749, 45051, 44731, 44625, 44429, 44455, 44765, 45196, 44963, 45681, 44239, 45072, 44811, 44585, 44831, 44504, 45418, 44823, 44872, 45153, 45385, 45114, 44958, 45056, 45032, 44460, 44498, 43850, 44729, 44811, 45111, 45000, 44852, 45004, 45474, 45388, 45396, 45155, 45162, 44847, 44307, 45092, 44891, 44706, 44470, 45138, 44839, 44346, 45321, 44738, 44412, 44773, 45057, 44631, 44217, 44049, 44180, 44541, 44030, 44367, 45123, 45139, 44504, 44853, 45001, 44897, 44675, 44061, 44246, 44325, 44127, 45017, 44501, 44694, 44438, 45217, 44627, 43991, 44353, 44917, 45076, 44203, 44317, 44776, 43903, 44643, 44976, 44488, 45160, 45121, 44307, 44865, 44325, 43703, 45076, 44567, 44529, 44663, 44997, 43592, 45031, 45135, 44947, 44425, 44412, 44890, 43972, 44159, 44781, 44089, 43964, 43926, 43542, 43334],
      "WindowCenter": [11197.0, 11177.0, 11109.0, 11033.0, 10977.0, 11012.0, 11049.0, 11060.0, 11031.0, 11023.0, 11017.0, 10977.0, 10945.0, 10956.0, 11019.0, 11101.0, 11121.0, 11062.0, 11060.0, 11067.0, 11089.0, 11070.0, 11008.0, 11016.0, 11048.0, 11063.0, 11054.0, 11047.0, 11059.0, 11057.0, 11031.0, 11042.0, 11061.0, 11081.0, 11032.0, 10994.0, 11020.0, 11029.0, 11062.0, 11083.0, 11100.0, 11088.0, 11046.0, 10998.0, 11014.0, 11040.0, 11077.0, 11065.0, 11061.0, 11075.0, 11055.0, 11024.0, 11019.0, 11013.0, 11023.0, 11013.0, 11009.0, 11035.0, 11055.0, 11028.0, 11017.0, 11033.0, 11055.0, 11073.0, 11068.0, 11033.0, 11016.0, 11033.0, 11057.0, 11042.0, 11017.0, 11014.0, 11034.0, 11048.0, 11044.0, 11020.0, 10987.0, 10993.0, 11003.0, 11019.0, 11015.0, 11006.0, 10979.0, 10968.0, 11012.0, 11037.0, 11054.0, 11089.0, 11046.0, 11034.0, 11057.0, 11061.0, 11049.0, 11007.0, 10991.0, 11014.0, 11045.0, 11036.0, 11009.0, 11024.0, 11017.0, 11050.0, 11063.0, 11040.0, 11043.0, 11013.0, 11001.0, 11050.0, 11048.0, 11034.0, 11031.0, 11047.0, 11043.0, 11035.0, 11022.0, 11013.0, 11018.0, 11021.0, 11023.0, 11015.0, 11030.0, 11047.0, 11039.0, 11049.0, 11070.0, 11056.0, 11030.0, 11026.0, 11049.0, 11054.0, 11040.0, 11004.0, 10979.0, 10994.0, 11005.0, 11016.0, 11010.0, 11006.0, 11000.0, 11016.0, 11030.0, 11034.0, 11017.0, 11002.0, 10991.0, 10976.0, 11014.0, 11062.0, 11049.0, 11068.0, 11055.0, 11053.0, 11054.0, 11036.0, 11014.0, 11028.0, 11010.0, 11014.0, 11035.0, 11043.0, 11004.0, 11006.0, 11013.0, 10996.0, 11032.0, 11037.0, 11031.0, 11039.0, 10998.0, 11001.0, 11018.0, 11011.0, 11021.0, 11029.0, 11004.0, 10983.0, 11015.0, 11014.0, 11044.0, 11030.0, 11002.0, 10980.0, 10997.0, 11049.0, 11049.0, 11025.0, 11029.0, 11035.0, 10999.0, 10988.0],
      "WindowWidth": [24197.0, 24118.0, 23942.0, 23755.0, 23615.0, 23691.0, 23777.0, 23798.0, 23735.0, 23711.0, 23698.0, 23606.0, 23533.0, 23559.0, 23705.0, 23891.0, 23939.0, 23800.0, 23796.0, 23813.0, 23862.0, 23820.0, 23678.0, 23692.0, 23769.0, 23803.0, 23782.0, 23765.0, 23798.0, 23787.0, 23722.0, 23751.0, 23796.0, 23839.0, 23737.0, 23645.0, 23701.0, 23722.0, 23793.0, 23847.0, 23886.0, 23861.0, 23768.0, 23653.0, 23684.0, 23748.0, 23835.0, 23806.0, 23797.0, 23826.0, 23777.0, 23708.0, 23695.0, 23683.0, 23705.0, 23685.0, 23673.0, 23733.0, 23775.0, 23722.0, 23693.0, 23728.0, 23776.0, 23818.0, 23811.0, 23731.0, 23692.0, 23731.0, 23789.0, 23758.0, 23695.0, 23686.0, 23731.0, 23769.0, 23758.0, 23701.0, 23622.0, 23635.0, 23659.0, 23700.0, 23691.0, 23669.0, 23611.0, 23580.0, 23681.0, 23736.0, 23781.0, 23864.0, 23769.0, 23739.0, 23786.0, 23793.0, 23771.0, 23677.0, 23635.0, 23686.0, 23757.0, 23743.0, 23676.0, 23710.0, 23692.0, 23769.0, 23803.0, 23749.0, 23752.0, 23682.0, 23654.0, 23764.0, 23764.0, 23730.0, 23721.0, 23761.0, 23751.0, 23733.0, 23703.0, 23683.0, 23697.0, 23700.0, 23709.0, 23690.0, 23725.0, 23764.0, 23748.0, 23769.0, 23816.0, 23785.0, 23725.0, 23712.0, 23761.0, 23778.0, 23748.0, 23664.0, 23602.0, 23639.0, 23667.0, 23690.0, 23677.0, 23668.0, 23655.0, 23692.0, 23724.0, 23735.0, 23696.0, 23664.0, 23640.0, 23604.0, 23692.0, 23802.0, 23772.0, 23816.0, 23788.0, 23775.0, 23781.0, 23747.0, 23689.0, 23718.0, 23681.0, 23693.0, 23742.0, 23756.0, 23672.0, 23665.0, 23684.0, 23650.0, 23726.0, 23741.0, 23726.0, 23744.0, 23653.0, 23659.0, 23696.0, 23677.0, 23701.0, 23720.0, 23670.0, 23620.0, 23689.0, 23689.0, 23756.0, 23728.0, 23666.0, 23615.0, 23655.0, 23770.0, 23776.0, 23714.0, 23728.0, 23743.0, 23664.0, 23634.0]
    },
    "slices": {}
  }
}