{
  "AcquisitionMatrixPE": 104,
  "AcquisitionNumber": 1,
  "AcquisitionTime": "13:21:58.210000",
  "BandwidthPerPixelPhaseEncode": 17.17,
  "BaseResolution": 104,
  "BodyPartExamined": "BRAIN",
  "CoilCombinationMethod": "Sum of Squares",
  "ConsistencyInfo": "N4_VE11C_LATEST_20160120",
  "ConversionSoftware": "dcm2niix",
  "ConversionSoftwareVersion": "v1.0.20211006",
  "DerivedVendorReportedEchoSpacing": 0.000560011,
  "DeviceSerialNumber": "167006",
  "DwellTime": 2.1e-06,
  "EchoTime": 0.037,
  "EchoTrainLength": 104,
  "EffectiveEchoSpacing": 0.000560011,
  "FlipAngle": 52,
  "HeudiconvVersion": "0.10.0",
  "ImageComments": "Unaliased MB4/PE3/LB",
  "ImageOrientationPatientDICOM": [0.999008, 0.0282715, 0.0344136, -0.0183099, 0.965081, -0.26131],
  "ImageOrientationText": "Tra>Cor(-15.1)>Sag(2.3)",
  "ImageType": [
    "ORIGINAL",
    "PRIMARY",
    "M",
    "MB",
    "ND",
    "MOSAIC"
],
  "ImagingFrequency": 123.259,
  "InPlanePhaseEncodingDirectionDICOM": "COL",
  "InstitutionAddress": "Chemin Queen-Mary 4565,Montreal,District,CA,H3W 1W5",
  "InstitutionName": "IUGM",
  "InstitutionalDepartmentName": "Department",
  "MRAcquisitionType": "2D",
  "MagneticFieldStrength": 3,
  "Manufacturer": "Siemens",
  "ManufacturersModelName": "Prisma_fit",
  "MatrixCoilMode": "SENSE",
  "Modality": "MR",
  "MultibandAccelerationFactor": 4,
  "PartialFourier": 1,
  "PatientPosition": "HFS",
  "PercentPhaseFOV": 100,
  "PercentSampling": 100,
  "PhaseEncodingDirection": "j",
  "PhaseEncodingSteps": 104,
  "PhaseResolution": 1,
  "PixelBandwidth": 2290,
  "ProcedureStepDescription": "memory^things",
  "ProtocolName": "func_task-things_run-1",
  "PulseSequenceDetails": "%CustomerSeq%\\cmrr_mbep2d_bold",
  "ReceiveCoilActiveElements": "HC1-7;NC1,2",
  "ReceiveCoilName": "HeadNeck_64",
  "ReconMatrixPE": 104,
  "RepetitionTime": 1.49,
  "SAR": 0.0439774,
  "ScanOptions": "FS",
  "ScanningSequence": "EP",
  "SequenceName": "epfid2d1_104",
  "SequenceVariant": "SK\\SS",
  "SeriesDescription": "func_task-things_run-1",
  "SeriesNumber": 10,
  "ShimSetting": [641, -7207, -8814, 720, 57, 11, 71, -13],
  "SliceThickness": 2,
  "SliceTiming": [0, 0.785, 0.0975, 0.8825, 0.195, 0.98, 0.295, 1.0775, 0.3925, 1.175, 0.49, 1.275, 0.5875, 1.3725, 0.685, 0, 0.785, 0.0975, 0.8825, 0.195, 0.98, 0.295, 1.0775, 0.3925, 1.175, 0.49, 1.275, 0.5875, 1.3725, 0.685, 0, 0.785, 0.0975, 0.8825, 0.195, 0.98, 0.295, 1.0775, 0.3925, 1.175, 0.49, 1.275, 0.5875, 1.3725, 0.685, 0, 0.785, 0.0975, 0.8825, 0.195, 0.98, 0.295, 1.0775, 0.3925, 1.175, 0.49, 1.275, 0.5875, 1.3725, 0.685],
  "SoftwareVersions": "syngo MR E11",
  "SpacingBetweenSlices": 2,
  "StationName": "MRC35049",
  "TaskName": "things",
  "TotalReadoutTime": 0.0576811,
  "TxRefAmp": 222.806,
  "WipMemBlock": "dcd0b156-7cdd-47bd-b7c9-1dd3626e2172||Sequence: R016 ve11c/master r/e634e98; Dec 19 2017 11:00:25 by eja",
  "dcmmeta_affine": [
    [-1.9980154037475586, -0.03661971166729927, 0.08119917660951614, 108.17005157470703],
    [-0.05654305964708328, 1.9301624298095703, -0.520841658115387, -71.31704711914062],
    [0.06882725656032562, 0.522620439529419, 1.9292824268341064, -72.3205795288086],
    [0.0, 0.0, 0.0, 1.0]
],
  "dcmmeta_reorient_transform": [
    [0.0, -1.0, 0.0, 103.0],
    [1.0, 0.0, 0.0, 0.0],
    [0.0, 0.0, 1.0, 0.0],
    [0.0, 0.0, 0.0, 1.0]
],
  "dcmmeta_shape": [104, 104, 60, 190],
  "dcmmeta_slice_dim": 2,
  "dcmmeta_version": 0.6,
  "global": {
    "const": {
      "AcquisitionMatrix": [104, 0, 0, 104],
      "AngioFlag": "N",
      "BitsAllocated": 16,
      "BitsStored": 16,
      "BodyPartExamined": "BRAIN",
      "Columns": 832,
      "EchoNumbers": 1,
      "EchoTime": 37.0,
      "EchoTrainLength": 104,
      "FlipAngle": 52.0,
      "HighBit": 15,
      "ImageOrientationPatient": [0.99900771903025, 0.02827152959615, 0.03441363003637, -0.0183098564055, 0.96508119429533, -0.2613102324363],
      "ImagePositionPatient": [-818.34626397483, -850.65046221888, 146.69005586885],
      "ImageType": [
        "ORIGINAL",
        "PRIMARY",
        "M",
        "MB",
        "ND",
        "MOSAIC"
],
      "ImagedNucleus": "1H",
      "ImagingFrequency": 123.258893,
      "InPlanePhaseEncodingDirection": "COL",
      "MRAcquisitionType": "2D",
      "MagneticFieldStrength": 3.0,
      "Manufacturer": "SIEMENS",
      "ManufacturerModelName": "Prisma_fit",
      "Modality": "MR",
      "NumberOfAverages": 1.0,
      "NumberOfPhaseEncodingSteps": 104,
      "PercentPhaseFieldOfView": 100.0,
      "PercentSampling": 100.0,
      "PerformedProcedureStepStartTime": "131826.057000",
      "PhotometricInterpretation": "MONOCHROME2",
      "PixelBandwidth": 2290.0,
      "PixelRepresentation": 0,
      "PixelSpacing": [2.0, 2.0],
      "ProtocolName": "func_task-things_run-1",
      "RepetitionTime": 1490.0,
      "Rows": 832,
      "SAR": 0.04397739894659,
      "SamplesPerPixel": 1,
      "ScanOptions": "FS",
      "ScanningSequence": "EP",
      "SequenceName": "epfid2d1_104",
      "SequenceVariant": [
        "SK",
        "SS"
],
      "SeriesDescription": "func_task-things_run-1",
      "SeriesNumber": 10,
      "SeriesTime": "132329.985000",
      "SliceLocation": -46.799306473317,
      "SliceThickness": 2.0,
      "SmallestImagePixelValue": 0,
      "SoftwareVersions": "syngo MR E11",
      "SpacingBetweenSlices": 2.0000000143568,
      "SpecificCharacterSet": "ISO_IR 100",
      "StudyID": "1",
      "StudyTime": "131825.952000",
      "TransmitCoilName": "Body",
      "VariableFlipAngleFlag": "N",
      "WindowCenterWidthExplanation": "Algo1",
      "dBdt": 0.0},
    "slices": {}
  },
  "time": {
    "samples": {
      "AcquisitionNumber": [1, 2, 3, 4, 5, 6, 7, 8, 9, 10, 11, 12, 13, 14, 15, 16, 17, 18, 19, 20, 21, 22, 23, 24, 25, 26, 27, 28, 29, 30, 31, 32, 33, 34, 35, 36, 37, 38, 39, 40, 41, 42, 43, 44, 45, 46, 47, 48, 49, 50, 51, 52, 53, 54, 55, 56, 57, 58, 59, 60, 61, 62, 63, 64, 65, 66, 67, 68, 69, 70, 71, 72, 73, 74, 75, 76, 77, 78, 79, 80, 81, 82, 83, 84, 85, 86, 87, 88, 89, 90, 91, 92, 93, 94, 95, 96, 97, 98, 99, 100, 101, 102, 103, 104, 105, 106, 107, 108, 109, 110, 111, 112, 113, 114, 115, 116, 117, 118, 119, 120, 121, 122, 123, 124, 125, 126, 127, 128, 129, 130, 131, 132, 133, 134, 135, 136, 137, 138, 139, 140, 141, 142, 143, 144, 145, 146, 147, 148, 149, 150, 151, 152, 153, 154, 155, 156, 157, 158, 159, 160, 161, 162, 163, 164, 165, 166, 167, 168, 169, 170, 171, 172, 173, 174, 175, 176, 177, 178, 179, 180, 181, 182, 183, 184, 185, 186, 187, 188, 189, 190],
      "AcquisitionTime": ["132158.210000", "132159.700000", "132201.190000", "132202.680000", "132204.170000", "132205.660000", "132207.150000", "132208.640000", "132210.130000", "132211.620000", "132213.110000", "132214.600000", "132216.090000", "132217.580000", "132219.070000", "132220.560000", "132222.050000", "132223.540000", "132225.030000", "132226.520000", "132228.010000", "132229.500000", "132230.990000", "132232.480000", "132233.970000", "132235.460000", "132236.950000", "132238.440000", "132239.930000", "132241.420000", "132242.910000", "132244.400000", "132245.890000", "132247.380000", "132248.870000", "132250.360000", "132251.850000", "132253.340000", "132254.830000", "132256.320000", "132257.810000", "132259.300000", "132300.790000", "132302.280000", "132303.770000", "132305.260000", "132306.750000", "132308.240000", "132309.730000", "132311.220000", "132312.710000", "132314.200000", "132315.690000", "132317.180000", "132318.670000", "132320.160000", "132321.650000", "132323.140000", "132324.630000", "132326.120000", "132327.610000", "132329.100000", "132330.590000", "132332.080000", "132333.570000", "132335.060000", "132336.550000", "132338.040000", "132339.530000", "132341.020000", "132342.510000", "132344.000000", "132345.490000", "132346.980000", "132348.470000", "132349.960000", "132351.450000", "132352.940000", "132354.430000", "132355.920000", "132357.410000", "132358.900000", "132400.390000", "132401.880000", "132403.370000", "132404.860000", "132406.350000", "132407.840000", "132409.330000", "132410.820000", "132412.310000", "132413.800000", "132415.290000", "132416.780000", "132418.270000", "132419.760000", "132421.250000", "132422.740000", "132424.230000", "132425.720000", "132427.210000", "132428.700000", "132430.190000", "132431.680000", "132433.170000", "132434.660000", "132436.150000", "132437.640000", "132439.130000", "132440.620000", "132442.110000", "132443.600000", "132445.090000", "132446.580000", "132448.070000", "132449.560000", "132451.050000", "132452.540000", "132454.030000", "132455.520000", "132457.010000", "132458.500000", "132459.990000", "132501.480000", "132502.970000", "132504.460000", "132505.950000", "132507.440000", "132508.930000", "132510.420000", "132511.910000", "132513.400000", "132514.890000", "132516.380000", "132517.870000", "132519.360000", "132520.850000", "132522.340000", "132523.830000", "132525.320000", "132526.810000", "132528.300000", "132529.790000", "132531.280000", "132532.770000", "132534.260000", "132535.750000", "132537.240000", "132538.730000", "132540.220000", "132541.710000", "132543.200000", "132544.690000", "132546.180000", "132547.670000", "132549.160000", "132550.650000", "132552.140000", "132553.630000", "132555.120000", "132556.610000", "132558.100000", "132559.590000", "132601.080000", "132602.570000", "132604.060000", "132605.550000", "132607.040000", "132608.530000", "132610.020000", "132611.510000", "132613.000000", "132614.490000", "132615.980000", "132617.470000", "132618.960000", "132620.450000", "132621.940000", "132623.430000", "132624.920000", "132626.410000", "132627.900000", "132629.390000", "132630.880000", "132632.370000", "132633.860000", "132635.350000", "132636.840000", "132638.330000", "132639.820000"],
      "ContentTime": ["132329.988000", "132329.992000", "132329.995000", "132329.998000", "132330.002000", "132330.005000", "132330.008000", "132330.012000", "132330.015000", "132330.018000", "132330.022000", "132330.025000", "132330.028000", "132330.032000", "132330.035000", "132330.038000", "132330.042000", "132330.045000", "132330.048000", "132330.051000", "132330.055000", "132330.062000", "132330.065000", "132330.069000", "132330.072000", "132330.075000", "132330.079000", "132330.082000", "132330.086000", "132330.089000", "132330.092000", "132330.096000", "132330.099000", "132330.102000", "132330.106000", "132330.109000", "132330.113000", "132330.116000", "132349.955000", "132349.959000", "132349.962000", "132349.965000", "132349.969000", "132349.972000", "132349.975000", "132349.979000", "132349.982000", "132349.985000", "132349.989000", "132349.992000", "132349.995000", "132349.999000", "132350.002000", "132350.005000", "132350.009000", "132350.012000", "132350.015000", "132350.018000", "132350.022000", "132409.954000", "132409.958000", "132409.961000", "132409.964000", "132409.968000", "132409.972000", "132409.975000", "132409.978000", "132409.982000", "132409.985000", "132409.988000", "132409.992000", "132409.995000", "132409.998000", "132410.002000", "132410.005000", "132410.008000", "132410.011000", "132410.015000", "132410.018000", "132429.954000", "132429.958000", "132429.961000", "132429.964000", "132429.968000", "132429.971000", "132429.974000", "132429.978000", "132429.981000", "132429.984000", "132429.987000", "132429.991000", "132429.994000", "132429.997000", "132430.002000", "132430.005000", "132430.009000", "132430.012000", "132430.015000", "132430.018000", "132509.955000", "132509.959000", "132509.962000", "132509.965000", "132509.969000", "132509.972000", "132509.975000", "132509.979000", "132509.982000", "132509.985000", "132509.988000", "132509.992000", "132509.995000", "132509.998000", "132510.003000", "132510.006000", "132510.010000", "132510.013000", "132510.016000", "132510.019000", "132510.023000", "132510.039000", "132510.056000", "132510.059000", "132510.063000", "132510.066000", "132510.069000", "132510.072000", "132510.076000", "132549.955000", "132549.959000", "132549.962000", "132549.965000", "132549.969000", "132549.972000", "132549.975000", "132549.979000", "132549.982000", "132549.985000", "132549.989000", "132549.992000", "132549.995000", "132550.000000", "132550.003000", "132550.006000", "132550.010000", "132550.013000", "132550.016000", "132550.020000", "132550.023000", "132550.026000", "132550.030000", "132550.033000", "132550.036000", "132550.039000", "132550.043000", "132629.954000", "132629.958000", "132629.961000", "132629.964000", "132629.968000", "132629.971000", "132629.974000", "132629.978000", "132629.981000", "132629.984000", "132629.988000", "132629.991000", "132629.994000", "132629.998000", "132630.001000", "132630.004000", "132630.007000", "132630.011000", "132630.014000", "132630.017000", "132630.021000", "132630.025000", "132630.039000", "132630.042000", "132630.045000", "132630.049000", "132642.135000", "132642.139000", "132642.142000", "132642.146000", "132642.149000", "132642.153000", "132642.156000", "132642.160000", "132642.164000"],
      "InstanceCreationTime": ["132329.988000", "132329.992000", "132329.995000", "132329.998000", "132330.002000", "132330.005000", "132330.008000", "132330.012000", "132330.015000", "132330.018000", "132330.022000", "132330.025000", "132330.028000", "132330.032000", "132330.035000", "132330.038000", "132330.042000", "132330.045000", "132330.048000", "132330.051000", "132330.055000", "132330.062000", "132330.065000", "132330.069000", "132330.072000", "132330.075000", "132330.079000", "132330.082000", "132330.086000", "132330.089000", "132330.092000", "132330.096000", "132330.099000", "132330.102000", "132330.106000", "132330.109000", "132330.113000", "132330.116000", "132349.955000", "132349.959000", "132349.962000", "132349.965000", "132349.969000", "132349.972000", "132349.975000", "132349.979000", "132349.982000", "132349.985000", "132349.989000", "132349.992000", "132349.995000", "132349.999000", "132350.002000", "132350.005000", "132350.009000", "132350.012000", "132350.015000", "132350.018000", "132350.022000", "132409.954000", "132409.958000", "132409.961000", "132409.964000", "132409.968000", "132409.972000", "132409.975000", "132409.978000", "132409.982000", "132409.985000", "132409.988000", "132409.992000", "132409.995000", "132409.998000", "132410.002000", "132410.005000", "132410.008000", "132410.011000", "132410.015000", "132410.018000", "132429.954000", "132429.958000", "132429.961000", "132429.964000", "132429.968000", "132429.971000", "132429.974000", "132429.978000", "132429.981000", "132429.984000", "132429.987000", "132429.991000", "132429.994000", "132429.997000", "132430.002000", "132430.005000", "132430.009000", "132430.012000", "132430.015000", "132430.018000", "132509.955000", "132509.959000", "132509.962000", "132509.965000", "132509.969000", "132509.972000", "132509.975000", "132509.979000", "132509.982000", "132509.985000", "132509.988000", "132509.992000", "132509.995000", "132509.998000", "132510.003000", "132510.006000", "132510.010000", "132510.013000", "132510.016000", "132510.019000", "132510.023000", "132510.039000", "132510.056000", "132510.059000", "132510.063000", "132510.066000", "132510.069000", "132510.072000", "132510.076000", "132549.955000", "132549.959000", "132549.962000", "132549.965000", "132549.969000", "132549.972000", "132549.975000", "132549.979000", "132549.982000", "132549.985000", "132549.989000", "132549.992000", "132549.995000", "132550.000000", "132550.003000", "132550.006000", "132550.010000", "132550.013000", "132550.016000", "132550.020000", "132550.023000", "132550.026000", "132550.030000", "132550.033000", "132550.036000", "132550.039000", "132550.043000", "132629.954000", "132629.958000", "132629.961000", "132629.964000", "132629.968000", "132629.971000", "132629.974000", "132629.978000", "132629.981000", "132629.984000", "132629.988000", "132629.991000", "132629.994000", "132629.998000", "132630.001000", "132630.004000", "132630.007000", "132630.011000", "132630.014000", "132630.017000", "132630.021000", "132630.025000", "132630.039000", "132630.042000", "132630.045000", "132630.049000", "132642.135000", "132642.139000", "132642.142000", "132642.146000", "132642.149000", "132642.153000", "132642.156000", "132642.160000", "132642.164000"],
      "InstanceNumber": [1, 2, 3, 4, 5, 6, 7, 8, 9, 10, 11, 12, 13, 14, 15, 16, 17, 18, 19, 20, 21, 22, 23, 24, 25, 26, 27, 28, 29, 30, 31, 32, 33, 34, 35, 36, 37, 38, 39, 40, 41, 42, 43, 44, 45, 46, 47, 48, 49, 50, 51, 52, 53, 54, 55, 56, 57, 58, 59, 60, 61, 62, 63, 64, 65, 66, 67, 68, 69, 70, 71, 72, 73, 74, 75, 76, 77, 78, 79, 80, 81, 82, 83, 84, 85, 86, 87, 88, 89, 90, 91, 92, 93, 94, 95, 96, 97, 98, 99, 100, 101, 102, 103, 104, 105, 106, 107, 108, 109, 110, 111, 112, 113, 114, 115, 116, 117, 118, 119, 120, 121, 122, 123, 124, 125, 126, 127, 128, 129, 130, 131, 132, 133, 134, 135, 136, 137, 138, 139, 140, 141, 142, 143, 144, 145, 146, 147, 148, 149, 150, 151, 152, 153, 154, 155, 156, 157, 158, 159, 160, 161, 162, 163, 164, 165, 166, 167, 168, 169, 170, 171, 172, 173, 174, 175, 176, 177, 178, 179, 180, 181, 182, 183, 184, 185, 186, 187, 188, 189, 190],
      "LargestImagePixelValue": [42895, 41298, 40748, 40245, 40124, 39879, 40238, 39782, 39485, 39690, 40085, 40120, 39911, 39865, 39823, 39760, 39927, 39646, 39819, 39823, 40034, 39752, 39680, 39898, 39878, 39811, 40326, 40131, 39814, 40054, 39616, 39844, 39610, 39612, 39719, 39843, 39457, 39642, 40280, 39489, 39812, 39417, 39835, 40255, 39526, 39436, 39645, 39731, 39847, 40199, 40088, 40118, 39784, 40012, 39518, 39257, 39519, 39401, 39131, 39740, 39341, 39963, 39862, 39699, 39711, 39536, 40152, 39669, 39631, 39252, 39989, 39463, 39622, 39766, 39566, 39941, 39511, 39695, 39707, 39506, 39285, 39998, 39447, 39490, 39122, 39535, 39273, 39510, 39568, 39387, 39090, 39686, 39401, 39584, 39442, 39482, 39631, 39377, 39461, 39608, 39959, 39578, 39026, 39463, 39666, 39723, 39608, 39424, 39812, 39548, 39343, 39338, 39355, 39551, 40102, 39479, 39748, 39173, 39637, 39465, 39646, 38941, 39771, 39360, 39501, 39755, 39351, 39987, 39533, 39460, 39506, 39593, 39432, 39511, 39271, 38987, 39427, 39578, 39535, 39739, 39245, 39321, 39390, 39611, 39048, 39247, 38580, 39204, 38893, 39078, 38803, 39127, 38956, 39171, 39193, 38908, 39045, 39313, 39245, 39328, 39636, 39131, 39211, 39131, 39445, 39718, 39386, 39420, 39292, 39820, 39139, 39873, 39186, 39825, 39138, 39379, 39025, 39508, 38717, 39462, 39356, 39306, 38979, 39471, 39421, 39535, 39456, 39236, 39093, 39244],
      "WindowCenter": [10226.0, 10173.0, 10145.0, 10126.0, 10123.0, 10128.0, 10134.0, 10131.0, 10126.0, 10136.0, 10144.0, 10146.0, 10153.0, 10140.0, 10130.0, 10122.0, 10127.0, 10130.0, 10138.0, 10131.0, 10139.0, 10140.0, 10145.0, 10138.0, 10140.0, 10146.0, 10147.0, 10147.0, 10141.0, 10145.0, 10137.0, 10136.0, 10137.0, 10138.0, 10131.0, 10130.0, 10130.0, 10130.0, 10127.0, 10129.0, 10137.0, 10140.0, 10132.0, 10135.0, 10115.0, 10121.0, 10130.0, 10147.0, 10147.0, 10147.0, 10147.0, 10148.0, 10139.0, 10137.0, 10131.0, 10132.0, 10132.0, 10131.0, 10131.0, 10133.0, 10140.0, 10146.0, 10147.0, 10140.0, 10146.0, 10147.0, 10147.0, 10147.0, 10148.0, 10133.0, 10129.0, 10121.0, 10128.0, 10136.0, 10124.0, 10129.0, 10123.0, 10129.0, 10130.0, 10134.0, 10140.0, 10139.0, 10126.0, 10132.0, 10133.0, 10140.0, 10134.0, 10132.0, 10133.0, 10134.0, 10125.0, 10123.0, 10114.0, 10113.0, 10108.0, 10114.0, 10115.0, 10117.0, 10132.0, 10140.0, 10153.0, 10150.0, 10143.0, 10134.0, 10137.0, 10140.0, 10140.0, 10126.0, 10121.0, 10127.0, 10138.0, 10141.0, 10143.0, 10134.0, 10132.0, 10125.0, 10132.0, 10127.0, 10147.0, 10142.0, 10132.0, 10108.0, 10119.0, 10124.0, 10133.0, 10126.0, 10118.0, 10122.0, 10124.0, 10124.0, 10117.0, 10107.0, 10105.0, 10106.0, 10116.0, 10118.0, 10124.0, 10124.0, 10130.0, 10140.0, 10135.0, 10134.0, 10136.0, 10143.0, 10128.0, 10118.0, 10105.0, 10110.0, 10110.0, 10117.0, 10128.0, 10136.0, 10127.0, 10112.0, 10104.0, 10100.0, 10092.0, 10096.0, 10096.0, 10097.0, 10113.0, 10122.0, 10124.0, 10112.0, 10115.0, 10124.0, 10134.0, 10127.0, 10111.0, 10114.0, 10107.0, 10112.0, 10114.0, 10130.0, 10120.0, 10119.0, 10102.0, 10098.0, 10092.0, 10107.0, 10115.0, 10117.0, 10104.0, 10108.0, 10113.0, 10123.0, 10126.0, 10119.0, 10117.0, 10110.0],
      "WindowWidth": [21803.0, 21661.0, 21584.0, 21533.0, 21520.0, 21527.0, 21537.0, 21532.0, 21523.0, 21540.0, 21559.0, 21565.0, 21578.0, 21552.0, 21529.0, 21510.0, 21522.0, 21530.0, 21547.0, 21531.0, 21549.0, 21552.0, 21563.0, 21548.0, 21552.0, 21563.0, 21567.0, 21568.0, 21556.0, 21561.0, 21542.0, 21541.0, 21543.0, 21548.0, 21534.0, 21528.0, 21529.0, 21527.0, 21519.0, 21524.0, 21543.0, 21553.0, 21535.0, 21535.0, 21495.0, 21507.0, 21530.0, 21568.0, 21568.0, 21568.0, 21568.0, 21569.0, 21549.0, 21542.0, 21529.0, 21534.0, 21535.0, 21532.0, 21532.0, 21536.0, 21551.0, 21562.0, 21566.0, 21550.0, 21562.0, 21565.0, 21565.0, 21564.0, 21569.0, 21534.0, 21521.0, 21507.0, 21521.0, 21539.0, 21518.0, 21523.0, 21512.0, 21524.0, 21528.0, 21539.0, 21552.0, 21546.0, 21520.0, 21532.0, 21535.0, 21551.0, 21538.0, 21533.0, 21534.0, 21538.0, 21517.0, 21509.0, 21489.0, 21487.0, 21479.0, 21490.0, 21494.0, 21499.0, 21532.0, 21550.0, 21578.0, 21577.0, 21559.0, 21538.0, 21543.0, 21549.0, 21549.0, 21519.0, 21504.0, 21519.0, 21546.0, 21556.0, 21559.0, 21537.0, 21529.0, 21516.0, 21528.0, 21523.0, 21564.0, 21555.0, 21530.0, 21477.0, 21498.0, 21513.0, 21534.0, 21519.0, 21500.0, 21509.0, 21514.0, 21516.0, 21498.0, 21475.0, 21465.0, 21471.0, 21495.0, 21502.0, 21513.0, 21513.0, 21525.0, 21549.0, 21540.0, 21537.0, 21541.0, 21556.0, 21523.0, 21498.0, 21471.0, 21482.0, 21483.0, 21497.0, 21525.0, 21542.0, 21518.0, 21486.0, 21469.0, 21458.0, 21440.0, 21447.0, 21447.0, 21452.0, 21487.0, 21510.0, 21514.0, 21490.0, 21492.0, 21514.0, 21536.0, 21521.0, 21484.0, 21488.0, 21475.0, 21480.0, 21487.0, 21524.0, 21505.0, 21501.0, 21463.0, 21452.0, 21442.0, 21474.0, 21495.0, 21500.0, 21470.0, 21475.0, 21484.0, 21508.0, 21521.0, 21504.0, 21496.0, 21482.0]
    },
    "slices": {}
  }
}