{
  "AcquisitionMatrixPE": 104,
  "AcquisitionNumber": 1,
  "AcquisitionTime": "13:52:34.890000",
  "BandwidthPerPixelPhaseEncode": 17.17,
  "BaseResolution": 104,
  "BodyPartExamined": "BRAIN",
  "CoilCombinationMethod": "Sum of Squares",
  "ConsistencyInfo": "N4_VE11C_LATEST_20160120",
  "ConversionSoftware": "dcm2niix",
  "ConversionSoftwareVersion": "v1.0.20211006",
  "DerivedVendorReportedEchoSpacing": 0.000560011,
  "DeviceSerialNumber": "167006",
  "DwellTime": 2.1e-06,
  "EchoTime": 0.037,
  "EchoTime1": 0.037,
  "EchoTime2": 0.001,
  "EchoTrainLength": 104,
  "EffectiveEchoSpacing": 0.000560011,
  "FlipAngle": 52,
  "HeudiconvVersion": "0.10.0",
  "ImageComments": "Unaliased MB4/PE3/LB",
  "ImageOrientationPatientDICOM": [0.999008, 0.0282715, 0.0344136, -0.0183099, 0.965081, -0.26131],
  "ImageOrientationText": "Tra>Cor(-15.1)>Sag(2.3)",
  "ImageType": [
    "ORIGINAL",
    "PRIMARY",
    "P",
    "MB",
    "ND",
    "MOSAIC",
    "PHASE"
],
  "ImagingFrequency": 123.259,
  "InPlanePhaseEncodingDirectionDICOM": "COL",
  "InstitutionAddress": "Chemin Queen-Mary 4565,Montreal,District,CA,H3W 1W5",
  "InstitutionName": "IUGM",
  "InstitutionalDepartmentName": "Department",
  "MRAcquisitionType": "2D",
  "MagneticFieldStrength": 3,
  "Manufacturer": "Siemens",
  "ManufacturersModelName": "Prisma_fit",
  "MatrixCoilMode": "SENSE",
  "Modality": "MR",
  "MultibandAccelerationFactor": 4,
  "PartialFourier": 1,
  "PatientPosition": "HFS",
  "PercentPhaseFOV": 100,
  "PercentSampling": 100,
  "PhaseEncodingDirection": "j",
  "PhaseEncodingSteps": 104,
  "PhaseResolution": 1,
  "PixelBandwidth": 2290,
  "ProcedureStepDescription": "memory^things",
  "ProtocolName": "func_task-things_run-6",
  "PulseSequenceDetails": "%CustomerSeq%\\cmrr_mbep2d_bold",
  "ReceiveCoilActiveElements": "HC1-7;NC1,2",
  "ReceiveCoilName": "HeadNeck_64",
  "ReconMatrixPE": 104,
  "RepetitionTime": 1.49,
  "SAR": 0.0439774,
  "ScanOptions": "FS",
  "ScanningSequence": "EP",
  "SequenceName": "epfid2d1_104",
  "SequenceVariant": "SK\\SS",
  "SeriesDescription": "func_task-things_run-6",
  "SeriesNumber": 26,
  "ShimSetting": [641, -7207, -8814, 720, 57, 11, 71, -13],
  "SliceThickness": 2,
  "SliceTiming": [0, 0.785, 0.1, 0.8825, 0.1975, 0.98, 0.295, 1.0775, 0.3925, 1.1775, 0.49, 1.275, 0.5875, 1.3725, 0.6875, 0, 0.785, 0.1, 0.8825, 0.1975, 0.98, 0.295, 1.0775, 0.3925, 1.1775, 0.49, 1.275, 0.5875, 1.3725, 0.6875, 0, 0.785, 0.1, 0.8825, 0.1975, 0.98, 0.295, 1.0775, 0.3925, 1.1775, 0.49, 1.275, 0.5875, 1.3725, 0.6875, 0, 0.785, 0.1, 0.8825, 0.1975, 0.98, 0.295, 1.0775, 0.3925, 1.1775, 0.49, 1.275, 0.5875, 1.3725, 0.6875],
  "SoftwareVersions": "syngo MR E11",
  "SpacingBetweenSlices": 2,
  "StationName": "MRC35049",
  "TaskName": "things",
  "TotalReadoutTime": 0.0576811,
  "TxRefAmp": 222.806,
  "WipMemBlock": "d20aa1f4-8c87-4de6-94af-3b5736fefd1c||Sequence: R016 ve11c/master r/e634e98; Dec 19 2017 11:00:25 by eja",
  "dcmmeta_affine": [
    [-1.9980154037475586, -0.03661971166729927, 0.08119917660951614, 108.17005157470703],
    [-0.05654305964708328, 1.9301624298095703, -0.520841658115387, -71.31704711914062],
    [0.06882725656032562, 0.522620439529419, 1.9292824268341064, -72.3205795288086],
    [0.0, 0.0, 0.0, 1.0]
],
  "dcmmeta_reorient_transform": [
    [0.0, -1.0, 0.0, 103.0],
    [1.0, 0.0, 0.0, 0.0],
    [0.0, 0.0, 1.0, 0.0],
    [0.0, 0.0, 0.0, 1.0]
],
  "dcmmeta_shape": [104, 104, 60, 190],
  "dcmmeta_slice_dim": 2,
  "dcmmeta_version": 0.6,
  "global": {
    "const": {
      "AcquisitionMatrix": [104, 0, 0, 104],
      "AngioFlag": "N",
      "BitsAllocated": 16,
      "BitsStored": 16,
      "BodyPartExamined": "BRAIN",
      "Columns": 832,
      "EchoNumbers": 1,
      "EchoTime": 37.0,
      "EchoTrainLength": 104,
      "FlipAngle": 52.0,
      "HighBit": 15,
      "ImageOrientationPatient": [0.99900771903025, 0.02827152959615, 0.03441363003637, -0.0183098564055, 0.96508119429533, -0.2613102324363],
      "ImagePositionPatient": [-818.34626397483, -850.65046221888, 146.69005586885],
      "ImageType": [
        "ORIGINAL",
        "PRIMARY",
        "P",
        "MB",
        "ND",
        "MOSAIC"
],
      "ImagedNucleus": "1H",
      "ImagingFrequency": 123.258909,
      "InPlanePhaseEncodingDirection": "COL",
      "LargestImagePixelValue": 4095,
      "MRAcquisitionType": "2D",
      "MagneticFieldStrength": 3.0,
      "Manufacturer": "SIEMENS",
      "ManufacturerModelName": "Prisma_fit",
      "Modality": "MR",
      "NumberOfAverages": 1.0,
      "NumberOfPhaseEncodingSteps": 104,
      "PercentPhaseFieldOfView": 100.0,
      "PercentSampling": 100.0,
      "PerformedProcedureStepStartTime": "131826.057000",
      "PhotometricInterpretation": "MONOCHROME2",
      "PixelBandwidth": 2290.0,
      "PixelRepresentation": 0,
      "PixelSpacing": [2.0, 2.0],
      "ProtocolName": "func_task-things_run-6",
      "RepetitionTime": 1490.0,
      "RescaleIntercept": -4096.0,
      "RescaleSlope": 2.0,
      "RescaleType": "US",
      "Rows": 832,
      "SAR": 0.04397739894659,
      "SamplesPerPixel": 1,
      "ScanOptions": "FS",
      "ScanningSequence": "EP",
      "SequenceName": "epfid2d1_104",
      "SequenceVariant": [
        "SK",
        "SS"
],
      "SeriesDescription": "func_task-things_run-6",
      "SeriesNumber": 26,
      "SeriesTime": "135354.833000",
      "SliceLocation": -46.799306473317,
      "SliceThickness": 2.0,
      "SmallestImagePixelValue": 0,
      "SoftwareVersions": "syngo MR E11",
      "SpacingBetweenSlices": 2.0000000143568,
      "SpecificCharacterSet": "ISO_IR 100",
      "StudyID": "1",
      "StudyTime": "131825.952000",
      "TransmitCoilName": "Body",
      "VariableFlipAngleFlag": "N",
      "WindowCenterWidthExplanation": "Algo1",
      "dBdt": 0.0},
    "slices": {}
  },
  "time": {
    "samples": {
      "AcquisitionNumber": [1, 2, 3, 4, 5, 6, 7, 8, 9, 10, 11, 12, 13, 14, 15, 16, 17, 18, 19, 20, 21, 22, 23, 24, 25, 26, 27, 28, 29, 30, 31, 32, 33, 34, 35, 36, 37, 38, 39, 40, 41, 42, 43, 44, 45, 46, 47, 48, 49, 50, 51, 52, 53, 54, 55, 56, 57, 58, 59, 60, 61, 62, 63, 64, 65, 66, 67, 68, 69, 70, 71, 72, 73, 74, 75, 76, 77, 78, 79, 80, 81, 82, 83, 84, 85, 86, 87, 88, 89, 90, 91, 92, 93, 94, 95, 96, 97, 98, 99, 100, 101, 102, 103, 104, 105, 106, 107, 108, 109, 110, 111, 112, 113, 114, 115, 116, 117, 118, 119, 120, 121, 122, 123, 124, 125, 126, 127, 128, 129, 130, 131, 132, 133, 134, 135, 136, 137, 138, 139, 140, 141, 142, 143, 144, 145, 146, 147, 148, 149, 150, 151, 152, 153, 154, 155, 156, 157, 158, 159, 160, 161, 162, 163, 164, 165, 166, 167, 168, 169, 170, 171, 172, 173, 174, 175, 176, 177, 178, 179, 180, 181, 182, 183, 184, 185, 186, 187, 188, 189, 190],
      "AcquisitionTime": ["135234.890000", "135236.380000", "135237.870000", "135239.360000", "135240.850000", "135242.340000", "135243.830000", "135245.320000", "135246.810000", "135248.300000", "135249.790000", "135251.280000", "135252.770000", "135254.260000", "135255.750000", "135257.240000", "135258.730000", "135300.220000", "135301.710000", "135303.200000", "135304.690000", "135306.180000", "135307.670000", "135309.160000", "135310.650000", "135312.140000", "135313.630000", "135315.120000", "135316.610000", "135318.100000", "135319.590000", "135321.080000", "135322.570000", "135324.060000", "135325.550000", "135327.040000", "135328.530000", "135330.020000", "135331.510000", "135333.000000", "135334.490000", "135335.980000", "135337.470000", "135338.960000", "135340.450000", "135341.940000", "135343.430000", "135344.920000", "135346.410000", "135347.900000", "135349.390000", "135350.880000", "135352.370000", "135353.860000", "135355.350000", "135356.840000", "135358.330000", "135359.820000", "135401.310000", "135402.800000", "135404.290000", "135405.780000", "135407.270000", "135408.760000", "135410.250000", "135411.740000", "135413.230000", "135414.720000", "135416.210000", "135417.700000", "135419.190000", "135420.680000", "135422.170000", "135423.660000", "135425.150000", "135426.640000", "135428.130000", "135429.620000", "135431.110000", "135432.600000", "135434.090000", "135435.580000", "135437.070000", "135438.560000", "135440.050000", "135441.540000", "135443.030000", "135444.520000", "135446.010000", "135447.500000", "135448.990000", "135450.480000", "135451.970000", "135453.460000", "135454.950000", "135456.440000", "135457.930000", "135459.420000", "135500.910000", "135502.400000", "135503.890000", "135505.380000", "135506.870000", "135508.360000", "135509.850000", "135511.340000", "135512.830000", "135514.320000", "135515.810000", "135517.300000", "135518.790000", "135520.280000", "135521.770000", "135523.260000", "135524.750000", "135526.240000", "135527.730000", "135529.220000", "135530.710000", "135532.200000", "135533.690000", "135535.180000", "135536.670000", "135538.160000", "135539.650000", "135541.140000", "135542.630000", "135544.120000", "135545.610000", "135547.100000", "135548.590000", "135550.080000", "135551.570000", "135553.060000", "135554.550000", "135556.040000", "135557.530000", "135559.020000", "135600.510000", "135602.000000", "135603.490000", "135604.980000", "135606.470000", "135607.960000", "135609.450000", "135610.940000", "135612.430000", "135613.920000", "135615.410000", "135616.900000", "135618.390000", "135619.880000", "135621.370000", "135622.860000", "135624.350000", "135625.840000", "135627.330000", "135628.820000", "135630.310000", "135631.800000", "135633.290000", "135634.780000", "135636.270000", "135637.760000", "135639.250000", "135640.740000", "135642.230000", "135643.720000", "135645.210000", "135646.700000", "135648.190000", "135649.680000", "135651.170000", "135652.660000", "135654.150000", "135655.640000", "135657.130000", "135658.620000", "135700.110000", "135701.600000", "135703.090000", "135704.580000", "135706.070000", "135707.560000", "135709.050000", "135710.540000", "135712.030000", "135713.520000", "135715.010000", "135716.500000"],
      "ContentTime": ["135354.835000", "135354.838000", "135354.841000", "135354.843000", "135354.845000", "135354.848000", "135354.851000", "135354.853000", "135354.856000", "135354.858000", "135354.864000", "135354.867000", "135354.869000", "135354.872000", "135354.874000", "135354.877000", "135354.879000", "135354.882000", "135354.884000", "135354.887000", "135354.889000", "135354.892000", "135354.894000", "135354.897000", "135414.764000", "135414.767000", "135414.769000", "135414.771000", "135414.774000", "135414.781000", "135414.783000", "135414.786000", "135414.788000", "135414.797000", "135414.799000", "135414.801000", "135414.804000", "135414.807000", "135414.809000", "135414.812000", "135414.814000", "135414.817000", "135414.819000", "135414.822000", "135434.752000", "135434.755000", "135434.757000", "135434.760000", "135434.762000", "135434.765000", "135434.778000", "135434.781000", "135434.783000", "135434.786000", "135434.788000", "135434.791000", "135434.793000", "135434.796000", "135434.798000", "135434.801000", "135434.803000", "135434.806000", "135434.808000", "135434.811000", "135454.773000", "135454.776000", "135454.778000", "135454.781000", "135454.790000", "135454.793000", "135454.795000", "135454.798000", "135454.801000", "135454.803000", "135454.805000", "135454.808000", "135454.810000", "135454.813000", "135454.816000", "135454.818000", "135454.821000", "135454.823000", "135454.826000", "135454.828000", "135454.831000", "135514.749000", "135514.752000", "135514.755000", "135514.757000", "135514.760000", "135514.762000", "135514.765000", "135514.767000", "135514.770000", "135514.772000", "135514.775000", "135514.777000", "135514.780000", "135514.782000", "135514.791000", "135514.793000", "135514.796000", "135514.798000", "135514.801000", "135514.803000", "135554.792000", "135554.794000", "135554.797000", "135554.799000", "135554.802000", "135554.804000", "135554.807000", "135554.810000", "135554.812000", "135554.814000", "135554.817000", "135554.820000", "135554.822000", "135554.824000", "135554.834000", "135554.837000", "135554.839000", "135554.842000", "135554.844000", "135554.847000", "135554.849000", "135554.852000", "135554.854000", "135554.857000", "135554.859000", "135554.862000", "135554.864000", "135554.867000", "135634.783000", "135634.785000", "135634.788000", "135634.790000", "135634.793000", "135634.795000", "135634.798000", "135634.800000", "135634.803000", "135634.805000", "135634.808000", "135634.810000", "135634.813000", "135634.815000", "135634.818000", "135634.820000", "135634.823000", "135634.825000", "135634.828000", "135634.831000", "135634.833000", "135634.836000", "135634.838000", "135634.841000", "135634.843000", "135634.846000", "135634.848000", "135714.801000", "135714.804000", "135714.807000", "135714.809000", "135714.812000", "135714.814000", "135714.817000", "135714.819000", "135714.822000", "135714.824000", "135714.827000", "135714.831000", "135714.833000", "135714.836000", "135714.838000", "135714.841000", "135714.843000", "135714.846000", "135714.848000", "135714.851000", "135714.853000", "135714.856000", "135714.858000", "135714.861000", "135714.863000", "135714.866000", "135714.868000", "135718.834000", "135718.837000", "135718.839000"],
      "InstanceCreationTime": ["135354.835000", "135354.838000", "135354.841000", "135354.843000", "135354.845000", "135354.848000", "135354.851000", "135354.853000", "135354.856000", "135354.858000", "135354.864000", "135354.867000", "135354.869000", "135354.872000", "135354.874000", "135354.877000", "135354.879000", "135354.882000", "135354.884000", "135354.887000", "135354.889000", "135354.892000", "135354.894000", "135354.897000", "135414.764000", "135414.767000", "135414.769000", "135414.771000", "135414.774000", "135414.781000", "135414.783000", "135414.786000", "135414.788000", "135414.797000", "135414.799000", "135414.801000", "135414.804000", "135414.807000", "135414.809000", "135414.812000", "135414.814000", "135414.817000", "135414.819000", "135414.822000", "135434.752000", "135434.755000", "135434.757000", "135434.760000", "135434.762000", "135434.765000", "135434.778000", "135434.781000", "135434.783000", "135434.786000", "135434.788000", "135434.791000", "135434.793000", "135434.796000", "135434.798000", "135434.801000", "135434.803000", "135434.806000", "135434.808000", "135434.811000", "135454.773000", "135454.776000", "135454.778000", "135454.781000", "135454.790000", "135454.793000", "135454.795000", "135454.798000", "135454.801000", "135454.803000", "135454.805000", "135454.808000", "135454.810000", "135454.813000", "135454.816000", "135454.818000", "135454.821000", "135454.823000", "135454.826000", "135454.828000", "135454.831000", "135514.749000", "135514.752000", "135514.755000", "135514.757000", "135514.760000", "135514.762000", "135514.765000", "135514.767000", "135514.770000", "135514.772000", "135514.775000", "135514.777000", "135514.780000", "135514.782000", "135514.791000", "135514.793000", "135514.796000", "135514.798000", "135514.801000", "135514.803000", "135554.792000", "135554.794000", "135554.797000", "135554.799000", "135554.802000", "135554.804000", "135554.807000", "135554.810000", "135554.812000", "135554.814000", "135554.817000", "135554.820000", "135554.822000", "135554.824000", "135554.834000", "135554.837000", "135554.839000", "135554.842000", "135554.844000", "135554.847000", "135554.849000", "135554.852000", "135554.854000", "135554.857000", "135554.859000", "135554.862000", "135554.864000", "135554.867000", "135634.783000", "135634.785000", "135634.788000", "135634.790000", "135634.793000", "135634.795000", "135634.798000", "135634.800000", "135634.803000", "135634.805000", "135634.808000", "135634.810000", "135634.813000", "135634.815000", "135634.818000", "135634.820000", "135634.823000", "135634.825000", "135634.828000", "135634.831000", "135634.833000", "135634.836000", "135634.838000", "135634.841000", "135634.843000", "135634.846000", "135634.848000", "135714.801000", "135714.804000", "135714.807000", "135714.809000", "135714.812000", "135714.814000", "135714.817000", "135714.819000", "135714.822000", "135714.824000", "135714.827000", "135714.831000", "135714.833000", "135714.836000", "135714.838000", "135714.841000", "135714.843000", "135714.846000", "135714.848000", "135714.851000", "135714.853000", "135714.856000", "135714.858000", "135714.861000", "135714.863000", "135714.866000", "135714.868000", "135718.834000", "135718.837000", "135718.839000"],
      "InstanceNumber": [1, 2, 3, 4, 5, 6, 7, 8, 9, 10, 11, 12, 13, 14, 15, 16, 17, 18, 19, 20, 21, 22, 23, 24, 25, 26, 27, 28, 29, 30, 31, 32, 33, 34, 35, 36, 37, 38, 39, 40, 41, 42, 43, 44, 45, 46, 47, 48, 49, 50, 51, 52, 53, 54, 55, 56, 57, 58, 59, 60, 61, 62, 63, 64, 65, 66, 67, 68, 69, 70, 71, 72, 73, 74, 75, 76, 77, 78, 79, 80, 81, 82, 83, 84, 85, 86, 87, 88, 89, 90, 91, 92, 93, 94, 95, 96, 97, 98, 99, 100, 101, 102, 103, 104, 105, 106, 107, 108, 109, 110, 111, 112, 113, 114, 115, 116, 117, 118, 119, 120, 121, 122, 123, 124, 125, 126, 127, 128, 129, 130, 131, 132, 133, 134, 135, 136, 137, 138, 139, 140, 141, 142, 143, 144, 145, 146, 147, 148, 149, 150, 151, 152, 153, 154, 155, 156, 157, 158, 159, 160, 161, 162, 163, 164, 165, 166, 167, 168, 169, 170, 171, 172, 173, 174, 175, 176, 177, 178, 179, 180, 181, 182, 183, 184, 185, 186, 187, 188, 189, 190],
      "WindowCenter": [4860.0, 4860.0, 4860.0, 4836.0, 4860.0, 4858.0, 4860.0, 4858.0, 4860.0, 4838.0, 4836.0, 4860.0, 4860.0, 4838.0, 4860.0, 4862.0, 4860.0, 4860.0, 4862.0, 4858.0, 4860.0, 4860.0, 4860.0, 4860.0, 4860.0, 4858.0, 4838.0, 4836.0, 4836.0, 4834.0, 4858.0, 4834.0, 4858.0, 4858.0, 4858.0, 4864.0, 4862.0, 4858.0, 4836.0, 4858.0, 4836.0, 4856.0, 4858.0, 4862.0, 4860.0, 4860.0, 4858.0, 4836.0, 4838.0, 4834.0, 4858.0, 4858.0, 4860.0, 4860.0, 4858.0, 4860.0, 4862.0, 4858.0, 4860.0, 4860.0, 4860.0, 4836.0, 4836.0, 4858.0, 4858.0, 4858.0, 4836.0, 4860.0, 4860.0, 4860.0, 4864.0, 4838.0, 4858.0, 4834.0, 4836.0, 4860.0, 4858.0, 4860.0, 4858.0, 4836.0, 4858.0, 4860.0, 4838.0, 4838.0, 4838.0, 4838.0, 4860.0, 4860.0, 4860.0, 4858.0, 4860.0, 4860.0, 4838.0, 4858.0, 4834.0, 4858.0, 4858.0, 4860.0, 4836.0, 4860.0, 4860.0, 4838.0, 4860.0, 4860.0, 4838.0, 4860.0, 4836.0, 4836.0, 4860.0, 4858.0, 4858.0, 4862.0, 4856.0, 4860.0, 4860.0, 4834.0, 4860.0, 4858.0, 4860.0, 4862.0, 4858.0, 4858.0, 4858.0, 4860.0, 4860.0, 4858.0, 4858.0, 4856.0, 4860.0, 4836.0, 4864.0, 4860.0, 4856.0, 4858.0, 4860.0, 4858.0, 4858.0, 4836.0, 4860.0, 4858.0, 4858.0, 4858.0, 4856.0, 4834.0, 4860.0, 4856.0, 4860.0, 4860.0, 4858.0, 4836.0, 4860.0, 4856.0, 4858.0, 4864.0, 4856.0, 4838.0, 4858.0, 4860.0, 4858.0, 4836.0, 4862.0, 4858.0, 4862.0, 4834.0, 4836.0, 4856.0, 4858.0, 4838.0, 4860.0, 4858.0, 4836.0, 4860.0, 4858.0, 4860.0, 4838.0, 4836.0, 4856.0, 4856.0, 4858.0, 4858.0, 4836.0, 4862.0, 4858.0, 4858.0, 4836.0, 4858.0, 4834.0, 4858.0, 4858.0, 4856.0],
      "WindowWidth": [18616.0, 18612.0, 18610.0, 18576.0, 18610.0, 18608.0, 18612.0, 18608.0, 18604.0, 18580.0, 18580.0, 18604.0, 18612.0, 18580.0, 18610.0, 18618.0, 18610.0, 18610.0, 18610.0, 18612.0, 18608.0, 18608.0, 18610.0, 18610.0, 18610.0, 18610.0, 18580.0, 18580.0, 18582.0, 18576.0, 18600.0, 18584.0, 18604.0, 18604.0, 18608.0, 18618.0, 18614.0, 18612.0, 18584.0, 18608.0, 18586.0, 18604.0, 18610.0, 18608.0, 18612.0, 18610.0, 18612.0, 18580.0, 18578.0, 18578.0, 18610.0, 18608.0, 18614.0, 18612.0, 18608.0, 18610.0, 18614.0, 18610.0, 18610.0, 18614.0, 18608.0, 18582.0, 18580.0, 18608.0, 18606.0, 18610.0, 18578.0, 18616.0, 18610.0, 18610.0, 18616.0, 18582.0, 18614.0, 18580.0, 18578.0, 18608.0, 18612.0, 18610.0, 18608.0, 18576.0, 18610.0, 18610.0, 18582.0, 18580.0, 18580.0, 18580.0, 18612.0, 18606.0, 18604.0, 18606.0, 18610.0, 18612.0, 18576.0, 18606.0, 18582.0, 18608.0, 18614.0, 18606.0, 18582.0, 18608.0, 18608.0, 18582.0, 18608.0, 18608.0, 18576.0, 18610.0, 18574.0, 18580.0, 18616.0, 18608.0, 18608.0, 18610.0, 18606.0, 18608.0, 18604.0, 18576.0, 18612.0, 18612.0, 18608.0, 18612.0, 18614.0, 18612.0, 18606.0, 18606.0, 18608.0, 18608.0, 18606.0, 18606.0, 18616.0, 18576.0, 18612.0, 18610.0, 18604.0, 18604.0, 18610.0, 18606.0, 18610.0, 18578.0, 18614.0, 18608.0, 18608.0, 18608.0, 18608.0, 18576.0, 18608.0, 18602.0, 18604.0, 18604.0, 18608.0, 18580.0, 18610.0, 18612.0, 18606.0, 18616.0, 18610.0, 18576.0, 18610.0, 18610.0, 18614.0, 18578.0, 18610.0, 18604.0, 18606.0, 18574.0, 18578.0, 18608.0, 18608.0, 18578.0, 18610.0, 18616.0, 18582.0, 18612.0, 18608.0, 18608.0, 18582.0, 18574.0, 18610.0, 18610.0, 18608.0, 18608.0, 18578.0, 18614.0, 18610.0, 18610.0, 18580.0, 18608.0, 18576.0, 18610.0, 18604.0, 18610.0]
    },
    "slices": {}
  }
}