{
  "AcquisitionMatrixPE": 104,
  "AcquisitionNumber": 1,
  "AcquisitionTime": "13:34:19.805000",
  "BandwidthPerPixelPhaseEncode": 17.17,
  "BaseResolution": 104,
  "BodyPartExamined": "BRAIN",
  "CoilCombinationMethod": "Sum of Squares",
  "ConsistencyInfo": "N4_VE11C_LATEST_20160120",
  "ConversionSoftware": "dcm2niix",
  "ConversionSoftwareVersion": "v1.0.20211006",
  "DerivedVendorReportedEchoSpacing": 0.000560011,
  "DeviceSerialNumber": "167006",
  "DwellTime": 2.1e-06,
  "EchoTime": 0.037,
  "EchoTime1": 0.037,
  "EchoTime2": 0.001,
  "EchoTrainLength": 104,
  "EffectiveEchoSpacing": 0.000560011,
  "FlipAngle": 52,
  "HeudiconvVersion": "0.10.0",
  "ImageComments": "Unaliased MB4/PE3/LB",
  "ImageOrientationPatientDICOM": [0.999008, 0.0282715, 0.0344136, -0.0183099, 0.965081, -0.26131],
  "ImageOrientationText": "Tra>Cor(-15.1)>Sag(2.3)",
  "ImageType": [
    "ORIGINAL",
    "PRIMARY",
    "P",
    "MB",
    "ND",
    "MOSAIC",
    "PHASE"
],
  "ImagingFrequency": 123.259,
  "InPlanePhaseEncodingDirectionDICOM": "COL",
  "InstitutionAddress": "Chemin Queen-Mary 4565,Montreal,District,CA,H3W 1W5",
  "InstitutionName": "IUGM",
  "InstitutionalDepartmentName": "Department",
  "MRAcquisitionType": "2D",
  "MagneticFieldStrength": 3,
  "Manufacturer": "Siemens",
  "ManufacturersModelName": "Prisma_fit",
  "MatrixCoilMode": "SENSE",
  "Modality": "MR",
  "MultibandAccelerationFactor": 4,
  "PartialFourier": 1,
  "PatientPosition": "HFS",
  "PercentPhaseFOV": 100,
  "PercentSampling": 100,
  "PhaseEncodingDirection": "j",
  "PhaseEncodingSteps": 104,
  "PhaseResolution": 1,
  "PixelBandwidth": 2290,
  "ProcedureStepDescription": "memory^things",
  "ProtocolName": "func_task-things_run-3",
  "PulseSequenceDetails": "%CustomerSeq%\\cmrr_mbep2d_bold",
  "ReceiveCoilActiveElements": "HC1-7;NC1,2",
  "ReceiveCoilName": "HeadNeck_64",
  "ReconMatrixPE": 104,
  "RepetitionTime": 1.49,
  "SAR": 0.0439774,
  "ScanOptions": "FS",
  "ScanningSequence": "EP",
  "SequenceName": "epfid2d1_104",
  "SequenceVariant": "SK\\SS",
  "SeriesDescription": "func_task-things_run-3",
  "SeriesNumber": 17,
  "ShimSetting": [641, -7207, -8814, 720, 57, 11, 71, -13],
  "SliceThickness": 2,
  "SliceTiming": [0, 0.7825, 0.0975, 0.8825, 0.195, 0.98, 0.2925, 1.0775, 0.3925, 1.175, 0.49, 1.2725, 0.5875, 1.3725, 0.685, 0, 0.7825, 0.0975, 0.8825, 0.195, 0.98, 0.2925, 1.0775, 0.3925, 1.175, 0.49, 1.2725, 0.5875, 1.3725, 0.685, 0, 0.7825, 0.0975, 0.8825, 0.195, 0.98, 0.2925, 1.0775, 0.3925, 1.175, 0.49, 1.2725, 0.5875, 1.3725, 0.685, 0, 0.7825, 0.0975, 0.8825, 0.195, 0.98, 0.2925, 1.0775, 0.3925, 1.175, 0.49, 1.2725, 0.5875, 1.3725, 0.685],
  "SoftwareVersions": "syngo MR E11",
  "SpacingBetweenSlices": 2,
  "StationName": "MRC35049",
  "TaskName": "things",
  "TotalReadoutTime": 0.0576811,
  "TxRefAmp": 222.806,
  "WipMemBlock": "858fe381-4ff2-45b2-8a50-c30b3909f13d||Sequence: R016 ve11c/master r/e634e98; Dec 19 2017 11:00:25 by eja",
  "dcmmeta_affine": [
    [-1.9980154037475586, -0.03661971166729927, 0.08119917660951614, 108.17005157470703],
    [-0.05654305964708328, 1.9301624298095703, -0.520841658115387, -71.31704711914062],
    [0.06882725656032562, 0.522620439529419, 1.9292824268341064, -72.3205795288086],
    [0.0, 0.0, 0.0, 1.0]
],
  "dcmmeta_reorient_transform": [
    [0.0, -1.0, 0.0, 103.0],
    [1.0, 0.0, 0.0, 0.0],
    [0.0, 0.0, 1.0, 0.0],
    [0.0, 0.0, 0.0, 1.0]
],
  "dcmmeta_shape": [104, 104, 60, 190],
  "dcmmeta_slice_dim": 2,
  "dcmmeta_version": 0.6,
  "global": {
    "const": {
      "AcquisitionMatrix": [104, 0, 0, 104],
      "AngioFlag": "N",
      "BitsAllocated": 16,
      "BitsStored": 16,
      "BodyPartExamined": "BRAIN",
      "Columns": 832,
      "EchoNumbers": 1,
      "EchoTime": 37.0,
      "EchoTrainLength": 104,
      "FlipAngle": 52.0,
      "HighBit": 15,
      "ImageOrientationPatient": [0.99900771903025, 0.02827152959615, 0.03441363003637, -0.0183098564055, 0.96508119429533, -0.2613102324363],
      "ImagePositionPatient": [-818.34626397483, -850.65046221888, 146.69005586885],
      "ImageType": [
        "ORIGINAL",
        "PRIMARY",
        "P",
        "MB",
        "ND",
        "MOSAIC"
],
      "ImagedNucleus": "1H",
      "ImagingFrequency": 123.258901,
      "InPlanePhaseEncodingDirection": "COL",
      "LargestImagePixelValue": 4095,
      "MRAcquisitionType": "2D",
      "MagneticFieldStrength": 3.0,
      "Manufacturer": "SIEMENS",
      "ManufacturerModelName": "Prisma_fit",
      "Modality": "MR",
      "NumberOfAverages": 1.0,
      "NumberOfPhaseEncodingSteps": 104,
      "PercentPhaseFieldOfView": 100.0,
      "PercentSampling": 100.0,
      "PerformedProcedureStepStartTime": "131826.057000",
      "PhotometricInterpretation": "MONOCHROME2",
      "PixelBandwidth": 2290.0,
      "PixelRepresentation": 0,
      "PixelSpacing": [2.0, 2.0],
      "ProtocolName": "func_task-things_run-3",
      "RepetitionTime": 1490.0,
      "RescaleIntercept": -4096.0,
      "RescaleSlope": 2.0,
      "RescaleType": "US",
      "Rows": 832,
      "SAR": 0.04397739894659,
      "SamplesPerPixel": 1,
      "ScanOptions": "FS",
      "ScanningSequence": "EP",
      "SequenceName": "epfid2d1_104",
      "SequenceVariant": [
        "SK",
        "SS"
],
      "SeriesDescription": "func_task-things_run-3",
      "SeriesNumber": 17,
      "SeriesTime": "133534.833000",
      "SliceLocation": -46.799306473317,
      "SliceThickness": 2.0,
      "SmallestImagePixelValue": 0,
      "SoftwareVersions": "syngo MR E11",
      "SpacingBetweenSlices": 2.0000000143568,
      "SpecificCharacterSet": "ISO_IR 100",
      "StudyID": "1",
      "StudyTime": "131825.952000",
      "TransmitCoilName": "Body",
      "VariableFlipAngleFlag": "N",
      "WindowCenterWidthExplanation": "Algo1",
      "dBdt": 0.0},
    "slices": {}
  },
  "time": {
    "samples": {
      "AcquisitionNumber": [1, 2, 3, 4, 5, 6, 7, 8, 9, 10, 11, 12, 13, 14, 15, 16, 17, 18, 19, 20, 21, 22, 23, 24, 25, 26, 27, 28, 29, 30, 31, 32, 33, 34, 35, 36, 37, 38, 39, 40, 41, 42, 43, 44, 45, 46, 47, 48, 49, 50, 51, 52, 53, 54, 55, 56, 57, 58, 59, 60, 61, 62, 63, 64, 65, 66, 67, 68, 69, 70, 71, 72, 73, 74, 75, 76, 77, 78, 79, 80, 81, 82, 83, 84, 85, 86, 87, 88, 89, 90, 91, 92, 93, 94, 95, 96, 97, 98, 99, 100, 101, 102, 103, 104, 105, 106, 107, 108, 109, 110, 111, 112, 113, 114, 115, 116, 117, 118, 119, 120, 121, 122, 123, 124, 125, 126, 127, 128, 129, 130, 131, 132, 133, 134, 135, 136, 137, 138, 139, 140, 141, 142, 143, 144, 145, 146, 147, 148, 149, 150, 151, 152, 153, 154, 155, 156, 157, 158, 159, 160, 161, 162, 163, 164, 165, 166, 167, 168, 169, 170, 171, 172, 173, 174, 175, 176, 177, 178, 179, 180, 181, 182, 183, 184, 185, 186, 187, 188, 189, 190],
      "AcquisitionTime": ["133419.805000", "133421.295000", "133422.785000", "133424.275000", "133425.765000", "133427.255000", "133428.745000", "133430.235000", "133431.725000", "133433.215000", "133434.705000", "133436.195000", "133437.685000", "133439.175000", "133440.665000", "133442.155000", "133443.645000", "133445.135000", "133446.625000", "133448.115000", "133449.605000", "133451.095000", "133452.585000", "133454.075000", "133455.565000", "133457.055000", "133458.545000", "133500.035000", "133501.525000", "133503.015000", "133504.505000", "133505.995000", "133507.485000", "133508.975000", "133510.465000", "133511.955000", "133513.445000", "133514.935000", "133516.425000", "133517.915000", "133519.405000", "133520.895000", "133522.385000", "133523.875000", "133525.365000", "133526.855000", "133528.345000", "133529.835000", "133531.325000", "133532.815000", "133534.305000", "133535.795000", "133537.285000", "133538.775000", "133540.265000", "133541.755000", "133543.245000", "133544.735000", "133546.225000", "133547.715000", "133549.205000", "133550.695000", "133552.185000", "133553.675000", "133555.165000", "133556.655000", "133558.145000", "133559.635000", "133601.125000", "133602.615000", "133604.105000", "133605.595000", "133607.085000", "133608.575000", "133610.065000", "133611.555000", "133613.045000", "133614.535000", "133616.025000", "133617.515000", "133619.005000", "133620.495000", "133621.985000", "133623.475000", "133624.965000", "133626.455000", "133627.945000", "133629.435000", "133630.925000", "133632.415000", "133633.905000", "133635.395000", "133636.885000", "133638.375000", "133639.865000", "133641.355000", "133642.845000", "133644.335000", "133645.825000", "133647.315000", "133648.805000", "133650.295000", "133651.785000", "133653.275000", "133654.765000", "133656.255000", "133657.745000", "133659.235000", "133700.725000", "133702.215000", "133703.705000", "133705.195000", "133706.685000", "133708.175000", "133709.665000", "133711.155000", "133712.645000", "133714.135000", "133715.625000", "133717.115000", "133718.605000", "133720.095000", "133721.585000", "133723.075000", "133724.565000", "133726.055000", "133727.545000", "133729.035000", "133730.525000", "133732.015000", "133733.505000", "133734.995000", "133736.485000", "133737.975000", "133739.465000", "133740.955000", "133742.445000", "133743.935000", "133745.425000", "133746.915000", "133748.405000", "133749.895000", "133751.385000", "133752.875000", "133754.365000", "133755.855000", "133757.345000", "133758.835000", "133800.325000", "133801.815000", "133803.305000", "133804.795000", "133806.285000", "133807.775000", "133809.265000", "133810.755000", "133812.245000", "133813.735000", "133815.225000", "133816.715000", "133818.205000", "133819.695000", "133821.185000", "133822.675000", "133824.165000", "133825.655000", "133827.145000", "133828.635000", "133830.125000", "133831.615000", "133833.105000", "133834.595000", "133836.085000", "133837.575000", "133839.065000", "133840.555000", "133842.045000", "133843.535000", "133845.025000", "133846.515000", "133848.005000", "133849.495000", "133850.985000", "133852.475000", "133853.965000", "133855.455000", "133856.945000", "133858.435000", "133859.925000", "133901.415000"],
      "ContentTime": ["133534.835000", "133534.838000", "133534.841000", "133534.843000", "133534.846000", "133534.848000", "133534.851000", "133534.853000", "133534.856000", "133534.858000", "133534.861000", "133534.863000", "133534.866000", "133534.868000", "133534.871000", "133534.873000", "133534.876000", "133534.878000", "133534.881000", "133534.883000", "133554.761000", "133554.763000", "133554.766000", "133554.768000", "133554.771000", "133554.773000", "133554.776000", "133554.778000", "133554.781000", "133554.783000", "133554.786000", "133554.788000", "133554.791000", "133554.793000", "133554.796000", "133554.798000", "133554.801000", "133554.803000", "133554.806000", "133554.808000", "133554.811000", "133614.771000", "133614.774000", "133614.776000", "133614.779000", "133614.781000", "133614.784000", "133614.786000", "133614.789000", "133614.791000", "133614.794000", "133614.796000", "133614.799000", "133614.801000", "133614.804000", "133614.806000", "133614.809000", "133614.811000", "133614.814000", "133614.816000", "133614.818000", "133634.758000", "133634.761000", "133634.763000", "133634.766000", "133634.768000", "133634.771000", "133634.773000", "133634.776000", "133634.778000", "133634.781000", "133634.783000", "133634.786000", "133634.788000", "133634.791000", "133634.793000", "133634.796000", "133634.798000", "133634.801000", "133634.804000", "133634.806000", "133654.752000", "133654.755000", "133654.757000", "133654.760000", "133654.762000", "133654.765000", "133654.769000", "133654.772000", "133654.774000", "133654.777000", "133654.779000", "133654.782000", "133654.784000", "133654.787000", "133654.789000", "133654.792000", "133654.794000", "133654.797000", "133654.799000", "133654.802000", "133654.804000", "133734.780000", "133734.783000", "133734.785000", "133734.788000", "133734.790000", "133734.793000", "133734.795000", "133734.798000", "133734.800000", "133734.803000", "133734.805000", "133734.808000", "133734.810000", "133734.813000", "133734.815000", "133734.818000", "133734.820000", "133734.823000", "133734.831000", "133734.833000", "133734.836000", "133734.838000", "133734.840000", "133734.843000", "133734.846000", "133734.848000", "133734.851000", "133734.853000", "133814.784000", "133814.787000", "133814.789000", "133814.792000", "133814.794000", "133814.797000", "133814.799000", "133814.802000", "133814.804000", "133814.807000", "133814.809000", "133814.812000", "133814.814000", "133814.817000", "133814.819000", "133814.822000", "133814.824000", "133814.827000", "133814.829000", "133814.832000", "133814.834000", "133814.837000", "133814.839000", "133814.842000", "133814.844000", "133814.847000", "133814.849000", "133854.774000", "133854.777000", "133854.779000", "133854.782000", "133854.784000", "133854.787000", "133854.790000", "133854.792000", "133854.795000", "133854.797000", "133854.800000", "133854.802000", "133854.805000", "133854.807000", "133854.810000", "133854.812000", "133854.815000", "133854.817000", "133854.820000", "133854.822000", "133854.825000", "133854.827000", "133854.830000", "133854.832000", "133854.835000", "133854.837000", "133854.840000", "133903.307000", "133903.310000", "133903.313000", "133903.315000", "133903.318000", "133903.323000"],
      "InstanceCreationTime": ["133534.835000", "133534.838000", "133534.841000", "133534.843000", "133534.846000", "133534.848000", "133534.851000", "133534.853000", "133534.856000", "133534.858000", "133534.861000", "133534.863000", "133534.866000", "133534.868000", "133534.871000", "133534.873000", "133534.876000", "133534.878000", "133534.881000", "133534.883000", "133554.761000", "133554.763000", "133554.766000", "133554.768000", "133554.771000", "133554.773000", "133554.776000", "133554.778000", "133554.781000", "133554.783000", "133554.786000", "133554.788000", "133554.791000", "133554.793000", "133554.796000", "133554.798000", "133554.801000", "133554.803000", "133554.806000", "133554.808000", "133554.811000", "133614.771000", "133614.774000", "133614.776000", "133614.779000", "133614.781000", "133614.784000", "133614.786000", "133614.789000", "133614.791000", "133614.794000", "133614.796000", "133614.799000", "133614.801000", "133614.804000", "133614.806000", "133614.809000", "133614.811000", "133614.814000", "133614.816000", "133614.818000", "133634.758000", "133634.761000", "133634.763000", "133634.766000", "133634.768000", "133634.771000", "133634.773000", "133634.776000", "133634.778000", "133634.781000", "133634.783000", "133634.786000", "133634.788000", "133634.791000", "133634.793000", "133634.796000", "133634.798000", "133634.801000", "133634.804000", "133634.806000", "133654.752000", "133654.755000", "133654.757000", "133654.760000", "133654.762000", "133654.765000", "133654.769000", "133654.772000", "133654.774000", "133654.777000", "133654.779000", "133654.782000", "133654.784000", "133654.787000", "133654.789000", "133654.792000", "133654.794000", "133654.797000", "133654.799000", "133654.802000", "133654.804000", "133734.780000", "133734.783000", "133734.785000", "133734.788000", "133734.790000", "133734.793000", "133734.795000", "133734.798000", "133734.800000", "133734.803000", "133734.805000", "133734.808000", "133734.810000", "133734.813000", "133734.815000", "133734.818000", "133734.820000", "133734.823000", "133734.831000", "133734.833000", "133734.836000", "133734.838000", "133734.840000", "133734.843000", "133734.846000", "133734.848000", "133734.851000", "133734.853000", "133814.784000", "133814.787000", "133814.789000", "133814.792000", "133814.794000", "133814.797000", "133814.799000", "133814.802000", "133814.804000", "133814.807000", "133814.809000", "133814.812000", "133814.814000", "133814.817000", "133814.819000", "133814.822000", "133814.824000", "133814.827000", "133814.829000", "133814.832000", "133814.834000", "133814.837000", "133814.839000", "133814.842000", "133814.844000", "133814.847000", "133814.849000", "133854.774000", "133854.777000", "133854.779000", "133854.782000", "133854.784000", "133854.787000", "133854.790000", "133854.792000", "133854.795000", "133854.797000", "133854.800000", "133854.802000", "133854.805000", "133854.807000", "133854.810000", "133854.812000", "133854.815000", "133854.817000", "133854.820000", "133854.822000", "133854.825000", "133854.827000", "133854.830000", "133854.832000", "133854.835000", "133854.837000", "133854.840000", "133903.307000", "133903.310000", "133903.313000", "133903.315000", "133903.318000", "133903.323000"],
      "InstanceNumber": [1, 2, 3, 4, 5, 6, 7, 8, 9, 10, 11, 12, 13, 14, 15, 16, 17, 18, 19, 20, 21, 22, 23, 24, 25, 26, 27, 28, 29, 30, 31, 32, 33, 34, 35, 36, 37, 38, 39, 40, 41, 42, 43, 44, 45, 46, 47, 48, 49, 50, 51, 52, 53, 54, 55, 56, 57, 58, 59, 60, 61, 62, 63, 64, 65, 66, 67, 68, 69, 70, 71, 72, 73, 74, 75, 76, 77, 78, 79, 80, 81, 82, 83, 84, 85, 86, 87, 88, 89, 90, 91, 92, 93, 94, 95, 96, 97, 98, 99, 100, 101, 102, 103, 104, 105, 106, 107, 108, 109, 110, 111, 112, 113, 114, 115, 116, 117, 118, 119, 120, 121, 122, 123, 124, 125, 126, 127, 128, 129, 130, 131, 132, 133, 134, 135, 136, 137, 138, 139, 140, 141, 142, 143, 144, 145, 146, 147, 148, 149, 150, 151, 152, 153, 154, 155, 156, 157, 158, 159, 160, 161, 162, 163, 164, 165, 166, 167, 168, 169, 170, 171, 172, 173, 174, 175, 176, 177, 178, 179, 180, 181, 182, 183, 184, 185, 186, 187, 188, 189, 190],
      "WindowCenter": [4836.0, 4834.0, 4860.0, 4856.0, 4834.0, 4834.0, 4838.0, 4838.0, 4838.0, 4836.0, 4862.0, 4860.0, 4836.0, 4858.0, 4836.0, 4860.0, 4836.0, 4834.0, 4838.0, 4836.0, 4860.0, 4836.0, 4836.0, 4856.0, 4836.0, 4862.0, 4860.0, 4834.0, 4840.0, 4860.0, 4834.0, 4838.0, 4836.0, 4860.0, 4858.0, 4836.0, 4836.0, 4858.0, 4862.0, 4860.0, 4838.0, 4860.0, 4838.0, 4836.0, 4858.0, 4858.0, 4858.0, 4860.0, 4836.0, 4858.0, 4838.0, 4858.0, 4858.0, 4860.0, 4860.0, 4862.0, 4840.0, 4836.0, 4860.0, 4838.0, 4834.0, 4860.0, 4836.0, 4858.0, 4858.0, 4838.0, 4862.0, 4836.0, 4838.0, 4834.0, 4834.0, 4858.0, 4836.0, 4858.0, 4836.0, 4836.0, 4834.0, 4858.0, 4836.0, 4836.0, 4834.0, 4834.0, 4858.0, 4856.0, 4836.0, 4862.0, 4858.0, 4838.0, 4858.0, 4860.0, 4832.0, 4836.0, 4836.0, 4860.0, 4858.0, 4858.0, 4860.0, 4860.0, 4836.0, 4840.0, 4860.0, 4862.0, 4836.0, 4836.0, 4836.0, 4858.0, 4862.0, 4856.0, 4860.0, 4838.0, 4836.0, 4834.0, 4858.0, 4834.0, 4834.0, 4836.0, 4862.0, 4860.0, 4836.0, 4860.0, 4858.0, 4862.0, 4858.0, 4862.0, 4858.0, 4860.0, 4858.0, 4832.0, 4836.0, 4860.0, 4840.0, 4836.0, 4836.0, 4862.0, 4860.0, 4836.0, 4836.0, 4860.0, 4860.0, 4836.0, 4836.0, 4836.0, 4836.0, 4832.0, 4838.0, 4836.0, 4836.0, 4860.0, 4858.0, 4838.0, 4836.0, 4860.0, 4834.0, 4836.0, 4860.0, 4862.0, 4856.0, 4856.0, 4834.0, 4858.0, 4834.0, 4834.0, 4836.0, 4860.0, 4832.0, 4836.0, 4836.0, 4836.0, 4836.0, 4860.0, 4858.0, 4834.0, 4858.0, 4860.0, 4838.0, 4860.0, 4860.0, 4836.0, 4858.0, 4836.0, 4838.0, 4860.0, 4858.0, 4836.0, 4838.0, 4858.0, 4860.0, 4838.0, 4860.0, 4858.0],
      "WindowWidth": [18572.0, 18574.0, 18606.0, 18604.0, 18574.0, 18572.0, 18578.0, 18572.0, 18580.0, 18576.0, 18606.0, 18606.0, 18574.0, 18604.0, 18578.0, 18606.0, 18576.0, 18570.0, 18582.0, 18568.0, 18610.0, 18574.0, 18572.0, 18602.0, 18576.0, 18608.0, 18604.0, 18574.0, 18578.0, 18606.0, 18574.0, 18580.0, 18576.0, 18608.0, 18608.0, 18572.0, 18574.0, 18602.0, 18606.0, 18608.0, 18576.0, 18606.0, 18580.0, 18574.0, 18604.0, 18604.0, 18600.0, 18608.0, 18574.0, 18600.0, 18576.0, 18604.0, 18602.0, 18600.0, 18606.0, 18610.0, 18576.0, 18580.0, 18608.0, 18570.0, 18568.0, 18610.0, 18574.0, 18602.0, 18602.0, 18578.0, 18606.0, 18576.0, 18574.0, 18574.0, 18576.0, 18604.0, 18576.0, 18608.0, 18574.0, 18574.0, 18578.0, 18606.0, 18574.0, 18576.0, 18572.0, 18572.0, 18604.0, 18604.0, 18576.0, 18602.0, 18602.0, 18576.0, 18608.0, 18606.0, 18574.0, 18572.0, 18580.0, 18610.0, 18600.0, 18602.0, 18606.0, 18608.0, 18576.0, 18574.0, 18608.0, 18608.0, 18578.0, 18582.0, 18576.0, 18608.0, 18602.0, 18602.0, 18598.0, 18572.0, 18574.0, 18580.0, 18606.0, 18576.0, 18578.0, 18576.0, 18602.0, 18604.0, 18576.0, 18606.0, 18604.0, 18608.0, 18606.0, 18604.0, 18600.0, 18604.0, 18600.0, 18572.0, 18568.0, 18608.0, 18578.0, 18574.0, 18576.0, 18610.0, 18606.0, 18574.0, 18576.0, 18608.0, 18604.0, 18574.0, 18574.0, 18576.0, 18578.0, 18572.0, 18570.0, 18566.0, 18572.0, 18604.0, 18602.0, 18572.0, 18576.0, 18608.0, 18572.0, 18574.0, 18606.0, 18610.0, 18606.0, 18606.0, 18572.0, 18596.0, 18574.0, 18574.0, 18574.0, 18602.0, 18576.0, 18570.0, 18580.0, 18576.0, 18574.0, 18604.0, 18602.0, 18568.0, 18600.0, 18600.0, 18572.0, 18608.0, 18606.0, 18578.0, 18604.0, 18580.0, 18574.0, 18604.0, 18606.0, 18572.0, 18576.0, 18606.0, 18610.0, 18578.0, 18602.0, 18606.0]
    },
    "slices": {}
  }
}