{
  "AcquisitionMatrixPE": 104,
  "AcquisitionNumber": 1,
  "AcquisitionTime": "15:21:0.342500",
  "BandwidthPerPixelPhaseEncode": 17.17,
  "BaseResolution": 104,
  "BodyPartExamined": "BRAIN",
  "CoilString": "HC1-7;NC1_2",
  "ConsistencyInfo": "N4_VE11C_LATEST_20160120",
  "ConversionSoftware": "dcm2niix",
  "ConversionSoftwareVersion": "v1.0.20190902",
  "DerivedVendorReportedEchoSpacing": 0.000560011,
  "DeviceSerialNumber": "167006",
  "DwellTime": 2.1e-06,
  "EchoTime": 0.037,
  "EchoTrainLength": 104,
  "EffectiveEchoSpacing": 0.000560011,
  "FlipAngle": 52,
  "HeudiconvVersion": "0.10.0",
  "ImageComments": "Unaliased_MB4_PE3_LB",
  "ImageOrientationPatientDICOM": [0.998689, -0.0492699, 0.0138707, 0.0511157, 0.945902, -0.320402],
  "ImageType": [
    "ORIGINAL",
    "PRIMARY",
    "M",
    "MB",
    "ND",
    "MOSAIC"
],
  "ImagingFrequency": 123.259,
  "InPlanePhaseEncodingDirectionDICOM": "COL",
  "InstitutionAddress": "Chemin_Queen-Mary_4565_Montreal_District_CA_H3W_1W5",
  "InstitutionName": "IUGM",
  "InstitutionalDepartmentName": "Department",
  "MRAcquisitionType": "2D",
  "MagneticFieldStrength": 3,
  "Manufacturer": "Siemens",
  "ManufacturersModelName": "Prisma_fit",
  "Modality": "MR",
  "MultibandAccelerationFactor": 4,
  "PartialFourier": 1,
  "PatientPosition": "HFS",
  "PercentPhaseFOV": 100,
  "PhaseEncodingDirection": "j",
  "PhaseEncodingSteps": 104,
  "PhaseResolution": 1,
  "PixelBandwidth": 2290,
  "ProcedureStepDescription": "memory_things",
  "ProtocolName": "func_task-things_run-2",
  "PulseSequenceDetails": "%CustomerSeq%_cmrr_mbep2d_bold",
  "ReceiveCoilActiveElements": "HC1-7;NC1,2",
  "ReceiveCoilName": "HeadNeck_64",
  "ReconMatrixPE": 104,
  "RepetitionTime": 1.49,
  "SAR": 0.0483871,
  "ScanOptions": "FS",
  "ScanningSequence": "EP",
  "SequenceName": "epfid2d1_104",
  "SequenceVariant": "SK_SS",
  "SeriesDescription": "func_task-things_run-2",
  "SeriesNumber": 13,
  "ShimSetting": [626, -7243, -8826, 593, -3, -188, -48, -36],
  "SliceThickness": 2,
  "SliceTiming": [0, 0.785, 0.1, 0.8825, 0.1975, 0.98, 0.295, 1.08, 0.3925, 1.1775, 0.49, 1.275, 0.59, 1.3725, 0.6875, 0, 0.785, 0.1, 0.8825, 0.1975, 0.98, 0.295, 1.08, 0.3925, 1.1775, 0.49, 1.275, 0.59, 1.3725, 0.6875, 0, 0.785, 0.1, 0.8825, 0.1975, 0.98, 0.295, 1.08, 0.3925, 1.1775, 0.49, 1.275, 0.59, 1.3725, 0.6875, 0, 0.785, 0.1, 0.8825, 0.1975, 0.98, 0.295, 1.08, 0.3925, 1.1775, 0.49, 1.275, 0.59, 1.3725, 0.6875],
  "SoftwareVersions": "syngo_MR_E11",
  "SpacingBetweenSlices": 2,
  "StationName": "MRC35049",
  "TaskName": "things",
  "TotalReadoutTime": 0.0576811,
  "TxRefAmp": 253.085,
  "WipMemBlock": "a7dcfdf0-31ac-4d2f-8c4c-cda85d6f2c3f||Sequence: R016 ve11c/master r/e634e98; Dec 19 2017 11:00:25 by eja",
  "dcmmeta_affine": [
    [-1.9973783493041992, 0.10223132371902466, -0.005331747699528933, 102.55690002441406],
    [0.09853977710008621, 1.8918030261993408, -0.6413822770118713, -70.42388916015625],
    [0.02774137258529663, 0.6408042311668396, 1.8943601846694946, -67.52318572998047],
    [0.0, 0.0, 0.0, 1.0]
],
  "dcmmeta_reorient_transform": [
    [0.0, -1.0, 0.0, 103.0],
    [1.0, 0.0, 0.0, 0.0],
    [0.0, 0.0, 1.0, 0.0],
    [0.0, 0.0, 0.0, 1.0]
],
  "dcmmeta_shape": [104, 104, 60, 190],
  "dcmmeta_slice_dim": 2,
  "dcmmeta_version": 0.6,
  "global": {
    "const": {
      "AcquisitionMatrix": [104, 0, 0, 104],
      "AngioFlag": "N",
      "BitsAllocated": 16,
      "BitsStored": 16,
      "BodyPartExamined": "BRAIN",
      "Columns": 832,
      "EchoNumbers": 1,
      "EchoTime": 37.0,
      "EchoTrainLength": 104,
      "FlipAngle": 52.0,
      "HighBit": 15,
      "ImageOrientationPatient": [0.9986891819243, -0.0492698891602, 0.01387068597827, 0.0511156632005, 0.94590151412713, -0.3204021138313],
      "ImagePositionPatient": [-877.34465290478, -777.17964660079, 221.63452791759],
      "ImageType": [
        "ORIGINAL",
        "PRIMARY",
        "M",
        "MB",
        "ND",
        "MOSAIC"
],
      "ImagedNucleus": "1H",
      "ImagingFrequency": 123.258885,
      "InPlanePhaseEncodingDirection": "COL",
      "MRAcquisitionType": "2D",
      "MagneticFieldStrength": 3.0,
      "Manufacturer": "SIEMENS",
      "ManufacturerModelName": "Prisma_fit",
      "Modality": "MR",
      "NumberOfAverages": 1.0,
      "NumberOfPhaseEncodingSteps": 104,
      "PercentPhaseFieldOfView": 100.0,
      "PercentSampling": 100.0,
      "PerformedProcedureStepStartTime": "144220.467000",
      "PhotometricInterpretation": "MONOCHROME2",
      "PixelBandwidth": 2290.0,
      "PixelRepresentation": 0,
      "PixelSpacing": [2.0, 2.0],
      "ProtocolName": "func_task-things_run-2",
      "RepetitionTime": 1490.0,
      "Rows": 832,
      "SAR": 0.04838713503498,
      "SamplesPerPixel": 1,
      "ScanOptions": "FS",
      "ScanningSequence": "EP",
      "SequenceName": "epfid2d1_104",
      "SequenceVariant": [
        "SK",
        "SS"
],
      "SeriesDescription": "func_task-things_run-2",
      "SeriesNumber": 13,
      "SeriesTime": "152221.081000",
      "SliceLocation": -41.645704291883,
      "SliceThickness": 2.0,
      "SmallestImagePixelValue": 0,
      "SoftwareVersions": "syngo MR E11",
      "SpacingBetweenSlices": 2.000000010625,
      "SpecificCharacterSet": "ISO_IR 100",
      "StudyID": "1",
      "StudyTime": "144220.413000",
      "TransmitCoilName": "Body",
      "VariableFlipAngleFlag": "N",
      "WindowCenterWidthExplanation": "Algo1",
      "dBdt": 0.0},
    "slices": {}
  },
  "time": {
    "samples": {
      "AcquisitionNumber": [1, 2, 3, 4, 5, 6, 7, 8, 9, 10, 11, 12, 13, 14, 15, 16, 17, 18, 19, 20, 21, 22, 23, 24, 25, 26, 27, 28, 29, 30, 31, 32, 33, 34, 35, 36, 37, 38, 39, 40, 41, 42, 43, 44, 45, 46, 47, 48, 49, 50, 51, 52, 53, 54, 55, 56, 57, 58, 59, 60, 61, 62, 63, 64, 65, 66, 67, 68, 69, 70, 71, 72, 73, 74, 75, 76, 77, 78, 79, 80, 81, 82, 83, 84, 85, 86, 87, 88, 89, 90, 91, 92, 93, 94, 95, 96, 97, 98, 99, 100, 101, 102, 103, 104, 105, 106, 107, 108, 109, 110, 111, 112, 113, 114, 115, 116, 117, 118, 119, 120, 121, 122, 123, 124, 125, 126, 127, 128, 129, 130, 131, 132, 133, 134, 135, 136, 137, 138, 139, 140, 141, 142, 143, 144, 145, 146, 147, 148, 149, 150, 151, 152, 153, 154, 155, 156, 157, 158, 159, 160, 161, 162, 163, 164, 165, 166, 167, 168, 169, 170, 171, 172, 173, 174, 175, 176, 177, 178, 179, 180, 181, 182, 183, 184, 185, 186, 187, 188, 189, 190],
      "AcquisitionTime": ["152100.342500", "152101.832500", "152103.322500", "152104.812500", "152106.302500", "152107.792500", "152109.282500", "152110.772500", "152112.262500", "152113.752500", "152115.242500", "152116.732500", "152118.222500", "152119.712500", "152121.202500", "152122.692500", "152124.182500", "152125.672500", "152127.162500", "152128.652500", "152130.142500", "152131.632500", "152133.122500", "152134.612500", "152136.102500", "152137.592500", "152139.082500", "152140.572500", "152142.062500", "152143.552500", "152145.042500", "152146.532500", "152148.022500", "152149.512500", "152151.002500", "152152.492500", "152153.982500", "152155.472500", "152156.962500", "152158.452500", "152159.942500", "152201.432500", "152202.922500", "152204.412500", "152205.902500", "152207.392500", "152208.882500", "152210.372500", "152211.862500", "152213.352500", "152214.842500", "152216.332500", "152217.822500", "152219.312500", "152220.802500", "152222.292500", "152223.782500", "152225.272500", "152226.762500", "152228.252500", "152229.742500", "152231.232500", "152232.722500", "152234.212500", "152235.702500", "152237.192500", "152238.682500", "152240.172500", "152241.662500", "152243.152500", "152244.642500", "152246.132500", "152247.622500", "152249.112500", "152250.602500", "152252.092500", "152253.582500", "152255.072500", "152256.562500", "152258.052500", "152259.542500", "152301.032500", "152302.522500", "152304.012500", "152305.502500", "152306.992500", "152308.482500", "152309.972500", "152311.462500", "152312.952500", "152314.442500", "152315.932500", "152317.422500", "152318.912500", "152320.402500", "152321.892500", "152323.382500", "152324.872500", "152326.362500", "152327.852500", "152329.342500", "152330.832500", "152332.322500", "152333.812500", "152335.302500", "152336.792500", "152338.282500", "152339.772500", "152341.262500", "152342.752500", "152344.242500", "152345.732500", "152347.222500", "152348.712500", "152350.202500", "152351.692500", "152353.182500", "152354.672500", "152356.162500", "152357.652500", "152359.142500", "152400.632500", "152402.122500", "152403.612500", "152405.102500", "152406.592500", "152408.082500", "152409.572500", "152411.062500", "152412.552500", "152414.042500", "152415.532500", "152417.022500", "152418.512500", "152420.002500", "152421.492500", "152422.982500", "152424.472500", "152425.962500", "152427.452500", "152428.942500", "152430.432500", "152431.922500", "152433.412500", "152434.902500", "152436.392500", "152437.882500", "152439.372500", "152440.862500", "152442.352500", "152443.842500", "152445.332500", "152446.822500", "152448.312500", "152449.802500", "152451.292500", "152452.782500", "152454.272500", "152455.762500", "152457.252500", "152458.742500", "152500.232500", "152501.722500", "152503.212500", "152504.702500", "152506.192500", "152507.682500", "152509.172500", "152510.662500", "152512.152500", "152513.642500", "152515.132500", "152516.622500", "152518.112500", "152519.602500", "152521.092500", "152522.582500", "152524.072500", "152525.562500", "152527.052500", "152528.542500", "152530.032500", "152531.522500", "152533.012500", "152534.502500", "152535.992500", "152537.482500", "152538.972500", "152540.462500", "152541.952500"],
      "ContentTime": ["152221.084000", "152221.088000", "152221.091000", "152221.094000", "152221.098000", "152221.101000", "152221.104000", "152221.108000", "152221.111000", "152221.114000", "152221.117000", "152221.120000", "152221.124000", "152221.127000", "152221.130000", "152221.134000", "152221.137000", "152221.140000", "152221.143000", "152221.146000", "152221.150000", "152221.153000", "152221.172000", "152221.175000", "152221.178000", "152241.050000", "152241.054000", "152241.057000", "152241.061000", "152241.064000", "152241.067000", "152241.070000", "152241.074000", "152241.077000", "152241.080000", "152241.084000", "152241.087000", "152241.090000", "152241.093000", "152241.097000", "152241.100000", "152241.103000", "152241.107000", "152241.110000", "152241.113000", "152301.050000", "152301.054000", "152301.057000", "152301.060000", "152301.063000", "152301.067000", "152301.070000", "152301.073000", "152301.076000", "152301.080000", "152301.083000", "152301.086000", "152301.089000", "152301.093000", "152301.096000", "152301.099000", "152301.102000", "152301.106000", "152301.109000", "152301.112000", "152321.051000", "152321.054000", "152321.058000", "152321.061000", "152321.065000", "152321.068000", "152321.072000", "152321.075000", "152321.078000", "152321.082000", "152321.085000", "152321.088000", "152321.091000", "152321.095000", "152321.103000", "152321.106000", "152321.110000", "152321.113000", "152321.116000", "152321.119000", "152341.051000", "152341.055000", "152341.058000", "152341.061000", "152341.064000", "152341.068000", "152341.071000", "152341.074000", "152341.077000", "152341.081000", "152341.084000", "152341.087000", "152341.091000", "152341.104000", "152341.108000", "152341.111000", "152341.114000", "152341.118000", "152341.121000", "152341.126000", "152341.129000", "152421.051000", "152421.055000", "152421.058000", "152421.061000", "152421.065000", "152421.068000", "152421.071000", "152421.075000", "152421.078000", "152421.081000", "152421.084000", "152421.088000", "152421.091000", "152421.094000", "152421.097000", "152421.101000", "152421.104000", "152421.107000", "152421.111000", "152421.114000", "152421.117000", "152421.120000", "152421.124000", "152421.127000", "152421.130000", "152421.133000", "152421.137000", "152421.140000", "152501.050000", "152501.054000", "152501.057000", "152501.060000", "152501.064000", "152501.067000", "152501.070000", "152501.073000", "152501.077000", "152501.080000", "152501.083000", "152501.087000", "152501.090000", "152501.093000", "152501.096000", "152501.100000", "152501.103000", "152501.107000", "152501.110000", "152501.113000", "152501.116000", "152501.120000", "152501.123000", "152501.126000", "152501.130000", "152501.133000", "152541.050000", "152541.054000", "152541.057000", "152541.060000", "152541.064000", "152541.067000", "152541.070000", "152541.074000", "152541.077000", "152541.080000", "152541.084000", "152541.087000", "152541.090000", "152541.093000", "152541.096000", "152541.100000", "152541.103000", "152541.106000", "152541.110000", "152541.113000", "152541.116000", "152541.119000", "152541.122000", "152541.126000", "152541.129000", "152541.132000", "152541.136000", "152544.447000", "152544.451000", "152544.454000"],
      "InstanceCreationTime": ["152221.084000", "152221.088000", "152221.091000", "152221.094000", "152221.098000", "152221.101000", "152221.104000", "152221.108000", "152221.111000", "152221.114000", "152221.117000", "152221.120000", "152221.124000", "152221.127000", "152221.130000", "152221.134000", "152221.137000", "152221.140000", "152221.143000", "152221.146000", "152221.150000", "152221.153000", "152221.172000", "152221.175000", "152221.178000", "152241.050000", "152241.054000", "152241.057000", "152241.061000", "152241.064000", "152241.067000", "152241.070000", "152241.074000", "152241.077000", "152241.080000", "152241.084000", "152241.087000", "152241.090000", "152241.093000", "152241.097000", "152241.100000", "152241.103000", "152241.107000", "152241.110000", "152241.113000", "152301.050000", "152301.054000", "152301.057000", "152301.060000", "152301.063000", "152301.067000", "152301.070000", "152301.073000", "152301.076000", "152301.080000", "152301.083000", "152301.086000", "152301.089000", "152301.093000", "152301.096000", "152301.099000", "152301.102000", "152301.106000", "152301.109000", "152301.112000", "152321.051000", "152321.054000", "152321.058000", "152321.061000", "152321.065000", "152321.068000", "152321.072000", "152321.075000", "152321.078000", "152321.082000", "152321.085000", "152321.088000", "152321.091000", "152321.095000", "152321.103000", "152321.106000", "152321.110000", "152321.113000", "152321.116000", "152321.119000", "152341.051000", "152341.055000", "152341.058000", "152341.061000", "152341.064000", "152341.068000", "152341.071000", "152341.074000", "152341.077000", "152341.081000", "152341.084000", "152341.087000", "152341.091000", "152341.104000", "152341.108000", "152341.111000", "152341.114000", "152341.118000", "152341.121000", "152341.126000", "152341.129000", "152421.051000", "152421.055000", "152421.058000", "152421.061000", "152421.065000", "152421.068000", "152421.071000", "152421.075000", "152421.078000", "152421.081000", "152421.084000", "152421.088000", "152421.091000", "152421.094000", "152421.097000", "152421.101000", "152421.104000", "152421.107000", "152421.111000", "152421.114000", "152421.117000", "152421.120000", "152421.124000", "152421.127000", "152421.130000", "152421.133000", "152421.137000", "152421.140000", "152501.050000", "152501.054000", "152501.057000", "152501.060000", "152501.064000", "152501.067000", "152501.070000", "152501.073000", "152501.077000", "152501.080000", "152501.083000", "152501.087000", "152501.090000", "152501.093000", "152501.096000", "152501.100000", "152501.103000", "152501.107000", "152501.110000", "152501.113000", "152501.116000", "152501.120000", "152501.123000", "152501.126000", "152501.130000", "152501.133000", "152541.050000", "152541.054000", "152541.057000", "152541.060000", "152541.064000", "152541.067000", "152541.070000", "152541.074000", "152541.077000", "152541.080000", "152541.084000", "152541.087000", "152541.090000", "152541.093000", "152541.096000", "152541.100000", "152541.103000", "152541.106000", "152541.110000", "152541.113000", "152541.116000", "152541.119000", "152541.122000", "152541.126000", "152541.129000", "152541.132000", "152541.136000", "152544.447000", "152544.451000", "152544.454000"],
      "InstanceNumber": [1, 2, 3, 4, 5, 6, 7, 8, 9, 10, 11, 12, 13, 14, 15, 16, 17, 18, 19, 20, 21, 22, 23, 24, 25, 26, 27, 28, 29, 30, 31, 32, 33, 34, 35, 36, 37, 38, 39, 40, 41, 42, 43, 44, 45, 46, 47, 48, 49, 50, 51, 52, 53, 54, 55, 56, 57, 58, 59, 60, 61, 62, 63, 64, 65, 66, 67, 68, 69, 70, 71, 72, 73, 74, 75, 76, 77, 78, 79, 80, 81, 82, 83, 84, 85, 86, 87, 88, 89, 90, 91, 92, 93, 94, 95, 96, 97, 98, 99, 100, 101, 102, 103, 104, 105, 106, 107, 108, 109, 110, 111, 112, 113, 114, 115, 116, 117, 118, 119, 120, 121, 122, 123, 124, 125, 126, 127, 128, 129, 130, 131, 132, 133, 134, 135, 136, 137, 138, 139, 140, 141, 142, 143, 144, 145, 146, 147, 148, 149, 150, 151, 152, 153, 154, 155, 156, 157, 158, 159, 160, 161, 162, 163, 164, 165, 166, 167, 168, 169, 170, 171, 172, 173, 174, 175, 176, 177, 178, 179, 180, 181, 182, 183, 184, 185, 186, 187, 188, 189, 190],
      "LargestImagePixelValue": [47074, 45468, 44589, 44177, 44288, 43830, 44171, 42644, 43130, 42744, 42439, 42825, 42912, 43355, 43194, 43439, 43894, 42870, 43474, 43334, 43329, 43530, 43252, 43421, 43241, 43974, 43844, 43789, 43448, 43649, 43660, 43616, 42888, 42288, 43407, 43222, 43405, 43537, 43284, 43362, 43511, 43431, 42921, 43497, 43359, 43181, 43924, 43065, 43763, 44260, 44029, 43015, 43444, 43719, 43555, 43681, 43682, 43604, 43600, 43926, 43186, 43155, 43936, 43660, 43404, 43515, 43707, 44531, 44025, 43796, 42890, 42300, 42340, 42397, 42882, 43881, 43973, 43449, 43540, 42966, 42460, 42759, 43159, 43153, 42653, 43490, 43763, 43464, 43967, 44521, 44713, 43997, 43238, 43559, 43571, 43581, 43893, 44225, 44208, 43785, 43977, 43945, 43953, 44507, 43231, 43387, 43843, 43457, 43815, 43880, 43452, 44331, 43229, 43570, 44180, 43505, 44035, 43969, 43887, 44321, 43827, 43823, 43071, 43919, 43702, 43533, 43831, 44050, 43360, 43680, 42886, 43876, 44769, 44346, 43181, 43299, 43958, 44345, 43964, 43467, 44343, 43642, 43828, 43361, 42541, 43539, 43377, 43038, 44515, 43587, 43780, 43683, 43876, 43878, 44176, 43719, 44204, 44162, 43926, 44090, 44175, 42857, 43401, 43554, 43942, 43147, 43780, 43652, 42954, 43177, 42447, 43718, 43383, 43016, 43759, 43473, 43537, 43514, 43494, 43355, 44390, 43729, 43361, 44046, 42632, 43240, 43095, 43713, 43609, 43731],
      "WindowCenter": [10552.0, 10486.0, 10471.0, 10462.0, 10452.0, 10446.0, 10441.0, 10426.0, 10441.0, 10438.0, 10446.0, 10438.0, 10438.0, 10436.0, 10434.0, 10440.0, 10432.0, 10423.0, 10420.0, 10405.0, 10406.0, 10418.0, 10417.0, 10426.0, 10419.0, 10422.0, 10431.0, 10431.0, 10419.0, 10434.0, 10429.0, 10434.0, 10448.0, 10427.0, 10419.0, 10405.0, 10408.0, 10403.0, 10403.0, 10408.0, 10405.0, 10396.0, 10390.0, 10394.0, 10409.0, 10422.0, 10426.0, 10422.0, 10426.0, 10438.0, 10467.0, 10470.0, 10455.0, 10435.0, 10406.0, 10400.0, 10404.0, 10407.0, 10424.0, 10431.0, 10421.0, 10414.0, 10403.0, 10407.0, 10422.0, 10435.0, 10427.0, 10408.0, 10412.0, 10435.0, 10456.0, 10424.0, 10387.0, 10368.0, 10377.0, 10380.0, 10368.0, 10348.0, 10338.0, 10341.0, 10351.0, 10358.0, 10380.0, 10403.0, 10411.0, 10415.0, 10417.0, 10430.0, 10445.0, 10450.0, 10447.0, 10421.0, 10411.0, 10405.0, 10410.0, 10420.0, 10444.0, 10445.0, 10436.0, 10429.0, 10430.0, 10434.0, 10445.0, 10459.0, 10441.0, 10447.0, 10444.0, 10430.0, 10435.0, 10421.0, 10416.0, 10432.0, 10423.0, 10432.0, 10434.0, 10422.0, 10439.0, 10436.0, 10430.0, 10439.0, 10413.0, 10410.0, 10400.0, 10396.0, 10395.0, 10397.0, 10426.0, 10434.0, 10420.0, 10414.0, 10392.0, 10410.0, 10443.0, 10461.0, 10448.0, 10416.0, 10394.0, 10388.0, 10390.0, 10394.0, 10390.0, 10365.0, 10375.0, 10388.0, 10395.0, 10395.0, 10386.0, 10388.0, 10421.0, 10422.0, 10440.0, 10435.0, 10421.0, 10428.0, 10435.0, 10445.0, 10452.0, 10436.0, 10435.0, 10440.0, 10424.0, 10420.0, 10433.0, 10451.0, 10453.0, 10426.0, 10420.0, 10400.0, 10383.0, 10389.0, 10385.0, 10388.0, 10373.0, 10372.0, 10392.0, 10394.0, 10396.0, 10391.0, 10382.0, 10392.0, 10415.0, 10410.0, 10412.0, 10422.0, 10415.0, 10430.0, 10427.0, 10425.0, 10418.0, 10406.0],
      "WindowWidth": [22890.0, 22695.0, 22636.0, 22601.0, 22571.0, 22554.0, 22534.0, 22508.0, 22535.0, 22531.0, 22552.0, 22530.0, 22531.0, 22522.0, 22519.0, 22532.0, 22513.0, 22493.0, 22487.0, 22452.0, 22454.0, 22482.0, 22479.0, 22497.0, 22485.0, 22488.0, 22510.0, 22512.0, 22483.0, 22518.0, 22511.0, 22521.0, 22551.0, 22509.0, 22484.0, 22450.0, 22455.0, 22451.0, 22446.0, 22454.0, 22450.0, 22431.0, 22420.0, 22427.0, 22460.0, 22495.0, 22501.0, 22492.0, 22501.0, 22527.0, 22592.0, 22605.0, 22565.0, 22518.0, 22455.0, 22438.0, 22444.0, 22454.0, 22494.0, 22509.0, 22491.0, 22475.0, 22449.0, 22457.0, 22490.0, 22522.0, 22500.0, 22455.0, 22464.0, 22523.0, 22577.0, 22503.0, 22428.0, 22375.0, 22387.0, 22392.0, 22367.0, 22321.0, 22299.0, 22312.0, 22336.0, 22353.0, 22403.0, 22457.0, 22474.0, 22482.0, 22479.0, 22512.0, 22546.0, 22555.0, 22546.0, 22493.0, 22472.0, 22456.0, 22466.0, 22493.0, 22547.0, 22551.0, 22526.0, 22510.0, 22513.0, 22518.0, 22546.0, 22578.0, 22539.0, 22552.0, 22543.0, 22513.0, 22521.0, 22492.0, 22482.0, 22513.0, 22498.0, 22521.0, 22520.0, 22495.0, 22531.0, 22527.0, 22513.0, 22529.0, 22471.0, 22464.0, 22444.0, 22434.0, 22433.0, 22438.0, 22502.0, 22519.0, 22486.0, 22476.0, 22427.0, 22464.0, 22534.0, 22579.0, 22554.0, 22478.0, 22423.0, 22407.0, 22413.0, 22424.0, 22413.0, 22361.0, 22382.0, 22413.0, 22434.0, 22429.0, 22405.0, 22412.0, 22483.0, 22490.0, 22529.0, 22517.0, 22488.0, 22505.0, 22520.0, 22543.0, 22560.0, 22521.0, 22520.0, 22527.0, 22497.0, 22487.0, 22516.0, 22556.0, 22561.0, 22501.0, 22487.0, 22443.0, 22400.0, 22414.0, 22409.0, 22413.0, 22380.0, 22378.0, 22421.0, 22423.0, 22430.0, 22419.0, 22399.0, 22423.0, 22471.0, 22463.0, 22468.0, 22487.0, 22477.0, 22513.0, 22507.0, 22501.0, 22486.0, 22456.0]
    },
    "slices": {}
  }
}