{
  "AcquisitionMatrixPE": 104,
  "AcquisitionNumber": 1,
  "AcquisitionTime": "15:33:37.492500",
  "BandwidthPerPixelPhaseEncode": 17.17,
  "BaseResolution": 104,
  "BodyPartExamined": "BRAIN",
  "CoilString": "HC1-7;NC1_2",
  "ConsistencyInfo": "N4_VE11C_LATEST_20160120",
  "ConversionSoftware": "dcm2niix",
  "ConversionSoftwareVersion": "v1.0.20190902",
  "DerivedVendorReportedEchoSpacing": 0.000560011,
  "DeviceSerialNumber": "167006",
  "DwellTime": 2.1e-06,
  "EchoTime": 0.037,
  "EchoTrainLength": 104,
  "EffectiveEchoSpacing": 0.000560011,
  "FlipAngle": 52,
  "HeudiconvVersion": "0.10.0",
  "ImageComments": "Unaliased_MB4_PE3_LB",
  "ImageOrientationPatientDICOM": [0.998689, -0.0492699, 0.0138707, 0.0511157, 0.945902, -0.320402],
  "ImageType": [
    "ORIGINAL",
    "PRIMARY",
    "M",
    "MB",
    "ND",
    "MOSAIC"
],
  "ImagingFrequency": 123.259,
  "InPlanePhaseEncodingDirectionDICOM": "COL",
  "InstitutionAddress": "Chemin_Queen-Mary_4565_Montreal_District_CA_H3W_1W5",
  "InstitutionName": "IUGM",
  "InstitutionalDepartmentName": "Department",
  "MRAcquisitionType": "2D",
  "MagneticFieldStrength": 3,
  "Manufacturer": "Siemens",
  "ManufacturersModelName": "Prisma_fit",
  "Modality": "MR",
  "MultibandAccelerationFactor": 4,
  "PartialFourier": 1,
  "PatientPosition": "HFS",
  "PercentPhaseFOV": 100,
  "PhaseEncodingDirection": "j",
  "PhaseEncodingSteps": 104,
  "PhaseResolution": 1,
  "PixelBandwidth": 2290,
  "ProcedureStepDescription": "memory_things",
  "ProtocolName": "func_task-things_run-4",
  "PulseSequenceDetails": "%CustomerSeq%_cmrr_mbep2d_bold",
  "ReceiveCoilActiveElements": "HC1-7;NC1,2",
  "ReceiveCoilName": "HeadNeck_64",
  "ReconMatrixPE": 104,
  "RepetitionTime": 1.49,
  "SAR": 0.0483871,
  "ScanOptions": "FS",
  "ScanningSequence": "EP",
  "SequenceName": "epfid2d1_104",
  "SequenceVariant": "SK_SS",
  "SeriesDescription": "func_task-things_run-4",
  "SeriesNumber": 19,
  "ShimSetting": [626, -7243, -8826, 593, -3, -188, -48, -36],
  "SliceThickness": 2,
  "SliceTiming": [0, 0.785, 0.0975, 0.8825, 0.1975, 0.98, 0.295, 1.0775, 0.3925, 1.1775, 0.49, 1.275, 0.5875, 1.3725, 0.6875, 0, 0.785, 0.0975, 0.8825, 0.1975, 0.98, 0.295, 1.0775, 0.3925, 1.1775, 0.49, 1.275, 0.5875, 1.3725, 0.6875, 0, 0.785, 0.0975, 0.8825, 0.1975, 0.98, 0.295, 1.0775, 0.3925, 1.1775, 0.49, 1.275, 0.5875, 1.3725, 0.6875, 0, 0.785, 0.0975, 0.8825, 0.1975, 0.98, 0.295, 1.0775, 0.3925, 1.1775, 0.49, 1.275, 0.5875, 1.3725, 0.6875],
  "SoftwareVersions": "syngo_MR_E11",
  "SpacingBetweenSlices": 2,
  "StationName": "MRC35049",
  "TaskName": "things",
  "TotalReadoutTime": 0.0576811,
  "TxRefAmp": 253.085,
  "WipMemBlock": "08497baf-9cf4-4115-81c8-50931cd87196||Sequence: R016 ve11c/master r/e634e98; Dec 19 2017 11:00:25 by eja",
  "dcmmeta_affine": [
    [-1.9973783493041992, 0.10223132371902466, -0.005331747699528933, 102.55690002441406],
    [0.09853977710008621, 1.8918030261993408, -0.6413822770118713, -70.42388916015625],
    [0.02774137258529663, 0.6408042311668396, 1.8943601846694946, -67.52318572998047],
    [0.0, 0.0, 0.0, 1.0]
],
  "dcmmeta_reorient_transform": [
    [0.0, -1.0, 0.0, 103.0],
    [1.0, 0.0, 0.0, 0.0],
    [0.0, 0.0, 1.0, 0.0],
    [0.0, 0.0, 0.0, 1.0]
],
  "dcmmeta_shape": [104, 104, 60, 190],
  "dcmmeta_slice_dim": 2,
  "dcmmeta_version": 0.6,
  "global": {
    "const": {
      "AcquisitionMatrix": [104, 0, 0, 104],
      "AngioFlag": "N",
      "BitsAllocated": 16,
      "BitsStored": 16,
      "BodyPartExamined": "BRAIN",
      "Columns": 832,
      "EchoNumbers": 1,
      "EchoTime": 37.0,
      "EchoTrainLength": 104,
      "FlipAngle": 52.0,
      "HighBit": 15,
      "ImageOrientationPatient": [0.9986891819243, -0.0492698891602, 0.01387068597827, 0.0511156632005, 0.94590151412713, -0.3204021138313],
      "ImagePositionPatient": [-877.34465290478, -777.17964660079, 221.63452791759],
      "ImageType": [
        "ORIGINAL",
        "PRIMARY",
        "M",
        "MB",
        "ND",
        "MOSAIC"
],
      "ImagedNucleus": "1H",
      "ImagingFrequency": 123.258889,
      "InPlanePhaseEncodingDirection": "COL",
      "MRAcquisitionType": "2D",
      "MagneticFieldStrength": 3.0,
      "Manufacturer": "SIEMENS",
      "ManufacturerModelName": "Prisma_fit",
      "Modality": "MR",
      "NumberOfAverages": 1.0,
      "NumberOfPhaseEncodingSteps": 104,
      "PercentPhaseFieldOfView": 100.0,
      "PercentSampling": 100.0,
      "PerformedProcedureStepStartTime": "144220.467000",
      "PhotometricInterpretation": "MONOCHROME2",
      "PixelBandwidth": 2290.0,
      "PixelRepresentation": 0,
      "PixelSpacing": [2.0, 2.0],
      "ProtocolName": "func_task-things_run-4",
      "RepetitionTime": 1490.0,
      "Rows": 832,
      "SAR": 0.04838713503498,
      "SamplesPerPixel": 1,
      "ScanOptions": "FS",
      "ScanningSequence": "EP",
      "SequenceName": "epfid2d1_104",
      "SequenceVariant": [
        "SK",
        "SS"
],
      "SeriesDescription": "func_task-things_run-4",
      "SeriesNumber": 19,
      "SeriesTime": "153434.879000",
      "SliceLocation": -41.645704291883,
      "SliceThickness": 2.0,
      "SmallestImagePixelValue": 0,
      "SoftwareVersions": "syngo MR E11",
      "SpacingBetweenSlices": 2.000000010625,
      "SpecificCharacterSet": "ISO_IR 100",
      "StudyID": "1",
      "StudyTime": "144220.413000",
      "TransmitCoilName": "Body",
      "VariableFlipAngleFlag": "N",
      "WindowCenterWidthExplanation": "Algo1",
      "dBdt": 0.0},
    "slices": {}
  },
  "time": {
    "samples": {
      "AcquisitionNumber": [1, 2, 3, 4, 5, 6, 7, 8, 9, 10, 11, 12, 13, 14, 15, 16, 17, 18, 19, 20, 21, 22, 23, 24, 25, 26, 27, 28, 29, 30, 31, 32, 33, 34, 35, 36, 37, 38, 39, 40, 41, 42, 43, 44, 45, 46, 47, 48, 49, 50, 51, 52, 53, 54, 55, 56, 57, 58, 59, 60, 61, 62, 63, 64, 65, 66, 67, 68, 69, 70, 71, 72, 73, 74, 75, 76, 77, 78, 79, 80, 81, 82, 83, 84, 85, 86, 87, 88, 89, 90, 91, 92, 93, 94, 95, 96, 97, 98, 99, 100, 101, 102, 103, 104, 105, 106, 107, 108, 109, 110, 111, 112, 113, 114, 115, 116, 117, 118, 119, 120, 121, 122, 123, 124, 125, 126, 127, 128, 129, 130, 131, 132, 133, 134, 135, 136, 137, 138, 139, 140, 141, 142, 143, 144, 145, 146, 147, 148, 149, 150, 151, 152, 153, 154, 155, 156, 157, 158, 159, 160, 161, 162, 163, 164, 165, 166, 167, 168, 169, 170, 171, 172, 173, 174, 175, 176, 177, 178, 179, 180, 181, 182, 183, 184, 185, 186, 187, 188, 189, 190],
      "AcquisitionTime": ["153337.492500", "153338.982500", "153340.472500", "153341.962500", "153343.452500", "153344.942500", "153346.432500", "153347.922500", "153349.412500", "153350.902500", "153352.392500", "153353.882500", "153355.372500", "153356.862500", "153358.352500", "153359.842500", "153401.332500", "153402.822500", "153404.312500", "153405.802500", "153407.292500", "153408.782500", "153410.272500", "153411.762500", "153413.252500", "153414.742500", "153416.232500", "153417.722500", "153419.212500", "153420.702500", "153422.192500", "153423.682500", "153425.172500", "153426.662500", "153428.152500", "153429.642500", "153431.132500", "153432.622500", "153434.112500", "153435.602500", "153437.092500", "153438.582500", "153440.072500", "153441.562500", "153443.052500", "153444.542500", "153446.032500", "153447.522500", "153449.012500", "153450.502500", "153451.992500", "153453.482500", "153454.972500", "153456.462500", "153457.952500", "153459.442500", "153500.932500", "153502.422500", "153503.912500", "153505.402500", "153506.892500", "153508.382500", "153509.872500", "153511.362500", "153512.852500", "153514.342500", "153515.832500", "153517.322500", "153518.812500", "153520.302500", "153521.792500", "153523.282500", "153524.772500", "153526.262500", "153527.752500", "153529.242500", "153530.732500", "153532.222500", "153533.712500", "153535.202500", "153536.692500", "153538.182500", "153539.672500", "153541.162500", "153542.652500", "153544.142500", "153545.632500", "153547.122500", "153548.612500", "153550.102500", "153551.592500", "153553.082500", "153554.572500", "153556.062500", "153557.552500", "153559.042500", "153600.532500", "153602.022500", "153603.512500", "153605.002500", "153606.492500", "153607.982500", "153609.472500", "153610.962500", "153612.452500", "153613.942500", "153615.432500", "153616.922500", "153618.412500", "153619.902500", "153621.392500", "153622.882500", "153624.372500", "153625.862500", "153627.352500", "153628.842500", "153630.332500", "153631.822500", "153633.312500", "153634.802500", "153636.292500", "153637.782500", "153639.272500", "153640.762500", "153642.252500", "153643.742500", "153645.232500", "153646.722500", "153648.212500", "153649.702500", "153651.192500", "153652.682500", "153654.172500", "153655.662500", "153657.152500", "153658.642500", "153700.132500", "153701.622500", "153703.112500", "153704.602500", "153706.092500", "153707.582500", "153709.072500", "153710.562500", "153712.052500", "153713.542500", "153715.032500", "153716.522500", "153718.012500", "153719.502500", "153720.992500", "153722.482500", "153723.972500", "153725.462500", "153726.952500", "153728.442500", "153729.932500", "153731.422500", "153732.912500", "153734.402500", "153735.892500", "153737.382500", "153738.872500", "153740.362500", "153741.852500", "153743.342500", "153744.832500", "153746.322500", "153747.812500", "153749.302500", "153750.792500", "153752.282500", "153753.772500", "153755.262500", "153756.752500", "153758.242500", "153759.732500", "153801.222500", "153802.712500", "153804.202500", "153805.692500", "153807.182500", "153808.672500", "153810.162500", "153811.652500", "153813.142500", "153814.632500", "153816.122500", "153817.612500", "153819.102500"],
      "ContentTime": ["153434.882000", "153434.886000", "153454.847000", "153454.851000", "153454.854000", "153454.857000", "153454.860000", "153454.864000", "153454.867000", "153454.870000", "153454.873000", "153454.877000", "153454.880000", "153454.883000", "153454.886000", "153454.890000", "153454.893000", "153454.896000", "153454.899000", "153454.903000", "153454.906000", "153454.909000", "153514.847000", "153514.851000", "153514.854000", "153514.857000", "153514.860000", "153514.864000", "153514.867000", "153514.870000", "153514.873000", "153514.877000", "153514.880000", "153514.883000", "153514.886000", "153514.890000", "153514.893000", "153514.896000", "153514.899000", "153514.903000", "153514.906000", "153514.909000", "153534.847000", "153534.851000", "153534.855000", "153534.858000", "153534.861000", "153534.865000", "153534.868000", "153534.871000", "153534.874000", "153534.878000", "153534.881000", "153534.884000", "153534.888000", "153534.891000", "153534.894000", "153534.897000", "153534.901000", "153534.904000", "153534.907000", "153534.910000", "153534.914000", "153554.847000", "153554.851000", "153554.854000", "153554.857000", "153554.860000", "153554.864000", "153554.867000", "153554.870000", "153554.873000", "153554.877000", "153554.880000", "153554.883000", "153554.887000", "153554.890000", "153554.893000", "153554.896000", "153554.900000", "153554.903000", "153554.906000", "153554.909000", "153614.848000", "153614.852000", "153614.855000", "153614.858000", "153614.861000", "153614.865000", "153614.868000", "153614.871000", "153614.875000", "153614.878000", "153614.890000", "153614.893000", "153614.896000", "153614.900000", "153614.903000", "153614.920000", "153614.924000", "153614.927000", "153614.931000", "153614.934000", "153654.847000", "153654.851000", "153654.854000", "153654.857000", "153654.860000", "153654.864000", "153654.867000", "153654.870000", "153654.874000", "153654.877000", "153654.880000", "153654.883000", "153654.887000", "153654.890000", "153654.893000", "153654.897000", "153654.900000", "153654.903000", "153654.906000", "153654.910000", "153654.913000", "153654.916000", "153654.919000", "153654.923000", "153654.926000", "153654.929000", "153654.932000", "153654.936000", "153654.939000", "153734.847000", "153734.851000", "153734.854000", "153734.857000", "153734.861000", "153734.864000", "153734.867000", "153734.870000", "153734.874000", "153734.877000", "153734.880000", "153734.884000", "153734.887000", "153734.890000", "153734.893000", "153734.897000", "153734.900000", "153734.903000", "153734.906000", "153734.910000", "153734.913000", "153734.916000", "153734.919000", "153734.923000", "153734.926000", "153734.929000", "153734.933000", "153814.847000", "153814.851000", "153814.855000", "153814.859000", "153814.862000", "153814.865000", "153814.869000", "153814.873000", "153814.876000", "153814.880000", "153814.883000", "153814.886000", "153814.889000", "153814.893000", "153814.896000", "153814.899000", "153814.902000", "153814.906000", "153814.909000", "153814.912000", "153814.916000", "153814.919000", "153814.922000", "153814.925000", "153814.929000", "153814.932000", "153820.887000", "153820.891000", "153820.894000", "153820.898000", "153820.901000"],
      "InstanceCreationTime": ["153434.882000", "153434.886000", "153454.847000", "153454.851000", "153454.854000", "153454.857000", "153454.860000", "153454.864000", "153454.867000", "153454.870000", "153454.873000", "153454.877000", "153454.880000", "153454.883000", "153454.886000", "153454.890000", "153454.893000", "153454.896000", "153454.899000", "153454.903000", "153454.906000", "153454.909000", "153514.847000", "153514.851000", "153514.854000", "153514.857000", "153514.860000", "153514.864000", "153514.867000", "153514.870000", "153514.873000", "153514.877000", "153514.880000", "153514.883000", "153514.886000", "153514.890000", "153514.893000", "153514.896000", "153514.899000", "153514.903000", "153514.906000", "153514.909000", "153534.847000", "153534.851000", "153534.855000", "153534.858000", "153534.861000", "153534.865000", "153534.868000", "153534.871000", "153534.874000", "153534.878000", "153534.881000", "153534.884000", "153534.888000", "153534.891000", "153534.894000", "153534.897000", "153534.901000", "153534.904000", "153534.907000", "153534.910000", "153534.914000", "153554.847000", "153554.851000", "153554.854000", "153554.857000", "153554.860000", "153554.864000", "153554.867000", "153554.870000", "153554.873000", "153554.877000", "153554.880000", "153554.883000", "153554.887000", "153554.890000", "153554.893000", "153554.896000", "153554.900000", "153554.903000", "153554.906000", "153554.909000", "153614.848000", "153614.852000", "153614.855000", "153614.858000", "153614.861000", "153614.865000", "153614.868000", "153614.871000", "153614.875000", "153614.878000", "153614.890000", "153614.893000", "153614.896000", "153614.900000", "153614.903000", "153614.920000", "153614.924000", "153614.927000", "153614.931000", "153614.934000", "153654.847000", "153654.851000", "153654.854000", "153654.857000", "153654.860000", "153654.864000", "153654.867000", "153654.870000", "153654.874000", "153654.877000", "153654.880000", "153654.883000", "153654.887000", "153654.890000", "153654.893000", "153654.897000", "153654.900000", "153654.903000", "153654.906000", "153654.910000", "153654.913000", "153654.916000", "153654.919000", "153654.923000", "153654.926000", "153654.929000", "153654.932000", "153654.936000", "153654.939000", "153734.847000", "153734.851000", "153734.854000", "153734.857000", "153734.861000", "153734.864000", "153734.867000", "153734.870000", "153734.874000", "153734.877000", "153734.880000", "153734.884000", "153734.887000", "153734.890000", "153734.893000", "153734.897000", "153734.900000", "153734.903000", "153734.906000", "153734.910000", "153734.913000", "153734.916000", "153734.919000", "153734.923000", "153734.926000", "153734.929000", "153734.933000", "153814.847000", "153814.851000", "153814.855000", "153814.859000", "153814.862000", "153814.865000", "153814.869000", "153814.873000", "153814.876000", "153814.880000", "153814.883000", "153814.886000", "153814.889000", "153814.893000", "153814.896000", "153814.899000", "153814.902000", "153814.906000", "153814.909000", "153814.912000", "153814.916000", "153814.919000", "153814.922000", "153814.925000", "153814.929000", "153814.932000", "153820.887000", "153820.891000", "153820.894000", "153820.898000", "153820.901000"],
      "InstanceNumber": [1, 2, 3, 4, 5, 6, 7, 8, 9, 10, 11, 12, 13, 14, 15, 16, 17, 18, 19, 20, 21, 22, 23, 24, 25, 26, 27, 28, 29, 30, 31, 32, 33, 34, 35, 36, 37, 38, 39, 40, 41, 42, 43, 44, 45, 46, 47, 48, 49, 50, 51, 52, 53, 54, 55, 56, 57, 58, 59, 60, 61, 62, 63, 64, 65, 66, 67, 68, 69, 70, 71, 72, 73, 74, 75, 76, 77, 78, 79, 80, 81, 82, 83, 84, 85, 86, 87, 88, 89, 90, 91, 92, 93, 94, 95, 96, 97, 98, 99, 100, 101, 102, 103, 104, 105, 106, 107, 108, 109, 110, 111, 112, 113, 114, 115, 116, 117, 118, 119, 120, 121, 122, 123, 124, 125, 126, 127, 128, 129, 130, 131, 132, 133, 134, 135, 136, 137, 138, 139, 140, 141, 142, 143, 144, 145, 146, 147, 148, 149, 150, 151, 152, 153, 154, 155, 156, 157, 158, 159, 160, 161, 162, 163, 164, 165, 166, 167, 168, 169, 170, 171, 172, 173, 174, 175, 176, 177, 178, 179, 180, 181, 182, 183, 184, 185, 186, 187, 188, 189, 190],
      "LargestImagePixelValue": [44196, 43389, 42166, 42435, 41804, 42183, 42579, 41348, 42232, 42271, 41205, 41274, 41332, 41079, 41523, 41788, 42133, 42201, 41613, 41270, 40736, 40951, 40540, 40860, 41910, 41164, 41656, 41875, 41565, 41703, 42080, 41385, 41083, 40917, 41583, 41045, 41210, 41340, 41442, 41427, 40411, 41111, 40944, 40774, 41194, 41758, 41736, 41564, 41332, 41431, 40997, 41059, 41543, 41467, 41807, 41442, 41585, 41050, 40516, 41141, 41096, 40956, 40633, 40892, 40614, 41407, 41382, 41369, 41595, 40775, 40570, 41067, 40650, 40904, 40652, 40429, 40361, 40636, 40512, 41375, 40951, 41780, 40856, 41462, 39889, 40301, 41062, 40636, 40553, 40863, 40534, 40453, 40843, 40960, 40902, 40884, 40492, 40822, 40735, 40264, 40291, 40094, 40518, 40778, 40544, 40215, 40756, 40552, 40877, 40772, 40478, 40463, 40460, 40523, 40583, 40611, 40466, 40413, 40491, 40649, 40852, 40334, 40348, 40517, 40357, 40990, 40820, 40741, 40501, 40944, 41243, 40619, 41251, 41128, 40534, 40649, 41388, 41184, 41858, 42353, 41374, 40170, 40759, 40215, 40111, 39763, 39782, 39930, 40359, 40398, 40122, 40243, 40583, 40516, 39756, 39929, 39940, 40145, 40455, 40110, 40138, 40088, 40343, 39897, 40272, 40035, 39860, 40317, 39880, 40139, 39963, 39862, 39976, 39915, 40475, 40288, 40181, 40243, 40060, 39933, 40119, 40312, 40407, 40356, 40409, 40479, 40091, 40124, 40339, 40464],
      "WindowCenter": [10415.0, 10370.0, 10346.0, 10343.0, 10318.0, 10313.0, 10299.0, 10284.0, 10277.0, 10275.0, 10263.0, 10257.0, 10241.0, 10237.0, 10258.0, 10252.0, 10241.0, 10238.0, 10244.0, 10263.0, 10270.0, 10272.0, 10243.0, 10227.0, 10253.0, 10277.0, 10281.0, 10262.0, 10242.0, 10247.0, 10293.0, 10293.0, 10256.0, 10233.0, 10242.0, 10255.0, 10252.0, 10244.0, 10236.0, 10225.0, 10214.0, 10247.0, 10273.0, 10284.0, 10290.0, 10272.0, 10268.0, 10283.0, 10264.0, 10244.0, 10233.0, 10234.0, 10233.0, 10217.0, 10208.0, 10232.0, 10259.0, 10273.0, 10258.0, 10262.0, 10258.0, 10258.0, 10244.0, 10233.0, 10251.0, 10300.0, 10315.0, 10280.0, 10250.0, 10229.0, 10231.0, 10251.0, 10248.0, 10232.0, 10224.0, 10225.0, 10241.0, 10264.0, 10276.0, 10285.0, 10292.0, 10297.0, 10288.0, 10282.0, 10263.0, 10273.0, 10275.0, 10260.0, 10263.0, 10292.0, 10292.0, 10277.0, 10257.0, 10246.0, 10260.0, 10297.0, 10313.0, 10297.0, 10273.0, 10255.0, 10259.0, 10279.0, 10301.0, 10302.0, 10293.0, 10281.0, 10288.0, 10287.0, 10276.0, 10280.0, 10315.0, 10338.0, 10324.0, 10295.0, 10271.0, 10260.0, 10266.0, 10290.0, 10300.0, 10292.0, 10289.0, 10283.0, 10285.0, 10269.0, 10248.0, 10255.0, 10270.0, 10290.0, 10313.0, 10319.0, 10323.0, 10303.0, 10293.0, 10272.0, 10258.0, 10273.0, 10290.0, 10298.0, 10333.0, 10346.0, 10345.0, 10311.0, 10274.0, 10243.0, 10228.0, 10224.0, 10218.0, 10214.0, 10218.0, 10236.0, 10277.0, 10298.0, 10290.0, 10265.0, 10242.0, 10255.0, 10279.0, 10291.0, 10303.0, 10299.0, 10301.0, 10288.0, 10259.0, 10236.0, 10292.0, 10343.0, 10340.0, 10316.0, 10285.0, 10267.0, 10266.0, 10273.0, 10287.0, 10297.0, 10296.0, 10283.0, 10285.0, 10295.0, 10299.0, 10289.0, 10287.0, 10300.0, 10303.0, 10304.0, 10311.0, 10298.0, 10275.0, 10264.0, 10277.0, 10293.0],
      "WindowWidth": [22553.0, 22408.0, 22334.0, 22318.0, 22250.0, 22229.0, 22195.0, 22158.0, 22138.0, 22135.0, 22115.0, 22098.0, 22059.0, 22048.0, 22099.0, 22087.0, 22062.0, 22053.0, 22065.0, 22113.0, 22127.0, 22129.0, 22065.0, 22028.0, 22083.0, 22139.0, 22151.0, 22108.0, 22064.0, 22072.0, 22174.0, 22177.0, 22095.0, 22042.0, 22057.0, 22092.0, 22085.0, 22066.0, 22047.0, 22018.0, 21997.0, 22068.0, 22129.0, 22159.0, 22172.0, 22137.0, 22135.0, 22163.0, 22118.0, 22066.0, 22038.0, 22039.0, 22039.0, 22004.0, 21983.0, 22038.0, 22100.0, 22135.0, 22102.0, 22106.0, 22100.0, 22104.0, 22074.0, 22044.0, 22083.0, 22193.0, 22230.0, 22155.0, 22082.0, 22037.0, 22038.0, 22081.0, 22078.0, 22040.0, 22023.0, 22028.0, 22066.0, 22115.0, 22148.0, 22169.0, 22192.0, 22196.0, 22179.0, 22157.0, 22117.0, 22136.0, 22139.0, 22106.0, 22114.0, 22176.0, 22180.0, 22147.0, 22100.0, 22075.0, 22107.0, 22189.0, 22234.0, 22197.0, 22140.0, 22097.0, 22105.0, 22149.0, 22199.0, 22200.0, 22179.0, 22154.0, 22172.0, 22173.0, 22144.0, 22153.0, 22233.0, 22286.0, 22253.0, 22184.0, 22131.0, 22106.0, 22121.0, 22175.0, 22200.0, 22182.0, 22172.0, 22161.0, 22165.0, 22129.0, 22082.0, 22091.0, 22129.0, 22179.0, 22229.0, 22242.0, 22249.0, 22208.0, 22185.0, 22136.0, 22103.0, 22136.0, 22173.0, 22192.0, 22281.0, 22310.0, 22310.0, 22232.0, 22141.0, 22066.0, 22032.0, 22025.0, 22012.0, 21999.0, 22009.0, 22048.0, 22142.0, 22194.0, 22176.0, 22117.0, 22068.0, 22092.0, 22146.0, 22176.0, 22198.0, 22194.0, 22203.0, 22173.0, 22107.0, 22052.0, 22177.0, 22295.0, 22293.0, 22232.0, 22164.0, 22119.0, 22119.0, 22135.0, 22166.0, 22189.0, 22187.0, 22161.0, 22160.0, 22184.0, 22196.0, 22172.0, 22165.0, 22191.0, 22201.0, 22201.0, 22217.0, 22190.0, 22141.0, 22109.0, 22139.0, 22176.0]
    },
    "slices": {}
  }
}