{
  "AcquisitionMatrixPE": 104,
  "AcquisitionNumber": 1,
  "AcquisitionTime": "15:27:12.707500",
  "BandwidthPerPixelPhaseEncode": 17.17,
  "BaseResolution": 104,
  "BodyPartExamined": "BRAIN",
  "CoilString": "HC1-7;NC1_2",
  "ConsistencyInfo": "N4_VE11C_LATEST_20160120",
  "ConversionSoftware": "dcm2niix",
  "ConversionSoftwareVersion": "v1.0.20190902",
  "DerivedVendorReportedEchoSpacing": 0.000560011,
  "DeviceSerialNumber": "167006",
  "DwellTime": 2.1e-06,
  "EchoTime": 0.037,
  "EchoTrainLength": 104,
  "EffectiveEchoSpacing": 0.000560011,
  "FlipAngle": 52,
  "HeudiconvVersion": "0.10.0",
  "ImageComments": "Unaliased_MB4_PE3_LB",
  "ImageOrientationPatientDICOM": [0.998689, -0.0492699, 0.0138707, 0.0511157, 0.945902, -0.320402],
  "ImageType": [
    "ORIGINAL",
    "PRIMARY",
    "M",
    "MB",
    "ND",
    "MOSAIC"
],
  "ImagingFrequency": 123.259,
  "InPlanePhaseEncodingDirectionDICOM": "COL",
  "InstitutionAddress": "Chemin_Queen-Mary_4565_Montreal_District_CA_H3W_1W5",
  "InstitutionName": "IUGM",
  "InstitutionalDepartmentName": "Department",
  "MRAcquisitionType": "2D",
  "MagneticFieldStrength": 3,
  "Manufacturer": "Siemens",
  "ManufacturersModelName": "Prisma_fit",
  "Modality": "MR",
  "MultibandAccelerationFactor": 4,
  "PartialFourier": 1,
  "PatientPosition": "HFS",
  "PercentPhaseFOV": 100,
  "PhaseEncodingDirection": "j",
  "PhaseEncodingSteps": 104,
  "PhaseResolution": 1,
  "PixelBandwidth": 2290,
  "ProcedureStepDescription": "memory_things",
  "ProtocolName": "func_task-things_run-3",
  "PulseSequenceDetails": "%CustomerSeq%_cmrr_mbep2d_bold",
  "ReceiveCoilActiveElements": "HC1-7;NC1,2",
  "ReceiveCoilName": "HeadNeck_64",
  "ReconMatrixPE": 104,
  "RepetitionTime": 1.49,
  "SAR": 0.0483871,
  "ScanOptions": "FS",
  "ScanningSequence": "EP",
  "SequenceName": "epfid2d1_104",
  "SequenceVariant": "SK_SS",
  "SeriesDescription": "func_task-things_run-3",
  "SeriesNumber": 16,
  "ShimSetting": [626, -7243, -8826, 593, -3, -188, -48, -36],
  "SliceThickness": 2,
  "SliceTiming": [0, 0.785, 0.0975, 0.8825, 0.1975, 0.98, 0.295, 1.0775, 0.3925, 1.1775, 0.49, 1.275, 0.5875, 1.3725, 0.6875, 0, 0.785, 0.0975, 0.8825, 0.1975, 0.98, 0.295, 1.0775, 0.3925, 1.1775, 0.49, 1.275, 0.5875, 1.3725, 0.6875, 0, 0.785, 0.0975, 0.8825, 0.1975, 0.98, 0.295, 1.0775, 0.3925, 1.1775, 0.49, 1.275, 0.5875, 1.3725, 0.6875, 0, 0.785, 0.0975, 0.8825, 0.1975, 0.98, 0.295, 1.0775, 0.3925, 1.1775, 0.49, 1.275, 0.5875, 1.3725, 0.6875],
  "SoftwareVersions": "syngo_MR_E11",
  "SpacingBetweenSlices": 2,
  "StationName": "MRC35049",
  "TaskName": "things",
  "TotalReadoutTime": 0.0576811,
  "TxRefAmp": 253.085,
  "WipMemBlock": "6e5f3eef-727a-4a5d-ab83-70b673486969||Sequence: R016 ve11c/master r/e634e98; Dec 19 2017 11:00:25 by eja",
  "dcmmeta_affine": [
    [-1.9973783493041992, 0.10223132371902466, -0.005331747699528933, 102.55690002441406],
    [0.09853977710008621, 1.8918030261993408, -0.6413822770118713, -70.42388916015625],
    [0.02774137258529663, 0.6408042311668396, 1.8943601846694946, -67.52318572998047],
    [0.0, 0.0, 0.0, 1.0]
],
  "dcmmeta_reorient_transform": [
    [0.0, -1.0, 0.0, 103.0],
    [1.0, 0.0, 0.0, 0.0],
    [0.0, 0.0, 1.0, 0.0],
    [0.0, 0.0, 0.0, 1.0]
],
  "dcmmeta_shape": [104, 104, 60, 190],
  "dcmmeta_slice_dim": 2,
  "dcmmeta_version": 0.6,
  "global": {
    "const": {
      "AcquisitionMatrix": [104, 0, 0, 104],
      "AngioFlag": "N",
      "BitsAllocated": 16,
      "BitsStored": 16,
      "BodyPartExamined": "BRAIN",
      "Columns": 832,
      "EchoNumbers": 1,
      "EchoTime": 37.0,
      "EchoTrainLength": 104,
      "FlipAngle": 52.0,
      "HighBit": 15,
      "ImageOrientationPatient": [0.9986891819243, -0.0492698891602, 0.01387068597827, 0.0511156632005, 0.94590151412713, -0.3204021138313],
      "ImagePositionPatient": [-877.34465290478, -777.17964660079, 221.63452791759],
      "ImageType": [
        "ORIGINAL",
        "PRIMARY",
        "M",
        "MB",
        "ND",
        "MOSAIC"
],
      "ImagedNucleus": "1H",
      "ImagingFrequency": 123.258887,
      "InPlanePhaseEncodingDirection": "COL",
      "MRAcquisitionType": "2D",
      "MagneticFieldStrength": 3.0,
      "Manufacturer": "SIEMENS",
      "ManufacturerModelName": "Prisma_fit",
      "Modality": "MR",
      "NumberOfAverages": 1.0,
      "NumberOfPhaseEncodingSteps": 104,
      "PercentPhaseFieldOfView": 100.0,
      "PercentSampling": 100.0,
      "PerformedProcedureStepStartTime": "144220.467000",
      "PhotometricInterpretation": "MONOCHROME2",
      "PixelBandwidth": 2290.0,
      "PixelRepresentation": 0,
      "PixelSpacing": [2.0, 2.0],
      "ProtocolName": "func_task-things_run-3",
      "RepetitionTime": 1490.0,
      "Rows": 832,
      "SAR": 0.04838713503498,
      "SamplesPerPixel": 1,
      "ScanOptions": "FS",
      "ScanningSequence": "EP",
      "SequenceName": "epfid2d1_104",
      "SequenceVariant": [
        "SK",
        "SS"
],
      "SeriesDescription": "func_task-things_run-3",
      "SeriesNumber": 16,
      "SeriesTime": "152841.954000",
      "SliceLocation": -41.645704291883,
      "SliceThickness": 2.0,
      "SmallestImagePixelValue": 0,
      "SoftwareVersions": "syngo MR E11",
      "SpacingBetweenSlices": 2.000000010625,
      "SpecificCharacterSet": "ISO_IR 100",
      "StudyID": "1",
      "StudyTime": "144220.413000",
      "TransmitCoilName": "Body",
      "VariableFlipAngleFlag": "N",
      "WindowCenterWidthExplanation": "Algo1",
      "dBdt": 0.0},
    "slices": {}
  },
  "time": {
    "samples": {
      "AcquisitionNumber": [1, 2, 3, 4, 5, 6, 7, 8, 9, 10, 11, 12, 13, 14, 15, 16, 17, 18, 19, 20, 21, 22, 23, 24, 25, 26, 27, 28, 29, 30, 31, 32, 33, 34, 35, 36, 37, 38, 39, 40, 41, 42, 43, 44, 45, 46, 47, 48, 49, 50, 51, 52, 53, 54, 55, 56, 57, 58, 59, 60, 61, 62, 63, 64, 65, 66, 67, 68, 69, 70, 71, 72, 73, 74, 75, 76, 77, 78, 79, 80, 81, 82, 83, 84, 85, 86, 87, 88, 89, 90, 91, 92, 93, 94, 95, 96, 97, 98, 99, 100, 101, 102, 103, 104, 105, 106, 107, 108, 109, 110, 111, 112, 113, 114, 115, 116, 117, 118, 119, 120, 121, 122, 123, 124, 125, 126, 127, 128, 129, 130, 131, 132, 133, 134, 135, 136, 137, 138, 139, 140, 141, 142, 143, 144, 145, 146, 147, 148, 149, 150, 151, 152, 153, 154, 155, 156, 157, 158, 159, 160, 161, 162, 163, 164, 165, 166, 167, 168, 169, 170, 171, 172, 173, 174, 175, 176, 177, 178, 179, 180, 181, 182, 183, 184, 185, 186, 187, 188, 189, 190],
      "AcquisitionTime": ["152712.707500", "152714.197500", "152715.687500", "152717.177500", "152718.667500", "152720.157500", "152721.647500", "152723.137500", "152724.627500", "152726.117500", "152727.607500", "152729.097500", "152730.587500", "152732.077500", "152733.567500", "152735.057500", "152736.547500", "152738.037500", "152739.527500", "152741.017500", "152742.507500", "152743.997500", "152745.487500", "152746.977500", "152748.467500", "152749.957500", "152751.447500", "152752.937500", "152754.427500", "152755.917500", "152757.407500", "152758.897500", "152800.387500", "152801.877500", "152803.367500", "152804.857500", "152806.347500", "152807.837500", "152809.327500", "152810.817500", "152812.307500", "152813.797500", "152815.287500", "152816.777500", "152818.267500", "152819.757500", "152821.247500", "152822.737500", "152824.227500", "152825.717500", "152827.207500", "152828.697500", "152830.187500", "152831.677500", "152833.167500", "152834.657500", "152836.147500", "152837.637500", "152839.127500", "152840.617500", "152842.107500", "152843.597500", "152845.087500", "152846.577500", "152848.067500", "152849.557500", "152851.047500", "152852.537500", "152854.027500", "152855.517500", "152857.007500", "152858.497500", "152859.987500", "152901.477500", "152902.967500", "152904.457500", "152905.947500", "152907.437500", "152908.927500", "152910.417500", "152911.907500", "152913.397500", "152914.887500", "152916.377500", "152917.867500", "152919.357500", "152920.847500", "152922.337500", "152923.827500", "152925.317500", "152926.807500", "152928.297500", "152929.787500", "152931.277500", "152932.767500", "152934.257500", "152935.747500", "152937.237500", "152938.727500", "152940.217500", "152941.707500", "152943.197500", "152944.687500", "152946.177500", "152947.667500", "152949.157500", "152950.647500", "152952.137500", "152953.627500", "152955.117500", "152956.607500", "152958.097500", "152959.587500", "153001.077500", "153002.567500", "153004.057500", "153005.547500", "153007.037500", "153008.527500", "153010.017500", "153011.507500", "153012.997500", "153014.487500", "153015.977500", "153017.467500", "153018.957500", "153020.447500", "153021.937500", "153023.427500", "153024.917500", "153026.407500", "153027.897500", "153029.387500", "153030.877500", "153032.367500", "153033.857500", "153035.347500", "153036.837500", "153038.327500", "153039.817500", "153041.307500", "153042.797500", "153044.287500", "153045.777500", "153047.267500", "153048.757500", "153050.247500", "153051.737500", "153053.227500", "153054.717500", "153056.207500", "153057.697500", "153059.187500", "153100.677500", "153102.167500", "153103.657500", "153105.147500", "153106.637500", "153108.127500", "153109.617500", "153111.107500", "153112.597500", "153114.087500", "153115.577500", "153117.067500", "153118.557500", "153120.047500", "153121.537500", "153123.027500", "153124.517500", "153126.007500", "153127.497500", "153128.987500", "153130.477500", "153131.967500", "153133.457500", "153134.947500", "153136.437500", "153137.927500", "153139.417500", "153140.907500", "153142.397500", "153143.887500", "153145.377500", "153146.867500", "153148.357500", "153149.847500", "153151.337500", "153152.827500", "153154.317500"],
      "ContentTime": ["152841.957000", "152841.961000", "152841.964000", "152841.967000", "152841.971000", "152841.974000", "152841.977000", "152841.980000", "152841.984000", "152841.987000", "152841.990000", "152841.994000", "152841.997000", "152842.001000", "152842.005000", "152842.008000", "152842.011000", "152842.017000", "152842.020000", "152842.023000", "152842.026000", "152842.030000", "152842.033000", "152842.036000", "152842.040000", "152842.043000", "152842.046000", "152842.049000", "152842.053000", "152842.056000", "152842.059000", "152842.063000", "152842.066000", "152842.069000", "152842.072000", "152842.076000", "152901.917000", "152901.921000", "152901.924000", "152901.927000", "152901.931000", "152901.934000", "152901.937000", "152901.940000", "152901.944000", "152901.947000", "152901.950000", "152901.954000", "152901.957000", "152901.960000", "152901.963000", "152901.967000", "152901.970000", "152901.973000", "152901.976000", "152901.980000", "152921.917000", "152921.921000", "152921.924000", "152921.927000", "152921.931000", "152921.934000", "152921.937000", "152921.941000", "152921.944000", "152921.947000", "152921.951000", "152921.954000", "152921.957000", "152921.960000", "152921.964000", "152921.967000", "152921.970000", "152921.974000", "152921.977000", "152921.980000", "152941.917000", "152941.921000", "152941.924000", "152941.927000", "152941.931000", "152941.934000", "152941.937000", "152941.940000", "152941.944000", "152941.947000", "152941.950000", "152941.953000", "152941.957000", "152941.960000", "152941.963000", "152941.966000", "152941.970000", "152941.973000", "152941.976000", "152941.980000", "153021.917000", "153021.921000", "153021.924000", "153021.927000", "153021.931000", "153021.934000", "153021.937000", "153021.940000", "153021.959000", "153021.962000", "153021.966000", "153021.969000", "153021.972000", "153021.976000", "153021.979000", "153021.982000", "153021.986000", "153021.989000", "153021.992000", "153021.995000", "153022.000000", "153022.003000", "153022.006000", "153022.010000", "153022.013000", "153022.016000", "153022.020000", "153022.023000", "153022.026000", "153022.029000", "153101.917000", "153101.921000", "153101.924000", "153101.927000", "153101.931000", "153101.934000", "153101.937000", "153101.941000", "153101.944000", "153101.947000", "153101.951000", "153101.954000", "153101.957000", "153101.960000", "153101.964000", "153101.967000", "153101.970000", "153101.974000", "153101.977000", "153101.980000", "153101.984000", "153101.987000", "153101.990000", "153101.993000", "153101.997000", "153102.001000", "153102.004000", "153141.917000", "153141.921000", "153141.924000", "153141.927000", "153141.931000", "153141.934000", "153141.938000", "153141.941000", "153141.945000", "153141.948000", "153141.952000", "153141.956000", "153141.959000", "153141.963000", "153141.966000", "153141.970000", "153141.973000", "153141.977000", "153141.980000", "153141.983000", "153141.986000", "153141.990000", "153141.993000", "153141.996000", "153142.001000", "153142.004000", "153142.007000", "153156.318000", "153156.322000", "153156.325000", "153156.328000", "153156.331000", "153156.335000", "153156.338000", "153156.342000", "153156.345000", "153156.348000"],
      "InstanceCreationTime": ["152841.957000", "152841.961000", "152841.964000", "152841.967000", "152841.971000", "152841.974000", "152841.977000", "152841.980000", "152841.984000", "152841.987000", "152841.990000", "152841.994000", "152841.997000", "152842.001000", "152842.005000", "152842.008000", "152842.011000", "152842.017000", "152842.020000", "152842.023000", "152842.026000", "152842.030000", "152842.033000", "152842.036000", "152842.040000", "152842.043000", "152842.046000", "152842.049000", "152842.053000", "152842.056000", "152842.059000", "152842.063000", "152842.066000", "152842.069000", "152842.072000", "152842.076000", "152901.917000", "152901.921000", "152901.924000", "152901.927000", "152901.931000", "152901.934000", "152901.937000", "152901.940000", "152901.944000", "152901.947000", "152901.950000", "152901.954000", "152901.957000", "152901.960000", "152901.963000", "152901.967000", "152901.970000", "152901.973000", "152901.976000", "152901.980000", "152921.917000", "152921.921000", "152921.924000", "152921.927000", "152921.931000", "152921.934000", "152921.937000", "152921.941000", "152921.944000", "152921.947000", "152921.951000", "152921.954000", "152921.957000", "152921.960000", "152921.964000", "152921.967000", "152921.970000", "152921.974000", "152921.977000", "152921.980000", "152941.917000", "152941.921000", "152941.924000", "152941.927000", "152941.931000", "152941.934000", "152941.937000", "152941.940000", "152941.944000", "152941.947000", "152941.950000", "152941.953000", "152941.957000", "152941.960000", "152941.963000", "152941.966000", "152941.970000", "152941.973000", "152941.976000", "152941.980000", "153021.917000", "153021.921000", "153021.924000", "153021.927000", "153021.931000", "153021.934000", "153021.937000", "153021.940000", "153021.959000", "153021.962000", "153021.966000", "153021.969000", "153021.972000", "153021.976000", "153021.979000", "153021.982000", "153021.986000", "153021.989000", "153021.992000", "153021.995000", "153022.000000", "153022.003000", "153022.006000", "153022.010000", "153022.013000", "153022.016000", "153022.020000", "153022.023000", "153022.026000", "153022.029000", "153101.917000", "153101.921000", "153101.924000", "153101.927000", "153101.931000", "153101.934000", "153101.937000", "153101.941000", "153101.944000", "153101.947000", "153101.951000", "153101.954000", "153101.957000", "153101.960000", "153101.964000", "153101.967000", "153101.970000", "153101.974000", "153101.977000", "153101.980000", "153101.984000", "153101.987000", "153101.990000", "153101.993000", "153101.997000", "153102.001000", "153102.004000", "153141.917000", "153141.921000", "153141.924000", "153141.927000", "153141.931000", "153141.934000", "153141.938000", "153141.941000", "153141.945000", "153141.948000", "153141.952000", "153141.956000", "153141.959000", "153141.963000", "153141.966000", "153141.970000", "153141.973000", "153141.977000", "153141.980000", "153141.983000", "153141.986000", "153141.990000", "153141.993000", "153141.996000", "153142.001000", "153142.004000", "153142.007000", "153156.318000", "153156.322000", "153156.325000", "153156.328000", "153156.331000", "153156.335000", "153156.338000", "153156.342000", "153156.345000", "153156.348000"],
      "InstanceNumber": [1, 2, 3, 4, 5, 6, 7, 8, 9, 10, 11, 12, 13, 14, 15, 16, 17, 18, 19, 20, 21, 22, 23, 24, 25, 26, 27, 28, 29, 30, 31, 32, 33, 34, 35, 36, 37, 38, 39, 40, 41, 42, 43, 44, 45, 46, 47, 48, 49, 50, 51, 52, 53, 54, 55, 56, 57, 58, 59, 60, 61, 62, 63, 64, 65, 66, 67, 68, 69, 70, 71, 72, 73, 74, 75, 76, 77, 78, 79, 80, 81, 82, 83, 84, 85, 86, 87, 88, 89, 90, 91, 92, 93, 94, 95, 96, 97, 98, 99, 100, 101, 102, 103, 104, 105, 106, 107, 108, 109, 110, 111, 112, 113, 114, 115, 116, 117, 118, 119, 120, 121, 122, 123, 124, 125, 126, 127, 128, 129, 130, 131, 132, 133, 134, 135, 136, 137, 138, 139, 140, 141, 142, 143, 144, 145, 146, 147, 148, 149, 150, 151, 152, 153, 154, 155, 156, 157, 158, 159, 160, 161, 162, 163, 164, 165, 166, 167, 168, 169, 170, 171, 172, 173, 174, 175, 176, 177, 178, 179, 180, 181, 182, 183, 184, 185, 186, 187, 188, 189, 190],
      "LargestImagePixelValue": [47105, 46562, 44289, 44060, 43525, 43759, 42715, 42798, 43877, 43143, 42530, 43411, 43196, 42754, 43272, 42823, 42580, 42793, 43259, 43406, 42432, 42389, 42887, 43051, 43020, 42965, 42204, 42772, 41832, 42591, 42029, 42411, 41898, 42119, 42160, 42287, 42912, 42897, 42101, 42162, 42284, 42234, 42852, 42104, 42119, 42311, 43212, 41955, 41821, 42642, 42257, 42433, 43416, 42888, 43200, 43041, 43517, 43086, 42830, 42342, 42419, 42648, 41838, 41455, 42452, 42976, 42750, 42194, 43347, 42875, 42548, 42671, 42244, 41967, 41666, 42585, 42018, 42072, 42978, 43450, 43291, 43197, 44457, 43334, 43325, 41900, 41207, 41088, 41685, 41826, 42401, 42074, 42196, 42831, 41791, 42142, 42257, 41821, 42107, 43129, 42429, 43114, 43500, 43687, 41922, 41567, 41850, 42661, 42413, 43165, 42624, 42520, 42890, 43005, 43978, 42804, 42035, 43432, 43943, 43666, 43879, 44010, 42822, 43620, 43085, 43638, 43008, 43726, 43384, 43623, 44075, 44071, 43814, 43386, 44168, 43178, 42912, 43395, 43631, 43688, 43050, 43333, 42896, 43444, 42892, 43508, 43103, 42925, 43249, 43592, 42910, 43399, 43537, 43558, 43323, 43561, 43153, 43416, 43509, 42114, 42904, 42971, 43662, 43287, 43211, 43813, 44119, 42938, 43601, 41862, 43103, 42364, 41663, 42417, 42468, 42458, 43396, 43746, 41945, 41601, 42540, 44021, 42336, 41891, 42816, 41982, 41919, 42086, 42055, 41788],
      "WindowCenter": [10502.0, 10442.0, 10397.0, 10399.0, 10386.0, 10386.0, 10386.0, 10400.0, 10396.0, 10380.0, 10376.0, 10380.0, 10366.0, 10358.0, 10387.0, 10384.0, 10369.0, 10367.0, 10357.0, 10368.0, 10395.0, 10401.0, 10385.0, 10359.0, 10340.0, 10344.0, 10365.0, 10366.0, 10340.0, 10353.0, 10372.0, 10375.0, 10351.0, 10347.0, 10348.0, 10360.0, 10363.0, 10352.0, 10361.0, 10377.0, 10367.0, 10343.0, 10343.0, 10345.0, 10365.0, 10368.0, 10371.0, 10365.0, 10382.0, 10388.0, 10365.0, 10357.0, 10363.0, 10372.0, 10396.0, 10395.0, 10375.0, 10357.0, 10349.0, 10359.0, 10368.0, 10353.0, 10346.0, 10356.0, 10360.0, 10350.0, 10350.0, 10355.0, 10354.0, 10355.0, 10371.0, 10409.0, 10407.0, 10384.0, 10334.0, 10321.0, 10305.0, 10331.0, 10337.0, 10329.0, 10334.0, 10358.0, 10403.0, 10386.0, 10370.0, 10312.0, 10286.0, 10266.0, 10286.0, 10297.0, 10310.0, 10304.0, 10312.0, 10327.0, 10324.0, 10359.0, 10368.0, 10350.0, 10327.0, 10319.0, 10305.0, 10328.0, 10333.0, 10325.0, 10315.0, 10325.0, 10318.0, 10306.0, 10295.0, 10299.0, 10321.0, 10357.0, 10370.0, 10341.0, 10322.0, 10316.0, 10329.0, 10338.0, 10329.0, 10321.0, 10329.0, 10349.0, 10364.0, 10365.0, 10350.0, 10339.0, 10325.0, 10342.0, 10344.0, 10336.0, 10342.0, 10358.0, 10369.0, 10371.0, 10354.0, 10332.0, 10333.0, 10362.0, 10361.0, 10359.0, 10361.0, 10370.0, 10352.0, 10333.0, 10310.0, 10331.0, 10359.0, 10386.0, 10374.0, 10363.0, 10341.0, 10359.0, 10369.0, 10361.0, 10361.0, 10362.0, 10361.0, 10361.0, 10375.0, 10377.0, 10383.0, 10367.0, 10360.0, 10354.0, 10372.0, 10391.0, 10399.0, 10397.0, 10388.0, 10365.0, 10362.0, 10379.0, 10382.0, 10378.0, 10358.0, 10332.0, 10341.0, 10364.0, 10369.0, 10376.0, 10373.0, 10384.0, 10356.0, 10353.0, 10350.0, 10345.0, 10339.0, 10337.0, 10321.0, 10320.0],
      "WindowWidth": [22777.0, 22594.0, 22471.0, 22463.0, 22429.0, 22418.0, 22419.0, 22448.0, 22436.0, 22400.0, 22391.0, 22397.0, 22369.0, 22349.0, 22412.0, 22411.0, 22378.0, 22370.0, 22348.0, 22369.0, 22434.0, 22452.0, 22411.0, 22349.0, 22308.0, 22315.0, 22367.0, 22371.0, 22315.0, 22339.0, 22386.0, 22396.0, 22340.0, 22330.0, 22332.0, 22363.0, 22363.0, 22339.0, 22359.0, 22399.0, 22376.0, 22318.0, 22316.0, 22324.0, 22370.0, 22379.0, 22384.0, 22373.0, 22412.0, 22424.0, 22372.0, 22352.0, 22364.0, 22385.0, 22437.0, 22436.0, 22385.0, 22346.0, 22329.0, 22356.0, 22377.0, 22346.0, 22326.0, 22352.0, 22359.0, 22333.0, 22332.0, 22351.0, 22346.0, 22349.0, 22386.0, 22472.0, 22475.0, 22420.0, 22311.0, 22268.0, 22233.0, 22291.0, 22305.0, 22284.0, 22295.0, 22360.0, 22463.0, 22421.0, 22378.0, 22248.0, 22187.0, 22142.0, 22183.0, 22209.0, 22239.0, 22228.0, 22244.0, 22271.0, 22269.0, 22352.0, 22372.0, 22329.0, 22275.0, 22251.0, 22221.0, 22270.0, 22279.0, 22264.0, 22246.0, 22273.0, 22258.0, 22226.0, 22200.0, 22208.0, 22263.0, 22342.0, 22373.0, 22309.0, 22259.0, 22249.0, 22281.0, 22296.0, 22273.0, 22256.0, 22274.0, 22322.0, 22360.0, 22359.0, 22324.0, 22300.0, 22270.0, 22303.0, 22309.0, 22292.0, 22306.0, 22341.0, 22367.0, 22373.0, 22335.0, 22292.0, 22293.0, 22355.0, 22353.0, 22347.0, 22352.0, 22370.0, 22331.0, 22288.0, 22241.0, 22283.0, 22350.0, 22410.0, 22387.0, 22358.0, 22311.0, 22348.0, 22369.0, 22353.0, 22352.0, 22353.0, 22354.0, 22354.0, 22386.0, 22397.0, 22407.0, 22371.0, 22351.0, 22340.0, 22379.0, 22420.0, 22440.0, 22439.0, 22417.0, 22372.0, 22358.0, 22396.0, 22410.0, 22395.0, 22347.0, 22287.0, 22300.0, 22354.0, 22375.0, 22394.0, 22385.0, 22409.0, 22344.0, 22338.0, 22326.0, 22318.0, 22306.0, 22301.0, 22266.0, 22261.0]
    },
    "slices": {}
  }
}