{
  "AcquisitionMatrixPE": 104,
  "AcquisitionNumber": 1,
  "AcquisitionTime": "15:46:7.222500",
  "BandwidthPerPixelPhaseEncode": 17.17,
  "BaseResolution": 104,
  "BodyPartExamined": "BRAIN",
  "CoilString": "HC1-7;NC1_2",
  "ConsistencyInfo": "N4_VE11C_LATEST_20160120",
  "ConversionSoftware": "dcm2niix",
  "ConversionSoftwareVersion": "v1.0.20190902",
  "DerivedVendorReportedEchoSpacing": 0.000560011,
  "DeviceSerialNumber": "167006",
  "DwellTime": 2.1e-06,
  "EchoTime": 0.037,
  "EchoTrainLength": 104,
  "EffectiveEchoSpacing": 0.000560011,
  "FlipAngle": 52,
  "HeudiconvVersion": "0.10.0",
  "ImageComments": "Unaliased_MB4_PE3_LB",
  "ImageOrientationPatientDICOM": [0.998689, -0.0492699, 0.0138707, 0.0511157, 0.945902, -0.320402],
  "ImageType": [
    "ORIGINAL",
    "PRIMARY",
    "M",
    "MB",
    "ND",
    "MOSAIC"
],
  "ImagingFrequency": 123.259,
  "InPlanePhaseEncodingDirectionDICOM": "COL",
  "InstitutionAddress": "Chemin_Queen-Mary_4565_Montreal_District_CA_H3W_1W5",
  "InstitutionName": "IUGM",
  "InstitutionalDepartmentName": "Department",
  "MRAcquisitionType": "2D",
  "MagneticFieldStrength": 3,
  "Manufacturer": "Siemens",
  "ManufacturersModelName": "Prisma_fit",
  "Modality": "MR",
  "MultibandAccelerationFactor": 4,
  "PartialFourier": 1,
  "PatientPosition": "HFS",
  "PercentPhaseFOV": 100,
  "PhaseEncodingDirection": "j",
  "PhaseEncodingSteps": 104,
  "PhaseResolution": 1,
  "PixelBandwidth": 2290,
  "ProcedureStepDescription": "memory_things",
  "ProtocolName": "func_task-things_run-6",
  "PulseSequenceDetails": "%CustomerSeq%_cmrr_mbep2d_bold",
  "ReceiveCoilActiveElements": "HC1-7;NC1,2",
  "ReceiveCoilName": "HeadNeck_64",
  "ReconMatrixPE": 104,
  "RepetitionTime": 1.49,
  "SAR": 0.0483871,
  "ScanOptions": "FS",
  "ScanningSequence": "EP",
  "SequenceName": "epfid2d1_104",
  "SequenceVariant": "SK_SS",
  "SeriesDescription": "func_task-things_run-6",
  "SeriesNumber": 25,
  "ShimSetting": [626, -7243, -8826, 593, -3, -188, -48, -36],
  "SliceThickness": 2,
  "SliceTiming": [0, 0.7825, 0.0975, 0.88, 0.195, 0.98, 0.2925, 1.0775, 0.39, 1.175, 0.49, 1.2725, 0.5875, 1.37, 0.685, 0, 0.7825, 0.0975, 0.88, 0.195, 0.98, 0.2925, 1.0775, 0.39, 1.175, 0.49, 1.2725, 0.5875, 1.37, 0.685, 0, 0.7825, 0.0975, 0.88, 0.195, 0.98, 0.2925, 1.0775, 0.39, 1.175, 0.49, 1.2725, 0.5875, 1.37, 0.685, 0, 0.7825, 0.0975, 0.88, 0.195, 0.98, 0.2925, 1.0775, 0.39, 1.175, 0.49, 1.2725, 0.5875, 1.37, 0.685],
  "SoftwareVersions": "syngo_MR_E11",
  "SpacingBetweenSlices": 2,
  "StationName": "MRC35049",
  "TaskName": "things",
  "TotalReadoutTime": 0.0576811,
  "TxRefAmp": 253.085,
  "WipMemBlock": "e61faaa8-928b-48f5-ae07-c3a36a806d75||Sequence: R016 ve11c/master r/e634e98; Dec 19 2017 11:00:25 by eja",
  "dcmmeta_affine": [
    [-1.9973783493041992, 0.10223132371902466, -0.005331747699528933, 102.55690002441406],
    [0.09853977710008621, 1.8918030261993408, -0.6413822770118713, -70.42388916015625],
    [0.02774137258529663, 0.6408042311668396, 1.8943601846694946, -67.52318572998047],
    [0.0, 0.0, 0.0, 1.0]
],
  "dcmmeta_reorient_transform": [
    [0.0, -1.0, 0.0, 103.0],
    [1.0, 0.0, 0.0, 0.0],
    [0.0, 0.0, 1.0, 0.0],
    [0.0, 0.0, 0.0, 1.0]
],
  "dcmmeta_shape": [104, 104, 60, 190],
  "dcmmeta_slice_dim": 2,
  "dcmmeta_version": 0.6,
  "global": {
    "const": {
      "AcquisitionMatrix": [104, 0, 0, 104],
      "AngioFlag": "N",
      "BitsAllocated": 16,
      "BitsStored": 16,
      "BodyPartExamined": "BRAIN",
      "Columns": 832,
      "EchoNumbers": 1,
      "EchoTime": 37.0,
      "EchoTrainLength": 104,
      "FlipAngle": 52.0,
      "HighBit": 15,
      "ImageOrientationPatient": [0.9986891819243, -0.0492698891602, 0.01387068597827, 0.0511156632005, 0.94590151412713, -0.3204021138313],
      "ImagePositionPatient": [-877.34465290478, -777.17964660079, 221.63452791759],
      "ImageType": [
        "ORIGINAL",
        "PRIMARY",
        "M",
        "MB",
        "ND",
        "MOSAIC"
],
      "ImagedNucleus": "1H",
      "ImagingFrequency": 123.258895,
      "InPlanePhaseEncodingDirection": "COL",
      "MRAcquisitionType": "2D",
      "MagneticFieldStrength": 3.0,
      "Manufacturer": "SIEMENS",
      "ManufacturerModelName": "Prisma_fit",
      "Modality": "MR",
      "NumberOfAverages": 1.0,
      "NumberOfPhaseEncodingSteps": 104,
      "PercentPhaseFieldOfView": 100.0,
      "PercentSampling": 100.0,
      "PerformedProcedureStepStartTime": "144220.467000",
      "PhotometricInterpretation": "MONOCHROME2",
      "PixelBandwidth": 2290.0,
      "PixelRepresentation": 0,
      "PixelSpacing": [2.0, 2.0],
      "ProtocolName": "func_task-things_run-6",
      "RepetitionTime": 1490.0,
      "Rows": 832,
      "SAR": 0.04838713503498,
      "SamplesPerPixel": 1,
      "ScanOptions": "FS",
      "ScanningSequence": "EP",
      "SequenceName": "epfid2d1_104",
      "SequenceVariant": [
        "SK",
        "SS"
],
      "SeriesDescription": "func_task-things_run-6",
      "SeriesNumber": 25,
      "SeriesTime": "154741.959000",
      "SliceLocation": -41.645704291883,
      "SliceThickness": 2.0,
      "SmallestImagePixelValue": 0,
      "SoftwareVersions": "syngo MR E11",
      "SpacingBetweenSlices": 2.000000010625,
      "SpecificCharacterSet": "ISO_IR 100",
      "StudyID": "1",
      "StudyTime": "144220.413000",
      "TransmitCoilName": "Body",
      "VariableFlipAngleFlag": "N",
      "WindowCenterWidthExplanation": "Algo1",
      "dBdt": 0.0},
    "slices": {}
  },
  "time": {
    "samples": {
      "AcquisitionNumber": [1, 2, 3, 4, 5, 6, 7, 8, 9, 10, 11, 12, 13, 14, 15, 16, 17, 18, 19, 20, 21, 22, 23, 24, 25, 26, 27, 28, 29, 30, 31, 32, 33, 34, 35, 36, 37, 38, 39, 40, 41, 42, 43, 44, 45, 46, 47, 48, 49, 50, 51, 52, 53, 54, 55, 56, 57, 58, 59, 60, 61, 62, 63, 64, 65, 66, 67, 68, 69, 70, 71, 72, 73, 74, 75, 76, 77, 78, 79, 80, 81, 82, 83, 84, 85, 86, 87, 88, 89, 90, 91, 92, 93, 94, 95, 96, 97, 98, 99, 100, 101, 102, 103, 104, 105, 106, 107, 108, 109, 110, 111, 112, 113, 114, 115, 116, 117, 118, 119, 120, 121, 122, 123, 124, 125, 126, 127, 128, 129, 130, 131, 132, 133, 134, 135, 136, 137, 138, 139, 140, 141, 142, 143, 144, 145, 146, 147, 148, 149, 150, 151, 152, 153, 154, 155, 156, 157, 158, 159, 160, 161, 162, 163, 164, 165, 166, 167, 168, 169, 170, 171, 172, 173, 174, 175, 176, 177, 178, 179, 180, 181, 182, 183, 184, 185, 186, 187, 188, 189, 190],
      "AcquisitionTime": ["154607.222500", "154608.712500", "154610.202500", "154611.692500", "154613.182500", "154614.672500", "154616.162500", "154617.652500", "154619.142500", "154620.632500", "154622.122500", "154623.612500", "154625.102500", "154626.592500", "154628.082500", "154629.572500", "154631.062500", "154632.552500", "154634.042500", "154635.532500", "154637.022500", "154638.512500", "154640.002500", "154641.492500", "154642.982500", "154644.472500", "154645.962500", "154647.452500", "154648.942500", "154650.432500", "154651.922500", "154653.412500", "154654.902500", "154656.392500", "154657.882500", "154659.372500", "154700.862500", "154702.352500", "154703.842500", "154705.332500", "154706.822500", "154708.312500", "154709.802500", "154711.292500", "154712.782500", "154714.272500", "154715.762500", "154717.252500", "154718.742500", "154720.232500", "154721.722500", "154723.212500", "154724.702500", "154726.192500", "154727.682500", "154729.172500", "154730.662500", "154732.152500", "154733.642500", "154735.132500", "154736.622500", "154738.112500", "154739.602500", "154741.092500", "154742.582500", "154744.072500", "154745.562500", "154747.052500", "154748.542500", "154750.032500", "154751.522500", "154753.012500", "154754.502500", "154755.992500", "154757.482500", "154758.972500", "154800.462500", "154801.952500", "154803.442500", "154804.932500", "154806.422500", "154807.912500", "154809.402500", "154810.892500", "154812.382500", "154813.872500", "154815.362500", "154816.852500", "154818.342500", "154819.832500", "154821.322500", "154822.812500", "154824.302500", "154825.792500", "154827.282500", "154828.772500", "154830.262500", "154831.752500", "154833.242500", "154834.732500", "154836.222500", "154837.712500", "154839.202500", "154840.692500", "154842.182500", "154843.672500", "154845.162500", "154846.652500", "154848.142500", "154849.632500", "154851.122500", "154852.612500", "154854.102500", "154855.592500", "154857.082500", "154858.572500", "154900.062500", "154901.552500", "154903.042500", "154904.532500", "154906.022500", "154907.512500", "154909.002500", "154910.492500", "154911.982500", "154913.472500", "154914.962500", "154916.452500", "154917.942500", "154919.432500", "154920.922500", "154922.412500", "154923.902500", "154925.392500", "154926.882500", "154928.372500", "154929.862500", "154931.352500", "154932.842500", "154934.332500", "154935.822500", "154937.312500", "154938.802500", "154940.292500", "154941.782500", "154943.272500", "154944.762500", "154946.252500", "154947.742500", "154949.232500", "154950.722500", "154952.212500", "154953.702500", "154955.192500", "154956.682500", "154958.172500", "154959.662500", "155001.152500", "155002.642500", "155004.132500", "155005.622500", "155007.112500", "155008.602500", "155010.092500", "155011.582500", "155013.072500", "155014.562500", "155016.052500", "155017.542500", "155019.032500", "155020.522500", "155022.012500", "155023.502500", "155024.992500", "155026.482500", "155027.972500", "155029.462500", "155030.952500", "155032.442500", "155033.932500", "155035.422500", "155036.912500", "155038.402500", "155039.892500", "155041.382500", "155042.872500", "155044.362500", "155045.852500", "155047.342500", "155048.832500"],
      "ContentTime": ["154741.962000", "154741.966000", "154741.969000", "154741.973000", "154741.976000", "154741.979000", "154741.982000", "154741.986000", "154741.989000", "154741.992000", "154741.996000", "154742.002000", "154742.005000", "154742.009000", "154742.012000", "154742.015000", "154742.018000", "154742.022000", "154742.031000", "154742.035000", "154742.038000", "154742.041000", "154742.044000", "154742.048000", "154742.051000", "154742.054000", "154742.057000", "154742.060000", "154742.064000", "154742.067000", "154742.070000", "154742.073000", "154742.077000", "154742.080000", "154742.083000", "154742.086000", "154742.090000", "154742.093000", "154742.096000", "154801.917000", "154801.921000", "154801.924000", "154801.927000", "154801.931000", "154801.934000", "154801.937000", "154801.940000", "154801.944000", "154801.947000", "154801.950000", "154801.953000", "154801.956000", "154801.960000", "154801.965000", "154801.968000", "154801.972000", "154801.975000", "154801.978000", "154801.981000", "154801.985000", "154821.917000", "154821.921000", "154821.924000", "154821.927000", "154821.931000", "154821.934000", "154821.937000", "154821.940000", "154821.944000", "154821.948000", "154821.951000", "154821.955000", "154821.958000", "154821.961000", "154821.964000", "154821.968000", "154821.971000", "154821.974000", "154821.977000", "154821.981000", "154841.917000", "154841.921000", "154841.924000", "154841.927000", "154841.931000", "154841.934000", "154841.937000", "154841.940000", "154841.943000", "154841.947000", "154841.950000", "154841.966000", "154841.969000", "154841.972000", "154841.976000", "154841.979000", "154841.982000", "154841.985000", "154841.989000", "154841.992000", "154921.917000", "154921.921000", "154921.924000", "154921.927000", "154921.931000", "154921.934000", "154921.937000", "154921.941000", "154921.944000", "154921.947000", "154921.950000", "154921.954000", "154921.957000", "154921.960000", "154921.964000", "154921.967000", "154921.970000", "154921.973000", "154921.977000", "154921.980000", "154921.983000", "154921.986000", "154921.990000", "154921.993000", "154921.996000", "154922.000000", "154922.004000", "154922.007000", "154922.010000", "154922.014000", "155001.917000", "155001.922000", "155001.926000", "155001.929000", "155001.933000", "155001.936000", "155001.939000", "155001.943000", "155001.946000", "155001.949000", "155001.952000", "155001.956000", "155001.959000", "155001.962000", "155001.966000", "155001.969000", "155001.972000", "155001.975000", "155001.979000", "155001.982000", "155001.985000", "155001.988000", "155001.992000", "155001.995000", "155001.998000", "155002.003000", "155002.006000", "155041.917000", "155041.921000", "155041.924000", "155041.927000", "155041.931000", "155041.934000", "155041.937000", "155041.941000", "155041.944000", "155041.947000", "155041.950000", "155041.954000", "155041.957000", "155041.960000", "155041.964000", "155041.967000", "155041.970000", "155041.973000", "155041.977000", "155041.980000", "155041.983000", "155041.986000", "155041.990000", "155041.993000", "155041.996000", "155042.001000", "155051.150000", "155051.153000", "155051.157000", "155051.160000", "155051.164000", "155051.167000", "155051.170000"],
      "InstanceCreationTime": ["154741.962000", "154741.966000", "154741.969000", "154741.973000", "154741.976000", "154741.979000", "154741.982000", "154741.986000", "154741.989000", "154741.992000", "154741.996000", "154742.002000", "154742.005000", "154742.009000", "154742.012000", "154742.015000", "154742.018000", "154742.022000", "154742.031000", "154742.035000", "154742.038000", "154742.041000", "154742.044000", "154742.048000", "154742.051000", "154742.054000", "154742.057000", "154742.060000", "154742.064000", "154742.067000", "154742.070000", "154742.073000", "154742.077000", "154742.080000", "154742.083000", "154742.086000", "154742.090000", "154742.093000", "154742.096000", "154801.917000", "154801.921000", "154801.924000", "154801.927000", "154801.931000", "154801.934000", "154801.937000", "154801.940000", "154801.944000", "154801.947000", "154801.950000", "154801.953000", "154801.956000", "154801.960000", "154801.965000", "154801.968000", "154801.972000", "154801.975000", "154801.978000", "154801.981000", "154801.985000", "154821.917000", "154821.921000", "154821.924000", "154821.927000", "154821.931000", "154821.934000", "154821.937000", "154821.940000", "154821.944000", "154821.948000", "154821.951000", "154821.955000", "154821.958000", "154821.961000", "154821.964000", "154821.968000", "154821.971000", "154821.974000", "154821.977000", "154821.981000", "154841.917000", "154841.921000", "154841.924000", "154841.927000", "154841.931000", "154841.934000", "154841.937000", "154841.940000", "154841.943000", "154841.947000", "154841.950000", "154841.966000", "154841.969000", "154841.972000", "154841.976000", "154841.979000", "154841.982000", "154841.985000", "154841.989000", "154841.992000", "154921.917000", "154921.921000", "154921.924000", "154921.927000", "154921.931000", "154921.934000", "154921.937000", "154921.941000", "154921.944000", "154921.947000", "154921.950000", "154921.954000", "154921.957000", "154921.960000", "154921.964000", "154921.967000", "154921.970000", "154921.973000", "154921.977000", "154921.980000", "154921.983000", "154921.986000", "154921.990000", "154921.993000", "154921.996000", "154922.000000", "154922.004000", "154922.007000", "154922.010000", "154922.014000", "155001.917000", "155001.922000", "155001.926000", "155001.929000", "155001.933000", "155001.936000", "155001.939000", "155001.943000", "155001.946000", "155001.949000", "155001.952000", "155001.956000", "155001.959000", "155001.962000", "155001.966000", "155001.969000", "155001.972000", "155001.975000", "155001.979000", "155001.982000", "155001.985000", "155001.988000", "155001.992000", "155001.995000", "155001.998000", "155002.003000", "155002.006000", "155041.917000", "155041.921000", "155041.924000", "155041.927000", "155041.931000", "155041.934000", "155041.937000", "155041.941000", "155041.944000", "155041.947000", "155041.950000", "155041.954000", "155041.957000", "155041.960000", "155041.964000", "155041.967000", "155041.970000", "155041.973000", "155041.977000", "155041.980000", "155041.983000", "155041.986000", "155041.990000", "155041.993000", "155041.996000", "155042.001000", "155051.150000", "155051.153000", "155051.157000", "155051.160000", "155051.164000", "155051.167000", "155051.170000"],
      "InstanceNumber": [1, 2, 3, 4, 5, 6, 7, 8, 9, 10, 11, 12, 13, 14, 15, 16, 17, 18, 19, 20, 21, 22, 23, 24, 25, 26, 27, 28, 29, 30, 31, 32, 33, 34, 35, 36, 37, 38, 39, 40, 41, 42, 43, 44, 45, 46, 47, 48, 49, 50, 51, 52, 53, 54, 55, 56, 57, 58, 59, 60, 61, 62, 63, 64, 65, 66, 67, 68, 69, 70, 71, 72, 73, 74, 75, 76, 77, 78, 79, 80, 81, 82, 83, 84, 85, 86, 87, 88, 89, 90, 91, 92, 93, 94, 95, 96, 97, 98, 99, 100, 101, 102, 103, 104, 105, 106, 107, 108, 109, 110, 111, 112, 113, 114, 115, 116, 117, 118, 119, 120, 121, 122, 123, 124, 125, 126, 127, 128, 129, 130, 131, 132, 133, 134, 135, 136, 137, 138, 139, 140, 141, 142, 143, 144, 145, 146, 147, 148, 149, 150, 151, 152, 153, 154, 155, 156, 157, 158, 159, 160, 161, 162, 163, 164, 165, 166, 167, 168, 169, 170, 171, 172, 173, 174, 175, 176, 177, 178, 179, 180, 181, 182, 183, 184, 185, 186, 187, 188, 189, 190],
      "LargestImagePixelValue": [43296, 41948, 40898, 40974, 41207, 41018, 40315, 41093, 40428, 40260, 39917, 39942, 39962, 40328, 41052, 40764, 40940, 40306, 39814, 40419, 40045, 40161, 40208, 40105, 40438, 40827, 40344, 40540, 40262, 39667, 40094, 40597, 40333, 41851, 41489, 42739, 41901, 41382, 41704, 40984, 40362, 40670, 40122, 41282, 40498, 40723, 40728, 41213, 40768, 39976, 40113, 40597, 39968, 40352, 41095, 40564, 40857, 40548, 40467, 40332, 40004, 40237, 39961, 39902, 40012, 40819, 40345, 40360, 39979, 40161, 39934, 39622, 39564, 39763, 39441, 39698, 39170, 39817, 40851, 40310, 39754, 39916, 40347, 39657, 40358, 40435, 40678, 40506, 40609, 39913, 40158, 40429, 39626, 39236, 40300, 40191, 40530, 40302, 40333, 39980, 39725, 39848, 39947, 39699, 40452, 40815, 40376, 40393, 40800, 40646, 40310, 40421, 40576, 40596, 40206, 39854, 40063, 40133, 40199, 40401, 40477, 40984, 39923, 40246, 40265, 40346, 40275, 40314, 40311, 40485, 40625, 40105, 40353, 40459, 39917, 40462, 40937, 40482, 40485, 40864, 40686, 40790, 40460, 40628, 40602, 41180, 40112, 40515, 40924, 40872, 40466, 41019, 41125, 41149, 41095, 40676, 40611, 40625, 39708, 39950, 39927, 40767, 40196, 40692, 40746, 41280, 40582, 40397, 40740, 40053, 40929, 39835, 40047, 40223, 40307, 40129, 40444, 40492, 40337, 40148, 39942, 39997, 40075, 40113, 40240, 40465, 40464, 40874, 40174, 40149],
      "WindowCenter": [10328.0, 10289.0, 10262.0, 10263.0, 10288.0, 10316.0, 10301.0, 10293.0, 10279.0, 10269.0, 10256.0, 10238.0, 10233.0, 10257.0, 10280.0, 10252.0, 10232.0, 10223.0, 10212.0, 10229.0, 10230.0, 10247.0, 10250.0, 10246.0, 10242.0, 10269.0, 10261.0, 10261.0, 10244.0, 10223.0, 10241.0, 10264.0, 10260.0, 10245.0, 10253.0, 10277.0, 10259.0, 10225.0, 10204.0, 10197.0, 10207.0, 10227.0, 10203.0, 10205.0, 10192.0, 10182.0, 10166.0, 10178.0, 10179.0, 10185.0, 10185.0, 10183.0, 10169.0, 10199.0, 10235.0, 10241.0, 10219.0, 10185.0, 10183.0, 10209.0, 10220.0, 10204.0, 10180.0, 10175.0, 10183.0, 10204.0, 10209.0, 10195.0, 10172.0, 10175.0, 10186.0, 10198.0, 10208.0, 10194.0, 10184.0, 10197.0, 10194.0, 10219.0, 10270.0, 10273.0, 10246.0, 10222.0, 10219.0, 10236.0, 10260.0, 10238.0, 10205.0, 10183.0, 10196.0, 10205.0, 10203.0, 10193.0, 10184.0, 10179.0, 10199.0, 10206.0, 10212.0, 10202.0, 10193.0, 10187.0, 10196.0, 10217.0, 10227.0, 10236.0, 10244.0, 10265.0, 10279.0, 10290.0, 10282.0, 10273.0, 10265.0, 10249.0, 10236.0, 10233.0, 10242.0, 10239.0, 10225.0, 10205.0, 10204.0, 10235.0, 10277.0, 10301.0, 10277.0, 10243.0, 10209.0, 10204.0, 10212.0, 10238.0, 10261.0, 10269.0, 10260.0, 10247.0, 10237.0, 10227.0, 10228.0, 10260.0, 10308.0, 10304.0, 10280.0, 10253.0, 10243.0, 10252.0, 10255.0, 10259.0, 10254.0, 10280.0, 10268.0, 10267.0, 10256.0, 10244.0, 10231.0, 10239.0, 10248.0, 10260.0, 10260.0, 10251.0, 10241.0, 10219.0, 10212.0, 10225.0, 10243.0, 10267.0, 10258.0, 10249.0, 10252.0, 10281.0, 10294.0, 10284.0, 10276.0, 10256.0, 10235.0, 10213.0, 10225.0, 10254.0, 10259.0, 10250.0, 10240.0, 10240.0, 10232.0, 10228.0, 10234.0, 10237.0, 10234.0, 10228.0, 10231.0, 10232.0, 10269.0, 10304.0, 10286.0, 10249.0],
      "WindowWidth": [22332.0, 22205.0, 22125.0, 22110.0, 22158.0, 22219.0, 22185.0, 22159.0, 22125.0, 22104.0, 22073.0, 22029.0, 22014.0, 22069.0, 22122.0, 22065.0, 22018.0, 21999.0, 21979.0, 22010.0, 22011.0, 22047.0, 22055.0, 22048.0, 22039.0, 22104.0, 22087.0, 22086.0, 22046.0, 22001.0, 22042.0, 22091.0, 22088.0, 22051.0, 22077.0, 22132.0, 22086.0, 22005.0, 21955.0, 21938.0, 21962.0, 22007.0, 21957.0, 21955.0, 21932.0, 21911.0, 21874.0, 21896.0, 21897.0, 21915.0, 21915.0, 21908.0, 21876.0, 21946.0, 22027.0, 22044.0, 21993.0, 21915.0, 21912.0, 21969.0, 21998.0, 21958.0, 21902.0, 21891.0, 21916.0, 21959.0, 21973.0, 21940.0, 21889.0, 21895.0, 21921.0, 21950.0, 21972.0, 21945.0, 21920.0, 21948.0, 21948.0, 21998.0, 22112.0, 22119.0, 22062.0, 22003.0, 21995.0, 22035.0, 22090.0, 22041.0, 21965.0, 21910.0, 21942.0, 21967.0, 21964.0, 21940.0, 21916.0, 21910.0, 21947.0, 21962.0, 21976.0, 21956.0, 21934.0, 21925.0, 21945.0, 21992.0, 22019.0, 22040.0, 22056.0, 22101.0, 22137.0, 22161.0, 22143.0, 22120.0, 22101.0, 22065.0, 22032.0, 22022.0, 22045.0, 22044.0, 22011.0, 21962.0, 21962.0, 22032.0, 22126.0, 22181.0, 22134.0, 22055.0, 21977.0, 21961.0, 21975.0, 22034.0, 22087.0, 22105.0, 22088.0, 22060.0, 22038.0, 22015.0, 22018.0, 22085.0, 22195.0, 22188.0, 22133.0, 22069.0, 22050.0, 22070.0, 22081.0, 22082.0, 22070.0, 22137.0, 22114.0, 22109.0, 22078.0, 22050.0, 22024.0, 22037.0, 22058.0, 22083.0, 22084.0, 22068.0, 22044.0, 21995.0, 21979.0, 22012.0, 22056.0, 22109.0, 22086.0, 22064.0, 22066.0, 22129.0, 22162.0, 22141.0, 22123.0, 22079.0, 22030.0, 21985.0, 22010.0, 22076.0, 22088.0, 22069.0, 22045.0, 22042.0, 22027.0, 22017.0, 22029.0, 22037.0, 22027.0, 22017.0, 22019.0, 22021.0, 22104.0, 22186.0, 22151.0, 22068.0]
    },
    "slices": {}
  }
}