{
  "AcquisitionMatrixPE": 104,
  "AcquisitionNumber": 1,
  "AcquisitionTime": "15:14:1.645000",
  "BandwidthPerPixelPhaseEncode": 17.17,
  "BaseResolution": 104,
  "BodyPartExamined": "BRAIN",
  "CoilString": "HC1-7;NC1_2",
  "ConsistencyInfo": "N4_VE11C_LATEST_20160120",
  "ConversionSoftware": "dcm2niix",
  "ConversionSoftwareVersion": "v1.0.20190902",
  "DerivedVendorReportedEchoSpacing": 0.000560011,
  "DeviceSerialNumber": "167006",
  "DwellTime": 2.1e-06,
  "EchoTime": 0.037,
  "EchoTrainLength": 104,
  "EffectiveEchoSpacing": 0.000560011,
  "FlipAngle": 52,
  "HeudiconvVersion": "0.10.0",
  "ImageComments": "Unaliased_MB4_PE3_LB",
  "ImageOrientationPatientDICOM": [0.998689, -0.0492699, 0.0138707, 0.0511157, 0.945902, -0.320402],
  "ImageType": [
    "ORIGINAL",
    "PRIMARY",
    "P",
    "MB",
    "ND",
    "MOSAIC"
],
  "ImagingFrequency": 123.259,
  "InPlanePhaseEncodingDirectionDICOM": "COL",
  "InstitutionAddress": "Chemin_Queen-Mary_4565_Montreal_District_CA_H3W_1W5",
  "InstitutionName": "IUGM",
  "InstitutionalDepartmentName": "Department",
  "MRAcquisitionType": "2D",
  "MagneticFieldStrength": 3,
  "Manufacturer": "Siemens",
  "ManufacturersModelName": "Prisma_fit",
  "Modality": "MR",
  "MultibandAccelerationFactor": 4,
  "PartialFourier": 1,
  "PatientPosition": "HFS",
  "PercentPhaseFOV": 100,
  "PhaseEncodingDirection": "j",
  "PhaseEncodingSteps": 104,
  "PhaseResolution": 1,
  "PixelBandwidth": 2290,
  "ProcedureStepDescription": "memory_things",
  "ProtocolName": "func_task-things_run-1",
  "PulseSequenceDetails": "%CustomerSeq%_cmrr_mbep2d_bold",
  "ReceiveCoilActiveElements": "HC1-7;NC1,2",
  "ReceiveCoilName": "HeadNeck_64",
  "ReconMatrixPE": 104,
  "RepetitionTime": 1.49,
  "SAR": 0.0483871,
  "ScanOptions": "FS",
  "ScanningSequence": "EP",
  "SequenceName": "epfid2d1_104",
  "SequenceVariant": "SK_SS",
  "SeriesDescription": "func_task-things_run-1",
  "SeriesNumber": 11,
  "ShimSetting": [626, -7243, -8826, 593, -3, -188, -48, -36],
  "SliceThickness": 2,
  "SliceTiming": [0, 0.7825, 0.0975, 0.8825, 0.195, 0.98, 0.295, 1.0775, 0.3925, 1.175, 0.49, 1.2725, 0.5875, 1.3725, 0.685, 0, 0.7825, 0.0975, 0.8825, 0.195, 0.98, 0.295, 1.0775, 0.3925, 1.175, 0.49, 1.2725, 0.5875, 1.3725, 0.685, 0, 0.7825, 0.0975, 0.8825, 0.195, 0.98, 0.295, 1.0775, 0.3925, 1.175, 0.49, 1.2725, 0.5875, 1.3725, 0.685, 0, 0.7825, 0.0975, 0.8825, 0.195, 0.98, 0.295, 1.0775, 0.3925, 1.175, 0.49, 1.2725, 0.5875, 1.3725, 0.685],
  "SoftwareVersions": "syngo_MR_E11",
  "SpacingBetweenSlices": 2,
  "StationName": "MRC35049",
  "TaskName": "things",
  "TotalReadoutTime": 0.0576811,
  "TxRefAmp": 253.085,
  "WipMemBlock": "a5edd7bf-5a49-46d0-8796-6fb5ce161f7f||Sequence: R016 ve11c/master r/e634e98; Dec 19 2017 11:00:25 by eja",
  "dcmmeta_affine": [
    [-1.9973783493041992, 0.10223132371902466, -0.005331747699528933, 102.55690002441406],
    [0.09853977710008621, 1.8918030261993408, -0.6413822770118713, -70.42388916015625],
    [0.02774137258529663, 0.6408042311668396, 1.8943601846694946, -67.52318572998047],
    [0.0, 0.0, 0.0, 1.0]
],
  "dcmmeta_reorient_transform": [
    [0.0, -1.0, 0.0, 103.0],
    [1.0, 0.0, 0.0, 0.0],
    [0.0, 0.0, 1.0, 0.0],
    [0.0, 0.0, 0.0, 1.0]
],
  "dcmmeta_shape": [104, 104, 60, 190],
  "dcmmeta_slice_dim": 2,
  "dcmmeta_version": 0.6,
  "global": {
    "const": {
      "AcquisitionMatrix": [104, 0, 0, 104],
      "AngioFlag": "N",
      "BitsAllocated": 16,
      "BitsStored": 16,
      "BodyPartExamined": "BRAIN",
      "Columns": 832,
      "EchoNumbers": 1,
      "EchoTime": 37.0,
      "EchoTrainLength": 104,
      "FlipAngle": 52.0,
      "HighBit": 15,
      "ImageOrientationPatient": [0.9986891819243, -0.0492698891602, 0.01387068597827, 0.0511156632005, 0.94590151412713, -0.3204021138313],
      "ImagePositionPatient": [-877.34465290478, -777.17964660079, 221.63452791759],
      "ImageType": [
        "ORIGINAL",
        "PRIMARY",
        "P",
        "MB",
        "ND",
        "MOSAIC"
],
      "ImagedNucleus": "1H",
      "ImagingFrequency": 123.25888,
      "InPlanePhaseEncodingDirection": "COL",
      "LargestImagePixelValue": 4095,
      "MRAcquisitionType": "2D",
      "MagneticFieldStrength": 3.0,
      "Manufacturer": "SIEMENS",
      "ManufacturerModelName": "Prisma_fit",
      "Modality": "MR",
      "NumberOfAverages": 1.0,
      "NumberOfPhaseEncodingSteps": 104,
      "PercentPhaseFieldOfView": 100.0,
      "PercentSampling": 100.0,
      "PerformedProcedureStepStartTime": "144220.467000",
      "PhotometricInterpretation": "MONOCHROME2",
      "PixelBandwidth": 2290.0,
      "PixelRepresentation": 0,
      "PixelSpacing": [2.0, 2.0],
      "ProtocolName": "func_task-things_run-1",
      "RepetitionTime": 1490.0,
      "RescaleIntercept": -4096.0,
      "RescaleSlope": 2.0,
      "RescaleType": "US",
      "Rows": 832,
      "SAR": 0.04838713503498,
      "SamplesPerPixel": 1,
      "ScanOptions": "FS",
      "ScanningSequence": "EP",
      "SequenceName": "epfid2d1_104",
      "SequenceVariant": [
        "SK",
        "SS"
],
      "SeriesDescription": "func_task-things_run-1",
      "SeriesNumber": 11,
      "SeriesTime": "151515.003000",
      "SliceLocation": -41.645704291883,
      "SliceThickness": 2.0,
      "SmallestImagePixelValue": 0,
      "SoftwareVersions": "syngo MR E11",
      "SpacingBetweenSlices": 2.000000010625,
      "SpecificCharacterSet": "ISO_IR 100",
      "StudyID": "1",
      "StudyTime": "144220.413000",
      "TransmitCoilName": "Body",
      "VariableFlipAngleFlag": "N",
      "WindowCenterWidthExplanation": "Algo1",
      "dBdt": 0.0},
    "slices": {}
  },
  "time": {
    "samples": {
      "AcquisitionNumber": [1, 2, 3, 4, 5, 6, 7, 8, 9, 10, 11, 12, 13, 14, 15, 16, 17, 18, 19, 20, 21, 22, 23, 24, 25, 26, 27, 28, 29, 30, 31, 32, 33, 34, 35, 36, 37, 38, 39, 40, 41, 42, 43, 44, 45, 46, 47, 48, 49, 50, 51, 52, 53, 54, 55, 56, 57, 58, 59, 60, 61, 62, 63, 64, 65, 66, 67, 68, 69, 70, 71, 72, 73, 74, 75, 76, 77, 78, 79, 80, 81, 82, 83, 84, 85, 86, 87, 88, 89, 90, 91, 92, 93, 94, 95, 96, 97, 98, 99, 100, 101, 102, 103, 104, 105, 106, 107, 108, 109, 110, 111, 112, 113, 114, 115, 116, 117, 118, 119, 120, 121, 122, 123, 124, 125, 126, 127, 128, 129, 130, 131, 132, 133, 134, 135, 136, 137, 138, 139, 140, 141, 142, 143, 144, 145, 146, 147, 148, 149, 150, 151, 152, 153, 154, 155, 156, 157, 158, 159, 160, 161, 162, 163, 164, 165, 166, 167, 168, 169, 170, 171, 172, 173, 174, 175, 176, 177, 178, 179, 180, 181, 182, 183, 184, 185, 186, 187, 188, 189, 190],
      "AcquisitionTime": ["151401.645000", "151403.135000", "151404.625000", "151406.115000", "151407.605000", "151409.095000", "151410.585000", "151412.075000", "151413.565000", "151415.055000", "151416.545000", "151418.035000", "151419.525000", "151421.015000", "151422.505000", "151423.995000", "151425.485000", "151426.975000", "151428.465000", "151429.955000", "151431.445000", "151432.935000", "151434.425000", "151435.915000", "151437.405000", "151438.895000", "151440.385000", "151441.875000", "151443.365000", "151444.855000", "151446.345000", "151447.835000", "151449.325000", "151450.815000", "151452.305000", "151453.795000", "151455.285000", "151456.775000", "151458.265000", "151459.755000", "151501.245000", "151502.735000", "151504.225000", "151505.715000", "151507.205000", "151508.695000", "151510.185000", "151511.675000", "151513.165000", "151514.655000", "151516.145000", "151517.635000", "151519.125000", "151520.615000", "151522.105000", "151523.595000", "151525.085000", "151526.575000", "151528.065000", "151529.555000", "151531.045000", "151532.535000", "151534.025000", "151535.515000", "151537.005000", "151538.495000", "151539.985000", "151541.475000", "151542.965000", "151544.455000", "151545.945000", "151547.435000", "151548.925000", "151550.415000", "151551.905000", "151553.395000", "151554.885000", "151556.375000", "151557.865000", "151559.355000", "151600.845000", "151602.335000", "151603.825000", "151605.315000", "151606.805000", "151608.295000", "151609.785000", "151611.275000", "151612.765000", "151614.255000", "151615.745000", "151617.235000", "151618.725000", "151620.215000", "151621.705000", "151623.195000", "151624.685000", "151626.175000", "151627.665000", "151629.155000", "151630.645000", "151632.135000", "151633.625000", "151635.115000", "151636.605000", "151638.095000", "151639.585000", "151641.075000", "151642.565000", "151644.055000", "151645.545000", "151647.035000", "151648.525000", "151650.015000", "151651.505000", "151652.995000", "151654.485000", "151655.975000", "151657.465000", "151658.955000", "151700.445000", "151701.935000", "151703.425000", "151704.915000", "151706.405000", "151707.895000", "151709.385000", "151710.875000", "151712.365000", "151713.855000", "151715.345000", "151716.835000", "151718.325000", "151719.815000", "151721.305000", "151722.795000", "151724.285000", "151725.775000", "151727.265000", "151728.755000", "151730.245000", "151731.735000", "151733.225000", "151734.715000", "151736.205000", "151737.695000", "151739.185000", "151740.675000", "151742.165000", "151743.655000", "151745.145000", "151746.635000", "151748.125000", "151749.615000", "151751.105000", "151752.595000", "151754.085000", "151755.575000", "151757.065000", "151758.555000", "151800.045000", "151801.535000", "151803.025000", "151804.515000", "151806.005000", "151807.495000", "151808.985000", "151810.475000", "151811.965000", "151813.455000", "151814.945000", "151816.435000", "151817.925000", "151819.415000", "151820.905000", "151822.395000", "151823.885000", "151825.375000", "151826.865000", "151828.355000", "151829.845000", "151831.335000", "151832.825000", "151834.315000", "151835.805000", "151837.295000", "151838.785000", "151840.275000", "151841.765000", "151843.255000"],
      "ContentTime": ["151515.005000", "151515.008000", "151515.010000", "151515.013000", "151515.015000", "151515.017000", "151515.020000", "151515.022000", "151515.025000", "151515.027000", "151515.030000", "151515.032000", "151515.035000", "151515.037000", "151515.039000", "151515.042000", "151515.044000", "151515.047000", "151515.049000", "151534.950000", "151534.953000", "151534.955000", "151534.958000", "151534.960000", "151534.962000", "151534.965000", "151534.967000", "151534.970000", "151534.972000", "151534.975000", "151534.977000", "151534.980000", "151534.982000", "151534.984000", "151534.987000", "151534.989000", "151534.992000", "151534.994000", "151534.997000", "151554.961000", "151554.963000", "151554.966000", "151554.968000", "151554.971000", "151554.973000", "151554.976000", "151554.978000", "151554.980000", "151554.983000", "151554.985000", "151554.988000", "151554.990000", "151554.993000", "151554.995000", "151554.998000", "151555.001000", "151555.004000", "151555.006000", "151555.009000", "151614.954000", "151614.956000", "151614.959000", "151614.961000", "151614.964000", "151614.966000", "151614.969000", "151614.971000", "151614.974000", "151614.976000", "151614.978000", "151614.982000", "151614.986000", "151614.989000", "151614.992000", "151614.994000", "151614.997000", "151615.002000", "151615.004000", "151615.007000", "151634.969000", "151634.972000", "151634.974000", "151634.977000", "151634.979000", "151634.982000", "151634.984000", "151634.987000", "151634.989000", "151634.991000", "151634.994000", "151634.996000", "151635.000000", "151635.002000", "151635.005000", "151635.007000", "151635.010000", "151635.012000", "151635.015000", "151635.017000", "151635.020000", "151714.988000", "151714.991000", "151714.993000", "151714.996000", "151714.998000", "151715.002000", "151715.005000", "151715.007000", "151715.009000", "151715.012000", "151715.014000", "151715.017000", "151715.019000", "151715.022000", "151715.024000", "151715.027000", "151715.032000", "151715.035000", "151715.037000", "151715.040000", "151715.042000", "151715.045000", "151715.047000", "151715.049000", "151715.052000", "151715.054000", "151715.057000", "151715.059000", "151715.062000", "151754.979000", "151754.982000", "151754.984000", "151754.987000", "151754.989000", "151754.992000", "151754.994000", "151754.997000", "151755.000000", "151755.003000", "151755.005000", "151755.008000", "151755.010000", "151755.013000", "151755.015000", "151755.018000", "151755.020000", "151755.023000", "151755.025000", "151755.028000", "151755.030000", "151755.033000", "151755.035000", "151755.038000", "151755.040000", "151755.043000", "151755.045000", "151834.975000", "151834.978000", "151834.980000", "151834.983000", "151834.985000", "151834.988000", "151834.990000", "151834.993000", "151834.995000", "151834.998000", "151835.001000", "151835.004000", "151835.006000", "151835.009000", "151835.011000", "151835.014000", "151835.016000", "151835.019000", "151835.021000", "151835.024000", "151835.026000", "151835.028000", "151835.031000", "151835.033000", "151835.036000", "151835.038000", "151835.041000", "151845.077000", "151845.080000", "151845.082000", "151845.085000", "151845.087000", "151845.090000", "151845.092000"],
      "InstanceCreationTime": ["151515.005000", "151515.008000", "151515.010000", "151515.013000", "151515.015000", "151515.017000", "151515.020000", "151515.022000", "151515.025000", "151515.027000", "151515.030000", "151515.032000", "151515.035000", "151515.037000", "151515.039000", "151515.042000", "151515.044000", "151515.047000", "151515.049000", "151534.950000", "151534.953000", "151534.955000", "151534.958000", "151534.960000", "151534.962000", "151534.965000", "151534.967000", "151534.970000", "151534.972000", "151534.975000", "151534.977000", "151534.980000", "151534.982000", "151534.984000", "151534.987000", "151534.989000", "151534.992000", "151534.994000", "151534.997000", "151554.961000", "151554.963000", "151554.966000", "151554.968000", "151554.971000", "151554.973000", "151554.976000", "151554.978000", "151554.980000", "151554.983000", "151554.985000", "151554.988000", "151554.990000", "151554.993000", "151554.995000", "151554.998000", "151555.001000", "151555.004000", "151555.006000", "151555.009000", "151614.954000", "151614.956000", "151614.959000", "151614.961000", "151614.964000", "151614.966000", "151614.969000", "151614.971000", "151614.974000", "151614.976000", "151614.978000", "151614.982000", "151614.986000", "151614.989000", "151614.992000", "151614.994000", "151614.997000", "151615.002000", "151615.004000", "151615.007000", "151634.969000", "151634.972000", "151634.974000", "151634.977000", "151634.979000", "151634.982000", "151634.984000", "151634.987000", "151634.989000", "151634.991000", "151634.994000", "151634.996000", "151635.000000", "151635.002000", "151635.005000", "151635.007000", "151635.010000", "151635.012000", "151635.015000", "151635.017000", "151635.020000", "151714.988000", "151714.991000", "151714.993000", "151714.996000", "151714.998000", "151715.002000", "151715.005000", "151715.007000", "151715.009000", "151715.012000", "151715.014000", "151715.017000", "151715.019000", "151715.022000", "151715.024000", "151715.027000", "151715.032000", "151715.035000", "151715.037000", "151715.040000", "151715.042000", "151715.045000", "151715.047000", "151715.049000", "151715.052000", "151715.054000", "151715.057000", "151715.059000", "151715.062000", "151754.979000", "151754.982000", "151754.984000", "151754.987000", "151754.989000", "151754.992000", "151754.994000", "151754.997000", "151755.000000", "151755.003000", "151755.005000", "151755.008000", "151755.010000", "151755.013000", "151755.015000", "151755.018000", "151755.020000", "151755.023000", "151755.025000", "151755.028000", "151755.030000", "151755.033000", "151755.035000", "151755.038000", "151755.040000", "151755.043000", "151755.045000", "151834.975000", "151834.978000", "151834.980000", "151834.983000", "151834.985000", "151834.988000", "151834.990000", "151834.993000", "151834.995000", "151834.998000", "151835.001000", "151835.004000", "151835.006000", "151835.009000", "151835.011000", "151835.014000", "151835.016000", "151835.019000", "151835.021000", "151835.024000", "151835.026000", "151835.028000", "151835.031000", "151835.033000", "151835.036000", "151835.038000", "151835.041000", "151845.077000", "151845.080000", "151845.082000", "151845.085000", "151845.087000", "151845.090000", "151845.092000"],
      "InstanceNumber": [1, 2, 3, 4, 5, 6, 7, 8, 9, 10, 11, 12, 13, 14, 15, 16, 17, 18, 19, 20, 21, 22, 23, 24, 25, 26, 27, 28, 29, 30, 31, 32, 33, 34, 35, 36, 37, 38, 39, 40, 41, 42, 43, 44, 45, 46, 47, 48, 49, 50, 51, 52, 53, 54, 55, 56, 57, 58, 59, 60, 61, 62, 63, 64, 65, 66, 67, 68, 69, 70, 71, 72, 73, 74, 75, 76, 77, 78, 79, 80, 81, 82, 83, 84, 85, 86, 87, 88, 89, 90, 91, 92, 93, 94, 95, 96, 97, 98, 99, 100, 101, 102, 103, 104, 105, 106, 107, 108, 109, 110, 111, 112, 113, 114, 115, 116, 117, 118, 119, 120, 121, 122, 123, 124, 125, 126, 127, 128, 129, 130, 131, 132, 133, 134, 135, 136, 137, 138, 139, 140, 141, 142, 143, 144, 145, 146, 147, 148, 149, 150, 151, 152, 153, 154, 155, 156, 157, 158, 159, 160, 161, 162, 163, 164, 165, 166, 167, 168, 169, 170, 171, 172, 173, 174, 175, 176, 177, 178, 179, 180, 181, 182, 183, 184, 185, 186, 187, 188, 189, 190],
      "WindowCenter": [4880.0, 4882.0, 4876.0, 4880.0, 4884.0, 4874.0, 4880.0, 4880.0, 4874.0, 4882.0, 4878.0, 4876.0, 4880.0, 4904.0, 4866.0, 4904.0, 4880.0, 4874.0, 4904.0, 4880.0, 4868.0, 4876.0, 4880.0, 4878.0, 4880.0, 4884.0, 4870.0, 4874.0, 4880.0, 4878.0, 4878.0, 4878.0, 4880.0, 4880.0, 4872.0, 4880.0, 4884.0, 4868.0, 4836.0, 4904.0, 4882.0, 4880.0, 4882.0, 4882.0, 4878.0, 4868.0, 4880.0, 4872.0, 4866.0, 4880.0, 4874.0, 4882.0, 4880.0, 4902.0, 4880.0, 4878.0, 4866.0, 4880.0, 4878.0, 4872.0, 4880.0, 4866.0, 4872.0, 4872.0, 4802.0, 4838.0, 4882.0, 4878.0, 4878.0, 4882.0, 4880.0, 4868.0, 4866.0, 4834.0, 4834.0, 4830.0, 4902.0, 4884.0, 4880.0, 4880.0, 4880.0, 4884.0, 4872.0, 4878.0, 4872.0, 4836.0, 4866.0, 4872.0, 4826.0, 4800.0, 4862.0, 4884.0, 4854.0, 4856.0, 4878.0, 4882.0, 4870.0, 4838.0, 4832.0, 4834.0, 4842.0, 4834.0, 4880.0, 4880.0, 4880.0, 4900.0, 4904.0, 4904.0, 4868.0, 4872.0, 4838.0, 4836.0, 4874.0, 4902.0, 4872.0, 4872.0, 4906.0, 4906.0, 4904.0, 4878.0, 4834.0, 4864.0, 4874.0, 4870.0, 4838.0, 4900.0, 4904.0, 4880.0, 4870.0, 4880.0, 4898.0, 4870.0, 4876.0, 4868.0, 4866.0, 4878.0, 4840.0, 4836.0, 4878.0, 4906.0, 4878.0, 4904.0, 4872.0, 4802.0, 4868.0, 4902.0, 4904.0, 4902.0, 4902.0, 4880.0, 4878.0, 4830.0, 4830.0, 4872.0, 4900.0, 4874.0, 4904.0, 4878.0, 4862.0, 4902.0, 4900.0, 4868.0, 4878.0, 4872.0, 4872.0, 4878.0, 4902.0, 4902.0, 4878.0, 4862.0, 4836.0, 4902.0, 4874.0, 4870.0, 4904.0, 4870.0, 4878.0, 4904.0, 4868.0, 4900.0, 4870.0, 4866.0, 4872.0, 4804.0, 4828.0, 4866.0, 4904.0, 4876.0, 4904.0, 4880.0],
      "WindowWidth": [18682.0, 18684.0, 18684.0, 18680.0, 18678.0, 18682.0, 18682.0, 18676.0, 18682.0, 18688.0, 18682.0, 18684.0, 18682.0, 18710.0, 18678.0, 18718.0, 18678.0, 18684.0, 18720.0, 18676.0, 18678.0, 18688.0, 18676.0, 18672.0, 18686.0, 18678.0, 18678.0, 18682.0, 18684.0, 18686.0, 18682.0, 18680.0, 18682.0, 18674.0, 18682.0, 18684.0, 18684.0, 18674.0, 18640.0, 18718.0, 18678.0, 18672.0, 18682.0, 18682.0, 18680.0, 18678.0, 18682.0, 18682.0, 18676.0, 18686.0, 18680.0, 18680.0, 18680.0, 18714.0, 18678.0, 18684.0, 18678.0, 18684.0, 18680.0, 18684.0, 18676.0, 18674.0, 18680.0, 18672.0, 18598.0, 18642.0, 18678.0, 18658.0, 18658.0, 18674.0, 18680.0, 18680.0, 18672.0, 18634.0, 18640.0, 18634.0, 18712.0, 18676.0, 18680.0, 18680.0, 18664.0, 18678.0, 18686.0, 18686.0, 18682.0, 18636.0, 18676.0, 18680.0, 18634.0, 18598.0, 18672.0, 18670.0, 18622.0, 18624.0, 18660.0, 18674.0, 18682.0, 18636.0, 18634.0, 18636.0, 18644.0, 18634.0, 18686.0, 18666.0, 18660.0, 18708.0, 18708.0, 18714.0, 18678.0, 18680.0, 18638.0, 18638.0, 18690.0, 18712.0, 18682.0, 18680.0, 18710.0, 18712.0, 18706.0, 18678.0, 18638.0, 18674.0, 18688.0, 18684.0, 18636.0, 18712.0, 18712.0, 18678.0, 18682.0, 18686.0, 18714.0, 18676.0, 18684.0, 18676.0, 18676.0, 18682.0, 18644.0, 18632.0, 18680.0, 18708.0, 18678.0, 18710.0, 18682.0, 18596.0, 18676.0, 18712.0, 18710.0, 18712.0, 18712.0, 18682.0, 18684.0, 18634.0, 18634.0, 18684.0, 18708.0, 18680.0, 18712.0, 18682.0, 18672.0, 18716.0, 18710.0, 18678.0, 18684.0, 18678.0, 18684.0, 18684.0, 18710.0, 18710.0, 18688.0, 18674.0, 18640.0, 18716.0, 18684.0, 18682.0, 18716.0, 18678.0, 18682.0, 18720.0, 18676.0, 18710.0, 18678.0, 18678.0, 18684.0, 18604.0, 18634.0, 18682.0, 18712.0, 18682.0, 18712.0, 18674.0]
    },
    "slices": {}
  }
}