{
  "AcquisitionMatrixPE": 104,
  "AcquisitionNumber": 1,
  "AcquisitionTime": "15:14:1.645000",
  "BandwidthPerPixelPhaseEncode": 17.17,
  "BaseResolution": 104,
  "BodyPartExamined": "BRAIN",
  "CoilString": "HC1-7;NC1_2",
  "ConsistencyInfo": "N4_VE11C_LATEST_20160120",
  "ConversionSoftware": "dcm2niix",
  "ConversionSoftwareVersion": "v1.0.20190902",
  "DerivedVendorReportedEchoSpacing": 0.000560011,
  "DeviceSerialNumber": "167006",
  "DwellTime": 2.1e-06,
  "EchoTime": 0.037,
  "EchoTrainLength": 104,
  "EffectiveEchoSpacing": 0.000560011,
  "FlipAngle": 52,
  "HeudiconvVersion": "0.10.0",
  "ImageComments": "Unaliased_MB4_PE3_LB",
  "ImageOrientationPatientDICOM": [0.998689, -0.0492699, 0.0138707, 0.0511157, 0.945902, -0.320402],
  "ImageType": [
    "ORIGINAL",
    "PRIMARY",
    "M",
    "MB",
    "ND",
    "MOSAIC"
],
  "ImagingFrequency": 123.259,
  "InPlanePhaseEncodingDirectionDICOM": "COL",
  "InstitutionAddress": "Chemin_Queen-Mary_4565_Montreal_District_CA_H3W_1W5",
  "InstitutionName": "IUGM",
  "InstitutionalDepartmentName": "Department",
  "MRAcquisitionType": "2D",
  "MagneticFieldStrength": 3,
  "Manufacturer": "Siemens",
  "ManufacturersModelName": "Prisma_fit",
  "Modality": "MR",
  "MultibandAccelerationFactor": 4,
  "PartialFourier": 1,
  "PatientPosition": "HFS",
  "PercentPhaseFOV": 100,
  "PhaseEncodingDirection": "j",
  "PhaseEncodingSteps": 104,
  "PhaseResolution": 1,
  "PixelBandwidth": 2290,
  "ProcedureStepDescription": "memory_things",
  "ProtocolName": "func_task-things_run-1",
  "PulseSequenceDetails": "%CustomerSeq%_cmrr_mbep2d_bold",
  "ReceiveCoilActiveElements": "HC1-7;NC1,2",
  "ReceiveCoilName": "HeadNeck_64",
  "ReconMatrixPE": 104,
  "RepetitionTime": 1.49,
  "SAR": 0.0483871,
  "ScanOptions": "FS",
  "ScanningSequence": "EP",
  "SequenceName": "epfid2d1_104",
  "SequenceVariant": "SK_SS",
  "SeriesDescription": "func_task-things_run-1",
  "SeriesNumber": 10,
  "ShimSetting": [626, -7243, -8826, 593, -3, -188, -48, -36],
  "SliceThickness": 2,
  "SliceTiming": [0, 0.7825, 0.0975, 0.8825, 0.195, 0.98, 0.295, 1.0775, 0.3925, 1.175, 0.49, 1.2725, 0.5875, 1.3725, 0.685, 0, 0.7825, 0.0975, 0.8825, 0.195, 0.98, 0.295, 1.0775, 0.3925, 1.175, 0.49, 1.2725, 0.5875, 1.3725, 0.685, 0, 0.7825, 0.0975, 0.8825, 0.195, 0.98, 0.295, 1.0775, 0.3925, 1.175, 0.49, 1.2725, 0.5875, 1.3725, 0.685, 0, 0.7825, 0.0975, 0.8825, 0.195, 0.98, 0.295, 1.0775, 0.3925, 1.175, 0.49, 1.2725, 0.5875, 1.3725, 0.685],
  "SoftwareVersions": "syngo_MR_E11",
  "SpacingBetweenSlices": 2,
  "StationName": "MRC35049",
  "TaskName": "things",
  "TotalReadoutTime": 0.0576811,
  "TxRefAmp": 253.085,
  "WipMemBlock": "a5edd7bf-5a49-46d0-8796-6fb5ce161f7f||Sequence: R016 ve11c/master r/e634e98; Dec 19 2017 11:00:25 by eja",
  "dcmmeta_affine": [
    [-1.9973783493041992, 0.10223132371902466, -0.005331747699528933, 102.55690002441406],
    [0.09853977710008621, 1.8918030261993408, -0.6413822770118713, -70.42388916015625],
    [0.02774137258529663, 0.6408042311668396, 1.8943601846694946, -67.52318572998047],
    [0.0, 0.0, 0.0, 1.0]
],
  "dcmmeta_reorient_transform": [
    [0.0, -1.0, 0.0, 103.0],
    [1.0, 0.0, 0.0, 0.0],
    [0.0, 0.0, 1.0, 0.0],
    [0.0, 0.0, 0.0, 1.0]
],
  "dcmmeta_shape": [104, 104, 60, 190],
  "dcmmeta_slice_dim": 2,
  "dcmmeta_version": 0.6,
  "global": {
    "const": {
      "AcquisitionMatrix": [104, 0, 0, 104],
      "AngioFlag": "N",
      "BitsAllocated": 16,
      "BitsStored": 16,
      "BodyPartExamined": "BRAIN",
      "Columns": 832,
      "EchoNumbers": 1,
      "EchoTime": 37.0,
      "EchoTrainLength": 104,
      "FlipAngle": 52.0,
      "HighBit": 15,
      "ImageOrientationPatient": [0.9986891819243, -0.0492698891602, 0.01387068597827, 0.0511156632005, 0.94590151412713, -0.3204021138313],
      "ImagePositionPatient": [-877.34465290478, -777.17964660079, 221.63452791759],
      "ImageType": [
        "ORIGINAL",
        "PRIMARY",
        "M",
        "MB",
        "ND",
        "MOSAIC"
],
      "ImagedNucleus": "1H",
      "ImagingFrequency": 123.25888,
      "InPlanePhaseEncodingDirection": "COL",
      "MRAcquisitionType": "2D",
      "MagneticFieldStrength": 3.0,
      "Manufacturer": "SIEMENS",
      "ManufacturerModelName": "Prisma_fit",
      "Modality": "MR",
      "NumberOfAverages": 1.0,
      "NumberOfPhaseEncodingSteps": 104,
      "PercentPhaseFieldOfView": 100.0,
      "PercentSampling": 100.0,
      "PerformedProcedureStepStartTime": "144220.467000",
      "PhotometricInterpretation": "MONOCHROME2",
      "PixelBandwidth": 2290.0,
      "PixelRepresentation": 0,
      "PixelSpacing": [2.0, 2.0],
      "ProtocolName": "func_task-things_run-1",
      "RepetitionTime": 1490.0,
      "Rows": 832,
      "SAR": 0.04838713503498,
      "SamplesPerPixel": 1,
      "ScanOptions": "FS",
      "ScanningSequence": "EP",
      "SequenceName": "epfid2d1_104",
      "SequenceVariant": [
        "SK",
        "SS"
],
      "SeriesDescription": "func_task-things_run-1",
      "SeriesNumber": 10,
      "SeriesTime": "151514.880000",
      "SliceLocation": -41.645704291883,
      "SliceThickness": 2.0,
      "SmallestImagePixelValue": 0,
      "SoftwareVersions": "syngo MR E11",
      "SpacingBetweenSlices": 2.000000010625,
      "SpecificCharacterSet": "ISO_IR 100",
      "StudyID": "1",
      "StudyTime": "144220.413000",
      "TransmitCoilName": "Body",
      "VariableFlipAngleFlag": "N",
      "WindowCenterWidthExplanation": "Algo1",
      "dBdt": 0.0},
    "slices": {}
  },
  "time": {
    "samples": {
      "AcquisitionNumber": [1, 2, 3, 4, 5, 6, 7, 8, 9, 10, 11, 12, 13, 14, 15, 16, 17, 18, 19, 20, 21, 22, 23, 24, 25, 26, 27, 28, 29, 30, 31, 32, 33, 34, 35, 36, 37, 38, 39, 40, 41, 42, 43, 44, 45, 46, 47, 48, 49, 50, 51, 52, 53, 54, 55, 56, 57, 58, 59, 60, 61, 62, 63, 64, 65, 66, 67, 68, 69, 70, 71, 72, 73, 74, 75, 76, 77, 78, 79, 80, 81, 82, 83, 84, 85, 86, 87, 88, 89, 90, 91, 92, 93, 94, 95, 96, 97, 98, 99, 100, 101, 102, 103, 104, 105, 106, 107, 108, 109, 110, 111, 112, 113, 114, 115, 116, 117, 118, 119, 120, 121, 122, 123, 124, 125, 126, 127, 128, 129, 130, 131, 132, 133, 134, 135, 136, 137, 138, 139, 140, 141, 142, 143, 144, 145, 146, 147, 148, 149, 150, 151, 152, 153, 154, 155, 156, 157, 158, 159, 160, 161, 162, 163, 164, 165, 166, 167, 168, 169, 170, 171, 172, 173, 174, 175, 176, 177, 178, 179, 180, 181, 182, 183, 184, 185, 186, 187, 188, 189, 190],
      "AcquisitionTime": ["151401.645000", "151403.135000", "151404.625000", "151406.115000", "151407.605000", "151409.095000", "151410.585000", "151412.075000", "151413.565000", "151415.055000", "151416.545000", "151418.035000", "151419.525000", "151421.015000", "151422.505000", "151423.995000", "151425.485000", "151426.975000", "151428.465000", "151429.955000", "151431.445000", "151432.935000", "151434.425000", "151435.915000", "151437.405000", "151438.895000", "151440.385000", "151441.875000", "151443.365000", "151444.855000", "151446.345000", "151447.835000", "151449.325000", "151450.815000", "151452.305000", "151453.795000", "151455.285000", "151456.775000", "151458.265000", "151459.755000", "151501.245000", "151502.735000", "151504.225000", "151505.715000", "151507.205000", "151508.695000", "151510.185000", "151511.675000", "151513.165000", "151514.655000", "151516.145000", "151517.635000", "151519.125000", "151520.615000", "151522.105000", "151523.595000", "151525.085000", "151526.575000", "151528.065000", "151529.555000", "151531.045000", "151532.535000", "151534.025000", "151535.515000", "151537.005000", "151538.495000", "151539.985000", "151541.475000", "151542.965000", "151544.455000", "151545.945000", "151547.435000", "151548.925000", "151550.415000", "151551.905000", "151553.395000", "151554.885000", "151556.375000", "151557.865000", "151559.355000", "151600.845000", "151602.335000", "151603.825000", "151605.315000", "151606.805000", "151608.295000", "151609.785000", "151611.275000", "151612.765000", "151614.255000", "151615.745000", "151617.235000", "151618.725000", "151620.215000", "151621.705000", "151623.195000", "151624.685000", "151626.175000", "151627.665000", "151629.155000", "151630.645000", "151632.135000", "151633.625000", "151635.115000", "151636.605000", "151638.095000", "151639.585000", "151641.075000", "151642.565000", "151644.055000", "151645.545000", "151647.035000", "151648.525000", "151650.015000", "151651.505000", "151652.995000", "151654.485000", "151655.975000", "151657.465000", "151658.955000", "151700.445000", "151701.935000", "151703.425000", "151704.915000", "151706.405000", "151707.895000", "151709.385000", "151710.875000", "151712.365000", "151713.855000", "151715.345000", "151716.835000", "151718.325000", "151719.815000", "151721.305000", "151722.795000", "151724.285000", "151725.775000", "151727.265000", "151728.755000", "151730.245000", "151731.735000", "151733.225000", "151734.715000", "151736.205000", "151737.695000", "151739.185000", "151740.675000", "151742.165000", "151743.655000", "151745.145000", "151746.635000", "151748.125000", "151749.615000", "151751.105000", "151752.595000", "151754.085000", "151755.575000", "151757.065000", "151758.555000", "151800.045000", "151801.535000", "151803.025000", "151804.515000", "151806.005000", "151807.495000", "151808.985000", "151810.475000", "151811.965000", "151813.455000", "151814.945000", "151816.435000", "151817.925000", "151819.415000", "151820.905000", "151822.395000", "151823.885000", "151825.375000", "151826.865000", "151828.355000", "151829.845000", "151831.335000", "151832.825000", "151834.315000", "151835.805000", "151837.295000", "151838.785000", "151840.275000", "151841.765000", "151843.255000"],
      "ContentTime": ["151514.883000", "151514.893000", "151514.896000", "151514.899000", "151514.902000", "151514.906000", "151514.909000", "151514.912000", "151514.916000", "151514.919000", "151514.922000", "151514.925000", "151514.929000", "151514.932000", "151514.935000", "151514.938000", "151514.942000", "151514.945000", "151514.951000", "151534.847000", "151534.851000", "151534.854000", "151534.857000", "151534.861000", "151534.864000", "151534.867000", "151534.870000", "151534.874000", "151534.877000", "151534.880000", "151534.883000", "151534.887000", "151534.890000", "151534.893000", "151534.896000", "151534.905000", "151534.908000", "151534.912000", "151534.915000", "151554.847000", "151554.851000", "151554.854000", "151554.857000", "151554.860000", "151554.864000", "151554.867000", "151554.870000", "151554.874000", "151554.877000", "151554.880000", "151554.883000", "151554.887000", "151554.890000", "151554.893000", "151554.896000", "151554.900000", "151554.903000", "151554.906000", "151554.909000", "151614.847000", "151614.851000", "151614.854000", "151614.857000", "151614.860000", "151614.864000", "151614.867000", "151614.870000", "151614.873000", "151614.877000", "151614.880000", "151614.883000", "151614.886000", "151614.890000", "151614.893000", "151614.896000", "151614.900000", "151614.903000", "151614.906000", "151614.909000", "151634.847000", "151634.851000", "151634.854000", "151634.857000", "151634.860000", "151634.864000", "151634.867000", "151634.871000", "151634.874000", "151634.877000", "151634.880000", "151634.884000", "151634.901000", "151634.904000", "151634.907000", "151634.911000", "151634.914000", "151634.917000", "151634.921000", "151634.924000", "151634.927000", "151714.847000", "151714.851000", "151714.854000", "151714.857000", "151714.861000", "151714.864000", "151714.867000", "151714.870000", "151714.874000", "151714.877000", "151714.880000", "151714.883000", "151714.887000", "151714.890000", "151714.893000", "151714.897000", "151714.900000", "151714.903000", "151714.906000", "151714.910000", "151714.913000", "151714.916000", "151714.920000", "151714.923000", "151714.926000", "151714.930000", "151714.933000", "151714.936000", "151714.940000", "151754.847000", "151754.852000", "151754.855000", "151754.858000", "151754.862000", "151754.865000", "151754.868000", "151754.872000", "151754.875000", "151754.878000", "151754.881000", "151754.885000", "151754.888000", "151754.891000", "151754.895000", "151754.898000", "151754.901000", "151754.905000", "151754.908000", "151754.911000", "151754.914000", "151754.917000", "151754.921000", "151754.924000", "151754.927000", "151754.931000", "151754.934000", "151834.847000", "151834.851000", "151834.854000", "151834.857000", "151834.861000", "151834.864000", "151834.867000", "151834.871000", "151834.874000", "151834.877000", "151834.880000", "151834.884000", "151834.887000", "151834.890000", "151834.894000", "151834.897000", "151834.900000", "151834.903000", "151834.907000", "151834.910000", "151834.914000", "151834.917000", "151834.920000", "151834.923000", "151834.927000", "151834.930000", "151834.933000", "151845.008000", "151845.011000", "151845.015000", "151845.018000", "151845.021000", "151845.033000", "151845.037000"],
      "InstanceCreationTime": ["151514.883000", "151514.893000", "151514.896000", "151514.899000", "151514.902000", "151514.906000", "151514.909000", "151514.912000", "151514.916000", "151514.919000", "151514.922000", "151514.925000", "151514.929000", "151514.932000", "151514.935000", "151514.938000", "151514.942000", "151514.945000", "151514.951000", "151534.847000", "151534.851000", "151534.854000", "151534.857000", "151534.861000", "151534.864000", "151534.867000", "151534.870000", "151534.874000", "151534.877000", "151534.880000", "151534.883000", "151534.887000", "151534.890000", "151534.893000", "151534.896000", "151534.905000", "151534.908000", "151534.912000", "151534.915000", "151554.847000", "151554.851000", "151554.854000", "151554.857000", "151554.860000", "151554.864000", "151554.867000", "151554.870000", "151554.874000", "151554.877000", "151554.880000", "151554.883000", "151554.887000", "151554.890000", "151554.893000", "151554.896000", "151554.900000", "151554.903000", "151554.906000", "151554.909000", "151614.847000", "151614.851000", "151614.854000", "151614.857000", "151614.860000", "151614.864000", "151614.867000", "151614.870000", "151614.873000", "151614.877000", "151614.880000", "151614.883000", "151614.886000", "151614.890000", "151614.893000", "151614.896000", "151614.900000", "151614.903000", "151614.906000", "151614.909000", "151634.847000", "151634.851000", "151634.854000", "151634.857000", "151634.860000", "151634.864000", "151634.867000", "151634.871000", "151634.874000", "151634.877000", "151634.880000", "151634.884000", "151634.901000", "151634.904000", "151634.907000", "151634.911000", "151634.914000", "151634.917000", "151634.921000", "151634.924000", "151634.927000", "151714.847000", "151714.851000", "151714.854000", "151714.857000", "151714.861000", "151714.864000", "151714.867000", "151714.870000", "151714.874000", "151714.877000", "151714.880000", "151714.883000", "151714.887000", "151714.890000", "151714.893000", "151714.897000", "151714.900000", "151714.903000", "151714.906000", "151714.910000", "151714.913000", "151714.916000", "151714.920000", "151714.923000", "151714.926000", "151714.930000", "151714.933000", "151714.936000", "151714.940000", "151754.847000", "151754.852000", "151754.855000", "151754.858000", "151754.862000", "151754.865000", "151754.868000", "151754.872000", "151754.875000", "151754.878000", "151754.881000", "151754.885000", "151754.888000", "151754.891000", "151754.895000", "151754.898000", "151754.901000", "151754.905000", "151754.908000", "151754.911000", "151754.914000", "151754.917000", "151754.921000", "151754.924000", "151754.927000", "151754.931000", "151754.934000", "151834.847000", "151834.851000", "151834.854000", "151834.857000", "151834.861000", "151834.864000", "151834.867000", "151834.871000", "151834.874000", "151834.877000", "151834.880000", "151834.884000", "151834.887000", "151834.890000", "151834.894000", "151834.897000", "151834.900000", "151834.903000", "151834.907000", "151834.910000", "151834.914000", "151834.917000", "151834.920000", "151834.923000", "151834.927000", "151834.930000", "151834.933000", "151845.008000", "151845.011000", "151845.015000", "151845.018000", "151845.021000", "151845.033000", "151845.037000"],
      "InstanceNumber": [1, 2, 3, 4, 5, 6, 7, 8, 9, 10, 11, 12, 13, 14, 15, 16, 17, 18, 19, 20, 21, 22, 23, 24, 25, 26, 27, 28, 29, 30, 31, 32, 33, 34, 35, 36, 37, 38, 39, 40, 41, 42, 43, 44, 45, 46, 47, 48, 49, 50, 51, 52, 53, 54, 55, 56, 57, 58, 59, 60, 61, 62, 63, 64, 65, 66, 67, 68, 69, 70, 71, 72, 73, 74, 75, 76, 77, 78, 79, 80, 81, 82, 83, 84, 85, 86, 87, 88, 89, 90, 91, 92, 93, 94, 95, 96, 97, 98, 99, 100, 101, 102, 103, 104, 105, 106, 107, 108, 109, 110, 111, 112, 113, 114, 115, 116, 117, 118, 119, 120, 121, 122, 123, 124, 125, 126, 127, 128, 129, 130, 131, 132, 133, 134, 135, 136, 137, 138, 139, 140, 141, 142, 143, 144, 145, 146, 147, 148, 149, 150, 151, 152, 153, 154, 155, 156, 157, 158, 159, 160, 161, 162, 163, 164, 165, 166, 167, 168, 169, 170, 171, 172, 173, 174, 175, 176, 177, 178, 179, 180, 181, 182, 183, 184, 185, 186, 187, 188, 189, 190],
      "LargestImagePixelValue": [46072, 44977, 44183, 43901, 43311, 42912, 43567, 43063, 42939, 42948, 43782, 42629, 42763, 43535, 42336, 43222, 42956, 42023, 42595, 42433, 41924, 43045, 42971, 42980, 42436, 43048, 42321, 42980, 43256, 42820, 43689, 43070, 43172, 43202, 43055, 43375, 43689, 42740, 43234, 43446, 43401, 43623, 43111, 43608, 43428, 43217, 43258, 43370, 43201, 43508, 43235, 43067, 43353, 43271, 43362, 43093, 42718, 43219, 42991, 43115, 42998, 42991, 43334, 43028, 43003, 43000, 42920, 42677, 43106, 43544, 43146, 43053, 43554, 43285, 43182, 43375, 43020, 43111, 43046, 43151, 43082, 43217, 43007, 43221, 43084, 43236, 43292, 42985, 42896, 43697, 43092, 43019, 42850, 42877, 43338, 43300, 43256, 43605, 43234, 42931, 43017, 43693, 42448, 43209, 43295, 42496, 42859, 43111, 42606, 43047, 42572, 42720, 42721, 43071, 43299, 42834, 42991, 43130, 43220, 43298, 43103, 42881, 42579, 43294, 42966, 42906, 42847, 42996, 42651, 42754, 42977, 43026, 42428, 43085, 42899, 42986, 42494, 43301, 42681, 42913, 42927, 43030, 43187, 43197, 43012, 43017, 43396, 42734, 43010, 43114, 43304, 43175, 43087, 42476, 42982, 43211, 42970, 42890, 42572, 42783, 42908, 42852, 43144, 42712, 43008, 42802, 43011, 43151, 42830, 43310, 43116, 42886, 42939, 42973, 42859, 43168, 43288, 42909, 42685, 42650, 43470, 43296, 41955, 42423, 43129, 43096, 43689, 42808, 43060, 43330],
      "WindowCenter": [10612.0, 10567.0, 10525.0, 10490.0, 10471.0, 10461.0, 10451.0, 10459.0, 10460.0, 10460.0, 10480.0, 10478.0, 10483.0, 10490.0, 10479.0, 10494.0, 10499.0, 10496.0, 10494.0, 10492.0, 10486.0, 10490.0, 10484.0, 10475.0, 10461.0, 10462.0, 10474.0, 10488.0, 10490.0, 10483.0, 10471.0, 10456.0, 10454.0, 10461.0, 10469.0, 10470.0, 10463.0, 10442.0, 10452.0, 10481.0, 10479.0, 10456.0, 10448.0, 10445.0, 10453.0, 10450.0, 10440.0, 10451.0, 10449.0, 10455.0, 10469.0, 10458.0, 10464.0, 10470.0, 10471.0, 10466.0, 10460.0, 10473.0, 10476.0, 10473.0, 10452.0, 10451.0, 10453.0, 10458.0, 10484.0, 10486.0, 10457.0, 10426.0, 10418.0, 10411.0, 10410.0, 10401.0, 10412.0, 10430.0, 10425.0, 10427.0, 10417.0, 10425.0, 10429.0, 10441.0, 10462.0, 10459.0, 10442.0, 10438.0, 10447.0, 10448.0, 10455.0, 10459.0, 10463.0, 10479.0, 10461.0, 10431.0, 10415.0, 10406.0, 10396.0, 10381.0, 10366.0, 10357.0, 10364.0, 10374.0, 10384.0, 10410.0, 10417.0, 10424.0, 10419.0, 10427.0, 10460.0, 10486.0, 10469.0, 10449.0, 10434.0, 10427.0, 10427.0, 10432.0, 10438.0, 10432.0, 10440.0, 10440.0, 10431.0, 10430.0, 10445.0, 10465.0, 10458.0, 10463.0, 10458.0, 10450.0, 10437.0, 10418.0, 10421.0, 10446.0, 10457.0, 10450.0, 10437.0, 10432.0, 10431.0, 10433.0, 10434.0, 10442.0, 10442.0, 10428.0, 10410.0, 10407.0, 10428.0, 10453.0, 10443.0, 10412.0, 10398.0, 10383.0, 10382.0, 10404.0, 10407.0, 10407.0, 10405.0, 10417.0, 10417.0, 10414.0, 10420.0, 10446.0, 10455.0, 10461.0, 10450.0, 10434.0, 10423.0, 10417.0, 10423.0, 10423.0, 10417.0, 10414.0, 10402.0, 10427.0, 10452.0, 10458.0, 10442.0, 10430.0, 10432.0, 10453.0, 10461.0, 10458.0, 10442.0, 10428.0, 10430.0, 10422.0, 10414.0, 10438.0, 10463.0, 10459.0, 10435.0, 10418.0, 10418.0, 10397.0],
      "WindowWidth": [23039.0, 22893.0, 22774.0, 22677.0, 22625.0, 22598.0, 22569.0, 22584.0, 22590.0, 22587.0, 22630.0, 22631.0, 22638.0, 22652.0, 22633.0, 22662.0, 22675.0, 22672.0, 22664.0, 22657.0, 22647.0, 22653.0, 22641.0, 22618.0, 22587.0, 22583.0, 22614.0, 22645.0, 22652.0, 22637.0, 22605.0, 22573.0, 22565.0, 22581.0, 22601.0, 22602.0, 22586.0, 22543.0, 22564.0, 22629.0, 22629.0, 22577.0, 22556.0, 22550.0, 22569.0, 22561.0, 22536.0, 22561.0, 22559.0, 22573.0, 22604.0, 22579.0, 22594.0, 22607.0, 22609.0, 22601.0, 22587.0, 22614.0, 22624.0, 22614.0, 22568.0, 22569.0, 22569.0, 22584.0, 22643.0, 22646.0, 22580.0, 22508.0, 22483.0, 22467.0, 22467.0, 22449.0, 22469.0, 22511.0, 22505.0, 22509.0, 22491.0, 22508.0, 22516.0, 22539.0, 22589.0, 22582.0, 22541.0, 22529.0, 22550.0, 22557.0, 22572.0, 22585.0, 22597.0, 22631.0, 22591.0, 22520.0, 22481.0, 22458.0, 22430.0, 22397.0, 22362.0, 22341.0, 22358.0, 22386.0, 22411.0, 22469.0, 22490.0, 22502.0, 22489.0, 22506.0, 22580.0, 22640.0, 22607.0, 22553.0, 22524.0, 22506.0, 22507.0, 22519.0, 22534.0, 22522.0, 22538.0, 22536.0, 22513.0, 22511.0, 22549.0, 22596.0, 22581.0, 22588.0, 22580.0, 22560.0, 22533.0, 22488.0, 22492.0, 22550.0, 22577.0, 22558.0, 22530.0, 22520.0, 22514.0, 22519.0, 22525.0, 22539.0, 22540.0, 22510.0, 22468.0, 22458.0, 22505.0, 22566.0, 22545.0, 22473.0, 22437.0, 22406.0, 22404.0, 22451.0, 22460.0, 22460.0, 22453.0, 22482.0, 22483.0, 22476.0, 22489.0, 22551.0, 22574.0, 22583.0, 22559.0, 22525.0, 22497.0, 22484.0, 22498.0, 22497.0, 22484.0, 22476.0, 22450.0, 22505.0, 22564.0, 22579.0, 22543.0, 22512.0, 22519.0, 22567.0, 22582.0, 22577.0, 22542.0, 22507.0, 22511.0, 22493.0, 22478.0, 22535.0, 22587.0, 22577.0, 22524.0, 22484.0, 22478.0, 22432.0]
    },
    "slices": {}
  }
}