{
  "AcquisitionMatrixPE": 104,
  "AcquisitionNumber": 1,
  "AcquisitionTime": "15:21:0.342500",
  "BandwidthPerPixelPhaseEncode": 17.17,
  "BaseResolution": 104,
  "BodyPartExamined": "BRAIN",
  "CoilString": "HC1-7;NC1_2",
  "ConsistencyInfo": "N4_VE11C_LATEST_20160120",
  "ConversionSoftware": "dcm2niix",
  "ConversionSoftwareVersion": "v1.0.20190902",
  "DerivedVendorReportedEchoSpacing": 0.000560011,
  "DeviceSerialNumber": "167006",
  "DwellTime": 2.1e-06,
  "EchoTime": 0.037,
  "EchoTrainLength": 104,
  "EffectiveEchoSpacing": 0.000560011,
  "FlipAngle": 52,
  "HeudiconvVersion": "0.10.0",
  "ImageComments": "Unaliased_MB4_PE3_LB",
  "ImageOrientationPatientDICOM": [0.998689, -0.0492699, 0.0138707, 0.0511157, 0.945902, -0.320402],
  "ImageType": [
    "ORIGINAL",
    "PRIMARY",
    "P",
    "MB",
    "ND",
    "MOSAIC"
],
  "ImagingFrequency": 123.259,
  "InPlanePhaseEncodingDirectionDICOM": "COL",
  "InstitutionAddress": "Chemin_Queen-Mary_4565_Montreal_District_CA_H3W_1W5",
  "InstitutionName": "IUGM",
  "InstitutionalDepartmentName": "Department",
  "MRAcquisitionType": "2D",
  "MagneticFieldStrength": 3,
  "Manufacturer": "Siemens",
  "ManufacturersModelName": "Prisma_fit",
  "Modality": "MR",
  "MultibandAccelerationFactor": 4,
  "PartialFourier": 1,
  "PatientPosition": "HFS",
  "PercentPhaseFOV": 100,
  "PhaseEncodingDirection": "j",
  "PhaseEncodingSteps": 104,
  "PhaseResolution": 1,
  "PixelBandwidth": 2290,
  "ProcedureStepDescription": "memory_things",
  "ProtocolName": "func_task-things_run-2",
  "PulseSequenceDetails": "%CustomerSeq%_cmrr_mbep2d_bold",
  "ReceiveCoilActiveElements": "HC1-7;NC1,2",
  "ReceiveCoilName": "HeadNeck_64",
  "ReconMatrixPE": 104,
  "RepetitionTime": 1.49,
  "SAR": 0.0483871,
  "ScanOptions": "FS",
  "ScanningSequence": "EP",
  "SequenceName": "epfid2d1_104",
  "SequenceVariant": "SK_SS",
  "SeriesDescription": "func_task-things_run-2",
  "SeriesNumber": 14,
  "ShimSetting": [626, -7243, -8826, 593, -3, -188, -48, -36],
  "SliceThickness": 2,
  "SliceTiming": [0, 0.785, 0.1, 0.8825, 0.1975, 0.98, 0.295, 1.08, 0.3925, 1.1775, 0.49, 1.275, 0.59, 1.3725, 0.6875, 0, 0.785, 0.1, 0.8825, 0.1975, 0.98, 0.295, 1.08, 0.3925, 1.1775, 0.49, 1.275, 0.59, 1.3725, 0.6875, 0, 0.785, 0.1, 0.8825, 0.1975, 0.98, 0.295, 1.08, 0.3925, 1.1775, 0.49, 1.275, 0.59, 1.3725, 0.6875, 0, 0.785, 0.1, 0.8825, 0.1975, 0.98, 0.295, 1.08, 0.3925, 1.1775, 0.49, 1.275, 0.59, 1.3725, 0.6875],
  "SoftwareVersions": "syngo_MR_E11",
  "SpacingBetweenSlices": 2,
  "StationName": "MRC35049",
  "TaskName": "things",
  "TotalReadoutTime": 0.0576811,
  "TxRefAmp": 253.085,
  "WipMemBlock": "a7dcfdf0-31ac-4d2f-8c4c-cda85d6f2c3f||Sequence: R016 ve11c/master r/e634e98; Dec 19 2017 11:00:25 by eja",
  "dcmmeta_affine": [
    [-1.9973783493041992, 0.10223132371902466, -0.005331747699528933, 102.55690002441406],
    [0.09853977710008621, 1.8918030261993408, -0.6413822770118713, -70.42388916015625],
    [0.02774137258529663, 0.6408042311668396, 1.8943601846694946, -67.52318572998047],
    [0.0, 0.0, 0.0, 1.0]
],
  "dcmmeta_reorient_transform": [
    [0.0, -1.0, 0.0, 103.0],
    [1.0, 0.0, 0.0, 0.0],
    [0.0, 0.0, 1.0, 0.0],
    [0.0, 0.0, 0.0, 1.0]
],
  "dcmmeta_shape": [104, 104, 60, 190],
  "dcmmeta_slice_dim": 2,
  "dcmmeta_version": 0.6,
  "global": {
    "const": {
      "AcquisitionMatrix": [104, 0, 0, 104],
      "AngioFlag": "N",
      "BitsAllocated": 16,
      "BitsStored": 16,
      "BodyPartExamined": "BRAIN",
      "Columns": 832,
      "EchoNumbers": 1,
      "EchoTime": 37.0,
      "EchoTrainLength": 104,
      "FlipAngle": 52.0,
      "HighBit": 15,
      "ImageOrientationPatient": [0.9986891819243, -0.0492698891602, 0.01387068597827, 0.0511156632005, 0.94590151412713, -0.3204021138313],
      "ImagePositionPatient": [-877.34465290478, -777.17964660079, 221.63452791759],
      "ImageType": [
        "ORIGINAL",
        "PRIMARY",
        "P",
        "MB",
        "ND",
        "MOSAIC"
],
      "ImagedNucleus": "1H",
      "ImagingFrequency": 123.258885,
      "InPlanePhaseEncodingDirection": "COL",
      "LargestImagePixelValue": 4095,
      "MRAcquisitionType": "2D",
      "MagneticFieldStrength": 3.0,
      "Manufacturer": "SIEMENS",
      "ManufacturerModelName": "Prisma_fit",
      "Modality": "MR",
      "NumberOfAverages": 1.0,
      "NumberOfPhaseEncodingSteps": 104,
      "PercentPhaseFieldOfView": 100.0,
      "PercentSampling": 100.0,
      "PerformedProcedureStepStartTime": "144220.467000",
      "PhotometricInterpretation": "MONOCHROME2",
      "PixelBandwidth": 2290.0,
      "PixelRepresentation": 0,
      "PixelSpacing": [2.0, 2.0],
      "ProtocolName": "func_task-things_run-2",
      "RepetitionTime": 1490.0,
      "RescaleIntercept": -4096.0,
      "RescaleSlope": 2.0,
      "RescaleType": "US",
      "Rows": 832,
      "SAR": 0.04838713503498,
      "SamplesPerPixel": 1,
      "ScanOptions": "FS",
      "ScanningSequence": "EP",
      "SequenceName": "epfid2d1_104",
      "SequenceVariant": [
        "SK",
        "SS"
],
      "SeriesDescription": "func_task-things_run-2",
      "SeriesNumber": 14,
      "SeriesTime": "152221.215000",
      "SliceLocation": -41.645704291883,
      "SliceThickness": 2.0,
      "SmallestImagePixelValue": 0,
      "SoftwareVersions": "syngo MR E11",
      "SpacingBetweenSlices": 2.000000010625,
      "SpecificCharacterSet": "ISO_IR 100",
      "StudyID": "1",
      "StudyTime": "144220.413000",
      "TransmitCoilName": "Body",
      "VariableFlipAngleFlag": "N",
      "WindowCenterWidthExplanation": "Algo1",
      "dBdt": 0.0},
    "slices": {}
  },
  "time": {
    "samples": {
      "AcquisitionNumber": [1, 2, 3, 4, 5, 6, 7, 8, 9, 10, 11, 12, 13, 14, 15, 16, 17, 18, 19, 20, 21, 22, 23, 24, 25, 26, 27, 28, 29, 30, 31, 32, 33, 34, 35, 36, 37, 38, 39, 40, 41, 42, 43, 44, 45, 46, 47, 48, 49, 50, 51, 52, 53, 54, 55, 56, 57, 58, 59, 60, 61, 62, 63, 64, 65, 66, 67, 68, 69, 70, 71, 72, 73, 74, 75, 76, 77, 78, 79, 80, 81, 82, 83, 84, 85, 86, 87, 88, 89, 90, 91, 92, 93, 94, 95, 96, 97, 98, 99, 100, 101, 102, 103, 104, 105, 106, 107, 108, 109, 110, 111, 112, 113, 114, 115, 116, 117, 118, 119, 120, 121, 122, 123, 124, 125, 126, 127, 128, 129, 130, 131, 132, 133, 134, 135, 136, 137, 138, 139, 140, 141, 142, 143, 144, 145, 146, 147, 148, 149, 150, 151, 152, 153, 154, 155, 156, 157, 158, 159, 160, 161, 162, 163, 164, 165, 166, 167, 168, 169, 170, 171, 172, 173, 174, 175, 176, 177, 178, 179, 180, 181, 182, 183, 184, 185, 186, 187, 188, 189, 190],
      "AcquisitionTime": ["152100.342500", "152101.832500", "152103.322500", "152104.812500", "152106.302500", "152107.792500", "152109.282500", "152110.772500", "152112.262500", "152113.752500", "152115.242500", "152116.732500", "152118.222500", "152119.712500", "152121.202500", "152122.692500", "152124.182500", "152125.672500", "152127.162500", "152128.652500", "152130.142500", "152131.632500", "152133.122500", "152134.612500", "152136.102500", "152137.592500", "152139.082500", "152140.572500", "152142.062500", "152143.552500", "152145.042500", "152146.532500", "152148.022500", "152149.512500", "152151.002500", "152152.492500", "152153.982500", "152155.472500", "152156.962500", "152158.452500", "152159.942500", "152201.432500", "152202.922500", "152204.412500", "152205.902500", "152207.392500", "152208.882500", "152210.372500", "152211.862500", "152213.352500", "152214.842500", "152216.332500", "152217.822500", "152219.312500", "152220.802500", "152222.292500", "152223.782500", "152225.272500", "152226.762500", "152228.252500", "152229.742500", "152231.232500", "152232.722500", "152234.212500", "152235.702500", "152237.192500", "152238.682500", "152240.172500", "152241.662500", "152243.152500", "152244.642500", "152246.132500", "152247.622500", "152249.112500", "152250.602500", "152252.092500", "152253.582500", "152255.072500", "152256.562500", "152258.052500", "152259.542500", "152301.032500", "152302.522500", "152304.012500", "152305.502500", "152306.992500", "152308.482500", "152309.972500", "152311.462500", "152312.952500", "152314.442500", "152315.932500", "152317.422500", "152318.912500", "152320.402500", "152321.892500", "152323.382500", "152324.872500", "152326.362500", "152327.852500", "152329.342500", "152330.832500", "152332.322500", "152333.812500", "152335.302500", "152336.792500", "152338.282500", "152339.772500", "152341.262500", "152342.752500", "152344.242500", "152345.732500", "152347.222500", "152348.712500", "152350.202500", "152351.692500", "152353.182500", "152354.672500", "152356.162500", "152357.652500", "152359.142500", "152400.632500", "152402.122500", "152403.612500", "152405.102500", "152406.592500", "152408.082500", "152409.572500", "152411.062500", "152412.552500", "152414.042500", "152415.532500", "152417.022500", "152418.512500", "152420.002500", "152421.492500", "152422.982500", "152424.472500", "152425.962500", "152427.452500", "152428.942500", "152430.432500", "152431.922500", "152433.412500", "152434.902500", "152436.392500", "152437.882500", "152439.372500", "152440.862500", "152442.352500", "152443.842500", "152445.332500", "152446.822500", "152448.312500", "152449.802500", "152451.292500", "152452.782500", "152454.272500", "152455.762500", "152457.252500", "152458.742500", "152500.232500", "152501.722500", "152503.212500", "152504.702500", "152506.192500", "152507.682500", "152509.172500", "152510.662500", "152512.152500", "152513.642500", "152515.132500", "152516.622500", "152518.112500", "152519.602500", "152521.092500", "152522.582500", "152524.072500", "152525.562500", "152527.052500", "152528.542500", "152530.032500", "152531.522500", "152533.012500", "152534.502500", "152535.992500", "152537.482500", "152538.972500", "152540.462500", "152541.952500"],
      "ContentTime": ["152221.218000", "152221.220000", "152221.223000", "152221.231000", "152221.234000", "152221.236000", "152221.239000", "152221.241000", "152221.244000", "152221.246000", "152221.249000", "152221.251000", "152221.254000", "152221.256000", "152221.259000", "152221.261000", "152221.264000", "152221.266000", "152221.269000", "152221.271000", "152221.274000", "152221.276000", "152221.279000", "152221.281000", "152221.284000", "152241.152000", "152241.155000", "152241.157000", "152241.160000", "152241.162000", "152241.165000", "152241.167000", "152241.170000", "152241.172000", "152241.175000", "152241.177000", "152241.179000", "152241.182000", "152241.184000", "152241.187000", "152241.189000", "152241.192000", "152241.194000", "152241.197000", "152241.199000", "152301.145000", "152301.148000", "152301.150000", "152301.153000", "152301.155000", "152301.158000", "152301.160000", "152301.163000", "152301.165000", "152301.168000", "152301.170000", "152301.178000", "152301.181000", "152301.183000", "152301.185000", "152301.188000", "152301.190000", "152301.193000", "152301.195000", "152301.198000", "152321.162000", "152321.164000", "152321.167000", "152321.169000", "152321.172000", "152321.174000", "152321.177000", "152321.179000", "152321.182000", "152321.184000", "152321.186000", "152321.189000", "152321.191000", "152321.194000", "152321.196000", "152321.199000", "152321.201000", "152321.204000", "152321.206000", "152321.208000", "152341.167000", "152341.170000", "152341.173000", "152341.175000", "152341.177000", "152341.180000", "152341.182000", "152341.185000", "152341.187000", "152341.190000", "152341.192000", "152341.195000", "152341.197000", "152341.200000", "152341.202000", "152341.204000", "152341.207000", "152341.209000", "152341.212000", "152341.214000", "152341.217000", "152421.181000", "152421.184000", "152421.186000", "152421.189000", "152421.191000", "152421.194000", "152421.196000", "152421.199000", "152421.201000", "152421.204000", "152421.206000", "152421.208000", "152421.217000", "152421.219000", "152421.222000", "152421.224000", "152421.227000", "152421.229000", "152421.232000", "152421.234000", "152421.237000", "152421.239000", "152421.242000", "152421.244000", "152421.247000", "152421.249000", "152421.252000", "152421.254000", "152501.189000", "152501.192000", "152501.194000", "152501.197000", "152501.200000", "152501.203000", "152501.205000", "152501.208000", "152501.210000", "152501.213000", "152501.215000", "152501.218000", "152501.220000", "152501.223000", "152501.225000", "152501.228000", "152501.230000", "152501.233000", "152501.235000", "152501.237000", "152501.240000", "152501.242000", "152501.245000", "152501.247000", "152501.250000", "152501.252000", "152541.190000", "152541.193000", "152541.195000", "152541.198000", "152541.200000", "152541.203000", "152541.205000", "152541.207000", "152541.210000", "152541.212000", "152541.215000", "152541.217000", "152541.220000", "152541.222000", "152541.225000", "152541.227000", "152541.230000", "152541.232000", "152541.235000", "152541.237000", "152541.240000", "152541.242000", "152541.245000", "152541.247000", "152541.250000", "152541.252000", "152541.255000", "152544.497000", "152544.499000", "152544.502000"],
      "InstanceCreationTime": ["152221.218000", "152221.220000", "152221.223000", "152221.231000", "152221.234000", "152221.236000", "152221.239000", "152221.241000", "152221.244000", "152221.246000", "152221.249000", "152221.251000", "152221.254000", "152221.256000", "152221.259000", "152221.261000", "152221.264000", "152221.266000", "152221.269000", "152221.271000", "152221.274000", "152221.276000", "152221.279000", "152221.281000", "152221.284000", "152241.152000", "152241.155000", "152241.157000", "152241.160000", "152241.162000", "152241.165000", "152241.167000", "152241.170000", "152241.172000", "152241.175000", "152241.177000", "152241.179000", "152241.182000", "152241.184000", "152241.187000", "152241.189000", "152241.192000", "152241.194000", "152241.197000", "152241.199000", "152301.145000", "152301.148000", "152301.150000", "152301.153000", "152301.155000", "152301.158000", "152301.160000", "152301.163000", "152301.165000", "152301.168000", "152301.170000", "152301.178000", "152301.181000", "152301.183000", "152301.185000", "152301.188000", "152301.190000", "152301.193000", "152301.195000", "152301.198000", "152321.162000", "152321.164000", "152321.167000", "152321.169000", "152321.172000", "152321.174000", "152321.177000", "152321.179000", "152321.182000", "152321.184000", "152321.186000", "152321.189000", "152321.191000", "152321.194000", "152321.196000", "152321.199000", "152321.201000", "152321.204000", "152321.206000", "152321.208000", "152341.167000", "152341.170000", "152341.173000", "152341.175000", "152341.177000", "152341.180000", "152341.182000", "152341.185000", "152341.187000", "152341.190000", "152341.192000", "152341.195000", "152341.197000", "152341.200000", "152341.202000", "152341.204000", "152341.207000", "152341.209000", "152341.212000", "152341.214000", "152341.217000", "152421.181000", "152421.184000", "152421.186000", "152421.189000", "152421.191000", "152421.194000", "152421.196000", "152421.199000", "152421.201000", "152421.204000", "152421.206000", "152421.208000", "152421.217000", "152421.219000", "152421.222000", "152421.224000", "152421.227000", "152421.229000", "152421.232000", "152421.234000", "152421.237000", "152421.239000", "152421.242000", "152421.244000", "152421.247000", "152421.249000", "152421.252000", "152421.254000", "152501.189000", "152501.192000", "152501.194000", "152501.197000", "152501.200000", "152501.203000", "152501.205000", "152501.208000", "152501.210000", "152501.213000", "152501.215000", "152501.218000", "152501.220000", "152501.223000", "152501.225000", "152501.228000", "152501.230000", "152501.233000", "152501.235000", "152501.237000", "152501.240000", "152501.242000", "152501.245000", "152501.247000", "152501.250000", "152501.252000", "152541.190000", "152541.193000", "152541.195000", "152541.198000", "152541.200000", "152541.203000", "152541.205000", "152541.207000", "152541.210000", "152541.212000", "152541.215000", "152541.217000", "152541.220000", "152541.222000", "152541.225000", "152541.227000", "152541.230000", "152541.232000", "152541.235000", "152541.237000", "152541.240000", "152541.242000", "152541.245000", "152541.247000", "152541.250000", "152541.252000", "152541.255000", "152544.497000", "152544.499000", "152544.502000"],
      "InstanceNumber": [1, 2, 3, 4, 5, 6, 7, 8, 9, 10, 11, 12, 13, 14, 15, 16, 17, 18, 19, 20, 21, 22, 23, 24, 25, 26, 27, 28, 29, 30, 31, 32, 33, 34, 35, 36, 37, 38, 39, 40, 41, 42, 43, 44, 45, 46, 47, 48, 49, 50, 51, 52, 53, 54, 55, 56, 57, 58, 59, 60, 61, 62, 63, 64, 65, 66, 67, 68, 69, 70, 71, 72, 73, 74, 75, 76, 77, 78, 79, 80, 81, 82, 83, 84, 85, 86, 87, 88, 89, 90, 91, 92, 93, 94, 95, 96, 97, 98, 99, 100, 101, 102, 103, 104, 105, 106, 107, 108, 109, 110, 111, 112, 113, 114, 115, 116, 117, 118, 119, 120, 121, 122, 123, 124, 125, 126, 127, 128, 129, 130, 131, 132, 133, 134, 135, 136, 137, 138, 139, 140, 141, 142, 143, 144, 145, 146, 147, 148, 149, 150, 151, 152, 153, 154, 155, 156, 157, 158, 159, 160, 161, 162, 163, 164, 165, 166, 167, 168, 169, 170, 171, 172, 173, 174, 175, 176, 177, 178, 179, 180, 181, 182, 183, 184, 185, 186, 187, 188, 189, 190],
      "WindowCenter": [4882.0, 4886.0, 4878.0, 4882.0, 4880.0, 4884.0, 4882.0, 4880.0, 4906.0, 4882.0, 4904.0, 4884.0, 4880.0, 4906.0, 4878.0, 4882.0, 4906.0, 4880.0, 4906.0, 4882.0, 4884.0, 4882.0, 4882.0, 4880.0, 4878.0, 4904.0, 4880.0, 4882.0, 4880.0, 4880.0, 4878.0, 4868.0, 4880.0, 4884.0, 4858.0, 4856.0, 4856.0, 4882.0, 4884.0, 4882.0, 4880.0, 4906.0, 4902.0, 4902.0, 4884.0, 4880.0, 4880.0, 4858.0, 4880.0, 4872.0, 4872.0, 4884.0, 4860.0, 4858.0, 4880.0, 4882.0, 4880.0, 4882.0, 4876.0, 4876.0, 4886.0, 4880.0, 4878.0, 4902.0, 4904.0, 4882.0, 4880.0, 4880.0, 4896.0, 4802.0, 4836.0, 4904.0, 4858.0, 4854.0, 4830.0, 4856.0, 4882.0, 4902.0, 4872.0, 4880.0, 4904.0, 4904.0, 4876.0, 4904.0, 4860.0, 4882.0, 4880.0, 4856.0, 4884.0, 4880.0, 4876.0, 4902.0, 4904.0, 4902.0, 4882.0, 4886.0, 4880.0, 4882.0, 4884.0, 4880.0, 4880.0, 4906.0, 4884.0, 4902.0, 4884.0, 4906.0, 4904.0, 4884.0, 4882.0, 4882.0, 4878.0, 4902.0, 4882.0, 4880.0, 4900.0, 4884.0, 4906.0, 4904.0, 4882.0, 4904.0, 4884.0, 4882.0, 4880.0, 4882.0, 4878.0, 4908.0, 4882.0, 4900.0, 4882.0, 4882.0, 4882.0, 4906.0, 4872.0, 4870.0, 4884.0, 4878.0, 4880.0, 4880.0, 4878.0, 4884.0, 4880.0, 4906.0, 4876.0, 4898.0, 4904.0, 4882.0, 4882.0, 4880.0, 4902.0, 4882.0, 4880.0, 4904.0, 4882.0, 4902.0, 4902.0, 4906.0, 4876.0, 4906.0, 4882.0, 4902.0, 4908.0, 4902.0, 4902.0, 4904.0, 4902.0, 4908.0, 4904.0, 4906.0, 4908.0, 4902.0, 4882.0, 4882.0, 4904.0, 4882.0, 4902.0, 4908.0, 4882.0, 4882.0, 4904.0, 4882.0, 4902.0, 4906.0, 4880.0, 4902.0, 4902.0, 4902.0, 4908.0, 4908.0, 4904.0, 4902.0],
      "WindowWidth": [18672.0, 18668.0, 18662.0, 18676.0, 18672.0, 18672.0, 18674.0, 18666.0, 18712.0, 18668.0, 18702.0, 18672.0, 18668.0, 18704.0, 18662.0, 18670.0, 18708.0, 18660.0, 18704.0, 18664.0, 18666.0, 18676.0, 18670.0, 18664.0, 18680.0, 18708.0, 18662.0, 18670.0, 18664.0, 18664.0, 18674.0, 18676.0, 18684.0, 18666.0, 18628.0, 18628.0, 18626.0, 18668.0, 18670.0, 18674.0, 18682.0, 18708.0, 18704.0, 18708.0, 18668.0, 18664.0, 18668.0, 18624.0, 18666.0, 18678.0, 18682.0, 18672.0, 18632.0, 18632.0, 18658.0, 18664.0, 18678.0, 18670.0, 18676.0, 18686.0, 18676.0, 18664.0, 18662.0, 18702.0, 18706.0, 18662.0, 18664.0, 18670.0, 18720.0, 18606.0, 18640.0, 18710.0, 18618.0, 18614.0, 18584.0, 18628.0, 18670.0, 18706.0, 18684.0, 18686.0, 18712.0, 18708.0, 18682.0, 18706.0, 18632.0, 18664.0, 18658.0, 18626.0, 18668.0, 18674.0, 18688.0, 18718.0, 18712.0, 18702.0, 18680.0, 18664.0, 18658.0, 18664.0, 18674.0, 18664.0, 18678.0, 18712.0, 18674.0, 18708.0, 18672.0, 18698.0, 18704.0, 18666.0, 18670.0, 18664.0, 18664.0, 18716.0, 18668.0, 18674.0, 18716.0, 18674.0, 18706.0, 18706.0, 18664.0, 18700.0, 18672.0, 18670.0, 18670.0, 18666.0, 18680.0, 18712.0, 18668.0, 18704.0, 18670.0, 18670.0, 18670.0, 18700.0, 18680.0, 18680.0, 18670.0, 18658.0, 18664.0, 18668.0, 18660.0, 18668.0, 18672.0, 18706.0, 18686.0, 18712.0, 18706.0, 18674.0, 18666.0, 18658.0, 18706.0, 18670.0, 18668.0, 18712.0, 18674.0, 18708.0, 18710.0, 18704.0, 18676.0, 18704.0, 18670.0, 18702.0, 18702.0, 18704.0, 18716.0, 18708.0, 18708.0, 18704.0, 18710.0, 18712.0, 18706.0, 18710.0, 18672.0, 18672.0, 18710.0, 18668.0, 18708.0, 18706.0, 18670.0, 18682.0, 18704.0, 18676.0, 18712.0, 18706.0, 18678.0, 18714.0, 18704.0, 18716.0, 18714.0, 18700.0, 18706.0, 18712.0]
    },
    "slices": {}
  }
}