{
  "AcquisitionMatrixPE": 104,
  "AcquisitionNumber": 1,
  "AcquisitionTime": "10:50:2.185000",
  "BandwidthPerPixelPhaseEncode": 17.17,
  "BaseResolution": 104,
  "BodyPartExamined": "BRAIN",
  "CoilString": "HC1-7;NC1_2",
  "ConsistencyInfo": "N4_VE11C_LATEST_20160120",
  "ConversionSoftware": "dcm2niix",
  "ConversionSoftwareVersion": "v1.0.20190902",
  "DerivedVendorReportedEchoSpacing": 0.000560011,
  "DeviceSerialNumber": "167006",
  "DwellTime": 2.1e-06,
  "EchoTime": 0.037,
  "EchoTrainLength": 104,
  "EffectiveEchoSpacing": 0.000560011,
  "FlipAngle": 52,
  "ImageComments": "Unaliased_MB4_PE3_LB",
  "ImageOrientationPatientDICOM": [0.999772, 0.0156469, 0.0145635, -0.00680535, 0.878851, -0.477047],
  "ImageType": [
    "ORIGINAL",
    "PRIMARY",
    "P",
    "MB",
    "ND",
    "MOSAIC"
],
  "ImagingFrequency": 123.259,
  "InPlanePhaseEncodingDirectionDICOM": "COL",
  "InstitutionAddress": "Chemin_Queen-Mary_4565_Montreal_District_CA_H3W_1W5",
  "InstitutionName": "IUGM",
  "InstitutionalDepartmentName": "Department",
  "MRAcquisitionType": "2D",
  "MagneticFieldStrength": 3,
  "Manufacturer": "Siemens",
  "ManufacturersModelName": "Prisma_fit",
  "Modality": "MR",
  "MultibandAccelerationFactor": 4,
  "PartialFourier": 1,
  "PatientPosition": "HFS",
  "PercentPhaseFOV": 100,
  "PhaseEncodingDirection": "j",
  "PhaseEncodingSteps": 104,
  "PhaseResolution": 1,
  "PixelBandwidth": 2290,
  "ProcedureStepDescription": "memory_things",
  "ProtocolName": "func_task-things_run-2",
  "PulseSequenceDetails": "%CustomerSeq%_cmrr_mbep2d_bold",
  "ReceiveCoilActiveElements": "HC1-7;NC1,2",
  "ReceiveCoilName": "HeadNeck_64",
  "ReconMatrixPE": 104,
  "RepetitionTime": 1.49,
  "SAR": 0.03712,
  "ScanOptions": "FS",
  "ScanningSequence": "EP",
  "SequenceName": "epfid2d1_104",
  "SequenceVariant": "SK_SS",
  "SeriesDescription": "func_task-things_run-2",
  "SeriesNumber": 14,
  "ShimSetting": [613, -7201, -8851, 342, -12, -118, -19, -32],
  "SliceThickness": 2,
  "SliceTiming": [0, 0.7825, 0.0975, 0.8825, 0.195, 0.98, 0.2925, 1.0775, 0.3925, 1.175, 0.49, 1.2725, 0.5875, 1.3725, 0.685, 0, 0.7825, 0.0975, 0.8825, 0.195, 0.98, 0.2925, 1.0775, 0.3925, 1.175, 0.49, 1.2725, 0.5875, 1.3725, 0.685, 0, 0.7825, 0.0975, 0.8825, 0.195, 0.98, 0.2925, 1.0775, 0.3925, 1.175, 0.49, 1.2725, 0.5875, 1.3725, 0.685, 0, 0.7825, 0.0975, 0.8825, 0.195, 0.98, 0.2925, 1.0775, 0.3925, 1.175, 0.49, 1.2725, 0.5875, 1.3725, 0.685],
  "SoftwareVersions": "syngo_MR_E11",
  "SpacingBetweenSlices": 2,
  "StationName": "MRC35049",
  "TaskName": "things",
  "TotalReadoutTime": 0.0576811,
  "TxRefAmp": 254.242,
  "WipMemBlock": "60b07413-0760-4a5f-8a5b-b9386d211c46||Sequence: R016 ve11c/master r/e634e98; Dec 19 2017 11:00:25 by eja",
  "dcmmeta_affine": [
    [-1.9995430707931519, -0.01361070666462183, 0.040526848286390305, 107.51029968261719],
    [-0.03129372000694275, 1.7577027082443237, -0.9536780714988708, -52.61039733886719],
    [0.029126958921551704, 0.9540942907333374, 1.7575141191482544, -87.32862854003906],
    [0.0, 0.0, 0.0, 1.0]
],
  "dcmmeta_reorient_transform": [
    [0.0, -1.0, 0.0, 103.0],
    [1.0, 0.0, 0.0, 0.0],
    [0.0, 0.0, 1.0, 0.0],
    [0.0, 0.0, 0.0, 1.0]
],
  "dcmmeta_shape": [104, 104, 60, 190],
  "dcmmeta_slice_dim": 2,
  "dcmmeta_version": 0.6,
  "global": {
    "const": {
      "AcquisitionMatrix": [104, 0, 0, 104],
      "AngioFlag": "N",
      "BitsAllocated": 16,
      "BitsStored": 16,
      "BodyPartExamined": "BRAIN",
      "Columns": 832,
      "EchoNumbers": 1,
      "EchoTime": 37.0,
      "EchoTrainLength": 104,
      "FlipAngle": 52.0,
      "HighBit": 15,
      "ImageOrientationPatient": [0.99977151431718, 0.0156468601878, 0.01456347919241, -0.0068053533423, 0.87885136386444, -0.4770471333102],
      "ImagePositionPatient": [-828.98775977617, -779.62768903744, 347.63118400898],
      "ImageType": [
        "ORIGINAL",
        "PRIMARY",
        "P",
        "MB",
        "ND",
        "MOSAIC"
],
      "ImagedNucleus": "1H",
      "ImagingFrequency": 123.258921,
      "InPlanePhaseEncodingDirection": "COL",
      "LargestImagePixelValue": 4095,
      "MRAcquisitionType": "2D",
      "MagneticFieldStrength": 3.0,
      "Manufacturer": "SIEMENS",
      "ManufacturerModelName": "Prisma_fit",
      "Modality": "MR",
      "NumberOfAverages": 1.0,
      "NumberOfPhaseEncodingSteps": 104,
      "PercentPhaseFieldOfView": 100.0,
      "PercentSampling": 100.0,
      "PerformedProcedureStepStartTime": "103048.683000",
      "PhotometricInterpretation": "MONOCHROME2",
      "PixelBandwidth": 2290.0,
      "PixelRepresentation": 0,
      "PixelSpacing": [2.0, 2.0],
      "ProtocolName": "func_task-things_run-2",
      "RepetitionTime": 1490.0,
      "RescaleIntercept": -4096.0,
      "RescaleSlope": 2.0,
      "RescaleType": "US",
      "Rows": 832,
      "SAR": 0.03712002641745,
      "SamplesPerPixel": 1,
      "ScanOptions": "FS",
      "ScanningSequence": "EP",
      "SequenceName": "epfid2d1_104",
      "SequenceVariant": [
        "SK",
        "SS"
],
      "SeriesDescription": "func_task-things_run-2",
      "SeriesNumber": 14,
      "SeriesTime": "105058.348000",
      "SliceLocation": -49.475426638767,
      "SliceThickness": 2.0,
      "SmallestImagePixelValue": 0,
      "SoftwareVersions": "syngo MR E11",
      "SpacingBetweenSlices": 2.000000018532,
      "SpecificCharacterSet": "ISO_IR 100",
      "StudyID": "1",
      "StudyTime": "103048.603000",
      "TransmitCoilName": "Body",
      "VariableFlipAngleFlag": "N",
      "WindowCenterWidthExplanation": "Algo1",
      "dBdt": 0.0},
    "slices": {}
  },
  "time": {
    "samples": {
      "AcquisitionNumber": [1, 2, 3, 4, 5, 6, 7, 8, 9, 10, 11, 12, 13, 14, 15, 16, 17, 18, 19, 20, 21, 22, 23, 24, 25, 26, 27, 28, 29, 30, 31, 32, 33, 34, 35, 36, 37, 38, 39, 40, 41, 42, 43, 44, 45, 46, 47, 48, 49, 50, 51, 52, 53, 54, 55, 56, 57, 58, 59, 60, 61, 62, 63, 64, 65, 66, 67, 68, 69, 70, 71, 72, 73, 74, 75, 76, 77, 78, 79, 80, 81, 82, 83, 84, 85, 86, 87, 88, 89, 90, 91, 92, 93, 94, 95, 96, 97, 98, 99, 100, 101, 102, 103, 104, 105, 106, 107, 108, 109, 110, 111, 112, 113, 114, 115, 116, 117, 118, 119, 120, 121, 122, 123, 124, 125, 126, 127, 128, 129, 130, 131, 132, 133, 134, 135, 136, 137, 138, 139, 140, 141, 142, 143, 144, 145, 146, 147, 148, 149, 150, 151, 152, 153, 154, 155, 156, 157, 158, 159, 160, 161, 162, 163, 164, 165, 166, 167, 168, 169, 170, 171, 172, 173, 174, 175, 176, 177, 178, 179, 180, 181, 182, 183, 184, 185, 186, 187, 188, 189, 190],
      "AcquisitionTime": ["105002.185000", "105003.675000", "105005.165000", "105006.655000", "105008.145000", "105009.635000", "105011.125000", "105012.615000", "105014.105000", "105015.595000", "105017.085000", "105018.575000", "105020.065000", "105021.555000", "105023.045000", "105024.535000", "105026.025000", "105027.515000", "105029.005000", "105030.495000", "105031.985000", "105033.475000", "105034.965000", "105036.455000", "105037.945000", "105039.435000", "105040.925000", "105042.415000", "105043.905000", "105045.395000", "105046.885000", "105048.375000", "105049.865000", "105051.355000", "105052.845000", "105054.335000", "105055.825000", "105057.315000", "105058.805000", "105100.295000", "105101.785000", "105103.275000", "105104.765000", "105106.255000", "105107.745000", "105109.235000", "105110.725000", "105112.215000", "105113.705000", "105115.195000", "105116.685000", "105118.175000", "105119.665000", "105121.155000", "105122.645000", "105124.135000", "105125.625000", "105127.115000", "105128.605000", "105130.095000", "105131.585000", "105133.075000", "105134.565000", "105136.055000", "105137.545000", "105139.035000", "105140.525000", "105142.015000", "105143.505000", "105144.995000", "105146.485000", "105147.975000", "105149.465000", "105150.955000", "105152.445000", "105153.935000", "105155.425000", "105156.915000", "105158.405000", "105159.895000", "105201.385000", "105202.875000", "105204.365000", "105205.855000", "105207.345000", "105208.835000", "105210.325000", "105211.815000", "105213.305000", "105214.795000", "105216.285000", "105217.775000", "105219.265000", "105220.755000", "105222.245000", "105223.735000", "105225.225000", "105226.715000", "105228.205000", "105229.695000", "105231.185000", "105232.675000", "105234.165000", "105235.655000", "105237.145000", "105238.635000", "105240.125000", "105241.615000", "105243.105000", "105244.595000", "105246.085000", "105247.575000", "105249.065000", "105250.555000", "105252.045000", "105253.535000", "105255.025000", "105256.515000", "105258.005000", "105259.495000", "105300.985000", "105302.475000", "105303.965000", "105305.455000", "105306.945000", "105308.435000", "105309.925000", "105311.415000", "105312.905000", "105314.395000", "105315.885000", "105317.375000", "105318.865000", "105320.355000", "105321.845000", "105323.335000", "105324.825000", "105326.315000", "105327.805000", "105329.295000", "105330.785000", "105332.275000", "105333.765000", "105335.255000", "105336.745000", "105338.235000", "105339.725000", "105341.215000", "105342.705000", "105344.195000", "105345.685000", "105347.175000", "105348.665000", "105350.155000", "105351.645000", "105353.135000", "105354.625000", "105356.115000", "105357.605000", "105359.095000", "105400.585000", "105402.075000", "105403.565000", "105405.055000", "105406.545000", "105408.035000", "105409.525000", "105411.015000", "105412.505000", "105413.995000", "105415.485000", "105416.975000", "105418.465000", "105419.955000", "105421.445000", "105422.935000", "105424.425000", "105425.915000", "105427.405000", "105428.895000", "105430.385000", "105431.875000", "105433.365000", "105434.855000", "105436.345000", "105437.835000", "105439.325000", "105440.815000", "105442.305000", "105443.795000"],
      "ContentTime": ["105058.350000", "105058.352000", "105058.358000", "105058.361000", "105118.394000", "105118.397000", "105118.399000", "105118.402000", "105118.404000", "105118.407000", "105118.409000", "105118.411000", "105118.414000", "105118.416000", "105118.419000", "105118.421000", "105118.424000", "105118.426000", "105118.429000", "105118.431000", "105118.435000", "105118.438000", "105118.440000", "105118.452000", "105138.410000", "105138.413000", "105138.415000", "105138.418000", "105138.422000", "105138.456000", "105138.458000", "105138.461000", "105138.463000", "105138.466000", "105138.468000", "105138.471000", "105138.473000", "105138.476000", "105138.478000", "105138.481000", "105138.483000", "105138.486000", "105138.488000", "105138.491000", "105158.421000", "105158.423000", "105158.426000", "105158.428000", "105158.431000", "105158.433000", "105158.436000", "105158.438000", "105158.441000", "105158.443000", "105158.456000", "105158.458000", "105158.461000", "105158.463000", "105158.466000", "105158.468000", "105158.471000", "105158.473000", "105158.476000", "105158.478000", "105158.481000", "105218.397000", "105218.399000", "105218.402000", "105218.404000", "105218.407000", "105218.409000", "105218.412000", "105218.414000", "105218.417000", "105218.419000", "105218.422000", "105218.424000", "105218.427000", "105218.429000", "105218.432000", "105218.434000", "105218.437000", "105218.439000", "105218.442000", "105218.452000", "105258.473000", "105258.476000", "105258.479000", "105258.481000", "105258.484000", "105258.486000", "105258.489000", "105258.491000", "105258.494000", "105258.496000", "105258.499000", "105258.501000", "105258.504000", "105258.506000", "105258.509000", "105258.511000", "105258.513000", "105258.516000", "105258.518000", "105258.521000", "105258.523000", "105258.526000", "105258.528000", "105258.531000", "105258.533000", "105258.536000", "105258.538000", "105258.541000", "105258.543000", "105258.546000", "105258.548000", "105258.551000", "105338.436000", "105338.439000", "105338.441000", "105338.444000", "105338.446000", "105338.449000", "105338.451000", "105338.454000", "105338.456000", "105338.459000", "105338.461000", "105338.464000", "105338.466000", "105338.469000", "105338.471000", "105338.474000", "105338.476000", "105338.479000", "105338.481000", "105338.484000", "105338.486000", "105338.489000", "105338.491000", "105338.495000", "105338.497000", "105338.500000", "105338.502000", "105418.437000", "105418.440000", "105418.443000", "105418.445000", "105418.448000", "105418.450000", "105418.453000", "105418.455000", "105418.458000", "105418.460000", "105418.463000", "105418.465000", "105418.468000", "105418.470000", "105418.473000", "105418.475000", "105418.478000", "105418.480000", "105418.483000", "105418.485000", "105418.488000", "105418.490000", "105418.493000", "105418.495000", "105418.498000", "105418.500000", "105418.503000", "105445.851000", "105445.853000", "105445.856000", "105445.859000", "105445.861000", "105445.864000", "105445.866000", "105445.869000", "105445.872000", "105445.874000", "105445.877000", "105445.879000", "105445.882000", "105445.884000", "105445.887000", "105445.889000", "105445.892000", "105445.894000", "105445.897000"],
      "InstanceCreationTime": ["105058.350000", "105058.352000", "105058.358000", "105058.361000", "105118.394000", "105118.397000", "105118.399000", "105118.402000", "105118.404000", "105118.407000", "105118.409000", "105118.411000", "105118.414000", "105118.416000", "105118.419000", "105118.421000", "105118.424000", "105118.426000", "105118.429000", "105118.431000", "105118.435000", "105118.438000", "105118.440000", "105118.452000", "105138.410000", "105138.413000", "105138.415000", "105138.418000", "105138.422000", "105138.456000", "105138.458000", "105138.461000", "105138.463000", "105138.466000", "105138.468000", "105138.471000", "105138.473000", "105138.476000", "105138.478000", "105138.481000", "105138.483000", "105138.486000", "105138.488000", "105138.491000", "105158.421000", "105158.423000", "105158.426000", "105158.428000", "105158.431000", "105158.433000", "105158.436000", "105158.438000", "105158.441000", "105158.443000", "105158.456000", "105158.458000", "105158.461000", "105158.463000", "105158.466000", "105158.468000", "105158.471000", "105158.473000", "105158.476000", "105158.478000", "105158.481000", "105218.397000", "105218.399000", "105218.402000", "105218.404000", "105218.407000", "105218.409000", "105218.412000", "105218.414000", "105218.417000", "105218.419000", "105218.422000", "105218.424000", "105218.427000", "105218.429000", "105218.432000", "105218.434000", "105218.437000", "105218.439000", "105218.442000", "105218.452000", "105258.473000", "105258.476000", "105258.479000", "105258.481000", "105258.484000", "105258.486000", "105258.489000", "105258.491000", "105258.494000", "105258.496000", "105258.499000", "105258.501000", "105258.504000", "105258.506000", "105258.509000", "105258.511000", "105258.513000", "105258.516000", "105258.518000", "105258.521000", "105258.523000", "105258.526000", "105258.528000", "105258.531000", "105258.533000", "105258.536000", "105258.538000", "105258.541000", "105258.543000", "105258.546000", "105258.548000", "105258.551000", "105338.436000", "105338.439000", "105338.441000", "105338.444000", "105338.446000", "105338.449000", "105338.451000", "105338.454000", "105338.456000", "105338.459000", "105338.461000", "105338.464000", "105338.466000", "105338.469000", "105338.471000", "105338.474000", "105338.476000", "105338.479000", "105338.481000", "105338.484000", "105338.486000", "105338.489000", "105338.491000", "105338.495000", "105338.497000", "105338.500000", "105338.502000", "105418.437000", "105418.440000", "105418.443000", "105418.445000", "105418.448000", "105418.450000", "105418.453000", "105418.455000", "105418.458000", "105418.460000", "105418.463000", "105418.465000", "105418.468000", "105418.470000", "105418.473000", "105418.475000", "105418.478000", "105418.480000", "105418.483000", "105418.485000", "105418.488000", "105418.490000", "105418.493000", "105418.495000", "105418.498000", "105418.500000", "105418.503000", "105445.851000", "105445.853000", "105445.856000", "105445.859000", "105445.861000", "105445.864000", "105445.866000", "105445.869000", "105445.872000", "105445.874000", "105445.877000", "105445.879000", "105445.882000", "105445.884000", "105445.887000", "105445.889000", "105445.892000", "105445.894000", "105445.897000"],
      "InstanceNumber": [1, 2, 3, 4, 5, 6, 7, 8, 9, 10, 11, 12, 13, 14, 15, 16, 17, 18, 19, 20, 21, 22, 23, 24, 25, 26, 27, 28, 29, 30, 31, 32, 33, 34, 35, 36, 37, 38, 39, 40, 41, 42, 43, 44, 45, 46, 47, 48, 49, 50, 51, 52, 53, 54, 55, 56, 57, 58, 59, 60, 61, 62, 63, 64, 65, 66, 67, 68, 69, 70, 71, 72, 73, 74, 75, 76, 77, 78, 79, 80, 81, 82, 83, 84, 85, 86, 87, 88, 89, 90, 91, 92, 93, 94, 95, 96, 97, 98, 99, 100, 101, 102, 103, 104, 105, 106, 107, 108, 109, 110, 111, 112, 113, 114, 115, 116, 117, 118, 119, 120, 121, 122, 123, 124, 125, 126, 127, 128, 129, 130, 131, 132, 133, 134, 135, 136, 137, 138, 139, 140, 141, 142, 143, 144, 145, 146, 147, 148, 149, 150, 151, 152, 153, 154, 155, 156, 157, 158, 159, 160, 161, 162, 163, 164, 165, 166, 167, 168, 169, 170, 171, 172, 173, 174, 175, 176, 177, 178, 179, 180, 181, 182, 183, 184, 185, 186, 187, 188, 189, 190],
      "WindowCenter": [4792.0, 4788.0, 4790.0, 4786.0, 4814.0, 4822.0, 4820.0, 4826.0, 4820.0, 4794.0, 4792.0, 4784.0, 4782.0, 4782.0, 4794.0, 4788.0, 4818.0, 4816.0, 4816.0, 4826.0, 4790.0, 4794.0, 4784.0, 4786.0, 4788.0, 4790.0, 4816.0, 4814.0, 4816.0, 4814.0, 4818.0, 4816.0, 4790.0, 4812.0, 4788.0, 4814.0, 4790.0, 4818.0, 4818.0, 4792.0, 4824.0, 4788.0, 4792.0, 4786.0, 4794.0, 4792.0, 4814.0, 4816.0, 4792.0, 4816.0, 4788.0, 4814.0, 4816.0, 4788.0, 4792.0, 4784.0, 4786.0, 4814.0, 4826.0, 4814.0, 4818.0, 4820.0, 4814.0, 4786.0, 4786.0, 4790.0, 4782.0, 4818.0, 4786.0, 4814.0, 4818.0, 4790.0, 4816.0, 4812.0, 4818.0, 4812.0, 4820.0, 4812.0, 4816.0, 4790.0, 4790.0, 4812.0, 4814.0, 4816.0, 4790.0, 4828.0, 4822.0, 4784.0, 4790.0, 4780.0, 4784.0, 4784.0, 4792.0, 4814.0, 4790.0, 4824.0, 4816.0, 4820.0, 4812.0, 4788.0, 4792.0, 4786.0, 4816.0, 4786.0, 4814.0, 4814.0, 4818.0, 4796.0, 4792.0, 4824.0, 4788.0, 4790.0, 4792.0, 4786.0, 4826.0, 4824.0, 4794.0, 4780.0, 4780.0, 4792.0, 4788.0, 4816.0, 4820.0, 4818.0, 4824.0, 4816.0, 4814.0, 4822.0, 4790.0, 4790.0, 4816.0, 4784.0, 4790.0, 4788.0, 4818.0, 4812.0, 4822.0, 4816.0, 4818.0, 4818.0, 4788.0, 4820.0, 4788.0, 4792.0, 4792.0, 4816.0, 4820.0, 4790.0, 4818.0, 4790.0, 4792.0, 4796.0, 4784.0, 4818.0, 4790.0, 4790.0, 4790.0, 4818.0, 4796.0, 4792.0, 4818.0, 4788.0, 4820.0, 4824.0, 4790.0, 4784.0, 4790.0, 4796.0, 4792.0, 4822.0, 4820.0, 4818.0, 4824.0, 4794.0, 4794.0, 4794.0, 4784.0, 4790.0, 4790.0, 4788.0, 4820.0, 4794.0, 4822.0, 4816.0, 4822.0, 4796.0, 4792.0, 4798.0, 4788.0, 4794.0],
      "WindowWidth": [18578.0, 18572.0, 18576.0, 18576.0, 18604.0, 18618.0, 18610.0, 18614.0, 18616.0, 18576.0, 18576.0, 18578.0, 18572.0, 18568.0, 18580.0, 18578.0, 18610.0, 18612.0, 18618.0, 18616.0, 18580.0, 18578.0, 18578.0, 18574.0, 18578.0, 18578.0, 18612.0, 18616.0, 18610.0, 18616.0, 18610.0, 18610.0, 18578.0, 18608.0, 18580.0, 18608.0, 18584.0, 18608.0, 18616.0, 18582.0, 18616.0, 18578.0, 18576.0, 18578.0, 18578.0, 18580.0, 18612.0, 18612.0, 18584.0, 18610.0, 18582.0, 18610.0, 18614.0, 18580.0, 18584.0, 18576.0, 18580.0, 18612.0, 18616.0, 18616.0, 18612.0, 18620.0, 18612.0, 18580.0, 18574.0, 18580.0, 18576.0, 18612.0, 18576.0, 18612.0, 18610.0, 18582.0, 18612.0, 18608.0, 18610.0, 18608.0, 18614.0, 18610.0, 18610.0, 18580.0, 18576.0, 18612.0, 18608.0, 18612.0, 18582.0, 18604.0, 18616.0, 18572.0, 18576.0, 18574.0, 18574.0, 18572.0, 18582.0, 18612.0, 18580.0, 18620.0, 18616.0, 18614.0, 18612.0, 18580.0, 18580.0, 18576.0, 18610.0, 18574.0, 18610.0, 18610.0, 18612.0, 18580.0, 18578.0, 18612.0, 18572.0, 18576.0, 18582.0, 18578.0, 18604.0, 18606.0, 18586.0, 18566.0, 18572.0, 18582.0, 18576.0, 18612.0, 18616.0, 18614.0, 18612.0, 18614.0, 18612.0, 18616.0, 18580.0, 18578.0, 18610.0, 18578.0, 18580.0, 18574.0, 18610.0, 18610.0, 18614.0, 18610.0, 18612.0, 18612.0, 18576.0, 18610.0, 18576.0, 18574.0, 18578.0, 18612.0, 18606.0, 18574.0, 18608.0, 18578.0, 18574.0, 18578.0, 18570.0, 18604.0, 18574.0, 18576.0, 18574.0, 18608.0, 18576.0, 18574.0, 18604.0, 18572.0, 18608.0, 18610.0, 18572.0, 18568.0, 18574.0, 18576.0, 18580.0, 18606.0, 18614.0, 18606.0, 18606.0, 18578.0, 18578.0, 18574.0, 18572.0, 18578.0, 18576.0, 18576.0, 18612.0, 18578.0, 18608.0, 18606.0, 18606.0, 18580.0, 18578.0, 18580.0, 18580.0, 18580.0]
    },
    "slices": {}
  }
}