{
  "AcquisitionMatrixPE": 104,
  "AcquisitionNumber": 1,
  "AcquisitionTime": "10:43:53.655000",
  "BandwidthPerPixelPhaseEncode": 17.17,
  "BaseResolution": 104,
  "BodyPartExamined": "BRAIN",
  "CoilString": "HC1-7;NC1_2",
  "ConsistencyInfo": "N4_VE11C_LATEST_20160120",
  "ConversionSoftware": "dcm2niix",
  "ConversionSoftwareVersion": "v1.0.20190902",
  "DerivedVendorReportedEchoSpacing": 0.000560011,
  "DeviceSerialNumber": "167006",
  "DwellTime": 2.1e-06,
  "EchoTime": 0.037,
  "EchoTrainLength": 104,
  "EffectiveEchoSpacing": 0.000560011,
  "FlipAngle": 52,
  "ImageComments": "Unaliased_MB4_PE3_LB",
  "ImageOrientationPatientDICOM": [0.999772, 0.0156469, 0.0145635, -0.00680535, 0.878851, -0.477047],
  "ImageType": [
    "ORIGINAL",
    "PRIMARY",
    "P",
    "MB",
    "ND",
    "MOSAIC"
],
  "ImagingFrequency": 123.259,
  "InPlanePhaseEncodingDirectionDICOM": "COL",
  "InstitutionAddress": "Chemin_Queen-Mary_4565_Montreal_District_CA_H3W_1W5",
  "InstitutionName": "IUGM",
  "InstitutionalDepartmentName": "Department",
  "MRAcquisitionType": "2D",
  "MagneticFieldStrength": 3,
  "Manufacturer": "Siemens",
  "ManufacturersModelName": "Prisma_fit",
  "Modality": "MR",
  "MultibandAccelerationFactor": 4,
  "PartialFourier": 1,
  "PatientPosition": "HFS",
  "PercentPhaseFOV": 100,
  "PhaseEncodingDirection": "j",
  "PhaseEncodingSteps": 104,
  "PhaseResolution": 1,
  "PixelBandwidth": 2290,
  "ProcedureStepDescription": "memory_things",
  "ProtocolName": "func_task-things_run-1",
  "PulseSequenceDetails": "%CustomerSeq%_cmrr_mbep2d_bold",
  "ReceiveCoilActiveElements": "HC1-7;NC1,2",
  "ReceiveCoilName": "HeadNeck_64",
  "ReconMatrixPE": 104,
  "RepetitionTime": 1.49,
  "SAR": 0.03712,
  "ScanOptions": "FS",
  "ScanningSequence": "EP",
  "SequenceName": "epfid2d1_104",
  "SequenceVariant": "SK_SS",
  "SeriesDescription": "func_task-things_run-1",
  "SeriesNumber": 11,
  "ShimSetting": [613, -7201, -8851, 342, -12, -118, -19, -32],
  "SliceThickness": 2,
  "SliceTiming": [0, 0.785, 0.0975, 0.8825, 0.1975, 0.98, 0.295, 1.0775, 0.3925, 1.1775, 0.49, 1.275, 0.5875, 1.3725, 0.6875, 0, 0.785, 0.0975, 0.8825, 0.1975, 0.98, 0.295, 1.0775, 0.3925, 1.1775, 0.49, 1.275, 0.5875, 1.3725, 0.6875, 0, 0.785, 0.0975, 0.8825, 0.1975, 0.98, 0.295, 1.0775, 0.3925, 1.1775, 0.49, 1.275, 0.5875, 1.3725, 0.6875, 0, 0.785, 0.0975, 0.8825, 0.1975, 0.98, 0.295, 1.0775, 0.3925, 1.1775, 0.49, 1.275, 0.5875, 1.3725, 0.6875],
  "SoftwareVersions": "syngo_MR_E11",
  "SpacingBetweenSlices": 2,
  "StationName": "MRC35049",
  "TaskName": "things",
  "TotalReadoutTime": 0.0576811,
  "TxRefAmp": 254.242,
  "WipMemBlock": "0c1cd999-30ee-4a20-b0ff-7712ce506ae0||Sequence: R016 ve11c/master r/e634e98; Dec 19 2017 11:00:25 by eja",
  "dcmmeta_affine": [
    [-1.9995430707931519, -0.01361070666462183, 0.040526848286390305, 107.51029968261719],
    [-0.03129372000694275, 1.7577027082443237, -0.9536780714988708, -52.61039733886719],
    [0.029126958921551704, 0.9540942907333374, 1.7575141191482544, -87.32862854003906],
    [0.0, 0.0, 0.0, 1.0]
],
  "dcmmeta_reorient_transform": [
    [0.0, -1.0, 0.0, 103.0],
    [1.0, 0.0, 0.0, 0.0],
    [0.0, 0.0, 1.0, 0.0],
    [0.0, 0.0, 0.0, 1.0]
],
  "dcmmeta_shape": [104, 104, 60, 190],
  "dcmmeta_slice_dim": 2,
  "dcmmeta_version": 0.6,
  "global": {
    "const": {
      "AcquisitionMatrix": [104, 0, 0, 104],
      "AngioFlag": "N",
      "BitsAllocated": 16,
      "BitsStored": 16,
      "BodyPartExamined": "BRAIN",
      "Columns": 832,
      "EchoNumbers": 1,
      "EchoTime": 37.0,
      "EchoTrainLength": 104,
      "FlipAngle": 52.0,
      "HighBit": 15,
      "ImageOrientationPatient": [0.99977151431718, 0.0156468601878, 0.01456347919241, -0.0068053533423, 0.87885136386444, -0.4770471333102],
      "ImagePositionPatient": [-828.98775977617, -779.62768903744, 347.63118400898],
      "ImageType": [
        "ORIGINAL",
        "PRIMARY",
        "P",
        "MB",
        "ND",
        "MOSAIC"
],
      "ImagedNucleus": "1H",
      "ImagingFrequency": 123.258914,
      "InPlanePhaseEncodingDirection": "COL",
      "LargestImagePixelValue": 4095,
      "MRAcquisitionType": "2D",
      "MagneticFieldStrength": 3.0,
      "Manufacturer": "SIEMENS",
      "ManufacturerModelName": "Prisma_fit",
      "Modality": "MR",
      "NumberOfAverages": 1.0,
      "NumberOfPhaseEncodingSteps": 104,
      "PercentPhaseFieldOfView": 100.0,
      "PercentSampling": 100.0,
      "PerformedProcedureStepStartTime": "103048.683000",
      "PhotometricInterpretation": "MONOCHROME2",
      "PixelBandwidth": 2290.0,
      "PixelRepresentation": 0,
      "PixelSpacing": [2.0, 2.0],
      "ProtocolName": "func_task-things_run-1",
      "RepetitionTime": 1490.0,
      "RescaleIntercept": -4096.0,
      "RescaleSlope": 2.0,
      "RescaleType": "US",
      "Rows": 832,
      "SAR": 0.03712002641745,
      "SamplesPerPixel": 1,
      "ScanOptions": "FS",
      "ScanningSequence": "EP",
      "SequenceName": "epfid2d1_104",
      "SequenceVariant": [
        "SK",
        "SS"
],
      "SeriesDescription": "func_task-things_run-1",
      "SeriesNumber": 11,
      "SeriesTime": "104522.009000",
      "SliceLocation": -49.475426638767,
      "SliceThickness": 2.0,
      "SmallestImagePixelValue": 0,
      "SoftwareVersions": "syngo MR E11",
      "SpacingBetweenSlices": 2.000000018532,
      "SpecificCharacterSet": "ISO_IR 100",
      "StudyID": "1",
      "StudyTime": "103048.603000",
      "TransmitCoilName": "Body",
      "VariableFlipAngleFlag": "N",
      "WindowCenterWidthExplanation": "Algo1",
      "dBdt": 0.0},
    "slices": {}
  },
  "time": {
    "samples": {
      "AcquisitionNumber": [1, 2, 3, 4, 5, 6, 7, 8, 9, 10, 11, 12, 13, 14, 15, 16, 17, 18, 19, 20, 21, 22, 23, 24, 25, 26, 27, 28, 29, 30, 31, 32, 33, 34, 35, 36, 37, 38, 39, 40, 41, 42, 43, 44, 45, 46, 47, 48, 49, 50, 51, 52, 53, 54, 55, 56, 57, 58, 59, 60, 61, 62, 63, 64, 65, 66, 67, 68, 69, 70, 71, 72, 73, 74, 75, 76, 77, 78, 79, 80, 81, 82, 83, 84, 85, 86, 87, 88, 89, 90, 91, 92, 93, 94, 95, 96, 97, 98, 99, 100, 101, 102, 103, 104, 105, 106, 107, 108, 109, 110, 111, 112, 113, 114, 115, 116, 117, 118, 119, 120, 121, 122, 123, 124, 125, 126, 127, 128, 129, 130, 131, 132, 133, 134, 135, 136, 137, 138, 139, 140, 141, 142, 143, 144, 145, 146, 147, 148, 149, 150, 151, 152, 153, 154, 155, 156, 157, 158, 159, 160, 161, 162, 163, 164, 165, 166, 167, 168, 169, 170, 171, 172, 173, 174, 175, 176, 177, 178, 179, 180, 181, 182, 183, 184, 185, 186, 187, 188, 189, 190],
      "AcquisitionTime": ["104353.655000", "104355.145000", "104356.635000", "104358.125000", "104359.615000", "104401.105000", "104402.595000", "104404.085000", "104405.575000", "104407.065000", "104408.555000", "104410.045000", "104411.535000", "104413.025000", "104414.515000", "104416.005000", "104417.495000", "104418.985000", "104420.475000", "104421.965000", "104423.455000", "104424.945000", "104426.435000", "104427.925000", "104429.415000", "104430.905000", "104432.395000", "104433.885000", "104435.375000", "104436.865000", "104438.355000", "104439.845000", "104441.335000", "104442.825000", "104444.315000", "104445.805000", "104447.295000", "104448.785000", "104450.275000", "104451.765000", "104453.255000", "104454.745000", "104456.235000", "104457.725000", "104459.215000", "104500.705000", "104502.195000", "104503.685000", "104505.175000", "104506.665000", "104508.155000", "104509.645000", "104511.135000", "104512.625000", "104514.115000", "104515.605000", "104517.095000", "104518.585000", "104520.075000", "104521.565000", "104523.055000", "104524.545000", "104526.035000", "104527.525000", "104529.015000", "104530.505000", "104531.995000", "104533.485000", "104534.975000", "104536.465000", "104537.955000", "104539.445000", "104540.935000", "104542.425000", "104543.915000", "104545.405000", "104546.895000", "104548.385000", "104549.875000", "104551.365000", "104552.855000", "104554.345000", "104555.835000", "104557.325000", "104558.815000", "104600.305000", "104601.795000", "104603.285000", "104604.775000", "104606.265000", "104607.755000", "104609.245000", "104610.735000", "104612.225000", "104613.715000", "104615.205000", "104616.695000", "104618.185000", "104619.675000", "104621.165000", "104622.655000", "104624.145000", "104625.635000", "104627.125000", "104628.615000", "104630.105000", "104631.595000", "104633.085000", "104634.575000", "104636.065000", "104637.555000", "104639.045000", "104640.535000", "104642.025000", "104643.515000", "104645.005000", "104646.495000", "104647.985000", "104649.475000", "104650.965000", "104652.455000", "104653.945000", "104655.435000", "104656.925000", "104658.415000", "104659.905000", "104701.395000", "104702.885000", "104704.375000", "104705.865000", "104707.355000", "104708.845000", "104710.335000", "104711.825000", "104713.315000", "104714.805000", "104716.295000", "104717.785000", "104719.275000", "104720.765000", "104722.255000", "104723.745000", "104725.235000", "104726.725000", "104728.215000", "104729.705000", "104731.195000", "104732.685000", "104734.175000", "104735.665000", "104737.155000", "104738.645000", "104740.135000", "104741.625000", "104743.115000", "104744.605000", "104746.095000", "104747.585000", "104749.075000", "104750.565000", "104752.055000", "104753.545000", "104755.035000", "104756.525000", "104758.015000", "104759.505000", "104800.995000", "104802.485000", "104803.975000", "104805.465000", "104806.955000", "104808.445000", "104809.935000", "104811.425000", "104812.915000", "104814.405000", "104815.895000", "104817.385000", "104818.875000", "104820.365000", "104821.855000", "104823.345000", "104824.835000", "104826.325000", "104827.815000", "104829.305000", "104830.795000", "104832.285000", "104833.775000", "104835.265000"],
      "ContentTime": ["104522.011000", "104522.014000", "104522.016000", "104522.019000", "104522.029000", "104522.033000", "104522.036000", "104522.040000", "104522.043000", "104522.046000", "104522.049000", "104522.051000", "104522.054000", "104522.057000", "104522.060000", "104522.063000", "104522.065000", "104522.068000", "104522.070000", "104522.073000", "104522.075000", "104522.078000", "104522.080000", "104522.083000", "104522.086000", "104522.088000", "104522.091000", "104522.093000", "104522.096000", "104522.098000", "104522.101000", "104522.103000", "104522.106000", "104541.928000", "104541.931000", "104541.933000", "104541.935000", "104541.938000", "104541.949000", "104541.951000", "104541.954000", "104541.956000", "104541.959000", "104541.961000", "104541.964000", "104541.966000", "104541.969000", "104541.972000", "104541.974000", "104541.977000", "104541.979000", "104541.982000", "104541.984000", "104601.916000", "104601.919000", "104601.921000", "104601.924000", "104601.926000", "104601.929000", "104601.931000", "104601.934000", "104601.936000", "104601.940000", "104601.943000", "104601.946000", "104601.950000", "104601.953000", "104601.956000", "104601.958000", "104601.961000", "104601.963000", "104601.966000", "104601.968000", "104621.955000", "104621.958000", "104621.960000", "104621.963000", "104621.966000", "104621.968000", "104621.971000", "104621.973000", "104621.976000", "104621.978000", "104621.981000", "104621.983000", "104621.986000", "104621.989000", "104621.991000", "104621.994000", "104621.996000", "104622.000000", "104622.002000", "104622.005000", "104622.007000", "104701.975000", "104701.978000", "104701.980000", "104701.983000", "104701.985000", "104701.988000", "104701.990000", "104701.993000", "104701.995000", "104701.998000", "104702.001000", "104702.004000", "104702.006000", "104702.009000", "104702.011000", "104702.014000", "104702.016000", "104702.019000", "104702.022000", "104702.024000", "104702.027000", "104702.029000", "104702.032000", "104702.034000", "104702.037000", "104702.039000", "104702.042000", "104702.044000", "104702.047000", "104702.049000", "104702.052000", "104702.054000", "104741.976000", "104741.979000", "104741.981000", "104741.984000", "104741.986000", "104741.989000", "104741.991000", "104741.994000", "104741.996000", "104742.000000", "104742.002000", "104742.005000", "104742.007000", "104742.010000", "104742.012000", "104742.015000", "104742.017000", "104742.020000", "104742.022000", "104742.025000", "104742.027000", "104742.030000", "104742.032000", "104742.035000", "104742.037000", "104742.040000", "104821.960000", "104821.962000", "104821.965000", "104821.968000", "104821.971000", "104821.973000", "104821.976000", "104821.978000", "104821.981000", "104821.983000", "104821.986000", "104821.988000", "104821.991000", "104821.993000", "104821.996000", "104821.998000", "104822.002000", "104822.004000", "104822.007000", "104822.009000", "104822.012000", "104822.014000", "104822.017000", "104822.019000", "104822.022000", "104822.025000", "104822.027000", "104837.147000", "104837.150000", "104837.152000", "104837.155000", "104837.157000", "104837.160000", "104837.163000", "104837.165000", "104837.168000", "104837.170000", "104837.173000"],
      "InstanceCreationTime": ["104522.011000", "104522.014000", "104522.016000", "104522.019000", "104522.029000", "104522.033000", "104522.036000", "104522.040000", "104522.043000", "104522.046000", "104522.049000", "104522.051000", "104522.054000", "104522.057000", "104522.060000", "104522.063000", "104522.065000", "104522.068000", "104522.070000", "104522.073000", "104522.075000", "104522.078000", "104522.080000", "104522.083000", "104522.086000", "104522.088000", "104522.091000", "104522.093000", "104522.096000", "104522.098000", "104522.101000", "104522.103000", "104522.106000", "104541.928000", "104541.931000", "104541.933000", "104541.935000", "104541.938000", "104541.949000", "104541.951000", "104541.954000", "104541.956000", "104541.959000", "104541.961000", "104541.964000", "104541.966000", "104541.969000", "104541.972000", "104541.974000", "104541.977000", "104541.979000", "104541.982000", "104541.984000", "104601.916000", "104601.919000", "104601.921000", "104601.924000", "104601.926000", "104601.929000", "104601.931000", "104601.934000", "104601.936000", "104601.940000", "104601.943000", "104601.946000", "104601.950000", "104601.953000", "104601.956000", "104601.958000", "104601.961000", "104601.963000", "104601.966000", "104601.968000", "104621.955000", "104621.958000", "104621.960000", "104621.963000", "104621.966000", "104621.968000", "104621.971000", "104621.973000", "104621.976000", "104621.978000", "104621.981000", "104621.983000", "104621.986000", "104621.989000", "104621.991000", "104621.994000", "104621.996000", "104622.000000", "104622.002000", "104622.005000", "104622.007000", "104701.975000", "104701.978000", "104701.980000", "104701.983000", "104701.985000", "104701.988000", "104701.990000", "104701.993000", "104701.995000", "104701.998000", "104702.001000", "104702.004000", "104702.006000", "104702.009000", "104702.011000", "104702.014000", "104702.016000", "104702.019000", "104702.022000", "104702.024000", "104702.027000", "104702.029000", "104702.032000", "104702.034000", "104702.037000", "104702.039000", "104702.042000", "104702.044000", "104702.047000", "104702.049000", "104702.052000", "104702.054000", "104741.976000", "104741.979000", "104741.981000", "104741.984000", "104741.986000", "104741.989000", "104741.991000", "104741.994000", "104741.996000", "104742.000000", "104742.002000", "104742.005000", "104742.007000", "104742.010000", "104742.012000", "104742.015000", "104742.017000", "104742.020000", "104742.022000", "104742.025000", "104742.027000", "104742.030000", "104742.032000", "104742.035000", "104742.037000", "104742.040000", "104821.960000", "104821.962000", "104821.965000", "104821.968000", "104821.971000", "104821.973000", "104821.976000", "104821.978000", "104821.981000", "104821.983000", "104821.986000", "104821.988000", "104821.991000", "104821.993000", "104821.996000", "104821.998000", "104822.002000", "104822.004000", "104822.007000", "104822.009000", "104822.012000", "104822.014000", "104822.017000", "104822.019000", "104822.022000", "104822.025000", "104822.027000", "104837.147000", "104837.150000", "104837.152000", "104837.155000", "104837.157000", "104837.160000", "104837.163000", "104837.165000", "104837.168000", "104837.170000", "104837.173000"],
      "InstanceNumber": [1, 2, 3, 4, 5, 6, 7, 8, 9, 10, 11, 12, 13, 14, 15, 16, 17, 18, 19, 20, 21, 22, 23, 24, 25, 26, 27, 28, 29, 30, 31, 32, 33, 34, 35, 36, 37, 38, 39, 40, 41, 42, 43, 44, 45, 46, 47, 48, 49, 50, 51, 52, 53, 54, 55, 56, 57, 58, 59, 60, 61, 62, 63, 64, 65, 66, 67, 68, 69, 70, 71, 72, 73, 74, 75, 76, 77, 78, 79, 80, 81, 82, 83, 84, 85, 86, 87, 88, 89, 90, 91, 92, 93, 94, 95, 96, 97, 98, 99, 100, 101, 102, 103, 104, 105, 106, 107, 108, 109, 110, 111, 112, 113, 114, 115, 116, 117, 118, 119, 120, 121, 122, 123, 124, 125, 126, 127, 128, 129, 130, 131, 132, 133, 134, 135, 136, 137, 138, 139, 140, 141, 142, 143, 144, 145, 146, 147, 148, 149, 150, 151, 152, 153, 154, 155, 156, 157, 158, 159, 160, 161, 162, 163, 164, 165, 166, 167, 168, 169, 170, 171, 172, 173, 174, 175, 176, 177, 178, 179, 180, 181, 182, 183, 184, 185, 186, 187, 188, 189, 190],
      "WindowCenter": [4832.0, 4828.0, 4830.0, 4830.0, 4828.0, 4830.0, 4854.0, 4832.0, 4834.0, 4830.0, 4820.0, 4828.0, 4828.0, 4828.0, 4830.0, 4826.0, 4826.0, 4828.0, 4826.0, 4826.0, 4826.0, 4824.0, 4822.0, 4828.0, 4830.0, 4830.0, 4828.0, 4826.0, 4832.0, 4828.0, 4830.0, 4828.0, 4826.0, 4824.0, 4826.0, 4852.0, 4828.0, 4826.0, 4828.0, 4826.0, 4826.0, 4826.0, 4830.0, 4832.0, 4826.0, 4828.0, 4824.0, 4828.0, 4826.0, 4826.0, 4828.0, 4826.0, 4824.0, 4852.0, 4826.0, 4820.0, 4824.0, 4824.0, 4828.0, 4826.0, 4826.0, 4824.0, 4826.0, 4826.0, 4828.0, 4826.0, 4826.0, 4824.0, 4824.0, 4824.0, 4826.0, 4824.0, 4828.0, 4824.0, 4826.0, 4828.0, 4830.0, 4826.0, 4826.0, 4824.0, 4826.0, 4822.0, 4824.0, 4824.0, 4824.0, 4824.0, 4826.0, 4822.0, 4824.0, 4826.0, 4824.0, 4826.0, 4826.0, 4826.0, 4824.0, 4826.0, 4826.0, 4820.0, 4826.0, 4822.0, 4824.0, 4824.0, 4822.0, 4824.0, 4826.0, 4824.0, 4826.0, 4826.0, 4830.0, 4822.0, 4828.0, 4824.0, 4826.0, 4824.0, 4822.0, 4824.0, 4824.0, 4826.0, 4824.0, 4824.0, 4824.0, 4826.0, 4820.0, 4820.0, 4822.0, 4824.0, 4824.0, 4824.0, 4822.0, 4822.0, 4826.0, 4822.0, 4826.0, 4824.0, 4824.0, 4822.0, 4824.0, 4822.0, 4822.0, 4824.0, 4824.0, 4828.0, 4824.0, 4826.0, 4824.0, 4824.0, 4824.0, 4820.0, 4824.0, 4822.0, 4826.0, 4822.0, 4826.0, 4826.0, 4826.0, 4824.0, 4824.0, 4824.0, 4822.0, 4822.0, 4798.0, 4818.0, 4818.0, 4820.0, 4822.0, 4820.0, 4818.0, 4816.0, 4820.0, 4820.0, 4818.0, 4824.0, 4822.0, 4820.0, 4820.0, 4822.0, 4820.0, 4820.0, 4822.0, 4822.0, 4820.0, 4820.0, 4822.0, 4824.0, 4820.0, 4822.0, 4822.0, 4826.0, 4850.0, 4828.0],
      "WindowWidth": [18610.0, 18610.0, 18602.0, 18612.0, 18588.0, 18584.0, 18626.0, 18600.0, 18608.0, 18606.0, 18608.0, 18610.0, 18612.0, 18606.0, 18608.0, 18602.0, 18600.0, 18594.0, 18610.0, 18590.0, 18610.0, 18614.0, 18612.0, 18610.0, 18612.0, 18600.0, 18600.0, 18604.0, 18598.0, 18608.0, 18600.0, 18606.0, 18608.0, 18614.0, 18614.0, 18642.0, 18608.0, 18598.0, 18614.0, 18598.0, 18606.0, 18610.0, 18614.0, 18604.0, 18602.0, 18604.0, 18608.0, 18612.0, 18614.0, 18602.0, 18604.0, 18600.0, 18610.0, 18644.0, 18614.0, 18610.0, 18600.0, 18602.0, 18596.0, 18604.0, 18608.0, 18616.0, 18610.0, 18620.0, 18604.0, 18606.0, 18612.0, 18614.0, 18606.0, 18608.0, 18608.0, 18602.0, 18614.0, 18598.0, 18608.0, 18604.0, 18608.0, 18614.0, 18610.0, 18618.0, 18608.0, 18618.0, 18596.0, 18604.0, 18602.0, 18610.0, 18608.0, 18616.0, 18602.0, 18610.0, 18612.0, 18598.0, 18616.0, 18602.0, 18612.0, 18604.0, 18614.0, 18614.0, 18620.0, 18606.0, 18602.0, 18608.0, 18594.0, 18604.0, 18598.0, 18616.0, 18600.0, 18614.0, 18608.0, 18620.0, 18610.0, 18612.0, 18600.0, 18604.0, 18598.0, 18606.0, 18606.0, 18612.0, 18616.0, 18612.0, 18606.0, 18592.0, 18606.0, 18620.0, 18620.0, 18604.0, 18610.0, 18590.0, 18598.0, 18604.0, 18612.0, 18610.0, 18616.0, 18616.0, 18612.0, 18616.0, 18596.0, 18606.0, 18604.0, 18594.0, 18616.0, 18608.0, 18620.0, 18612.0, 18616.0, 18606.0, 18604.0, 18616.0, 18598.0, 18606.0, 18610.0, 18596.0, 18620.0, 18604.0, 18620.0, 18614.0, 18616.0, 18606.0, 18612.0, 18612.0, 18558.0, 18606.0, 18612.0, 18626.0, 18610.0, 18610.0, 18596.0, 18602.0, 18606.0, 18598.0, 18614.0, 18600.0, 18616.0, 18610.0, 18618.0, 18608.0, 18608.0, 18608.0, 18600.0, 18614.0, 18592.0, 18610.0, 18610.0, 18624.0, 18610.0, 18614.0, 18616.0, 18576.0, 18590.0, 18564.0]
    },
    "slices": {}
  }
}