{
  "AcquisitionMatrixPE": 104,
  "AcquisitionNumber": 1,
  "AcquisitionTime": "10:56:7.707500",
  "BandwidthPerPixelPhaseEncode": 17.17,
  "BaseResolution": 104,
  "BodyPartExamined": "BRAIN",
  "CoilString": "HC1-7;NC1_2",
  "ConsistencyInfo": "N4_VE11C_LATEST_20160120",
  "ConversionSoftware": "dcm2niix",
  "ConversionSoftwareVersion": "v1.0.20190902",
  "DerivedVendorReportedEchoSpacing": 0.000560011,
  "DeviceSerialNumber": "167006",
  "DwellTime": 2.1e-06,
  "EchoTime": 0.037,
  "EchoTrainLength": 104,
  "EffectiveEchoSpacing": 0.000560011,
  "FlipAngle": 52,
  "ImageComments": "Unaliased_MB4_PE3_LB",
  "ImageOrientationPatientDICOM": [0.999772, 0.0156469, 0.0145635, -0.00680535, 0.878851, -0.477047],
  "ImageType": [
    "ORIGINAL",
    "PRIMARY",
    "M",
    "MB",
    "ND",
    "MOSAIC"
],
  "ImagingFrequency": 123.259,
  "InPlanePhaseEncodingDirectionDICOM": "COL",
  "InstitutionAddress": "Chemin_Queen-Mary_4565_Montreal_District_CA_H3W_1W5",
  "InstitutionName": "IUGM",
  "InstitutionalDepartmentName": "Department",
  "MRAcquisitionType": "2D",
  "MagneticFieldStrength": 3,
  "Manufacturer": "Siemens",
  "ManufacturersModelName": "Prisma_fit",
  "Modality": "MR",
  "MultibandAccelerationFactor": 4,
  "PartialFourier": 1,
  "PatientPosition": "HFS",
  "PercentPhaseFOV": 100,
  "PhaseEncodingDirection": "j",
  "PhaseEncodingSteps": 104,
  "PhaseResolution": 1,
  "PixelBandwidth": 2290,
  "ProcedureStepDescription": "memory_things",
  "ProtocolName": "func_task-things_run-3",
  "PulseSequenceDetails": "%CustomerSeq%_cmrr_mbep2d_bold",
  "ReceiveCoilActiveElements": "HC1-7;NC1,2",
  "ReceiveCoilName": "HeadNeck_64",
  "ReconMatrixPE": 104,
  "RepetitionTime": 1.49,
  "SAR": 0.03712,
  "ScanOptions": "FS",
  "ScanningSequence": "EP",
  "SequenceName": "epfid2d1_104",
  "SequenceVariant": "SK_SS",
  "SeriesDescription": "func_task-things_run-3",
  "SeriesNumber": 16,
  "ShimSetting": [613, -7201, -8851, 342, -12, -118, -19, -32],
  "SliceThickness": 2,
  "SliceTiming": [0, 0.7825, 0.0975, 0.88, 0.195, 0.9775, 0.2925, 1.0775, 0.39, 1.175, 0.4875, 1.2725, 0.5875, 1.37, 0.685, 0, 0.7825, 0.0975, 0.88, 0.195, 0.9775, 0.2925, 1.0775, 0.39, 1.175, 0.4875, 1.2725, 0.5875, 1.37, 0.685, 0, 0.7825, 0.0975, 0.88, 0.195, 0.9775, 0.2925, 1.0775, 0.39, 1.175, 0.4875, 1.2725, 0.5875, 1.37, 0.685, 0, 0.7825, 0.0975, 0.88, 0.195, 0.9775, 0.2925, 1.0775, 0.39, 1.175, 0.4875, 1.2725, 0.5875, 1.37, 0.685],
  "SoftwareVersions": "syngo_MR_E11",
  "SpacingBetweenSlices": 2,
  "StationName": "MRC35049",
  "TaskName": "things",
  "TotalReadoutTime": 0.0576811,
  "TxRefAmp": 254.242,
  "WipMemBlock": "4e030d26-40d9-45a5-8f7f-5160af94b449||Sequence: R016 ve11c/master r/e634e98; Dec 19 2017 11:00:25 by eja",
  "dcmmeta_affine": [
    [-1.9995430707931519, -0.01361070666462183, 0.040526848286390305, 107.51029968261719],
    [-0.03129372000694275, 1.7577027082443237, -0.9536780714988708, -52.61039733886719],
    [0.029126958921551704, 0.9540942907333374, 1.7575141191482544, -87.32862854003906],
    [0.0, 0.0, 0.0, 1.0]
],
  "dcmmeta_reorient_transform": [
    [0.0, -1.0, 0.0, 103.0],
    [1.0, 0.0, 0.0, 0.0],
    [0.0, 0.0, 1.0, 0.0],
    [0.0, 0.0, 0.0, 1.0]
],
  "dcmmeta_shape": [104, 104, 60, 190],
  "dcmmeta_slice_dim": 2,
  "dcmmeta_version": 0.6,
  "global": {
    "const": {
      "AcquisitionMatrix": [104, 0, 0, 104],
      "AngioFlag": "N",
      "BitsAllocated": 16,
      "BitsStored": 16,
      "BodyPartExamined": "BRAIN",
      "Columns": 832,
      "EchoNumbers": 1,
      "EchoTime": 37.0,
      "EchoTrainLength": 104,
      "FlipAngle": 52.0,
      "HighBit": 15,
      "ImageOrientationPatient": [0.99977151431718, 0.0156468601878, 0.01456347919241, -0.0068053533423, 0.87885136386444, -0.4770471333102],
      "ImagePositionPatient": [-828.98775977617, -779.62768903744, 347.63118400898],
      "ImageType": [
        "ORIGINAL",
        "PRIMARY",
        "M",
        "MB",
        "ND",
        "MOSAIC"
],
      "ImagedNucleus": "1H",
      "ImagingFrequency": 123.258922,
      "InPlanePhaseEncodingDirection": "COL",
      "MRAcquisitionType": "2D",
      "MagneticFieldStrength": 3.0,
      "Manufacturer": "SIEMENS",
      "ManufacturerModelName": "Prisma_fit",
      "Modality": "MR",
      "NumberOfAverages": 1.0,
      "NumberOfPhaseEncodingSteps": 104,
      "PercentPhaseFieldOfView": 100.0,
      "PercentSampling": 100.0,
      "PerformedProcedureStepStartTime": "103048.683000",
      "PhotometricInterpretation": "MONOCHROME2",
      "PixelBandwidth": 2290.0,
      "PixelRepresentation": 0,
      "PixelSpacing": [2.0, 2.0],
      "ProtocolName": "func_task-things_run-3",
      "RepetitionTime": 1490.0,
      "Rows": 832,
      "SAR": 0.03712002641745,
      "SamplesPerPixel": 1,
      "ScanOptions": "FS",
      "ScanningSequence": "EP",
      "SequenceName": "epfid2d1_104",
      "SequenceVariant": [
        "SK",
        "SS"
],
      "SeriesDescription": "func_task-things_run-3",
      "SeriesNumber": 16,
      "SeriesTime": "105738.372000",
      "SliceLocation": -49.475426638767,
      "SliceThickness": 2.0,
      "SmallestImagePixelValue": 0,
      "SoftwareVersions": "syngo MR E11",
      "SpacingBetweenSlices": 2.000000018532,
      "SpecificCharacterSet": "ISO_IR 100",
      "StudyID": "1",
      "StudyTime": "103048.603000",
      "TransmitCoilName": "Body",
      "VariableFlipAngleFlag": "N",
      "WindowCenterWidthExplanation": "Algo1",
      "dBdt": 0.0},
    "slices": {}
  },
  "time": {
    "samples": {
      "AcquisitionNumber": [1, 2, 3, 4, 5, 6, 7, 8, 9, 10, 11, 12, 13, 14, 15, 16, 17, 18, 19, 20, 21, 22, 23, 24, 25, 26, 27, 28, 29, 30, 31, 32, 33, 34, 35, 36, 37, 38, 39, 40, 41, 42, 43, 44, 45, 46, 47, 48, 49, 50, 51, 52, 53, 54, 55, 56, 57, 58, 59, 60, 61, 62, 63, 64, 65, 66, 67, 68, 69, 70, 71, 72, 73, 74, 75, 76, 77, 78, 79, 80, 81, 82, 83, 84, 85, 86, 87, 88, 89, 90, 91, 92, 93, 94, 95, 96, 97, 98, 99, 100, 101, 102, 103, 104, 105, 106, 107, 108, 109, 110, 111, 112, 113, 114, 115, 116, 117, 118, 119, 120, 121, 122, 123, 124, 125, 126, 127, 128, 129, 130, 131, 132, 133, 134, 135, 136, 137, 138, 139, 140, 141, 142, 143, 144, 145, 146, 147, 148, 149, 150, 151, 152, 153, 154, 155, 156, 157, 158, 159, 160, 161, 162, 163, 164, 165, 166, 167, 168, 169, 170, 171, 172, 173, 174, 175, 176, 177, 178, 179, 180, 181, 182, 183, 184, 185, 186, 187, 188, 189, 190],
      "AcquisitionTime": ["105607.707500", "105609.197500", "105610.687500", "105612.177500", "105613.667500", "105615.157500", "105616.647500", "105618.137500", "105619.627500", "105621.117500", "105622.607500", "105624.097500", "105625.587500", "105627.077500", "105628.567500", "105630.057500", "105631.547500", "105633.037500", "105634.527500", "105636.017500", "105637.507500", "105638.997500", "105640.487500", "105641.977500", "105643.467500", "105644.957500", "105646.447500", "105647.937500", "105649.427500", "105650.917500", "105652.407500", "105653.897500", "105655.387500", "105656.877500", "105658.367500", "105659.857500", "105701.347500", "105702.837500", "105704.327500", "105705.817500", "105707.307500", "105708.797500", "105710.287500", "105711.777500", "105713.267500", "105714.757500", "105716.247500", "105717.737500", "105719.227500", "105720.717500", "105722.207500", "105723.697500", "105725.187500", "105726.677500", "105728.167500", "105729.657500", "105731.147500", "105732.637500", "105734.127500", "105735.617500", "105737.107500", "105738.597500", "105740.087500", "105741.577500", "105743.067500", "105744.557500", "105746.047500", "105747.537500", "105749.027500", "105750.517500", "105752.007500", "105753.497500", "105754.987500", "105756.477500", "105757.967500", "105759.457500", "105800.947500", "105802.437500", "105803.927500", "105805.417500", "105806.907500", "105808.397500", "105809.887500", "105811.377500", "105812.867500", "105814.357500", "105815.847500", "105817.337500", "105818.827500", "105820.317500", "105821.807500", "105823.297500", "105824.787500", "105826.277500", "105827.767500", "105829.257500", "105830.747500", "105832.237500", "105833.727500", "105835.217500", "105836.707500", "105838.197500", "105839.687500", "105841.177500", "105842.667500", "105844.157500", "105845.647500", "105847.137500", "105848.627500", "105850.117500", "105851.607500", "105853.097500", "105854.587500", "105856.077500", "105857.567500", "105859.057500", "105900.547500", "105902.037500", "105903.527500", "105905.017500", "105906.507500", "105907.997500", "105909.487500", "105910.977500", "105912.467500", "105913.957500", "105915.447500", "105916.937500", "105918.427500", "105919.917500", "105921.407500", "105922.897500", "105924.387500", "105925.877500", "105927.367500", "105928.857500", "105930.347500", "105931.837500", "105933.327500", "105934.817500", "105936.307500", "105937.797500", "105939.287500", "105940.777500", "105942.267500", "105943.757500", "105945.247500", "105946.737500", "105948.227500", "105949.717500", "105951.207500", "105952.697500", "105954.187500", "105955.677500", "105957.167500", "105958.657500", "110000.147500", "110001.637500", "110003.127500", "110004.617500", "110006.107500", "110007.597500", "110009.087500", "110010.577500", "110012.067500", "110013.557500", "110015.047500", "110016.537500", "110018.027500", "110019.517500", "110021.007500", "110022.497500", "110023.987500", "110025.477500", "110026.967500", "110028.457500", "110029.947500", "110031.437500", "110032.927500", "110034.417500", "110035.907500", "110037.397500", "110038.887500", "110040.377500", "110041.867500", "110043.357500", "110044.847500", "110046.337500", "110047.827500", "110049.317500"],
      "ContentTime": ["105738.375000", "105738.379000", "105738.383000", "105738.386000", "105738.389000", "105738.393000", "105738.396000", "105738.399000", "105738.403000", "105738.406000", "105738.409000", "105738.412000", "105738.416000", "105738.419000", "105738.422000", "105738.426000", "105738.429000", "105738.440000", "105738.443000", "105738.446000", "105738.449000", "105738.453000", "105738.456000", "105738.459000", "105738.463000", "105738.466000", "105738.469000", "105738.472000", "105738.476000", "105738.479000", "105738.482000", "105738.486000", "105738.489000", "105738.492000", "105738.496000", "105738.499000", "105738.502000", "105758.338000", "105758.342000", "105758.345000", "105758.348000", "105758.352000", "105758.355000", "105758.358000", "105758.362000", "105758.365000", "105758.368000", "105758.378000", "105758.381000", "105758.385000", "105758.388000", "105758.391000", "105758.395000", "105758.398000", "105758.401000", "105758.405000", "105758.408000", "105758.411000", "105818.339000", "105818.343000", "105818.346000", "105818.350000", "105818.353000", "105818.356000", "105818.360000", "105818.363000", "105818.376000", "105818.379000", "105818.383000", "105818.386000", "105818.389000", "105818.392000", "105818.396000", "105818.399000", "105818.403000", "105818.406000", "105818.409000", "105818.412000", "105838.339000", "105838.343000", "105838.346000", "105838.356000", "105838.359000", "105838.363000", "105838.366000", "105838.370000", "105838.373000", "105838.376000", "105838.380000", "105838.383000", "105838.386000", "105838.390000", "105838.393000", "105838.396000", "105838.400000", "105838.403000", "105838.406000", "105838.410000", "105918.338000", "105918.342000", "105918.345000", "105918.349000", "105918.352000", "105918.355000", "105918.358000", "105918.362000", "105918.365000", "105918.369000", "105918.372000", "105918.375000", "105918.378000", "105918.382000", "105918.385000", "105918.388000", "105918.392000", "105918.395000", "105918.398000", "105918.402000", "105918.405000", "105918.408000", "105918.411000", "105918.415000", "105918.418000", "105918.421000", "105918.425000", "105918.428000", "105918.431000", "105958.338000", "105958.342000", "105958.345000", "105958.348000", "105958.352000", "105958.355000", "105958.359000", "105958.362000", "105958.365000", "105958.369000", "105958.372000", "105958.375000", "105958.378000", "105958.382000", "105958.385000", "105958.388000", "105958.392000", "105958.395000", "105958.398000", "105958.402000", "105958.405000", "105958.408000", "105958.412000", "105958.415000", "105958.418000", "105958.421000", "105958.425000", "110038.339000", "110038.343000", "110038.346000", "110038.360000", "110038.363000", "110038.366000", "110038.370000", "110038.373000", "110038.377000", "110038.380000", "110038.383000", "110038.387000", "110038.390000", "110038.393000", "110038.397000", "110038.400000", "110038.403000", "110038.407000", "110038.410000", "110038.415000", "110038.419000", "110038.440000", "110038.444000", "110038.447000", "110038.450000", "110038.454000", "110051.898000", "110051.901000", "110051.905000", "110051.908000", "110051.912000", "110051.915000", "110051.918000", "110051.922000", "110051.925000", "110051.929000"],
      "InstanceCreationTime": ["105738.375000", "105738.379000", "105738.383000", "105738.386000", "105738.389000", "105738.393000", "105738.396000", "105738.399000", "105738.403000", "105738.406000", "105738.409000", "105738.412000", "105738.416000", "105738.419000", "105738.422000", "105738.426000", "105738.429000", "105738.440000", "105738.443000", "105738.446000", "105738.449000", "105738.453000", "105738.456000", "105738.459000", "105738.463000", "105738.466000", "105738.469000", "105738.472000", "105738.476000", "105738.479000", "105738.482000", "105738.486000", "105738.489000", "105738.492000", "105738.496000", "105738.499000", "105738.502000", "105758.338000", "105758.342000", "105758.345000", "105758.348000", "105758.352000", "105758.355000", "105758.358000", "105758.362000", "105758.365000", "105758.368000", "105758.378000", "105758.381000", "105758.385000", "105758.388000", "105758.391000", "105758.395000", "105758.398000", "105758.401000", "105758.405000", "105758.408000", "105758.411000", "105818.339000", "105818.343000", "105818.346000", "105818.350000", "105818.353000", "105818.356000", "105818.360000", "105818.363000", "105818.376000", "105818.379000", "105818.383000", "105818.386000", "105818.389000", "105818.392000", "105818.396000", "105818.399000", "105818.403000", "105818.406000", "105818.409000", "105818.412000", "105838.339000", "105838.343000", "105838.346000", "105838.356000", "105838.359000", "105838.363000", "105838.366000", "105838.370000", "105838.373000", "105838.376000", "105838.380000", "105838.383000", "105838.386000", "105838.390000", "105838.393000", "105838.396000", "105838.400000", "105838.403000", "105838.406000", "105838.410000", "105918.338000", "105918.342000", "105918.345000", "105918.349000", "105918.352000", "105918.355000", "105918.358000", "105918.362000", "105918.365000", "105918.369000", "105918.372000", "105918.375000", "105918.378000", "105918.382000", "105918.385000", "105918.388000", "105918.392000", "105918.395000", "105918.398000", "105918.402000", "105918.405000", "105918.408000", "105918.411000", "105918.415000", "105918.418000", "105918.421000", "105918.425000", "105918.428000", "105918.431000", "105958.338000", "105958.342000", "105958.345000", "105958.348000", "105958.352000", "105958.355000", "105958.359000", "105958.362000", "105958.365000", "105958.369000", "105958.372000", "105958.375000", "105958.378000", "105958.382000", "105958.385000", "105958.388000", "105958.392000", "105958.395000", "105958.398000", "105958.402000", "105958.405000", "105958.408000", "105958.412000", "105958.415000", "105958.418000", "105958.421000", "105958.425000", "110038.339000", "110038.343000", "110038.346000", "110038.360000", "110038.363000", "110038.366000", "110038.370000", "110038.373000", "110038.377000", "110038.380000", "110038.383000", "110038.387000", "110038.390000", "110038.393000", "110038.397000", "110038.400000", "110038.403000", "110038.407000", "110038.410000", "110038.415000", "110038.419000", "110038.440000", "110038.444000", "110038.447000", "110038.450000", "110038.454000", "110051.898000", "110051.901000", "110051.905000", "110051.908000", "110051.912000", "110051.915000", "110051.918000", "110051.922000", "110051.925000", "110051.929000"],
      "InstanceNumber": [1, 2, 3, 4, 5, 6, 7, 8, 9, 10, 11, 12, 13, 14, 15, 16, 17, 18, 19, 20, 21, 22, 23, 24, 25, 26, 27, 28, 29, 30, 31, 32, 33, 34, 35, 36, 37, 38, 39, 40, 41, 42, 43, 44, 45, 46, 47, 48, 49, 50, 51, 52, 53, 54, 55, 56, 57, 58, 59, 60, 61, 62, 63, 64, 65, 66, 67, 68, 69, 70, 71, 72, 73, 74, 75, 76, 77, 78, 79, 80, 81, 82, 83, 84, 85, 86, 87, 88, 89, 90, 91, 92, 93, 94, 95, 96, 97, 98, 99, 100, 101, 102, 103, 104, 105, 106, 107, 108, 109, 110, 111, 112, 113, 114, 115, 116, 117, 118, 119, 120, 121, 122, 123, 124, 125, 126, 127, 128, 129, 130, 131, 132, 133, 134, 135, 136, 137, 138, 139, 140, 141, 142, 143, 144, 145, 146, 147, 148, 149, 150, 151, 152, 153, 154, 155, 156, 157, 158, 159, 160, 161, 162, 163, 164, 165, 166, 167, 168, 169, 170, 171, 172, 173, 174, 175, 176, 177, 178, 179, 180, 181, 182, 183, 184, 185, 186, 187, 188, 189, 190],
      "LargestImagePixelValue": [47042, 45582, 45784, 44726, 45246, 43435, 44654, 44130, 44399, 44394, 44096, 43944, 44373, 44108, 44244, 44009, 43963, 43803, 43833, 44651, 43119, 44520, 44457, 43981, 44788, 44359, 44440, 44200, 44414, 44218, 44178, 44095, 43864, 44546, 44504, 43677, 44965, 44096, 43785, 44459, 44376, 44510, 43537, 44149, 43879, 44374, 44507, 43520, 44439, 44121, 44112, 44104, 43654, 44526, 44589, 44631, 43909, 43904, 44499, 43615, 44226, 44303, 43619, 44031, 44114, 43962, 43794, 44029, 43960, 43681, 44168, 44061, 44066, 44434, 43454, 44118, 44215, 43831, 44157, 44517, 44148, 44199, 43025, 44045, 44117, 43839, 43698, 44345, 43966, 44563, 43519, 44087, 43887, 43925, 43997, 43998, 43671, 43940, 43806, 44050, 44133, 44314, 43904, 44096, 44006, 43834, 43874, 43996, 44304, 44282, 44453, 43909, 44572, 44769, 42860, 44121, 43185, 44563, 44028, 43848, 44457, 44321, 43926, 44205, 43903, 43913, 44211, 44588, 44105, 43988, 44280, 44154, 44266, 44343, 43728, 44025, 44190, 43734, 44431, 44340, 43603, 43920, 43838, 43976, 43214, 43705, 44293, 43570, 44034, 44351, 43907, 43936, 44427, 44139, 44671, 44308, 43859, 43783, 44327, 44344, 44336, 44301, 44066, 43704, 44742, 43826, 43811, 44039, 44097, 44063, 44071, 43719, 44661, 44719, 45344, 44774, 43842, 43783, 44107, 44040, 44201, 44311, 44296, 43845, 44381, 44311, 44347, 44087, 43576, 43906],
      "WindowCenter": [11066.0, 11018.0, 10998.0, 11001.0, 11012.0, 10999.0, 10999.0, 10994.0, 10994.0, 11007.0, 10995.0, 10974.0, 10973.0, 10948.0, 10944.0, 10946.0, 10949.0, 10940.0, 10939.0, 10969.0, 10937.0, 10948.0, 10969.0, 10974.0, 10994.0, 10955.0, 10942.0, 10944.0, 10978.0, 10979.0, 10939.0, 10920.0, 10920.0, 10950.0, 10952.0, 10914.0, 10937.0, 10938.0, 10920.0, 10940.0, 10966.0, 10972.0, 10931.0, 10908.0, 10909.0, 10938.0, 10951.0, 10911.0, 10937.0, 10954.0, 10954.0, 10964.0, 10925.0, 10911.0, 10916.0, 10947.0, 10946.0, 10953.0, 10936.0, 10902.0, 10882.0, 10876.0, 10909.0, 10962.0, 10946.0, 10938.0, 10914.0, 10941.0, 10949.0, 10927.0, 10935.0, 10944.0, 10919.0, 10938.0, 10916.0, 10909.0, 10906.0, 10928.0, 10950.0, 10988.0, 10958.0, 10934.0, 10903.0, 10896.0, 10913.0, 10926.0, 10930.0, 10929.0, 10912.0, 10915.0, 10906.0, 10918.0, 10915.0, 10940.0, 10957.0, 10965.0, 10963.0, 10944.0, 10927.0, 10937.0, 10953.0, 10961.0, 10969.0, 10956.0, 10946.0, 10928.0, 10915.0, 10911.0, 10934.0, 10946.0, 10954.0, 10943.0, 10954.0, 10945.0, 10925.0, 10952.0, 10949.0, 10981.0, 10966.0, 10957.0, 10970.0, 10972.0, 10960.0, 10952.0, 10917.0, 10915.0, 10930.0, 10955.0, 10947.0, 10933.0, 10929.0, 10916.0, 10926.0, 10952.0, 10970.0, 10985.0, 10971.0, 10955.0, 10952.0, 10947.0, 10913.0, 10932.0, 10951.0, 10934.0, 10924.0, 10934.0, 10946.0, 10912.0, 10903.0, 10931.0, 10925.0, 10944.0, 10963.0, 10966.0, 10920.0, 10903.0, 10920.0, 10943.0, 10959.0, 10950.0, 10931.0, 10912.0, 10914.0, 10925.0, 10938.0, 10920.0, 10906.0, 10937.0, 10977.0, 10987.0, 10954.0, 10933.0, 10954.0, 10987.0, 11016.0, 10961.0, 10936.0, 10919.0, 10938.0, 10959.0, 10954.0, 10943.0, 10920.0, 10878.0, 10893.0, 10917.0, 10963.0, 10964.0, 10944.0, 10910.0],
      "WindowWidth": [23858.0, 23715.0, 23640.0, 23641.0, 23655.0, 23630.0, 23622.0, 23612.0, 23611.0, 23639.0, 23615.0, 23568.0, 23565.0, 23510.0, 23494.0, 23501.0, 23507.0, 23489.0, 23485.0, 23560.0, 23488.0, 23502.0, 23553.0, 23567.0, 23606.0, 23522.0, 23489.0, 23492.0, 23569.0, 23578.0, 23483.0, 23444.0, 23441.0, 23510.0, 23515.0, 23433.0, 23475.0, 23486.0, 23446.0, 23480.0, 23542.0, 23557.0, 23472.0, 23412.0, 23417.0, 23487.0, 23517.0, 23424.0, 23475.0, 23524.0, 23521.0, 23542.0, 23462.0, 23416.0, 23431.0, 23500.0, 23504.0, 23528.0, 23478.0, 23408.0, 23356.0, 23344.0, 23417.0, 23537.0, 23502.0, 23483.0, 23434.0, 23492.0, 23509.0, 23463.0, 23473.0, 23494.0, 23441.0, 23480.0, 23440.0, 23422.0, 23409.0, 23463.0, 23506.0, 23605.0, 23532.0, 23481.0, 23412.0, 23387.0, 23424.0, 23456.0, 23463.0, 23461.0, 23418.0, 23426.0, 23415.0, 23438.0, 23433.0, 23496.0, 23528.0, 23543.0, 23543.0, 23510.0, 23457.0, 23483.0, 23516.0, 23531.0, 23559.0, 23522.0, 23499.0, 23466.0, 23432.0, 23420.0, 23472.0, 23497.0, 23514.0, 23494.0, 23518.0, 23495.0, 23465.0, 23513.0, 23516.0, 23587.0, 23550.0, 23525.0, 23550.0, 23559.0, 23533.0, 23515.0, 23433.0, 23426.0, 23460.0, 23514.0, 23497.0, 23467.0, 23457.0, 23432.0, 23453.0, 23510.0, 23554.0, 23588.0, 23555.0, 23518.0, 23518.0, 23500.0, 23428.0, 23469.0, 23513.0, 23475.0, 23455.0, 23480.0, 23498.0, 23428.0, 23398.0, 23455.0, 23447.0, 23495.0, 23533.0, 23544.0, 23444.0, 23400.0, 23439.0, 23492.0, 23525.0, 23506.0, 23464.0, 23420.0, 23424.0, 23453.0, 23481.0, 23447.0, 23409.0, 23478.0, 23577.0, 23593.0, 23519.0, 23473.0, 23514.0, 23590.0, 23664.0, 23540.0, 23483.0, 23447.0, 23482.0, 23526.0, 23516.0, 23494.0, 23439.0, 23354.0, 23376.0, 23434.0, 23536.0, 23547.0, 23507.0, 23435.0]
    },
    "slices": {}
  }
}