{
  "AcquisitionMatrixPE": 104,
  "AcquisitionNumber": 1,
  "AcquisitionTime": "10:56:7.707500",
  "BandwidthPerPixelPhaseEncode": 17.17,
  "BaseResolution": 104,
  "BodyPartExamined": "BRAIN",
  "CoilString": "HC1-7;NC1_2",
  "ConsistencyInfo": "N4_VE11C_LATEST_20160120",
  "ConversionSoftware": "dcm2niix",
  "ConversionSoftwareVersion": "v1.0.20190902",
  "DerivedVendorReportedEchoSpacing": 0.000560011,
  "DeviceSerialNumber": "167006",
  "DwellTime": 2.1e-06,
  "EchoTime": 0.037,
  "EchoTrainLength": 104,
  "EffectiveEchoSpacing": 0.000560011,
  "FlipAngle": 52,
  "ImageComments": "Unaliased_MB4_PE3_LB",
  "ImageOrientationPatientDICOM": [0.999772, 0.0156469, 0.0145635, -0.00680535, 0.878851, -0.477047],
  "ImageType": [
    "ORIGINAL",
    "PRIMARY",
    "P",
    "MB",
    "ND",
    "MOSAIC"
],
  "ImagingFrequency": 123.259,
  "InPlanePhaseEncodingDirectionDICOM": "COL",
  "InstitutionAddress": "Chemin_Queen-Mary_4565_Montreal_District_CA_H3W_1W5",
  "InstitutionName": "IUGM",
  "InstitutionalDepartmentName": "Department",
  "MRAcquisitionType": "2D",
  "MagneticFieldStrength": 3,
  "Manufacturer": "Siemens",
  "ManufacturersModelName": "Prisma_fit",
  "Modality": "MR",
  "MultibandAccelerationFactor": 4,
  "PartialFourier": 1,
  "PatientPosition": "HFS",
  "PercentPhaseFOV": 100,
  "PhaseEncodingDirection": "j",
  "PhaseEncodingSteps": 104,
  "PhaseResolution": 1,
  "PixelBandwidth": 2290,
  "ProcedureStepDescription": "memory_things",
  "ProtocolName": "func_task-things_run-3",
  "PulseSequenceDetails": "%CustomerSeq%_cmrr_mbep2d_bold",
  "ReceiveCoilActiveElements": "HC1-7;NC1,2",
  "ReceiveCoilName": "HeadNeck_64",
  "ReconMatrixPE": 104,
  "RepetitionTime": 1.49,
  "SAR": 0.03712,
  "ScanOptions": "FS",
  "ScanningSequence": "EP",
  "SequenceName": "epfid2d1_104",
  "SequenceVariant": "SK_SS",
  "SeriesDescription": "func_task-things_run-3",
  "SeriesNumber": 17,
  "ShimSetting": [613, -7201, -8851, 342, -12, -118, -19, -32],
  "SliceThickness": 2,
  "SliceTiming": [0, 0.7825, 0.0975, 0.88, 0.195, 0.9775, 0.2925, 1.0775, 0.39, 1.175, 0.4875, 1.2725, 0.5875, 1.37, 0.685, 0, 0.7825, 0.0975, 0.88, 0.195, 0.9775, 0.2925, 1.0775, 0.39, 1.175, 0.4875, 1.2725, 0.5875, 1.37, 0.685, 0, 0.7825, 0.0975, 0.88, 0.195, 0.9775, 0.2925, 1.0775, 0.39, 1.175, 0.4875, 1.2725, 0.5875, 1.37, 0.685, 0, 0.7825, 0.0975, 0.88, 0.195, 0.9775, 0.2925, 1.0775, 0.39, 1.175, 0.4875, 1.2725, 0.5875, 1.37, 0.685],
  "SoftwareVersions": "syngo_MR_E11",
  "SpacingBetweenSlices": 2,
  "StationName": "MRC35049",
  "TaskName": "things",
  "TotalReadoutTime": 0.0576811,
  "TxRefAmp": 254.242,
  "WipMemBlock": "4e030d26-40d9-45a5-8f7f-5160af94b449||Sequence: R016 ve11c/master r/e634e98; Dec 19 2017 11:00:25 by eja",
  "dcmmeta_affine": [
    [-1.9995430707931519, -0.01361070666462183, 0.040526848286390305, 107.51029968261719],
    [-0.03129372000694275, 1.7577027082443237, -0.9536780714988708, -52.61039733886719],
    [0.029126958921551704, 0.9540942907333374, 1.7575141191482544, -87.32862854003906],
    [0.0, 0.0, 0.0, 1.0]
],
  "dcmmeta_reorient_transform": [
    [0.0, -1.0, 0.0, 103.0],
    [1.0, 0.0, 0.0, 0.0],
    [0.0, 0.0, 1.0, 0.0],
    [0.0, 0.0, 0.0, 1.0]
],
  "dcmmeta_shape": [104, 104, 60, 190],
  "dcmmeta_slice_dim": 2,
  "dcmmeta_version": 0.6,
  "global": {
    "const": {
      "AcquisitionMatrix": [104, 0, 0, 104],
      "AngioFlag": "N",
      "BitsAllocated": 16,
      "BitsStored": 16,
      "BodyPartExamined": "BRAIN",
      "Columns": 832,
      "EchoNumbers": 1,
      "EchoTime": 37.0,
      "EchoTrainLength": 104,
      "FlipAngle": 52.0,
      "HighBit": 15,
      "ImageOrientationPatient": [0.99977151431718, 0.0156468601878, 0.01456347919241, -0.0068053533423, 0.87885136386444, -0.4770471333102],
      "ImagePositionPatient": [-828.98775977617, -779.62768903744, 347.63118400898],
      "ImageType": [
        "ORIGINAL",
        "PRIMARY",
        "P",
        "MB",
        "ND",
        "MOSAIC"
],
      "ImagedNucleus": "1H",
      "ImagingFrequency": 123.258922,
      "InPlanePhaseEncodingDirection": "COL",
      "LargestImagePixelValue": 4095,
      "MRAcquisitionType": "2D",
      "MagneticFieldStrength": 3.0,
      "Manufacturer": "SIEMENS",
      "ManufacturerModelName": "Prisma_fit",
      "Modality": "MR",
      "NumberOfAverages": 1.0,
      "NumberOfPhaseEncodingSteps": 104,
      "PercentPhaseFieldOfView": 100.0,
      "PercentSampling": 100.0,
      "PerformedProcedureStepStartTime": "103048.683000",
      "PhotometricInterpretation": "MONOCHROME2",
      "PixelBandwidth": 2290.0,
      "PixelRepresentation": 0,
      "PixelSpacing": [2.0, 2.0],
      "ProtocolName": "func_task-things_run-3",
      "RepetitionTime": 1490.0,
      "RescaleIntercept": -4096.0,
      "RescaleSlope": 2.0,
      "RescaleType": "US",
      "Rows": 832,
      "SAR": 0.03712002641745,
      "SamplesPerPixel": 1,
      "ScanOptions": "FS",
      "ScanningSequence": "EP",
      "SequenceName": "epfid2d1_104",
      "SequenceVariant": [
        "SK",
        "SS"
],
      "SeriesDescription": "func_task-things_run-3",
      "SeriesNumber": 17,
      "SeriesTime": "105738.549000",
      "SliceLocation": -49.475426638767,
      "SliceThickness": 2.0,
      "SmallestImagePixelValue": 0,
      "SoftwareVersions": "syngo MR E11",
      "SpacingBetweenSlices": 2.000000018532,
      "SpecificCharacterSet": "ISO_IR 100",
      "StudyID": "1",
      "StudyTime": "103048.603000",
      "TransmitCoilName": "Body",
      "VariableFlipAngleFlag": "N",
      "WindowCenterWidthExplanation": "Algo1",
      "dBdt": 0.0},
    "slices": {}
  },
  "time": {
    "samples": {
      "AcquisitionNumber": [1, 2, 3, 4, 5, 6, 7, 8, 9, 10, 11, 12, 13, 14, 15, 16, 17, 18, 19, 20, 21, 22, 23, 24, 25, 26, 27, 28, 29, 30, 31, 32, 33, 34, 35, 36, 37, 38, 39, 40, 41, 42, 43, 44, 45, 46, 47, 48, 49, 50, 51, 52, 53, 54, 55, 56, 57, 58, 59, 60, 61, 62, 63, 64, 65, 66, 67, 68, 69, 70, 71, 72, 73, 74, 75, 76, 77, 78, 79, 80, 81, 82, 83, 84, 85, 86, 87, 88, 89, 90, 91, 92, 93, 94, 95, 96, 97, 98, 99, 100, 101, 102, 103, 104, 105, 106, 107, 108, 109, 110, 111, 112, 113, 114, 115, 116, 117, 118, 119, 120, 121, 122, 123, 124, 125, 126, 127, 128, 129, 130, 131, 132, 133, 134, 135, 136, 137, 138, 139, 140, 141, 142, 143, 144, 145, 146, 147, 148, 149, 150, 151, 152, 153, 154, 155, 156, 157, 158, 159, 160, 161, 162, 163, 164, 165, 166, 167, 168, 169, 170, 171, 172, 173, 174, 175, 176, 177, 178, 179, 180, 181, 182, 183, 184, 185, 186, 187, 188, 189, 190],
      "AcquisitionTime": ["105607.707500", "105609.197500", "105610.687500", "105612.177500", "105613.667500", "105615.157500", "105616.647500", "105618.137500", "105619.627500", "105621.117500", "105622.607500", "105624.097500", "105625.587500", "105627.077500", "105628.567500", "105630.057500", "105631.547500", "105633.037500", "105634.527500", "105636.017500", "105637.507500", "105638.997500", "105640.487500", "105641.977500", "105643.467500", "105644.957500", "105646.447500", "105647.937500", "105649.427500", "105650.917500", "105652.407500", "105653.897500", "105655.387500", "105656.877500", "105658.367500", "105659.857500", "105701.347500", "105702.837500", "105704.327500", "105705.817500", "105707.307500", "105708.797500", "105710.287500", "105711.777500", "105713.267500", "105714.757500", "105716.247500", "105717.737500", "105719.227500", "105720.717500", "105722.207500", "105723.697500", "105725.187500", "105726.677500", "105728.167500", "105729.657500", "105731.147500", "105732.637500", "105734.127500", "105735.617500", "105737.107500", "105738.597500", "105740.087500", "105741.577500", "105743.067500", "105744.557500", "105746.047500", "105747.537500", "105749.027500", "105750.517500", "105752.007500", "105753.497500", "105754.987500", "105756.477500", "105757.967500", "105759.457500", "105800.947500", "105802.437500", "105803.927500", "105805.417500", "105806.907500", "105808.397500", "105809.887500", "105811.377500", "105812.867500", "105814.357500", "105815.847500", "105817.337500", "105818.827500", "105820.317500", "105821.807500", "105823.297500", "105824.787500", "105826.277500", "105827.767500", "105829.257500", "105830.747500", "105832.237500", "105833.727500", "105835.217500", "105836.707500", "105838.197500", "105839.687500", "105841.177500", "105842.667500", "105844.157500", "105845.647500", "105847.137500", "105848.627500", "105850.117500", "105851.607500", "105853.097500", "105854.587500", "105856.077500", "105857.567500", "105859.057500", "105900.547500", "105902.037500", "105903.527500", "105905.017500", "105906.507500", "105907.997500", "105909.487500", "105910.977500", "105912.467500", "105913.957500", "105915.447500", "105916.937500", "105918.427500", "105919.917500", "105921.407500", "105922.897500", "105924.387500", "105925.877500", "105927.367500", "105928.857500", "105930.347500", "105931.837500", "105933.327500", "105934.817500", "105936.307500", "105937.797500", "105939.287500", "105940.777500", "105942.267500", "105943.757500", "105945.247500", "105946.737500", "105948.227500", "105949.717500", "105951.207500", "105952.697500", "105954.187500", "105955.677500", "105957.167500", "105958.657500", "110000.147500", "110001.637500", "110003.127500", "110004.617500", "110006.107500", "110007.597500", "110009.087500", "110010.577500", "110012.067500", "110013.557500", "110015.047500", "110016.537500", "110018.027500", "110019.517500", "110021.007500", "110022.497500", "110023.987500", "110025.477500", "110026.967500", "110028.457500", "110029.947500", "110031.437500", "110032.927500", "110034.417500", "110035.907500", "110037.397500", "110038.887500", "110040.377500", "110041.867500", "110043.357500", "110044.847500", "110046.337500", "110047.827500", "110049.317500"],
      "ContentTime": ["105738.551000", "105738.554000", "105738.556000", "105738.559000", "105738.561000", "105738.564000", "105738.566000", "105738.569000", "105738.571000", "105738.574000", "105738.579000", "105738.582000", "105738.584000", "105738.587000", "105738.589000", "105738.592000", "105738.594000", "105738.597000", "105738.599000", "105738.602000", "105738.604000", "105738.607000", "105738.609000", "105738.612000", "105738.614000", "105738.617000", "105738.619000", "105738.622000", "105738.624000", "105738.627000", "105738.629000", "105738.632000", "105738.634000", "105738.637000", "105738.639000", "105738.641000", "105738.644000", "105758.462000", "105758.465000", "105758.467000", "105758.470000", "105758.472000", "105758.475000", "105758.477000", "105758.480000", "105758.482000", "105758.485000", "105758.487000", "105758.490000", "105758.492000", "105758.495000", "105758.497000", "105758.500000", "105758.502000", "105758.505000", "105758.507000", "105758.510000", "105758.512000", "105818.445000", "105818.448000", "105818.450000", "105818.453000", "105818.455000", "105818.458000", "105818.460000", "105818.463000", "105818.465000", "105818.468000", "105818.470000", "105818.473000", "105818.475000", "105818.478000", "105818.480000", "105818.483000", "105818.485000", "105818.488000", "105818.490000", "105818.493000", "105838.449000", "105838.452000", "105838.455000", "105838.457000", "105838.460000", "105838.462000", "105838.465000", "105838.467000", "105838.470000", "105838.472000", "105838.475000", "105838.477000", "105838.480000", "105838.482000", "105838.485000", "105838.487000", "105838.489000", "105838.492000", "105838.494000", "105838.497000", "105918.514000", "105918.517000", "105918.519000", "105918.522000", "105918.524000", "105918.527000", "105918.529000", "105918.532000", "105918.534000", "105918.537000", "105918.543000", "105918.545000", "105918.548000", "105918.550000", "105918.553000", "105918.556000", "105918.558000", "105918.561000", "105918.563000", "105918.566000", "105918.568000", "105918.571000", "105918.583000", "105918.585000", "105918.588000", "105918.590000", "105918.593000", "105918.595000", "105918.598000", "105958.476000", "105958.479000", "105958.481000", "105958.484000", "105958.486000", "105958.489000", "105958.491000", "105958.494000", "105958.496000", "105958.499000", "105958.501000", "105958.504000", "105958.506000", "105958.509000", "105958.511000", "105958.514000", "105958.516000", "105958.519000", "105958.521000", "105958.524000", "105958.526000", "105958.529000", "105958.531000", "105958.534000", "105958.536000", "105958.538000", "105958.541000", "110038.502000", "110038.504000", "110038.507000", "110038.509000", "110038.512000", "110038.514000", "110038.517000", "110038.519000", "110038.522000", "110038.524000", "110038.527000", "110038.529000", "110038.532000", "110038.534000", "110038.537000", "110038.539000", "110038.542000", "110038.544000", "110038.547000", "110038.549000", "110038.552000", "110038.554000", "110038.557000", "110038.559000", "110038.562000", "110038.564000", "110051.968000", "110051.971000", "110051.973000", "110051.976000", "110051.978000", "110051.987000", "110051.989000", "110051.992000", "110051.994000", "110051.997000"],
      "InstanceCreationTime": ["105738.551000", "105738.554000", "105738.556000", "105738.559000", "105738.561000", "105738.564000", "105738.566000", "105738.569000", "105738.571000", "105738.574000", "105738.579000", "105738.582000", "105738.584000", "105738.587000", "105738.589000", "105738.592000", "105738.594000", "105738.597000", "105738.599000", "105738.602000", "105738.604000", "105738.607000", "105738.609000", "105738.612000", "105738.614000", "105738.617000", "105738.619000", "105738.622000", "105738.624000", "105738.627000", "105738.629000", "105738.632000", "105738.634000", "105738.637000", "105738.639000", "105738.641000", "105738.644000", "105758.462000", "105758.465000", "105758.467000", "105758.470000", "105758.472000", "105758.475000", "105758.477000", "105758.480000", "105758.482000", "105758.485000", "105758.487000", "105758.490000", "105758.492000", "105758.495000", "105758.497000", "105758.500000", "105758.502000", "105758.505000", "105758.507000", "105758.510000", "105758.512000", "105818.445000", "105818.448000", "105818.450000", "105818.453000", "105818.455000", "105818.458000", "105818.460000", "105818.463000", "105818.465000", "105818.468000", "105818.470000", "105818.473000", "105818.475000", "105818.478000", "105818.480000", "105818.483000", "105818.485000", "105818.488000", "105818.490000", "105818.493000", "105838.449000", "105838.452000", "105838.455000", "105838.457000", "105838.460000", "105838.462000", "105838.465000", "105838.467000", "105838.470000", "105838.472000", "105838.475000", "105838.477000", "105838.480000", "105838.482000", "105838.485000", "105838.487000", "105838.489000", "105838.492000", "105838.494000", "105838.497000", "105918.514000", "105918.517000", "105918.519000", "105918.522000", "105918.524000", "105918.527000", "105918.529000", "105918.532000", "105918.534000", "105918.537000", "105918.543000", "105918.545000", "105918.548000", "105918.550000", "105918.553000", "105918.556000", "105918.558000", "105918.561000", "105918.563000", "105918.566000", "105918.568000", "105918.571000", "105918.583000", "105918.585000", "105918.588000", "105918.590000", "105918.593000", "105918.595000", "105918.598000", "105958.476000", "105958.479000", "105958.481000", "105958.484000", "105958.486000", "105958.489000", "105958.491000", "105958.494000", "105958.496000", "105958.499000", "105958.501000", "105958.504000", "105958.506000", "105958.509000", "105958.511000", "105958.514000", "105958.516000", "105958.519000", "105958.521000", "105958.524000", "105958.526000", "105958.529000", "105958.531000", "105958.534000", "105958.536000", "105958.538000", "105958.541000", "110038.502000", "110038.504000", "110038.507000", "110038.509000", "110038.512000", "110038.514000", "110038.517000", "110038.519000", "110038.522000", "110038.524000", "110038.527000", "110038.529000", "110038.532000", "110038.534000", "110038.537000", "110038.539000", "110038.542000", "110038.544000", "110038.547000", "110038.549000", "110038.552000", "110038.554000", "110038.557000", "110038.559000", "110038.562000", "110038.564000", "110051.968000", "110051.971000", "110051.973000", "110051.976000", "110051.978000", "110051.987000", "110051.989000", "110051.992000", "110051.994000", "110051.997000"],
      "InstanceNumber": [1, 2, 3, 4, 5, 6, 7, 8, 9, 10, 11, 12, 13, 14, 15, 16, 17, 18, 19, 20, 21, 22, 23, 24, 25, 26, 27, 28, 29, 30, 31, 32, 33, 34, 35, 36, 37, 38, 39, 40, 41, 42, 43, 44, 45, 46, 47, 48, 49, 50, 51, 52, 53, 54, 55, 56, 57, 58, 59, 60, 61, 62, 63, 64, 65, 66, 67, 68, 69, 70, 71, 72, 73, 74, 75, 76, 77, 78, 79, 80, 81, 82, 83, 84, 85, 86, 87, 88, 89, 90, 91, 92, 93, 94, 95, 96, 97, 98, 99, 100, 101, 102, 103, 104, 105, 106, 107, 108, 109, 110, 111, 112, 113, 114, 115, 116, 117, 118, 119, 120, 121, 122, 123, 124, 125, 126, 127, 128, 129, 130, 131, 132, 133, 134, 135, 136, 137, 138, 139, 140, 141, 142, 143, 144, 145, 146, 147, 148, 149, 150, 151, 152, 153, 154, 155, 156, 157, 158, 159, 160, 161, 162, 163, 164, 165, 166, 167, 168, 169, 170, 171, 172, 173, 174, 175, 176, 177, 178, 179, 180, 181, 182, 183, 184, 185, 186, 187, 188, 189, 190],
      "WindowCenter": [4832.0, 4832.0, 4834.0, 4828.0, 4836.0, 4826.0, 4824.0, 4820.0, 4824.0, 4824.0, 4822.0, 4834.0, 4830.0, 4828.0, 4830.0, 4826.0, 4856.0, 4854.0, 4824.0, 4834.0, 4820.0, 4826.0, 4824.0, 4820.0, 4828.0, 4824.0, 4832.0, 4828.0, 4834.0, 4832.0, 4828.0, 4834.0, 4828.0, 4824.0, 4832.0, 4824.0, 4828.0, 4834.0, 4828.0, 4826.0, 4822.0, 4832.0, 4822.0, 4836.0, 4828.0, 4830.0, 4838.0, 4828.0, 4828.0, 4826.0, 4826.0, 4832.0, 4826.0, 4836.0, 4828.0, 4858.0, 4832.0, 4828.0, 4836.0, 4824.0, 4828.0, 4828.0, 4826.0, 4830.0, 4828.0, 4834.0, 4830.0, 4858.0, 4858.0, 4828.0, 4836.0, 4828.0, 4822.0, 4834.0, 4824.0, 4826.0, 4832.0, 4826.0, 4856.0, 4858.0, 4860.0, 4828.0, 4788.0, 4760.0, 4786.0, 4820.0, 4836.0, 4832.0, 4832.0, 4832.0, 4828.0, 4832.0, 4828.0, 4798.0, 4834.0, 4838.0, 4828.0, 4822.0, 4830.0, 4822.0, 4830.0, 4856.0, 4830.0, 4832.0, 4856.0, 4826.0, 4824.0, 4824.0, 4824.0, 4830.0, 4836.0, 4832.0, 4834.0, 4860.0, 4828.0, 4832.0, 4796.0, 4796.0, 4798.0, 4794.0, 4828.0, 4830.0, 4832.0, 4858.0, 4858.0, 4830.0, 4826.0, 4832.0, 4830.0, 4822.0, 4858.0, 4828.0, 4826.0, 4832.0, 4826.0, 4836.0, 4834.0, 4824.0, 4856.0, 4834.0, 4834.0, 4824.0, 4856.0, 4838.0, 4826.0, 4824.0, 4828.0, 4822.0, 4822.0, 4860.0, 4832.0, 4856.0, 4862.0, 4838.0, 4824.0, 4798.0, 4790.0, 4828.0, 4830.0, 4828.0, 4832.0, 4836.0, 4832.0, 4832.0, 4838.0, 4824.0, 4798.0, 4798.0, 4824.0, 4862.0, 4836.0, 4828.0, 4858.0, 4866.0, 4860.0, 4802.0, 4790.0, 4758.0, 4792.0, 4830.0, 4828.0, 4858.0, 4836.0, 4834.0, 4852.0, 4834.0, 4862.0, 4864.0, 4834.0, 4790.0],
      "WindowWidth": [18606.0, 18610.0, 18598.0, 18608.0, 18596.0, 18612.0, 18604.0, 18602.0, 18610.0, 18610.0, 18610.0, 18602.0, 18612.0, 18610.0, 18608.0, 18608.0, 18622.0, 18642.0, 18610.0, 18604.0, 18606.0, 18608.0, 18606.0, 18608.0, 18606.0, 18610.0, 18610.0, 18608.0, 18604.0, 18612.0, 18612.0, 18610.0, 18618.0, 18608.0, 18608.0, 18606.0, 18606.0, 18610.0, 18604.0, 18608.0, 18604.0, 18606.0, 18610.0, 18606.0, 18614.0, 18608.0, 18600.0, 18614.0, 18612.0, 18610.0, 18604.0, 18610.0, 18606.0, 18602.0, 18608.0, 18636.0, 18604.0, 18612.0, 18602.0, 18608.0, 18610.0, 18610.0, 18608.0, 18604.0, 18614.0, 18606.0, 18612.0, 18634.0, 18636.0, 18616.0, 18608.0, 18612.0, 18604.0, 18610.0, 18616.0, 18606.0, 18606.0, 18612.0, 18640.0, 18602.0, 18620.0, 18612.0, 18572.0, 18538.0, 18572.0, 18606.0, 18606.0, 18606.0, 18590.0, 18584.0, 18606.0, 18608.0, 18608.0, 18580.0, 18602.0, 18602.0, 18612.0, 18604.0, 18604.0, 18610.0, 18608.0, 18628.0, 18604.0, 18610.0, 18636.0, 18604.0, 18610.0, 18606.0, 18610.0, 18610.0, 18600.0, 18606.0, 18584.0, 18622.0, 18604.0, 18606.0, 18576.0, 18566.0, 18574.0, 18572.0, 18608.0, 18602.0, 18606.0, 18636.0, 18634.0, 18608.0, 18608.0, 18598.0, 18604.0, 18612.0, 18634.0, 18610.0, 18608.0, 18606.0, 18614.0, 18608.0, 18606.0, 18614.0, 18642.0, 18604.0, 18614.0, 18614.0, 18632.0, 18600.0, 18616.0, 18610.0, 18608.0, 18608.0, 18610.0, 18634.0, 18606.0, 18638.0, 18620.0, 18602.0, 18606.0, 18576.0, 18574.0, 18606.0, 18604.0, 18608.0, 18608.0, 18598.0, 18610.0, 18606.0, 18606.0, 18606.0, 18570.0, 18576.0, 18606.0, 18620.0, 18604.0, 18610.0, 18620.0, 18604.0, 18626.0, 18572.0, 18566.0, 18538.0, 18564.0, 18614.0, 18610.0, 18624.0, 18592.0, 18606.0, 18642.0, 18606.0, 18608.0, 18614.0, 18604.0, 18570.0]
    },
    "slices": {}
  }
}