{
  "AcquisitionMatrixPE": 104,
  "AcquisitionNumber": 1,
  "AcquisitionTime": "10:43:53.655000",
  "BandwidthPerPixelPhaseEncode": 17.17,
  "BaseResolution": 104,
  "BodyPartExamined": "BRAIN",
  "CoilString": "HC1-7;NC1_2",
  "ConsistencyInfo": "N4_VE11C_LATEST_20160120",
  "ConversionSoftware": "dcm2niix",
  "ConversionSoftwareVersion": "v1.0.20190902",
  "DerivedVendorReportedEchoSpacing": 0.000560011,
  "DeviceSerialNumber": "167006",
  "DwellTime": 2.1e-06,
  "EchoTime": 0.037,
  "EchoTrainLength": 104,
  "EffectiveEchoSpacing": 0.000560011,
  "FlipAngle": 52,
  "ImageComments": "Unaliased_MB4_PE3_LB",
  "ImageOrientationPatientDICOM": [0.999772, 0.0156469, 0.0145635, -0.00680535, 0.878851, -0.477047],
  "ImageType": [
    "ORIGINAL",
    "PRIMARY",
    "M",
    "MB",
    "ND",
    "MOSAIC"
],
  "ImagingFrequency": 123.259,
  "InPlanePhaseEncodingDirectionDICOM": "COL",
  "InstitutionAddress": "Chemin_Queen-Mary_4565_Montreal_District_CA_H3W_1W5",
  "InstitutionName": "IUGM",
  "InstitutionalDepartmentName": "Department",
  "MRAcquisitionType": "2D",
  "MagneticFieldStrength": 3,
  "Manufacturer": "Siemens",
  "ManufacturersModelName": "Prisma_fit",
  "Modality": "MR",
  "MultibandAccelerationFactor": 4,
  "PartialFourier": 1,
  "PatientPosition": "HFS",
  "PercentPhaseFOV": 100,
  "PhaseEncodingDirection": "j",
  "PhaseEncodingSteps": 104,
  "PhaseResolution": 1,
  "PixelBandwidth": 2290,
  "ProcedureStepDescription": "memory_things",
  "ProtocolName": "func_task-things_run-1",
  "PulseSequenceDetails": "%CustomerSeq%_cmrr_mbep2d_bold",
  "ReceiveCoilActiveElements": "HC1-7;NC1,2",
  "ReceiveCoilName": "HeadNeck_64",
  "ReconMatrixPE": 104,
  "RepetitionTime": 1.49,
  "SAR": 0.03712,
  "ScanOptions": "FS",
  "ScanningSequence": "EP",
  "SequenceName": "epfid2d1_104",
  "SequenceVariant": "SK_SS",
  "SeriesDescription": "func_task-things_run-1",
  "SeriesNumber": 10,
  "ShimSetting": [613, -7201, -8851, 342, -12, -118, -19, -32],
  "SliceThickness": 2,
  "SliceTiming": [0, 0.785, 0.0975, 0.8825, 0.1975, 0.98, 0.295, 1.0775, 0.3925, 1.1775, 0.49, 1.275, 0.5875, 1.3725, 0.6875, 0, 0.785, 0.0975, 0.8825, 0.1975, 0.98, 0.295, 1.0775, 0.3925, 1.1775, 0.49, 1.275, 0.5875, 1.3725, 0.6875, 0, 0.785, 0.0975, 0.8825, 0.1975, 0.98, 0.295, 1.0775, 0.3925, 1.1775, 0.49, 1.275, 0.5875, 1.3725, 0.6875, 0, 0.785, 0.0975, 0.8825, 0.1975, 0.98, 0.295, 1.0775, 0.3925, 1.1775, 0.49, 1.275, 0.5875, 1.3725, 0.6875],
  "SoftwareVersions": "syngo_MR_E11",
  "SpacingBetweenSlices": 2,
  "StationName": "MRC35049",
  "TaskName": "things",
  "TotalReadoutTime": 0.0576811,
  "TxRefAmp": 254.242,
  "WipMemBlock": "0c1cd999-30ee-4a20-b0ff-7712ce506ae0||Sequence: R016 ve11c/master r/e634e98; Dec 19 2017 11:00:25 by eja",
  "dcmmeta_affine": [
    [-1.9995430707931519, -0.01361070666462183, 0.040526848286390305, 107.51029968261719],
    [-0.03129372000694275, 1.7577027082443237, -0.9536780714988708, -52.61039733886719],
    [0.029126958921551704, 0.9540942907333374, 1.7575141191482544, -87.32862854003906],
    [0.0, 0.0, 0.0, 1.0]
],
  "dcmmeta_reorient_transform": [
    [0.0, -1.0, 0.0, 103.0],
    [1.0, 0.0, 0.0, 0.0],
    [0.0, 0.0, 1.0, 0.0],
    [0.0, 0.0, 0.0, 1.0]
],
  "dcmmeta_shape": [104, 104, 60, 190],
  "dcmmeta_slice_dim": 2,
  "dcmmeta_version": 0.6,
  "global": {
    "const": {
      "AcquisitionMatrix": [104, 0, 0, 104],
      "AngioFlag": "N",
      "BitsAllocated": 16,
      "BitsStored": 16,
      "BodyPartExamined": "BRAIN",
      "Columns": 832,
      "EchoNumbers": 1,
      "EchoTime": 37.0,
      "EchoTrainLength": 104,
      "FlipAngle": 52.0,
      "HighBit": 15,
      "ImageOrientationPatient": [0.99977151431718, 0.0156468601878, 0.01456347919241, -0.0068053533423, 0.87885136386444, -0.4770471333102],
      "ImagePositionPatient": [-828.98775977617, -779.62768903744, 347.63118400898],
      "ImageType": [
        "ORIGINAL",
        "PRIMARY",
        "M",
        "MB",
        "ND",
        "MOSAIC"
],
      "ImagedNucleus": "1H",
      "ImagingFrequency": 123.258914,
      "InPlanePhaseEncodingDirection": "COL",
      "MRAcquisitionType": "2D",
      "MagneticFieldStrength": 3.0,
      "Manufacturer": "SIEMENS",
      "ManufacturerModelName": "Prisma_fit",
      "Modality": "MR",
      "NumberOfAverages": 1.0,
      "NumberOfPhaseEncodingSteps": 104,
      "PercentPhaseFieldOfView": 100.0,
      "PercentSampling": 100.0,
      "PerformedProcedureStepStartTime": "103048.683000",
      "PhotometricInterpretation": "MONOCHROME2",
      "PixelBandwidth": 2290.0,
      "PixelRepresentation": 0,
      "PixelSpacing": [2.0, 2.0],
      "ProtocolName": "func_task-things_run-1",
      "RepetitionTime": 1490.0,
      "Rows": 832,
      "SAR": 0.03712002641745,
      "SamplesPerPixel": 1,
      "ScanOptions": "FS",
      "ScanningSequence": "EP",
      "SequenceName": "epfid2d1_104",
      "SequenceVariant": [
        "SK",
        "SS"
],
      "SeriesDescription": "func_task-things_run-1",
      "SeriesNumber": 10,
      "SeriesTime": "104521.845000",
      "SliceLocation": -49.475426638767,
      "SliceThickness": 2.0,
      "SmallestImagePixelValue": 0,
      "SoftwareVersions": "syngo MR E11",
      "SpacingBetweenSlices": 2.000000018532,
      "SpecificCharacterSet": "ISO_IR 100",
      "StudyID": "1",
      "StudyTime": "103048.603000",
      "TransmitCoilName": "Body",
      "VariableFlipAngleFlag": "N",
      "WindowCenterWidthExplanation": "Algo1",
      "dBdt": 0.0},
    "slices": {}
  },
  "time": {
    "samples": {
      "AcquisitionNumber": [1, 2, 3, 4, 5, 6, 7, 8, 9, 10, 11, 12, 13, 14, 15, 16, 17, 18, 19, 20, 21, 22, 23, 24, 25, 26, 27, 28, 29, 30, 31, 32, 33, 34, 35, 36, 37, 38, 39, 40, 41, 42, 43, 44, 45, 46, 47, 48, 49, 50, 51, 52, 53, 54, 55, 56, 57, 58, 59, 60, 61, 62, 63, 64, 65, 66, 67, 68, 69, 70, 71, 72, 73, 74, 75, 76, 77, 78, 79, 80, 81, 82, 83, 84, 85, 86, 87, 88, 89, 90, 91, 92, 93, 94, 95, 96, 97, 98, 99, 100, 101, 102, 103, 104, 105, 106, 107, 108, 109, 110, 111, 112, 113, 114, 115, 116, 117, 118, 119, 120, 121, 122, 123, 124, 125, 126, 127, 128, 129, 130, 131, 132, 133, 134, 135, 136, 137, 138, 139, 140, 141, 142, 143, 144, 145, 146, 147, 148, 149, 150, 151, 152, 153, 154, 155, 156, 157, 158, 159, 160, 161, 162, 163, 164, 165, 166, 167, 168, 169, 170, 171, 172, 173, 174, 175, 176, 177, 178, 179, 180, 181, 182, 183, 184, 185, 186, 187, 188, 189, 190],
      "AcquisitionTime": ["104353.655000", "104355.145000", "104356.635000", "104358.125000", "104359.615000", "104401.105000", "104402.595000", "104404.085000", "104405.575000", "104407.065000", "104408.555000", "104410.045000", "104411.535000", "104413.025000", "104414.515000", "104416.005000", "104417.495000", "104418.985000", "104420.475000", "104421.965000", "104423.455000", "104424.945000", "104426.435000", "104427.925000", "104429.415000", "104430.905000", "104432.395000", "104433.885000", "104435.375000", "104436.865000", "104438.355000", "104439.845000", "104441.335000", "104442.825000", "104444.315000", "104445.805000", "104447.295000", "104448.785000", "104450.275000", "104451.765000", "104453.255000", "104454.745000", "104456.235000", "104457.725000", "104459.215000", "104500.705000", "104502.195000", "104503.685000", "104505.175000", "104506.665000", "104508.155000", "104509.645000", "104511.135000", "104512.625000", "104514.115000", "104515.605000", "104517.095000", "104518.585000", "104520.075000", "104521.565000", "104523.055000", "104524.545000", "104526.035000", "104527.525000", "104529.015000", "104530.505000", "104531.995000", "104533.485000", "104534.975000", "104536.465000", "104537.955000", "104539.445000", "104540.935000", "104542.425000", "104543.915000", "104545.405000", "104546.895000", "104548.385000", "104549.875000", "104551.365000", "104552.855000", "104554.345000", "104555.835000", "104557.325000", "104558.815000", "104600.305000", "104601.795000", "104603.285000", "104604.775000", "104606.265000", "104607.755000", "104609.245000", "104610.735000", "104612.225000", "104613.715000", "104615.205000", "104616.695000", "104618.185000", "104619.675000", "104621.165000", "104622.655000", "104624.145000", "104625.635000", "104627.125000", "104628.615000", "104630.105000", "104631.595000", "104633.085000", "104634.575000", "104636.065000", "104637.555000", "104639.045000", "104640.535000", "104642.025000", "104643.515000", "104645.005000", "104646.495000", "104647.985000", "104649.475000", "104650.965000", "104652.455000", "104653.945000", "104655.435000", "104656.925000", "104658.415000", "104659.905000", "104701.395000", "104702.885000", "104704.375000", "104705.865000", "104707.355000", "104708.845000", "104710.335000", "104711.825000", "104713.315000", "104714.805000", "104716.295000", "104717.785000", "104719.275000", "104720.765000", "104722.255000", "104723.745000", "104725.235000", "104726.725000", "104728.215000", "104729.705000", "104731.195000", "104732.685000", "104734.175000", "104735.665000", "104737.155000", "104738.645000", "104740.135000", "104741.625000", "104743.115000", "104744.605000", "104746.095000", "104747.585000", "104749.075000", "104750.565000", "104752.055000", "104753.545000", "104755.035000", "104756.525000", "104758.015000", "104759.505000", "104800.995000", "104802.485000", "104803.975000", "104805.465000", "104806.955000", "104808.445000", "104809.935000", "104811.425000", "104812.915000", "104814.405000", "104815.895000", "104817.385000", "104818.875000", "104820.365000", "104821.855000", "104823.345000", "104824.835000", "104826.325000", "104827.815000", "104829.305000", "104830.795000", "104832.285000", "104833.775000", "104835.265000"],
      "ContentTime": ["104521.848000", "104521.852000", "104521.856000", "104521.859000", "104521.862000", "104521.866000", "104521.869000", "104521.873000", "104521.876000", "104521.879000", "104521.883000", "104521.886000", "104521.889000", "104521.893000", "104521.896000", "104521.899000", "104521.903000", "104521.906000", "104521.909000", "104521.913000", "104521.916000", "104521.919000", "104521.923000", "104521.926000", "104521.929000", "104521.933000", "104521.936000", "104521.939000", "104521.943000", "104521.946000", "104521.949000", "104521.953000", "104521.956000", "104541.809000", "104541.813000", "104541.816000", "104541.820000", "104541.823000", "104541.826000", "104541.830000", "104541.833000", "104541.837000", "104541.840000", "104541.844000", "104541.847000", "104541.850000", "104541.854000", "104541.870000", "104541.874000", "104541.877000", "104541.887000", "104541.890000", "104541.893000", "104601.809000", "104601.813000", "104601.816000", "104601.819000", "104601.823000", "104601.826000", "104601.830000", "104601.833000", "104601.836000", "104601.840000", "104601.843000", "104601.846000", "104601.850000", "104601.853000", "104601.856000", "104601.860000", "104601.863000", "104601.867000", "104601.870000", "104601.873000", "104621.809000", "104621.850000", "104621.853000", "104621.856000", "104621.859000", "104621.863000", "104621.866000", "104621.870000", "104621.873000", "104621.877000", "104621.880000", "104621.883000", "104621.887000", "104621.890000", "104621.893000", "104621.897000", "104621.900000", "104621.903000", "104621.907000", "104621.910000", "104621.913000", "104701.809000", "104701.813000", "104701.816000", "104701.820000", "104701.823000", "104701.826000", "104701.829000", "104701.833000", "104701.836000", "104701.839000", "104701.843000", "104701.846000", "104701.849000", "104701.853000", "104701.856000", "104701.859000", "104701.863000", "104701.866000", "104701.869000", "104701.873000", "104701.876000", "104701.879000", "104701.883000", "104701.886000", "104701.889000", "104701.893000", "104701.896000", "104701.899000", "104701.903000", "104701.906000", "104701.909000", "104701.912000", "104741.809000", "104741.813000", "104741.816000", "104741.819000", "104741.823000", "104741.826000", "104741.829000", "104741.833000", "104741.836000", "104741.839000", "104741.843000", "104741.846000", "104741.849000", "104741.853000", "104741.856000", "104741.859000", "104741.864000", "104741.869000", "104741.873000", "104741.876000", "104741.881000", "104741.884000", "104741.901000", "104741.904000", "104741.908000", "104741.911000", "104821.809000", "104821.813000", "104821.816000", "104821.819000", "104821.823000", "104821.826000", "104821.829000", "104821.833000", "104821.836000", "104821.839000", "104821.843000", "104821.846000", "104821.849000", "104821.853000", "104821.856000", "104821.860000", "104821.863000", "104821.866000", "104821.869000", "104821.873000", "104821.876000", "104821.879000", "104821.883000", "104821.886000", "104821.889000", "104821.892000", "104821.896000", "104837.074000", "104837.077000", "104837.081000", "104837.085000", "104837.088000", "104837.091000", "104837.095000", "104837.098000", "104837.101000", "104837.105000", "104837.108000"],
      "InstanceCreationTime": ["104521.848000", "104521.852000", "104521.856000", "104521.859000", "104521.862000", "104521.866000", "104521.869000", "104521.873000", "104521.876000", "104521.879000", "104521.883000", "104521.886000", "104521.889000", "104521.893000", "104521.896000", "104521.899000", "104521.903000", "104521.906000", "104521.909000", "104521.913000", "104521.916000", "104521.919000", "104521.923000", "104521.926000", "104521.929000", "104521.933000", "104521.936000", "104521.939000", "104521.943000", "104521.946000", "104521.949000", "104521.953000", "104521.956000", "104541.809000", "104541.813000", "104541.816000", "104541.820000", "104541.823000", "104541.826000", "104541.830000", "104541.833000", "104541.837000", "104541.840000", "104541.844000", "104541.847000", "104541.850000", "104541.854000", "104541.870000", "104541.874000", "104541.877000", "104541.887000", "104541.890000", "104541.893000", "104601.809000", "104601.813000", "104601.816000", "104601.819000", "104601.823000", "104601.826000", "104601.830000", "104601.833000", "104601.836000", "104601.840000", "104601.843000", "104601.846000", "104601.850000", "104601.853000", "104601.856000", "104601.860000", "104601.863000", "104601.867000", "104601.870000", "104601.873000", "104621.809000", "104621.850000", "104621.853000", "104621.856000", "104621.859000", "104621.863000", "104621.866000", "104621.870000", "104621.873000", "104621.877000", "104621.880000", "104621.883000", "104621.887000", "104621.890000", "104621.893000", "104621.897000", "104621.900000", "104621.903000", "104621.907000", "104621.910000", "104621.913000", "104701.809000", "104701.813000", "104701.816000", "104701.820000", "104701.823000", "104701.826000", "104701.829000", "104701.833000", "104701.836000", "104701.839000", "104701.843000", "104701.846000", "104701.849000", "104701.853000", "104701.856000", "104701.859000", "104701.863000", "104701.866000", "104701.869000", "104701.873000", "104701.876000", "104701.879000", "104701.883000", "104701.886000", "104701.889000", "104701.893000", "104701.896000", "104701.899000", "104701.903000", "104701.906000", "104701.909000", "104701.912000", "104741.809000", "104741.813000", "104741.816000", "104741.819000", "104741.823000", "104741.826000", "104741.829000", "104741.833000", "104741.836000", "104741.839000", "104741.843000", "104741.846000", "104741.849000", "104741.853000", "104741.856000", "104741.859000", "104741.864000", "104741.869000", "104741.873000", "104741.876000", "104741.881000", "104741.884000", "104741.901000", "104741.904000", "104741.908000", "104741.911000", "104821.809000", "104821.813000", "104821.816000", "104821.819000", "104821.823000", "104821.826000", "104821.829000", "104821.833000", "104821.836000", "104821.839000", "104821.843000", "104821.846000", "104821.849000", "104821.853000", "104821.856000", "104821.860000", "104821.863000", "104821.866000", "104821.869000", "104821.873000", "104821.876000", "104821.879000", "104821.883000", "104821.886000", "104821.889000", "104821.892000", "104821.896000", "104837.074000", "104837.077000", "104837.081000", "104837.085000", "104837.088000", "104837.091000", "104837.095000", "104837.098000", "104837.101000", "104837.105000", "104837.108000"],
      "InstanceNumber": [1, 2, 3, 4, 5, 6, 7, 8, 9, 10, 11, 12, 13, 14, 15, 16, 17, 18, 19, 20, 21, 22, 23, 24, 25, 26, 27, 28, 29, 30, 31, 32, 33, 34, 35, 36, 37, 38, 39, 40, 41, 42, 43, 44, 45, 46, 47, 48, 49, 50, 51, 52, 53, 54, 55, 56, 57, 58, 59, 60, 61, 62, 63, 64, 65, 66, 67, 68, 69, 70, 71, 72, 73, 74, 75, 76, 77, 78, 79, 80, 81, 82, 83, 84, 85, 86, 87, 88, 89, 90, 91, 92, 93, 94, 95, 96, 97, 98, 99, 100, 101, 102, 103, 104, 105, 106, 107, 108, 109, 110, 111, 112, 113, 114, 115, 116, 117, 118, 119, 120, 121, 122, 123, 124, 125, 126, 127, 128, 129, 130, 131, 132, 133, 134, 135, 136, 137, 138, 139, 140, 141, 142, 143, 144, 145, 146, 147, 148, 149, 150, 151, 152, 153, 154, 155, 156, 157, 158, 159, 160, 161, 162, 163, 164, 165, 166, 167, 168, 169, 170, 171, 172, 173, 174, 175, 176, 177, 178, 179, 180, 181, 182, 183, 184, 185, 186, 187, 188, 189, 190],
      "LargestImagePixelValue": [49812, 47462, 46652, 46649, 46917, 46294, 45772, 45822, 45860, 45901, 45688, 46227, 45683, 45801, 46294, 45861, 46920, 46178, 44902, 46404, 44702, 45726, 45785, 46259, 46282, 46441, 45995, 45710, 46159, 45006, 46118, 44460, 45716, 45648, 45786, 45453, 46002, 46278, 45191, 46260, 45210, 45564, 45723, 46601, 45821, 46764, 46249, 46533, 45480, 46598, 46468, 46130, 46121, 46123, 45981, 46732, 46433, 46255, 46144, 45808, 46596, 45382, 46504, 45544, 46780, 46514, 46204, 45717, 46410, 46320, 46591, 46398, 45639, 46394, 46040, 46757, 45752, 45905, 45856, 46072, 46058, 45408, 46423, 45799, 46029, 45621, 46401, 46091, 46797, 45604, 46416, 46476, 45450, 46240, 46045, 46655, 45862, 44896, 46087, 46668, 46071, 46081, 46731, 46457, 46416, 46094, 46399, 45212, 46572, 44941, 46564, 45561, 46498, 45607, 46672, 46370, 46285, 46023, 46049, 45868, 46313, 46604, 44953, 45410, 46191, 45813, 45508, 46645, 45240, 45916, 45894, 46135, 45738, 46339, 46350, 45632, 45870, 45929, 46329, 45717, 45002, 46011, 45215, 45659, 45328, 45600, 45899, 45978, 45903, 45397, 45874, 45011, 45103, 44850, 45324, 45024, 45813, 44878, 45493, 45725, 44835, 45714, 44342, 44400, 44533, 45016, 44387, 44980, 44652, 44478, 44715, 44160, 44727, 44554, 45130, 44742, 44456, 44616, 44215, 44775, 44347, 45066, 44651, 44743, 44090, 44905, 44823, 44445, 44743, 44178],
      "WindowCenter": [11177.0, 11096.0, 11062.0, 11040.0, 11050.0, 11055.0, 11041.0, 11042.0, 11040.0, 11091.0, 11122.0, 11141.0, 11103.0, 11078.0, 11049.0, 11034.0, 11081.0, 11111.0, 11057.0, 11062.0, 11035.0, 10998.0, 10969.0, 11013.0, 11068.0, 11072.0, 11049.0, 11031.0, 11020.0, 11016.0, 11071.0, 11053.0, 11049.0, 11066.0, 11065.0, 11038.0, 11037.0, 11052.0, 11020.0, 11035.0, 11029.0, 11011.0, 11023.0, 11069.0, 11062.0, 11048.0, 11029.0, 11053.0, 11058.0, 11041.0, 11043.0, 11037.0, 11067.0, 11056.0, 11040.0, 11076.0, 11086.0, 11056.0, 11035.0, 11008.0, 11033.0, 11019.0, 11031.0, 11024.0, 11054.0, 11072.0, 11027.0, 11015.0, 10991.0, 11017.0, 11061.0, 11074.0, 11029.0, 11029.0, 11010.0, 11049.0, 11055.0, 11041.0, 11037.0, 11041.0, 11069.0, 11052.0, 11072.0, 11065.0, 11054.0, 11037.0, 11031.0, 11035.0, 11071.0, 11064.0, 11041.0, 11048.0, 11029.0, 11016.0, 11029.0, 11061.0, 11057.0, 11029.0, 11044.0, 11073.0, 11080.0, 11066.0, 11050.0, 11030.0, 11022.0, 11000.0, 11009.0, 11038.0, 11092.0, 11051.0, 11057.0, 11057.0, 11076.0, 11052.0, 11014.0, 11006.0, 11019.0, 11017.0, 10983.0, 10989.0, 11019.0, 11044.0, 11005.0, 10986.0, 10987.0, 11024.0, 11041.0, 11042.0, 11018.0, 10997.0, 10984.0, 10980.0, 10998.0, 11021.0, 11040.0, 11013.0, 11012.0, 11045.0, 11045.0, 11049.0, 11046.0, 11050.0, 11064.0, 11072.0, 11060.0, 11019.0, 10996.0, 11027.0, 11065.0, 11068.0, 11064.0, 11043.0, 11000.0, 10987.0, 11008.0, 11017.0, 11054.0, 11041.0, 11049.0, 11026.0, 10999.0, 11011.0, 10992.0, 11011.0, 11043.0, 11036.0, 11020.0, 11000.0, 10976.0, 10973.0, 10978.0, 10985.0, 11005.0, 10982.0, 11012.0, 11029.0, 11043.0, 11021.0, 11005.0, 11026.0, 11047.0, 11039.0, 11002.0, 10980.0, 11010.0, 11040.0, 11040.0, 11026.0, 11005.0, 10991.0],
      "WindowWidth": [24117.0, 23898.0, 23796.0, 23735.0, 23749.0, 23761.0, 23732.0, 23732.0, 23728.0, 23844.0, 23918.0, 23963.0, 23878.0, 23812.0, 23745.0, 23714.0, 23811.0, 23888.0, 23769.0, 23769.0, 23720.0, 23625.0, 23556.0, 23654.0, 23785.0, 23796.0, 23740.0, 23703.0, 23678.0, 23666.0, 23794.0, 23761.0, 23744.0, 23783.0, 23777.0, 23718.0, 23708.0, 23742.0, 23675.0, 23704.0, 23698.0, 23656.0, 23679.0, 23781.0, 23773.0, 23736.0, 23692.0, 23747.0, 23766.0, 23723.0, 23723.0, 23712.0, 23784.0, 23756.0, 23718.0, 23797.0, 23826.0, 23760.0, 23705.0, 23647.0, 23700.0, 23674.0, 23693.0, 23683.0, 23748.0, 23790.0, 23690.0, 23660.0, 23600.0, 23662.0, 23762.0, 23795.0, 23694.0, 23690.0, 23645.0, 23737.0, 23757.0, 23719.0, 23712.0, 23716.0, 23782.0, 23746.0, 23787.0, 23777.0, 23749.0, 23712.0, 23694.0, 23707.0, 23784.0, 23775.0, 23717.0, 23733.0, 23696.0, 23660.0, 23691.0, 23760.0, 23758.0, 23695.0, 23724.0, 23788.0, 23808.0, 23776.0, 23734.0, 23684.0, 23669.0, 23624.0, 23638.0, 23711.0, 23832.0, 23750.0, 23750.0, 23755.0, 23796.0, 23745.0, 23650.0, 23632.0, 23658.0, 23659.0, 23583.0, 23592.0, 23662.0, 23718.0, 23640.0, 23591.0, 23588.0, 23674.0, 23714.0, 23711.0, 23661.0, 23616.0, 23583.0, 23574.0, 23616.0, 23668.0, 23711.0, 23655.0, 23652.0, 23729.0, 23730.0, 23741.0, 23738.0, 23742.0, 23779.0, 23795.0, 23770.0, 23673.0, 23619.0, 23687.0, 23777.0, 23785.0, 23775.0, 23729.0, 23633.0, 23599.0, 23647.0, 23667.0, 23753.0, 23725.0, 23742.0, 23684.0, 23624.0, 23649.0, 23612.0, 23654.0, 23727.0, 23710.0, 23675.0, 23629.0, 23575.0, 23565.0, 23574.0, 23595.0, 23638.0, 23589.0, 23655.0, 23701.0, 23732.0, 23678.0, 23641.0, 23685.0, 23735.0, 23721.0, 23633.0, 23580.0, 23654.0, 23721.0, 23721.0, 23691.0, 23644.0, 23614.0]
    },
    "slices": {}
  }
}