{
  "AcquisitionMatrixPE": 104,
  "AcquisitionNumber": 1,
  "AcquisitionTime": "11:17:44.602500",
  "BandwidthPerPixelPhaseEncode": 17.17,
  "BaseResolution": 104,
  "BodyPartExamined": "BRAIN",
  "CoilString": "HC1-7;NC1_2",
  "ConsistencyInfo": "N4_VE11C_LATEST_20160120",
  "ConversionSoftware": "dcm2niix",
  "ConversionSoftwareVersion": "v1.0.20190902",
  "DerivedVendorReportedEchoSpacing": 0.000560011,
  "DeviceSerialNumber": "167006",
  "DwellTime": 2.1e-06,
  "EchoTime": 0.037,
  "EchoTrainLength": 104,
  "EffectiveEchoSpacing": 0.000560011,
  "FlipAngle": 52,
  "ImageComments": "Unaliased_MB4_PE3_LB",
  "ImageOrientationPatientDICOM": [0.999772, 0.0156469, 0.0145635, -0.00680535, 0.878851, -0.477047],
  "ImageType": [
    "ORIGINAL",
    "PRIMARY",
    "M",
    "MB",
    "ND",
    "MOSAIC"
],
  "ImagingFrequency": 123.259,
  "InPlanePhaseEncodingDirectionDICOM": "COL",
  "InstitutionAddress": "Chemin_Queen-Mary_4565_Montreal_District_CA_H3W_1W5",
  "InstitutionName": "IUGM",
  "InstitutionalDepartmentName": "Department",
  "MRAcquisitionType": "2D",
  "MagneticFieldStrength": 3,
  "Manufacturer": "Siemens",
  "ManufacturersModelName": "Prisma_fit",
  "Modality": "MR",
  "MultibandAccelerationFactor": 4,
  "PartialFourier": 1,
  "PatientPosition": "HFS",
  "PercentPhaseFOV": 100,
  "PhaseEncodingDirection": "j",
  "PhaseEncodingSteps": 104,
  "PhaseResolution": 1,
  "PixelBandwidth": 2290,
  "ProcedureStepDescription": "memory_things",
  "ProtocolName": "func_task-things_run-6",
  "PulseSequenceDetails": "%CustomerSeq%_cmrr_mbep2d_bold",
  "ReceiveCoilActiveElements": "HC1-7;NC1,2",
  "ReceiveCoilName": "HeadNeck_64",
  "ReconMatrixPE": 104,
  "RepetitionTime": 1.49,
  "SAR": 0.03712,
  "ScanOptions": "FS",
  "ScanningSequence": "EP",
  "SequenceName": "epfid2d1_104",
  "SequenceVariant": "SK_SS",
  "SeriesDescription": "func_task-things_run-6",
  "SeriesNumber": 25,
  "ShimSetting": [613, -7201, -8851, 342, -12, -118, -19, -32],
  "SliceThickness": 2,
  "SliceTiming": [0, 0.785, 0.1, 0.8825, 0.1975, 0.98, 0.295, 1.0775, 0.3925, 1.1775, 0.49, 1.275, 0.59, 1.3725, 0.6875, 0, 0.785, 0.1, 0.8825, 0.1975, 0.98, 0.295, 1.0775, 0.3925, 1.1775, 0.49, 1.275, 0.59, 1.3725, 0.6875, 0, 0.785, 0.1, 0.8825, 0.1975, 0.98, 0.295, 1.0775, 0.3925, 1.1775, 0.49, 1.275, 0.59, 1.3725, 0.6875, 0, 0.785, 0.1, 0.8825, 0.1975, 0.98, 0.295, 1.0775, 0.3925, 1.1775, 0.49, 1.275, 0.59, 1.3725, 0.6875],
  "SoftwareVersions": "syngo_MR_E11",
  "SpacingBetweenSlices": 2,
  "StationName": "MRC35049",
  "TaskName": "things",
  "TotalReadoutTime": 0.0576811,
  "TxRefAmp": 254.242,
  "WipMemBlock": "b2fb7b84-6f0e-4ef4-8499-59f2e87b1dab||Sequence: R016 ve11c/master r/e634e98; Dec 19 2017 11:00:25 by eja",
  "dcmmeta_affine": [
    [-1.9995430707931519, -0.01361070666462183, 0.040526848286390305, 107.51029968261719],
    [-0.03129372000694275, 1.7577027082443237, -0.9536780714988708, -52.61039733886719],
    [0.029126958921551704, 0.9540942907333374, 1.7575141191482544, -87.32862854003906],
    [0.0, 0.0, 0.0, 1.0]
],
  "dcmmeta_reorient_transform": [
    [0.0, -1.0, 0.0, 103.0],
    [1.0, 0.0, 0.0, 0.0],
    [0.0, 0.0, 1.0, 0.0],
    [0.0, 0.0, 0.0, 1.0]
],
  "dcmmeta_shape": [104, 104, 60, 190],
  "dcmmeta_slice_dim": 2,
  "dcmmeta_version": 0.6,
  "global": {
    "const": {
      "AcquisitionMatrix": [104, 0, 0, 104],
      "AngioFlag": "N",
      "BitsAllocated": 16,
      "BitsStored": 16,
      "BodyPartExamined": "BRAIN",
      "Columns": 832,
      "EchoNumbers": 1,
      "EchoTime": 37.0,
      "EchoTrainLength": 104,
      "FlipAngle": 52.0,
      "HighBit": 15,
      "ImageOrientationPatient": [0.99977151431718, 0.0156468601878, 0.01456347919241, -0.0068053533423, 0.87885136386444, -0.4770471333102],
      "ImagePositionPatient": [-828.98775977617, -779.62768903744, 347.63118400898],
      "ImageType": [
        "ORIGINAL",
        "PRIMARY",
        "M",
        "MB",
        "ND",
        "MOSAIC"
],
      "ImagedNucleus": "1H",
      "ImagingFrequency": 123.258926,
      "InPlanePhaseEncodingDirection": "COL",
      "MRAcquisitionType": "2D",
      "MagneticFieldStrength": 3.0,
      "Manufacturer": "SIEMENS",
      "ManufacturerModelName": "Prisma_fit",
      "Modality": "MR",
      "NumberOfAverages": 1.0,
      "NumberOfPhaseEncodingSteps": 104,
      "PercentPhaseFieldOfView": 100.0,
      "PercentSampling": 100.0,
      "PerformedProcedureStepStartTime": "103048.683000",
      "PhotometricInterpretation": "MONOCHROME2",
      "PixelBandwidth": 2290.0,
      "PixelRepresentation": 0,
      "PixelSpacing": [2.0, 2.0],
      "ProtocolName": "func_task-things_run-6",
      "RepetitionTime": 1490.0,
      "Rows": 832,
      "SAR": 0.03712002641745,
      "SamplesPerPixel": 1,
      "ScanOptions": "FS",
      "ScanningSequence": "EP",
      "SequenceName": "epfid2d1_104",
      "SequenceVariant": [
        "SK",
        "SS"
],
      "SeriesDescription": "func_task-things_run-6",
      "SeriesNumber": 25,
      "SeriesTime": "111858.369000",
      "SliceLocation": -49.475426638767,
      "SliceThickness": 2.0,
      "SmallestImagePixelValue": 0,
      "SoftwareVersions": "syngo MR E11",
      "SpacingBetweenSlices": 2.000000018532,
      "SpecificCharacterSet": "ISO_IR 100",
      "StudyID": "1",
      "StudyTime": "103048.603000",
      "TransmitCoilName": "Body",
      "VariableFlipAngleFlag": "N",
      "WindowCenterWidthExplanation": "Algo1",
      "dBdt": 0.0},
    "slices": {}
  },
  "time": {
    "samples": {
      "AcquisitionNumber": [1, 2, 3, 4, 5, 6, 7, 8, 9, 10, 11, 12, 13, 14, 15, 16, 17, 18, 19, 20, 21, 22, 23, 24, 25, 26, 27, 28, 29, 30, 31, 32, 33, 34, 35, 36, 37, 38, 39, 40, 41, 42, 43, 44, 45, 46, 47, 48, 49, 50, 51, 52, 53, 54, 55, 56, 57, 58, 59, 60, 61, 62, 63, 64, 65, 66, 67, 68, 69, 70, 71, 72, 73, 74, 75, 76, 77, 78, 79, 80, 81, 82, 83, 84, 85, 86, 87, 88, 89, 90, 91, 92, 93, 94, 95, 96, 97, 98, 99, 100, 101, 102, 103, 104, 105, 106, 107, 108, 109, 110, 111, 112, 113, 114, 115, 116, 117, 118, 119, 120, 121, 122, 123, 124, 125, 126, 127, 128, 129, 130, 131, 132, 133, 134, 135, 136, 137, 138, 139, 140, 141, 142, 143, 144, 145, 146, 147, 148, 149, 150, 151, 152, 153, 154, 155, 156, 157, 158, 159, 160, 161, 162, 163, 164, 165, 166, 167, 168, 169, 170, 171, 172, 173, 174, 175, 176, 177, 178, 179, 180, 181, 182, 183, 184, 185, 186, 187, 188, 189, 190],
      "AcquisitionTime": ["111744.602500", "111746.092500", "111747.582500", "111749.072500", "111750.562500", "111752.052500", "111753.542500", "111755.032500", "111756.522500", "111758.012500", "111759.502500", "111800.992500", "111802.482500", "111803.972500", "111805.462500", "111806.952500", "111808.442500", "111809.932500", "111811.422500", "111812.912500", "111814.402500", "111815.892500", "111817.382500", "111818.872500", "111820.362500", "111821.852500", "111823.342500", "111824.832500", "111826.322500", "111827.812500", "111829.302500", "111830.792500", "111832.282500", "111833.772500", "111835.262500", "111836.752500", "111838.242500", "111839.732500", "111841.222500", "111842.712500", "111844.202500", "111845.692500", "111847.182500", "111848.672500", "111850.162500", "111851.652500", "111853.142500", "111854.632500", "111856.122500", "111857.612500", "111859.102500", "111900.592500", "111902.082500", "111903.572500", "111905.062500", "111906.552500", "111908.042500", "111909.532500", "111911.022500", "111912.512500", "111914.002500", "111915.492500", "111916.982500", "111918.472500", "111919.962500", "111921.452500", "111922.942500", "111924.432500", "111925.922500", "111927.412500", "111928.902500", "111930.392500", "111931.882500", "111933.372500", "111934.862500", "111936.352500", "111937.842500", "111939.332500", "111940.822500", "111942.312500", "111943.802500", "111945.292500", "111946.782500", "111948.272500", "111949.762500", "111951.252500", "111952.742500", "111954.232500", "111955.722500", "111957.212500", "111958.702500", "112000.192500", "112001.682500", "112003.172500", "112004.662500", "112006.152500", "112007.642500", "112009.132500", "112010.622500", "112012.112500", "112013.602500", "112015.092500", "112016.582500", "112018.072500", "112019.562500", "112021.052500", "112022.542500", "112024.032500", "112025.522500", "112027.012500", "112028.502500", "112029.992500", "112031.482500", "112032.972500", "112034.462500", "112035.952500", "112037.442500", "112038.932500", "112040.422500", "112041.912500", "112043.402500", "112044.892500", "112046.382500", "112047.872500", "112049.362500", "112050.852500", "112052.342500", "112053.832500", "112055.322500", "112056.812500", "112058.302500", "112059.792500", "112101.282500", "112102.772500", "112104.262500", "112105.752500", "112107.242500", "112108.732500", "112110.222500", "112111.712500", "112113.202500", "112114.692500", "112116.182500", "112117.672500", "112119.162500", "112120.652500", "112122.142500", "112123.632500", "112125.122500", "112126.612500", "112128.102500", "112129.592500", "112131.082500", "112132.572500", "112134.062500", "112135.552500", "112137.042500", "112138.532500", "112140.022500", "112141.512500", "112143.002500", "112144.492500", "112145.982500", "112147.472500", "112148.962500", "112150.452500", "112151.942500", "112153.432500", "112154.922500", "112156.412500", "112157.902500", "112159.392500", "112200.882500", "112202.372500", "112203.862500", "112205.352500", "112206.842500", "112208.332500", "112209.822500", "112211.312500", "112212.802500", "112214.292500", "112215.782500", "112217.272500", "112218.762500", "112220.252500", "112221.742500", "112223.232500", "112224.722500", "112226.212500"],
      "ContentTime": ["111858.372000", "111858.376000", "111858.379000", "111858.383000", "111858.386000", "111858.390000", "111858.393000", "111858.397000", "111858.400000", "111858.403000", "111858.406000", "111858.410000", "111858.413000", "111858.417000", "111858.420000", "111858.423000", "111858.427000", "111858.430000", "111858.433000", "111858.436000", "111918.339000", "111918.343000", "111918.346000", "111918.349000", "111918.353000", "111918.356000", "111918.360000", "111918.363000", "111918.366000", "111918.381000", "111918.384000", "111918.387000", "111918.390000", "111918.394000", "111918.397000", "111918.400000", "111918.404000", "111918.407000", "111918.410000", "111918.414000", "111938.339000", "111938.343000", "111938.353000", "111938.357000", "111938.360000", "111938.363000", "111938.367000", "111938.370000", "111938.373000", "111938.377000", "111938.380000", "111938.383000", "111938.387000", "111938.390000", "111938.393000", "111938.397000", "111938.400000", "111938.403000", "111938.407000", "111938.410000", "111938.413000", "111958.338000", "111958.342000", "111958.345000", "111958.349000", "111958.352000", "111958.355000", "111958.359000", "111958.362000", "111958.365000", "111958.369000", "111958.372000", "111958.376000", "111958.379000", "111958.382000", "111958.385000", "111958.389000", "111958.392000", "111958.395000", "111958.399000", "111958.402000", "112018.338000", "112018.342000", "112018.345000", "112018.349000", "112018.352000", "112018.355000", "112018.359000", "112018.362000", "112018.365000", "112018.369000", "112018.372000", "112018.376000", "112018.379000", "112018.382000", "112018.386000", "112018.389000", "112018.392000", "112018.396000", "112018.399000", "112018.403000", "112058.338000", "112058.342000", "112058.345000", "112058.349000", "112058.352000", "112058.356000", "112058.359000", "112058.362000", "112058.366000", "112058.369000", "112058.372000", "112058.376000", "112058.379000", "112058.383000", "112058.386000", "112058.389000", "112058.393000", "112058.396000", "112058.399000", "112058.403000", "112058.406000", "112058.410000", "112058.413000", "112058.417000", "112058.420000", "112058.424000", "112058.427000", "112058.431000", "112138.339000", "112138.343000", "112138.346000", "112138.350000", "112138.353000", "112138.357000", "112138.360000", "112138.363000", "112138.367000", "112138.370000", "112138.373000", "112138.377000", "112138.380000", "112138.383000", "112138.387000", "112138.390000", "112138.394000", "112138.397000", "112138.400000", "112138.404000", "112138.407000", "112138.411000", "112138.414000", "112138.417000", "112138.421000", "112138.424000", "112138.427000", "112218.338000", "112218.342000", "112218.346000", "112218.349000", "112218.352000", "112218.356000", "112218.359000", "112218.362000", "112218.366000", "112218.369000", "112218.373000", "112218.376000", "112218.379000", "112218.383000", "112218.386000", "112218.390000", "112218.393000", "112218.397000", "112218.400000", "112218.403000", "112218.407000", "112218.410000", "112218.413000", "112218.417000", "112218.420000", "112218.424000", "112218.435000", "112227.892000", "112227.896000", "112227.899000", "112227.909000", "112227.912000", "112227.915000", "112227.919000"],
      "InstanceCreationTime": ["111858.372000", "111858.376000", "111858.379000", "111858.383000", "111858.386000", "111858.390000", "111858.393000", "111858.397000", "111858.400000", "111858.403000", "111858.406000", "111858.410000", "111858.413000", "111858.417000", "111858.420000", "111858.423000", "111858.427000", "111858.430000", "111858.433000", "111858.436000", "111918.339000", "111918.343000", "111918.346000", "111918.349000", "111918.353000", "111918.356000", "111918.360000", "111918.363000", "111918.366000", "111918.381000", "111918.384000", "111918.387000", "111918.390000", "111918.394000", "111918.397000", "111918.400000", "111918.404000", "111918.407000", "111918.410000", "111918.414000", "111938.339000", "111938.343000", "111938.353000", "111938.357000", "111938.360000", "111938.363000", "111938.367000", "111938.370000", "111938.373000", "111938.377000", "111938.380000", "111938.383000", "111938.387000", "111938.390000", "111938.393000", "111938.397000", "111938.400000", "111938.403000", "111938.407000", "111938.410000", "111938.413000", "111958.338000", "111958.342000", "111958.345000", "111958.349000", "111958.352000", "111958.355000", "111958.359000", "111958.362000", "111958.365000", "111958.369000", "111958.372000", "111958.376000", "111958.379000", "111958.382000", "111958.385000", "111958.389000", "111958.392000", "111958.395000", "111958.399000", "111958.402000", "112018.338000", "112018.342000", "112018.345000", "112018.349000", "112018.352000", "112018.355000", "112018.359000", "112018.362000", "112018.365000", "112018.369000", "112018.372000", "112018.376000", "112018.379000", "112018.382000", "112018.386000", "112018.389000", "112018.392000", "112018.396000", "112018.399000", "112018.403000", "112058.338000", "112058.342000", "112058.345000", "112058.349000", "112058.352000", "112058.356000", "112058.359000", "112058.362000", "112058.366000", "112058.369000", "112058.372000", "112058.376000", "112058.379000", "112058.383000", "112058.386000", "112058.389000", "112058.393000", "112058.396000", "112058.399000", "112058.403000", "112058.406000", "112058.410000", "112058.413000", "112058.417000", "112058.420000", "112058.424000", "112058.427000", "112058.431000", "112138.339000", "112138.343000", "112138.346000", "112138.350000", "112138.353000", "112138.357000", "112138.360000", "112138.363000", "112138.367000", "112138.370000", "112138.373000", "112138.377000", "112138.380000", "112138.383000", "112138.387000", "112138.390000", "112138.394000", "112138.397000", "112138.400000", "112138.404000", "112138.407000", "112138.411000", "112138.414000", "112138.417000", "112138.421000", "112138.424000", "112138.427000", "112218.338000", "112218.342000", "112218.346000", "112218.349000", "112218.352000", "112218.356000", "112218.359000", "112218.362000", "112218.366000", "112218.369000", "112218.373000", "112218.376000", "112218.379000", "112218.383000", "112218.386000", "112218.390000", "112218.393000", "112218.397000", "112218.400000", "112218.403000", "112218.407000", "112218.410000", "112218.413000", "112218.417000", "112218.420000", "112218.424000", "112218.435000", "112227.892000", "112227.896000", "112227.899000", "112227.909000", "112227.912000", "112227.915000", "112227.919000"],
      "InstanceNumber": [1, 2, 3, 4, 5, 6, 7, 8, 9, 10, 11, 12, 13, 14, 15, 16, 17, 18, 19, 20, 21, 22, 23, 24, 25, 26, 27, 28, 29, 30, 31, 32, 33, 34, 35, 36, 37, 38, 39, 40, 41, 42, 43, 44, 45, 46, 47, 48, 49, 50, 51, 52, 53, 54, 55, 56, 57, 58, 59, 60, 61, 62, 63, 64, 65, 66, 67, 68, 69, 70, 71, 72, 73, 74, 75, 76, 77, 78, 79, 80, 81, 82, 83, 84, 85, 86, 87, 88, 89, 90, 91, 92, 93, 94, 95, 96, 97, 98, 99, 100, 101, 102, 103, 104, 105, 106, 107, 108, 109, 110, 111, 112, 113, 114, 115, 116, 117, 118, 119, 120, 121, 122, 123, 124, 125, 126, 127, 128, 129, 130, 131, 132, 133, 134, 135, 136, 137, 138, 139, 140, 141, 142, 143, 144, 145, 146, 147, 148, 149, 150, 151, 152, 153, 154, 155, 156, 157, 158, 159, 160, 161, 162, 163, 164, 165, 166, 167, 168, 169, 170, 171, 172, 173, 174, 175, 176, 177, 178, 179, 180, 181, 182, 183, 184, 185, 186, 187, 188, 189, 190],
      "LargestImagePixelValue": [47660, 45767, 45687, 45185, 44963, 45831, 46099, 44752, 44220, 43711, 44040, 44289, 44339, 44842, 45357, 44919, 45117, 45339, 45005, 44022, 44024, 43134, 43005, 44376, 45638, 46860, 45917, 46351, 43816, 43450, 43267, 42592, 43253, 44285, 45027, 45157, 44400, 44512, 44732, 44698, 44083, 44425, 42807, 44278, 44471, 43387, 45319, 44571, 44651, 46155, 45287, 44497, 45245, 43964, 44009, 45430, 43617, 43437, 44374, 44839, 45614, 45096, 42892, 43597, 45950, 44426, 42707, 44424, 44585, 43953, 45788, 45681, 45042, 45917, 44911, 44069, 43581, 44402, 45226, 45519, 45152, 43806, 46028, 44362, 43679, 44798, 44442, 44677, 45721, 44319, 44493, 44678, 44567, 45417, 46338, 44301, 44276, 45755, 45289, 43910, 45372, 45512, 44981, 44392, 44155, 44439, 45094, 45535, 46370, 45243, 44585, 43779, 43112, 44695, 44635, 45095, 45996, 45124, 45128, 44703, 42940, 44245, 43947, 44034, 44747, 46622, 45400, 44004, 43890, 44925, 44224, 43947, 44776, 45081, 46174, 43968, 44065, 44306, 43563, 43952, 43656, 43832, 43987, 47148, 45441, 45612, 45457, 43675, 43172, 43754, 45172, 45438, 45697, 45626, 44494, 43611, 44237, 45424, 45405, 43305, 43927, 44419, 44262, 45323, 45508, 45146, 44757, 44314, 44442, 45840, 45113, 43109, 44507, 44484, 44610, 44410, 45928, 45302, 46033, 44881, 43871, 43471, 43951, 44799, 44493, 45394, 44988, 44764, 44684, 46975],
      "WindowCenter": [11086.0, 11017.0, 11027.0, 11016.0, 10988.0, 10971.0, 10967.0, 10965.0, 10962.0, 10945.0, 10913.0, 10936.0, 10968.0, 11018.0, 11033.0, 11002.0, 10965.0, 10966.0, 10967.0, 10971.0, 10952.0, 10934.0, 10925.0, 10941.0, 10962.0, 10983.0, 10989.0, 11005.0, 10993.0, 10966.0, 10926.0, 10907.0, 10917.0, 10933.0, 10946.0, 10954.0, 10938.0, 10933.0, 10932.0, 10953.0, 10965.0, 10991.0, 10977.0, 10973.0, 10954.0, 10956.0, 10982.0, 10984.0, 10998.0, 11013.0, 11003.0, 10992.0, 10973.0, 10939.0, 10953.0, 10960.0, 10931.0, 10912.0, 10935.0, 10973.0, 10995.0, 10993.0, 10964.0, 10954.0, 10949.0, 10928.0, 10927.0, 10954.0, 10953.0, 10945.0, 10963.0, 10964.0, 10962.0, 10962.0, 10938.0, 10933.0, 10923.0, 10928.0, 10938.0, 10949.0, 10952.0, 10929.0, 10945.0, 10919.0, 10910.0, 10937.0, 10944.0, 10962.0, 10959.0, 10942.0, 10948.0, 10943.0, 10926.0, 10946.0, 10947.0, 10913.0, 10907.0, 10918.0, 10907.0, 10903.0, 10939.0, 10947.0, 10960.0, 10955.0, 10931.0, 10939.0, 10940.0, 10956.0, 10972.0, 10965.0, 10966.0, 10938.0, 10887.0, 10877.0, 10875.0, 10919.0, 10949.0, 10952.0, 10946.0, 10930.0, 10901.0, 10887.0, 10914.0, 10956.0, 10966.0, 10974.0, 10995.0, 10948.0, 10915.0, 10926.0, 10910.0, 10929.0, 10960.0, 10964.0, 10966.0, 10935.0, 10923.0, 10906.0, 10900.0, 10896.0, 10903.0, 10912.0, 10946.0, 10992.0, 11027.0, 11049.0, 11039.0, 10978.0, 10950.0, 10950.0, 10989.0, 10992.0, 10976.0, 10952.0, 10916.0, 10890.0, 10896.0, 10919.0, 10953.0, 10958.0, 10954.0, 10929.0, 10916.0, 10921.0, 10955.0, 10983.0, 10980.0, 10954.0, 10966.0, 10964.0, 10981.0, 10984.0, 10991.0, 10952.0, 10914.0, 10905.0, 10951.0, 10998.0, 11012.0, 10984.0, 10940.0, 10918.0, 10902.0, 10907.0, 10918.0, 10948.0, 10973.0, 10976.0, 10960.0, 10974.0],
      "WindowWidth": [23892.0, 23694.0, 23695.0, 23667.0, 23591.0, 23541.0, 23523.0, 23530.0, 23526.0, 23489.0, 23407.0, 23458.0, 23528.0, 23645.0, 23678.0, 23604.0, 23517.0, 23518.0, 23529.0, 23543.0, 23503.0, 23466.0, 23453.0, 23473.0, 23516.0, 23558.0, 23576.0, 23616.0, 23598.0, 23536.0, 23448.0, 23404.0, 23420.0, 23452.0, 23476.0, 23491.0, 23464.0, 23450.0, 23444.0, 23493.0, 23523.0, 23585.0, 23562.0, 23549.0, 23503.0, 23508.0, 23570.0, 23568.0, 23604.0, 23633.0, 23613.0, 23598.0, 23539.0, 23463.0, 23503.0, 23516.0, 23451.0, 23413.0, 23457.0, 23543.0, 23589.0, 23591.0, 23533.0, 23509.0, 23488.0, 23443.0, 23452.0, 23507.0, 23506.0, 23489.0, 23526.0, 23521.0, 23517.0, 23515.0, 23463.0, 23451.0, 23433.0, 23443.0, 23460.0, 23487.0, 23489.0, 23445.0, 23481.0, 23421.0, 23406.0, 23468.0, 23481.0, 23524.0, 23515.0, 23478.0, 23489.0, 23480.0, 23438.0, 23478.0, 23488.0, 23406.0, 23393.0, 23414.0, 23389.0, 23386.0, 23467.0, 23480.0, 23521.0, 23507.0, 23451.0, 23465.0, 23469.0, 23499.0, 23538.0, 23523.0, 23530.0, 23471.0, 23358.0, 23321.0, 23316.0, 23426.0, 23485.0, 23497.0, 23484.0, 23446.0, 23390.0, 23352.0, 23414.0, 23507.0, 23542.0, 23540.0, 23593.0, 23499.0, 23416.0, 23439.0, 23407.0, 23447.0, 23508.0, 23520.0, 23521.0, 23469.0, 23430.0, 23391.0, 23384.0, 23374.0, 23393.0, 23409.0, 23488.0, 23579.0, 23673.0, 23726.0, 23700.0, 23566.0, 23507.0, 23493.0, 23574.0, 23584.0, 23545.0, 23481.0, 23405.0, 23351.0, 23366.0, 23414.0, 23491.0, 23526.0, 23503.0, 23442.0, 23423.0, 23420.0, 23493.0, 23564.0, 23561.0, 23505.0, 23523.0, 23517.0, 23559.0, 23588.0, 23595.0, 23503.0, 23424.0, 23382.0, 23479.0, 23594.0, 23623.0, 23560.0, 23469.0, 23425.0, 23383.0, 23390.0, 23420.0, 23484.0, 23548.0, 23555.0, 23516.0, 23534.0]
    },
    "slices": {}
  }
}