{
  "AcquisitionMatrixPE": 104,
  "AcquisitionNumber": 1,
  "AcquisitionTime": "15:34:27.965000",
  "BandwidthPerPixelPhaseEncode": 17.17,
  "BaseResolution": 104,
  "BodyPartExamined": "BRAIN",
  "CoilString": "HC1-7;NC1_2",
  "ConsistencyInfo": "N4_VE11C_LATEST_20160120",
  "ConversionSoftware": "dcm2niix",
  "ConversionSoftwareVersion": "v1.0.20190902",
  "DerivedVendorReportedEchoSpacing": 0.000560011,
  "DeviceSerialNumber": "167006",
  "DwellTime": 2.1e-06,
  "EchoTime": 0.037,
  "EchoTrainLength": 104,
  "EffectiveEchoSpacing": 0.000560011,
  "FlipAngle": 52,
  "ImageComments": "Unaliased_MB4_PE3_LB",
  "ImageOrientationPatientDICOM": [0.998206, -0.0574151, 0.0169529, 0.059829, 0.946841, -0.316091],
  "ImageType": [
    "ORIGINAL",
    "PRIMARY",
    "P",
    "MB",
    "ND",
    "MOSAIC"
],
  "ImagingFrequency": 123.259,
  "InPlanePhaseEncodingDirectionDICOM": "COL",
  "InstitutionAddress": "Chemin_Queen-Mary_4565_Montreal_District_CA_H3W_1W5",
  "InstitutionName": "IUGM",
  "InstitutionalDepartmentName": "Department",
  "MRAcquisitionType": "2D",
  "MagneticFieldStrength": 3,
  "Manufacturer": "Siemens",
  "ManufacturersModelName": "Prisma_fit",
  "Modality": "MR",
  "MultibandAccelerationFactor": 4,
  "PartialFourier": 1,
  "PatientPosition": "HFS",
  "PercentPhaseFOV": 100,
  "PhaseEncodingDirection": "j",
  "PhaseEncodingSteps": 104,
  "PhaseResolution": 1,
  "PixelBandwidth": 2290,
  "ProcedureStepDescription": "memory_things",
  "ProtocolName": "func_task-things_run-1",
  "PulseSequenceDetails": "%CustomerSeq%_cmrr_mbep2d_bold",
  "ReceiveCoilActiveElements": "HC1-7;NC1,2",
  "ReceiveCoilName": "HeadNeck_64",
  "ReconMatrixPE": 104,
  "RepetitionTime": 1.49,
  "SAR": 0.0530703,
  "ScanOptions": "FS",
  "ScanningSequence": "EP",
  "SequenceName": "epfid2d1_104",
  "SequenceVariant": "SK_SS",
  "SeriesDescription": "func_task-things_run-1",
  "SeriesNumber": 11,
  "ShimSetting": [636, -7269, -8798, 597, 8, -222, 1, -18],
  "SliceThickness": 2,
  "SliceTiming": [0, 0.7825, 0.0975, 0.88, 0.195, 0.98, 0.2925, 1.0775, 0.39, 1.175, 0.49, 1.2725, 0.5875, 1.37, 0.685, 0, 0.7825, 0.0975, 0.88, 0.195, 0.98, 0.2925, 1.0775, 0.39, 1.175, 0.49, 1.2725, 0.5875, 1.37, 0.685, 0, 0.7825, 0.0975, 0.88, 0.195, 0.98, 0.2925, 1.0775, 0.39, 1.175, 0.49, 1.2725, 0.5875, 1.37, 0.685, 0, 0.7825, 0.0975, 0.88, 0.195, 0.98, 0.2925, 1.0775, 0.39, 1.175, 0.49, 1.2725, 0.5875, 1.37, 0.685],
  "SoftwareVersions": "syngo_MR_E11",
  "SpacingBetweenSlices": 2,
  "StationName": "MRC35049",
  "TaskName": "things",
  "TotalReadoutTime": 0.0576811,
  "TxRefAmp": 271.336,
  "WipMemBlock": "039ce70f-db80-4945-a24b-b28ca9d68a67||Sequence: R016 ve11c/master r/e634e98; Dec 19 2017 11:00:25 by eja",
  "dcmmeta_affine": [
    [-1.9964128732681274, 0.11965793371200562, -0.004193298052996397, 101.14920043945312],
    [0.11483028531074524, 1.893681287765503, -0.6330758929252625, -72.67975616455078],
    [0.033905889838933945, 0.6321811676025391, 1.8971551656723022, -57.841670989990234],
    [0.0, 0.0, 0.0, 1.0]
],
  "dcmmeta_reorient_transform": [
    [0.0, -1.0, 0.0, 103.0],
    [1.0, 0.0, 0.0, 0.0],
    [0.0, 0.0, 1.0, 0.0],
    [0.0, 0.0, 0.0, 1.0]
],
  "dcmmeta_shape": [104, 104, 60, 190],
  "dcmmeta_slice_dim": 2,
  "dcmmeta_version": 0.6,
  "global": {
    "const": {
      "AcquisitionMatrix": [104, 0, 0, 104],
      "AngioFlag": "N",
      "BitsAllocated": 16,
      "BitsStored": 16,
      "BodyPartExamined": "BRAIN",
      "Columns": 832,
      "EchoNumbers": 1,
      "EchoTime": 37.0,
      "EchoTrainLength": 104,
      "FlipAngle": 52.0,
      "HighBit": 15,
      "ImageOrientationPatient": [0.99820644103764, -0.0574151438629, 0.01695294446907, 0.05982896567824, 0.94684066245966, -0.3160905800223],
      "ImagePositionPatient": [-883.72374183106, -769.87119498572, 225.04518673048],
      "ImageType": [
        "ORIGINAL",
        "PRIMARY",
        "P",
        "MB",
        "ND",
        "MOSAIC"
],
      "ImagedNucleus": "1H",
      "ImagingFrequency": 123.259042,
      "InPlanePhaseEncodingDirection": "COL",
      "LargestImagePixelValue": 4095,
      "MRAcquisitionType": "2D",
      "MagneticFieldStrength": 3.0,
      "Manufacturer": "SIEMENS",
      "ManufacturerModelName": "Prisma_fit",
      "Modality": "MR",
      "NumberOfAverages": 1.0,
      "NumberOfPhaseEncodingSteps": 104,
      "PercentPhaseFieldOfView": 100.0,
      "PercentSampling": 100.0,
      "PerformedProcedureStepStartTime": "153050.212000",
      "PhotometricInterpretation": "MONOCHROME2",
      "PixelBandwidth": 2290.0,
      "PixelRepresentation": 0,
      "PixelSpacing": [2.0, 2.0],
      "ProtocolName": "func_task-things_run-1",
      "RepetitionTime": 1490.0,
      "RescaleIntercept": -4096.0,
      "RescaleSlope": 2.0,
      "RescaleType": "US",
      "Rows": 832,
      "SAR": 0.05307026102542,
      "SamplesPerPixel": 1,
      "ScanOptions": "FS",
      "ScanningSequence": "EP",
      "SequenceName": "epfid2d1_104",
      "SequenceVariant": [
        "SK",
        "SS"
],
      "SeriesDescription": "func_task-things_run-1",
      "SeriesNumber": 11,
      "SeriesTime": "153559.962000",
      "SliceLocation": -32.073484087405,
      "SliceThickness": 2.0,
      "SmallestImagePixelValue": 0,
      "SoftwareVersions": "syngo MR E11",
      "SpacingBetweenSlices": 2.0000000396452,
      "SpecificCharacterSet": "ISO_IR 100",
      "StudyID": "1",
      "StudyTime": "153050.073000",
      "TransmitCoilName": "Body",
      "VariableFlipAngleFlag": "N",
      "WindowCenterWidthExplanation": "Algo1",
      "dBdt": 0.0},
    "slices": {}
  },
  "time": {
    "samples": {
      "AcquisitionNumber": [1, 2, 3, 4, 5, 6, 7, 8, 9, 10, 11, 12, 13, 14, 15, 16, 17, 18, 19, 20, 21, 22, 23, 24, 25, 26, 27, 28, 29, 30, 31, 32, 33, 34, 35, 36, 37, 38, 39, 40, 41, 42, 43, 44, 45, 46, 47, 48, 49, 50, 51, 52, 53, 54, 55, 56, 57, 58, 59, 60, 61, 62, 63, 64, 65, 66, 67, 68, 69, 70, 71, 72, 73, 74, 75, 76, 77, 78, 79, 80, 81, 82, 83, 84, 85, 86, 87, 88, 89, 90, 91, 92, 93, 94, 95, 96, 97, 98, 99, 100, 101, 102, 103, 104, 105, 106, 107, 108, 109, 110, 111, 112, 113, 114, 115, 116, 117, 118, 119, 120, 121, 122, 123, 124, 125, 126, 127, 128, 129, 130, 131, 132, 133, 134, 135, 136, 137, 138, 139, 140, 141, 142, 143, 144, 145, 146, 147, 148, 149, 150, 151, 152, 153, 154, 155, 156, 157, 158, 159, 160, 161, 162, 163, 164, 165, 166, 167, 168, 169, 170, 171, 172, 173, 174, 175, 176, 177, 178, 179, 180, 181, 182, 183, 184, 185, 186, 187, 188, 189, 190],
      "AcquisitionTime": ["153427.965000", "153429.455000", "153430.945000", "153432.435000", "153433.925000", "153435.415000", "153436.905000", "153438.395000", "153439.885000", "153441.375000", "153442.865000", "153444.355000", "153445.845000", "153447.335000", "153448.825000", "153450.315000", "153451.805000", "153453.295000", "153454.785000", "153456.275000", "153457.765000", "153459.255000", "153500.745000", "153502.235000", "153503.725000", "153505.215000", "153506.705000", "153508.195000", "153509.685000", "153511.175000", "153512.665000", "153514.155000", "153515.645000", "153517.135000", "153518.625000", "153520.115000", "153521.605000", "153523.095000", "153524.585000", "153526.075000", "153527.565000", "153529.055000", "153530.545000", "153532.035000", "153533.525000", "153535.015000", "153536.505000", "153537.995000", "153539.485000", "153540.975000", "153542.465000", "153543.955000", "153545.445000", "153546.935000", "153548.425000", "153549.915000", "153551.405000", "153552.895000", "153554.385000", "153555.875000", "153557.365000", "153558.855000", "153600.345000", "153601.835000", "153603.325000", "153604.815000", "153606.305000", "153607.795000", "153609.285000", "153610.775000", "153612.265000", "153613.755000", "153615.245000", "153616.735000", "153618.225000", "153619.715000", "153621.205000", "153622.695000", "153624.185000", "153625.675000", "153627.165000", "153628.655000", "153630.145000", "153631.635000", "153633.125000", "153634.615000", "153636.105000", "153637.595000", "153639.085000", "153640.575000", "153642.065000", "153643.555000", "153645.045000", "153646.535000", "153648.025000", "153649.515000", "153651.005000", "153652.495000", "153653.985000", "153655.475000", "153656.965000", "153658.455000", "153659.945000", "153701.435000", "153702.925000", "153704.415000", "153705.905000", "153707.395000", "153708.885000", "153710.375000", "153711.865000", "153713.355000", "153714.845000", "153716.335000", "153717.825000", "153719.315000", "153720.805000", "153722.295000", "153723.785000", "153725.275000", "153726.765000", "153728.255000", "153729.745000", "153731.235000", "153732.725000", "153734.215000", "153735.705000", "153737.195000", "153738.685000", "153740.175000", "153741.665000", "153743.155000", "153744.645000", "153746.135000", "153747.625000", "153749.115000", "153750.605000", "153752.095000", "153753.585000", "153755.075000", "153756.565000", "153758.055000", "153759.545000", "153801.035000", "153802.525000", "153804.015000", "153805.505000", "153806.995000", "153808.485000", "153809.975000", "153811.465000", "153812.955000", "153814.445000", "153815.935000", "153817.425000", "153818.915000", "153820.405000", "153821.895000", "153823.385000", "153824.875000", "153826.365000", "153827.855000", "153829.345000", "153830.835000", "153832.325000", "153833.815000", "153835.305000", "153836.795000", "153838.285000", "153839.775000", "153841.265000", "153842.755000", "153844.245000", "153845.735000", "153847.225000", "153848.715000", "153850.205000", "153851.695000", "153853.185000", "153854.675000", "153856.165000", "153857.655000", "153859.145000", "153900.635000", "153902.125000", "153903.615000", "153905.105000", "153906.595000", "153908.085000", "153909.575000"],
      "ContentTime": ["153559.964000", "153559.967000", "153559.969000", "153559.972000", "153559.974000", "153559.977000", "153559.979000", "153559.982000", "153559.984000", "153559.987000", "153559.989000", "153559.992000", "153559.994000", "153559.997000", "153600.000000", "153600.003000", "153600.005000", "153600.008000", "153600.010000", "153600.013000", "153600.015000", "153600.018000", "153600.020000", "153600.023000", "153600.025000", "153600.028000", "153600.030000", "153600.033000", "153600.035000", "153600.038000", "153600.040000", "153600.043000", "153600.045000", "153600.048000", "153600.050000", "153600.053000", "153600.055000", "153619.294000", "153619.297000", "153619.299000", "153619.302000", "153619.309000", "153619.312000", "153619.314000", "153619.316000", "153619.319000", "153619.321000", "153619.324000", "153619.326000", "153619.329000", "153619.331000", "153619.334000", "153619.336000", "153619.339000", "153619.341000", "153619.344000", "153619.346000", "153619.349000", "153639.282000", "153639.285000", "153639.287000", "153639.290000", "153639.292000", "153639.295000", "153639.297000", "153639.300000", "153639.302000", "153639.305000", "153639.307000", "153639.318000", "153639.320000", "153639.323000", "153639.325000", "153639.328000", "153639.330000", "153639.333000", "153639.335000", "153639.338000", "153659.293000", "153659.295000", "153659.298000", "153659.301000", "153659.303000", "153659.306000", "153659.308000", "153659.311000", "153659.313000", "153659.316000", "153659.318000", "153659.321000", "153659.323000", "153659.326000", "153659.328000", "153659.331000", "153659.334000", "153659.336000", "153659.338000", "153659.341000", "153739.335000", "153739.338000", "153739.340000", "153739.343000", "153739.345000", "153739.348000", "153739.350000", "153739.353000", "153739.355000", "153739.358000", "153739.360000", "153739.363000", "153739.366000", "153739.368000", "153739.371000", "153739.373000", "153739.376000", "153739.378000", "153739.381000", "153739.384000", "153739.386000", "153739.389000", "153739.391000", "153739.394000", "153739.396000", "153739.399000", "153739.401000", "153739.404000", "153739.406000", "153819.325000", "153819.328000", "153819.330000", "153819.333000", "153819.335000", "153819.338000", "153819.341000", "153819.343000", "153819.346000", "153819.348000", "153819.350000", "153819.353000", "153819.356000", "153819.358000", "153819.360000", "153819.363000", "153819.365000", "153819.368000", "153819.370000", "153819.373000", "153819.375000", "153819.378000", "153819.380000", "153819.383000", "153819.385000", "153819.389000", "153819.392000", "153859.328000", "153859.330000", "153859.333000", "153859.336000", "153859.338000", "153859.341000", "153859.343000", "153859.346000", "153859.348000", "153859.351000", "153859.353000", "153859.356000", "153859.359000", "153859.361000", "153859.363000", "153859.366000", "153859.369000", "153859.371000", "153859.374000", "153859.376000", "153859.379000", "153859.381000", "153859.384000", "153859.386000", "153859.389000", "153859.391000", "153859.394000", "153911.808000", "153911.811000", "153911.813000", "153911.816000", "153911.826000", "153911.829000", "153911.831000", "153911.834000", "153911.837000"],
      "InstanceCreationTime": ["153559.964000", "153559.967000", "153559.969000", "153559.972000", "153559.974000", "153559.977000", "153559.979000", "153559.982000", "153559.984000", "153559.987000", "153559.989000", "153559.992000", "153559.994000", "153559.997000", "153600.000000", "153600.003000", "153600.005000", "153600.008000", "153600.010000", "153600.013000", "153600.015000", "153600.018000", "153600.020000", "153600.023000", "153600.025000", "153600.028000", "153600.030000", "153600.033000", "153600.035000", "153600.038000", "153600.040000", "153600.043000", "153600.045000", "153600.048000", "153600.050000", "153600.053000", "153600.055000", "153619.294000", "153619.297000", "153619.299000", "153619.302000", "153619.309000", "153619.312000", "153619.314000", "153619.316000", "153619.319000", "153619.321000", "153619.324000", "153619.326000", "153619.329000", "153619.331000", "153619.334000", "153619.336000", "153619.339000", "153619.341000", "153619.344000", "153619.346000", "153619.349000", "153639.282000", "153639.285000", "153639.287000", "153639.290000", "153639.292000", "153639.295000", "153639.297000", "153639.300000", "153639.302000", "153639.305000", "153639.307000", "153639.318000", "153639.320000", "153639.323000", "153639.325000", "153639.328000", "153639.330000", "153639.333000", "153639.335000", "153639.338000", "153659.293000", "153659.295000", "153659.298000", "153659.301000", "153659.303000", "153659.306000", "153659.308000", "153659.311000", "153659.313000", "153659.316000", "153659.318000", "153659.321000", "153659.323000", "153659.326000", "153659.328000", "153659.331000", "153659.334000", "153659.336000", "153659.338000", "153659.341000", "153739.335000", "153739.338000", "153739.340000", "153739.343000", "153739.345000", "153739.348000", "153739.350000", "153739.353000", "153739.355000", "153739.358000", "153739.360000", "153739.363000", "153739.366000", "153739.368000", "153739.371000", "153739.373000", "153739.376000", "153739.378000", "153739.381000", "153739.384000", "153739.386000", "153739.389000", "153739.391000", "153739.394000", "153739.396000", "153739.399000", "153739.401000", "153739.404000", "153739.406000", "153819.325000", "153819.328000", "153819.330000", "153819.333000", "153819.335000", "153819.338000", "153819.341000", "153819.343000", "153819.346000", "153819.348000", "153819.350000", "153819.353000", "153819.356000", "153819.358000", "153819.360000", "153819.363000", "153819.365000", "153819.368000", "153819.370000", "153819.373000", "153819.375000", "153819.378000", "153819.380000", "153819.383000", "153819.385000", "153819.389000", "153819.392000", "153859.328000", "153859.330000", "153859.333000", "153859.336000", "153859.338000", "153859.341000", "153859.343000", "153859.346000", "153859.348000", "153859.351000", "153859.353000", "153859.356000", "153859.359000", "153859.361000", "153859.363000", "153859.366000", "153859.369000", "153859.371000", "153859.374000", "153859.376000", "153859.379000", "153859.381000", "153859.384000", "153859.386000", "153859.389000", "153859.391000", "153859.394000", "153911.808000", "153911.811000", "153911.813000", "153911.816000", "153911.826000", "153911.829000", "153911.831000", "153911.834000", "153911.837000"],
      "InstanceNumber": [1, 2, 3, 4, 5, 6, 7, 8, 9, 10, 11, 12, 13, 14, 15, 16, 17, 18, 19, 20, 21, 22, 23, 24, 25, 26, 27, 28, 29, 30, 31, 32, 33, 34, 35, 36, 37, 38, 39, 40, 41, 42, 43, 44, 45, 46, 47, 48, 49, 50, 51, 52, 53, 54, 55, 56, 57, 58, 59, 60, 61, 62, 63, 64, 65, 66, 67, 68, 69, 70, 71, 72, 73, 74, 75, 76, 77, 78, 79, 80, 81, 82, 83, 84, 85, 86, 87, 88, 89, 90, 91, 92, 93, 94, 95, 96, 97, 98, 99, 100, 101, 102, 103, 104, 105, 106, 107, 108, 109, 110, 111, 112, 113, 114, 115, 116, 117, 118, 119, 120, 121, 122, 123, 124, 125, 126, 127, 128, 129, 130, 131, 132, 133, 134, 135, 136, 137, 138, 139, 140, 141, 142, 143, 144, 145, 146, 147, 148, 149, 150, 151, 152, 153, 154, 155, 156, 157, 158, 159, 160, 161, 162, 163, 164, 165, 166, 167, 168, 169, 170, 171, 172, 173, 174, 175, 176, 177, 178, 179, 180, 181, 182, 183, 184, 185, 186, 187, 188, 189, 190],
      "WindowCenter": [4820.0, 4800.0, 4792.0, 4822.0, 4818.0, 4818.0, 4818.0, 4818.0, 4820.0, 4820.0, 4798.0, 4824.0, 4796.0, 4822.0, 4794.0, 4820.0, 4820.0, 4796.0, 4822.0, 4820.0, 4824.0, 4822.0, 4798.0, 4820.0, 4792.0, 4822.0, 4822.0, 4820.0, 4822.0, 4796.0, 4830.0, 4882.0, 4822.0, 4788.0, 4814.0, 4792.0, 4794.0, 4818.0, 4822.0, 4828.0, 4826.0, 4824.0, 4820.0, 4796.0, 4820.0, 4796.0, 4798.0, 4794.0, 4820.0, 4820.0, 4822.0, 4826.0, 4822.0, 4824.0, 4820.0, 4820.0, 4794.0, 4816.0, 4796.0, 4820.0, 4820.0, 4820.0, 4820.0, 4820.0, 4824.0, 4820.0, 4822.0, 4820.0, 4820.0, 4822.0, 4822.0, 4824.0, 4822.0, 4826.0, 4822.0, 4824.0, 4818.0, 4818.0, 4822.0, 4796.0, 4824.0, 4820.0, 4824.0, 4822.0, 4824.0, 4820.0, 4820.0, 4822.0, 4820.0, 4822.0, 4822.0, 4824.0, 4818.0, 4822.0, 4820.0, 4820.0, 4824.0, 4818.0, 4826.0, 4818.0, 4820.0, 4820.0, 4822.0, 4820.0, 4794.0, 4824.0, 4818.0, 4822.0, 4822.0, 4822.0, 4824.0, 4796.0, 4822.0, 4820.0, 4824.0, 4822.0, 4822.0, 4820.0, 4798.0, 4826.0, 4820.0, 4822.0, 4820.0, 4822.0, 4824.0, 4822.0, 4824.0, 4822.0, 4830.0, 4822.0, 4822.0, 4820.0, 4820.0, 4826.0, 4824.0, 4818.0, 4824.0, 4824.0, 4820.0, 4822.0, 4826.0, 4820.0, 4824.0, 4820.0, 4828.0, 4820.0, 4820.0, 4820.0, 4820.0, 4822.0, 4820.0, 4830.0, 4820.0, 4826.0, 4818.0, 4822.0, 4822.0, 4818.0, 4828.0, 4824.0, 4826.0, 4822.0, 4824.0, 4800.0, 4820.0, 4820.0, 4818.0, 4822.0, 4820.0, 4822.0, 4826.0, 4826.0, 4824.0, 4826.0, 4820.0, 4822.0, 4824.0, 4822.0, 4828.0, 4822.0, 4824.0, 4820.0, 4822.0, 4822.0, 4818.0, 4822.0, 4822.0, 4824.0, 4824.0, 4820.0],
      "WindowWidth": [18582.0, 18552.0, 18550.0, 18580.0, 18584.0, 18576.0, 18580.0, 18588.0, 18578.0, 18578.0, 18550.0, 18588.0, 18552.0, 18582.0, 18552.0, 18582.0, 18582.0, 18554.0, 18582.0, 18578.0, 18576.0, 18580.0, 18552.0, 18580.0, 18552.0, 18578.0, 18582.0, 18580.0, 18580.0, 18550.0, 18592.0, 18668.0, 18576.0, 18548.0, 18592.0, 18556.0, 18550.0, 18580.0, 18586.0, 18584.0, 18590.0, 18582.0, 18586.0, 18552.0, 18576.0, 18554.0, 18552.0, 18552.0, 18578.0, 18586.0, 18584.0, 18586.0, 18586.0, 18586.0, 18586.0, 18580.0, 18552.0, 18580.0, 18554.0, 18586.0, 18584.0, 18584.0, 18578.0, 18584.0, 18586.0, 18584.0, 18582.0, 18584.0, 18582.0, 18586.0, 18582.0, 18586.0, 18588.0, 18586.0, 18578.0, 18582.0, 18582.0, 18580.0, 18584.0, 18554.0, 18586.0, 18584.0, 18586.0, 18586.0, 18588.0, 18586.0, 18580.0, 18584.0, 18586.0, 18588.0, 18588.0, 18584.0, 18576.0, 18582.0, 18580.0, 18586.0, 18590.0, 18582.0, 18586.0, 18576.0, 18586.0, 18588.0, 18584.0, 18580.0, 18552.0, 18584.0, 18582.0, 18588.0, 18582.0, 18580.0, 18584.0, 18556.0, 18580.0, 18584.0, 18584.0, 18588.0, 18582.0, 18584.0, 18552.0, 18580.0, 18586.0, 18584.0, 18586.0, 18586.0, 18586.0, 18584.0, 18588.0, 18588.0, 18592.0, 18578.0, 18586.0, 18582.0, 18580.0, 18582.0, 18580.0, 18584.0, 18582.0, 18584.0, 18582.0, 18580.0, 18582.0, 18584.0, 18586.0, 18582.0, 18584.0, 18578.0, 18580.0, 18582.0, 18588.0, 18586.0, 18582.0, 18592.0, 18582.0, 18584.0, 18582.0, 18584.0, 18584.0, 18588.0, 18590.0, 18588.0, 18586.0, 18580.0, 18586.0, 18554.0, 18580.0, 18580.0, 18580.0, 18586.0, 18582.0, 18588.0, 18588.0, 18590.0, 18582.0, 18590.0, 18590.0, 18588.0, 18582.0, 18586.0, 18590.0, 18584.0, 18586.0, 18582.0, 18586.0, 18584.0, 18578.0, 18584.0, 18590.0, 18582.0, 18584.0, 18588.0]
    },
    "slices": {}
  }
}