{
  "AcquisitionMatrixPE": 104,
  "AcquisitionNumber": 1,
  "AcquisitionTime": "15:47:0.347500",
  "BandwidthPerPixelPhaseEncode": 17.17,
  "BaseResolution": 104,
  "BodyPartExamined": "BRAIN",
  "CoilString": "HC1-7;NC1_2",
  "ConsistencyInfo": "N4_VE11C_LATEST_20160120",
  "ConversionSoftware": "dcm2niix",
  "ConversionSoftwareVersion": "v1.0.20190902",
  "DerivedVendorReportedEchoSpacing": 0.000560011,
  "DeviceSerialNumber": "167006",
  "DwellTime": 2.1e-06,
  "EchoTime": 0.037,
  "EchoTrainLength": 104,
  "EffectiveEchoSpacing": 0.000560011,
  "FlipAngle": 52,
  "ImageComments": "Unaliased_MB4_PE3_LB",
  "ImageOrientationPatientDICOM": [0.998206, -0.0574151, 0.0169529, 0.059829, 0.946841, -0.316091],
  "ImageType": [
    "ORIGINAL",
    "PRIMARY",
    "P",
    "MB",
    "ND",
    "MOSAIC"
],
  "ImagingFrequency": 123.259,
  "InPlanePhaseEncodingDirectionDICOM": "COL",
  "InstitutionAddress": "Chemin_Queen-Mary_4565_Montreal_District_CA_H3W_1W5",
  "InstitutionName": "IUGM",
  "InstitutionalDepartmentName": "Department",
  "MRAcquisitionType": "2D",
  "MagneticFieldStrength": 3,
  "Manufacturer": "Siemens",
  "ManufacturersModelName": "Prisma_fit",
  "Modality": "MR",
  "MultibandAccelerationFactor": 4,
  "PartialFourier": 1,
  "PatientPosition": "HFS",
  "PercentPhaseFOV": 100,
  "PhaseEncodingDirection": "j",
  "PhaseEncodingSteps": 104,
  "PhaseResolution": 1,
  "PixelBandwidth": 2290,
  "ProcedureStepDescription": "memory_things",
  "ProtocolName": "func_task-things_run-3",
  "PulseSequenceDetails": "%CustomerSeq%_cmrr_mbep2d_bold",
  "ReceiveCoilActiveElements": "HC1-7;NC1,2",
  "ReceiveCoilName": "HeadNeck_64",
  "ReconMatrixPE": 104,
  "RepetitionTime": 1.49,
  "SAR": 0.0530703,
  "ScanOptions": "FS",
  "ScanningSequence": "EP",
  "SequenceName": "epfid2d1_104",
  "SequenceVariant": "SK_SS",
  "SeriesDescription": "func_task-things_run-3",
  "SeriesNumber": 17,
  "ShimSetting": [636, -7269, -8798, 597, 8, -222, 1, -18],
  "SliceThickness": 2,
  "SliceTiming": [0, 0.785, 0.0975, 0.8825, 0.1975, 0.98, 0.295, 1.0775, 0.3925, 1.1775, 0.49, 1.275, 0.5875, 1.3725, 0.6875, 0, 0.785, 0.0975, 0.8825, 0.1975, 0.98, 0.295, 1.0775, 0.3925, 1.1775, 0.49, 1.275, 0.5875, 1.3725, 0.6875, 0, 0.785, 0.0975, 0.8825, 0.1975, 0.98, 0.295, 1.0775, 0.3925, 1.1775, 0.49, 1.275, 0.5875, 1.3725, 0.6875, 0, 0.785, 0.0975, 0.8825, 0.1975, 0.98, 0.295, 1.0775, 0.3925, 1.1775, 0.49, 1.275, 0.5875, 1.3725, 0.6875],
  "SoftwareVersions": "syngo_MR_E11",
  "SpacingBetweenSlices": 2,
  "StationName": "MRC35049",
  "TaskName": "things",
  "TotalReadoutTime": 0.0576811,
  "TxRefAmp": 271.336,
  "WipMemBlock": "e9805c63-11bf-4110-b645-af25cfa24cb0||Sequence: R016 ve11c/master r/e634e98; Dec 19 2017 11:00:25 by eja",
  "dcmmeta_affine": [
    [-1.9964128732681274, 0.11965793371200562, -0.004193298052996397, 101.14920043945312],
    [0.11483028531074524, 1.893681287765503, -0.6330758929252625, -72.67975616455078],
    [0.033905889838933945, 0.6321811676025391, 1.8971551656723022, -57.841670989990234],
    [0.0, 0.0, 0.0, 1.0]
],
  "dcmmeta_reorient_transform": [
    [0.0, -1.0, 0.0, 103.0],
    [1.0, 0.0, 0.0, 0.0],
    [0.0, 0.0, 1.0, 0.0],
    [0.0, 0.0, 0.0, 1.0]
],
  "dcmmeta_shape": [104, 104, 60, 190],
  "dcmmeta_slice_dim": 2,
  "dcmmeta_version": 0.6,
  "global": {
    "const": {
      "AcquisitionMatrix": [104, 0, 0, 104],
      "AngioFlag": "N",
      "BitsAllocated": 16,
      "BitsStored": 16,
      "BodyPartExamined": "BRAIN",
      "Columns": 832,
      "EchoNumbers": 1,
      "EchoTime": 37.0,
      "EchoTrainLength": 104,
      "FlipAngle": 52.0,
      "HighBit": 15,
      "ImageOrientationPatient": [0.99820644103764, -0.0574151438629, 0.01695294446907, 0.05982896567824, 0.94684066245966, -0.3160905800223],
      "ImagePositionPatient": [-883.72374183106, -769.87119498572, 225.04518673048],
      "ImageType": [
        "ORIGINAL",
        "PRIMARY",
        "P",
        "MB",
        "ND",
        "MOSAIC"
],
      "ImagedNucleus": "1H",
      "ImagingFrequency": 123.259048,
      "InPlanePhaseEncodingDirection": "COL",
      "LargestImagePixelValue": 4095,
      "MRAcquisitionType": "2D",
      "MagneticFieldStrength": 3.0,
      "Manufacturer": "SIEMENS",
      "ManufacturerModelName": "Prisma_fit",
      "Modality": "MR",
      "NumberOfAverages": 1.0,
      "NumberOfPhaseEncodingSteps": 104,
      "PercentPhaseFieldOfView": 100.0,
      "PercentSampling": 100.0,
      "PerformedProcedureStepStartTime": "153050.212000",
      "PhotometricInterpretation": "MONOCHROME2",
      "PixelBandwidth": 2290.0,
      "PixelRepresentation": 0,
      "PixelSpacing": [2.0, 2.0],
      "ProtocolName": "func_task-things_run-3",
      "RepetitionTime": 1490.0,
      "RescaleIntercept": -4096.0,
      "RescaleSlope": 2.0,
      "RescaleType": "US",
      "Rows": 832,
      "SAR": 0.05307026102542,
      "SamplesPerPixel": 1,
      "ScanOptions": "FS",
      "ScanningSequence": "EP",
      "SequenceName": "epfid2d1_104",
      "SequenceVariant": [
        "SK",
        "SS"
],
      "SeriesDescription": "func_task-things_run-3",
      "SeriesNumber": 17,
      "SeriesTime": "154807.779000",
      "SliceLocation": -32.073484087405,
      "SliceThickness": 2.0,
      "SmallestImagePixelValue": 0,
      "SoftwareVersions": "syngo MR E11",
      "SpacingBetweenSlices": 2.0000000396452,
      "SpecificCharacterSet": "ISO_IR 100",
      "StudyID": "1",
      "StudyTime": "153050.073000",
      "TransmitCoilName": "Body",
      "VariableFlipAngleFlag": "N",
      "WindowCenterWidthExplanation": "Algo1",
      "dBdt": 0.0},
    "slices": {}
  },
  "time": {
    "samples": {
      "AcquisitionNumber": [1, 2, 3, 4, 5, 6, 7, 8, 9, 10, 11, 12, 13, 14, 15, 16, 17, 18, 19, 20, 21, 22, 23, 24, 25, 26, 27, 28, 29, 30, 31, 32, 33, 34, 35, 36, 37, 38, 39, 40, 41, 42, 43, 44, 45, 46, 47, 48, 49, 50, 51, 52, 53, 54, 55, 56, 57, 58, 59, 60, 61, 62, 63, 64, 65, 66, 67, 68, 69, 70, 71, 72, 73, 74, 75, 76, 77, 78, 79, 80, 81, 82, 83, 84, 85, 86, 87, 88, 89, 90, 91, 92, 93, 94, 95, 96, 97, 98, 99, 100, 101, 102, 103, 104, 105, 106, 107, 108, 109, 110, 111, 112, 113, 114, 115, 116, 117, 118, 119, 120, 121, 122, 123, 124, 125, 126, 127, 128, 129, 130, 131, 132, 133, 134, 135, 136, 137, 138, 139, 140, 141, 142, 143, 144, 145, 146, 147, 148, 149, 150, 151, 152, 153, 154, 155, 156, 157, 158, 159, 160, 161, 162, 163, 164, 165, 166, 167, 168, 169, 170, 171, 172, 173, 174, 175, 176, 177, 178, 179, 180, 181, 182, 183, 184, 185, 186, 187, 188, 189, 190],
      "AcquisitionTime": ["154700.347500", "154701.837500", "154703.327500", "154704.817500", "154706.307500", "154707.797500", "154709.287500", "154710.777500", "154712.267500", "154713.757500", "154715.247500", "154716.737500", "154718.227500", "154719.717500", "154721.207500", "154722.697500", "154724.187500", "154725.677500", "154727.167500", "154728.657500", "154730.147500", "154731.637500", "154733.127500", "154734.617500", "154736.107500", "154737.597500", "154739.087500", "154740.577500", "154742.067500", "154743.557500", "154745.047500", "154746.537500", "154748.027500", "154749.517500", "154751.007500", "154752.497500", "154753.987500", "154755.477500", "154756.967500", "154758.457500", "154759.947500", "154801.437500", "154802.927500", "154804.417500", "154805.907500", "154807.397500", "154808.887500", "154810.377500", "154811.867500", "154813.357500", "154814.847500", "154816.337500", "154817.827500", "154819.317500", "154820.807500", "154822.297500", "154823.787500", "154825.277500", "154826.767500", "154828.257500", "154829.747500", "154831.237500", "154832.727500", "154834.217500", "154835.707500", "154837.197500", "154838.687500", "154840.177500", "154841.667500", "154843.157500", "154844.647500", "154846.137500", "154847.627500", "154849.117500", "154850.607500", "154852.097500", "154853.587500", "154855.077500", "154856.567500", "154858.057500", "154859.547500", "154901.037500", "154902.527500", "154904.017500", "154905.507500", "154906.997500", "154908.487500", "154909.977500", "154911.467500", "154912.957500", "154914.447500", "154915.937500", "154917.427500", "154918.917500", "154920.407500", "154921.897500", "154923.387500", "154924.877500", "154926.367500", "154927.857500", "154929.347500", "154930.837500", "154932.327500", "154933.817500", "154935.307500", "154936.797500", "154938.287500", "154939.777500", "154941.267500", "154942.757500", "154944.247500", "154945.737500", "154947.227500", "154948.717500", "154950.207500", "154951.697500", "154953.187500", "154954.677500", "154956.167500", "154957.657500", "154959.147500", "155000.637500", "155002.127500", "155003.617500", "155005.107500", "155006.597500", "155008.087500", "155009.577500", "155011.067500", "155012.557500", "155014.047500", "155015.537500", "155017.027500", "155018.517500", "155020.007500", "155021.497500", "155022.987500", "155024.477500", "155025.967500", "155027.457500", "155028.947500", "155030.437500", "155031.927500", "155033.417500", "155034.907500", "155036.397500", "155037.887500", "155039.377500", "155040.867500", "155042.357500", "155043.847500", "155045.337500", "155046.827500", "155048.317500", "155049.807500", "155051.297500", "155052.787500", "155054.277500", "155055.767500", "155057.257500", "155058.747500", "155100.237500", "155101.727500", "155103.217500", "155104.707500", "155106.197500", "155107.687500", "155109.177500", "155110.667500", "155112.157500", "155113.647500", "155115.137500", "155116.627500", "155118.117500", "155119.607500", "155121.097500", "155122.587500", "155124.077500", "155125.567500", "155127.057500", "155128.547500", "155130.037500", "155131.527500", "155133.017500", "155134.507500", "155135.997500", "155137.487500", "155138.977500", "155140.467500", "155141.957500"],
      "ContentTime": ["154807.781000", "154807.784000", "154807.787000", "154807.789000", "154807.792000", "154807.794000", "154807.797000", "154807.799000", "154807.802000", "154807.804000", "154807.807000", "154807.809000", "154807.812000", "154807.814000", "154827.771000", "154827.774000", "154827.776000", "154827.779000", "154827.782000", "154827.784000", "154827.787000", "154827.789000", "154827.792000", "154827.794000", "154827.797000", "154827.799000", "154827.802000", "154827.804000", "154827.807000", "154827.809000", "154827.812000", "154827.814000", "154827.817000", "154827.819000", "154847.770000", "154847.773000", "154847.776000", "154847.778000", "154847.781000", "154847.783000", "154847.789000", "154847.791000", "154847.794000", "154847.796000", "154847.799000", "154847.801000", "154847.804000", "154847.807000", "154847.809000", "154847.811000", "154847.814000", "154847.817000", "154847.819000", "154847.821000", "154907.780000", "154907.783000", "154907.786000", "154907.788000", "154907.794000", "154907.796000", "154907.799000", "154907.801000", "154907.804000", "154907.806000", "154907.809000", "154907.811000", "154907.814000", "154907.816000", "154907.819000", "154907.821000", "154907.824000", "154907.826000", "154907.829000", "154907.831000", "154928.255000", "154928.257000", "154928.260000", "154928.262000", "154928.265000", "154928.267000", "154928.270000", "154928.273000", "154928.275000", "154928.278000", "154928.280000", "154928.283000", "154928.285000", "154928.288000", "154928.290000", "154928.293000", "154928.295000", "154928.298000", "154928.300000", "154928.303000", "154928.305000", "155007.817000", "155007.820000", "155007.823000", "155007.825000", "155007.828000", "155007.830000", "155007.833000", "155007.835000", "155007.838000", "155007.840000", "155007.843000", "155007.845000", "155007.848000", "155007.850000", "155007.853000", "155007.855000", "155007.858000", "155007.860000", "155007.863000", "155007.866000", "155007.868000", "155007.870000", "155007.873000", "155007.876000", "155007.878000", "155007.881000", "155007.883000", "155007.886000", "155007.888000", "155007.891000", "155047.802000", "155047.804000", "155047.807000", "155047.810000", "155047.812000", "155047.815000", "155047.817000", "155047.820000", "155047.822000", "155047.825000", "155047.827000", "155047.830000", "155047.832000", "155047.835000", "155047.837000", "155047.840000", "155047.842000", "155047.845000", "155047.848000", "155047.850000", "155047.853000", "155047.855000", "155047.858000", "155047.860000", "155047.863000", "155047.865000", "155047.868000", "155127.798000", "155127.800000", "155127.803000", "155127.805000", "155127.808000", "155127.811000", "155127.813000", "155127.816000", "155127.818000", "155127.821000", "155127.823000", "155127.826000", "155127.828000", "155127.831000", "155127.833000", "155127.836000", "155127.838000", "155127.841000", "155127.843000", "155127.846000", "155127.849000", "155127.851000", "155127.853000", "155127.856000", "155127.859000", "155127.861000", "155127.864000", "155144.043000", "155144.045000", "155144.048000", "155144.050000", "155144.053000", "155144.060000", "155144.062000", "155144.065000", "155144.067000", "155144.070000", "155144.072000"],
      "InstanceCreationTime": ["154807.781000", "154807.784000", "154807.787000", "154807.789000", "154807.792000", "154807.794000", "154807.797000", "154807.799000", "154807.802000", "154807.804000", "154807.807000", "154807.809000", "154807.812000", "154807.814000", "154827.771000", "154827.774000", "154827.776000", "154827.779000", "154827.782000", "154827.784000", "154827.787000", "154827.789000", "154827.792000", "154827.794000", "154827.797000", "154827.799000", "154827.802000", "154827.804000", "154827.807000", "154827.809000", "154827.812000", "154827.814000", "154827.817000", "154827.819000", "154847.770000", "154847.773000", "154847.776000", "154847.778000", "154847.781000", "154847.783000", "154847.789000", "154847.791000", "154847.794000", "154847.796000", "154847.799000", "154847.801000", "154847.804000", "154847.807000", "154847.809000", "154847.811000", "154847.814000", "154847.817000", "154847.819000", "154847.821000", "154907.780000", "154907.783000", "154907.786000", "154907.788000", "154907.794000", "154907.796000", "154907.799000", "154907.801000", "154907.804000", "154907.806000", "154907.809000", "154907.811000", "154907.814000", "154907.816000", "154907.819000", "154907.821000", "154907.824000", "154907.826000", "154907.829000", "154907.831000", "154928.255000", "154928.257000", "154928.260000", "154928.262000", "154928.265000", "154928.267000", "154928.270000", "154928.273000", "154928.275000", "154928.278000", "154928.280000", "154928.283000", "154928.285000", "154928.288000", "154928.290000", "154928.293000", "154928.295000", "154928.298000", "154928.300000", "154928.303000", "154928.305000", "155007.817000", "155007.820000", "155007.823000", "155007.825000", "155007.828000", "155007.830000", "155007.833000", "155007.835000", "155007.838000", "155007.840000", "155007.843000", "155007.845000", "155007.848000", "155007.850000", "155007.853000", "155007.855000", "155007.858000", "155007.860000", "155007.863000", "155007.866000", "155007.868000", "155007.870000", "155007.873000", "155007.876000", "155007.878000", "155007.881000", "155007.883000", "155007.886000", "155007.888000", "155007.891000", "155047.802000", "155047.804000", "155047.807000", "155047.810000", "155047.812000", "155047.815000", "155047.817000", "155047.820000", "155047.822000", "155047.825000", "155047.827000", "155047.830000", "155047.832000", "155047.835000", "155047.837000", "155047.840000", "155047.842000", "155047.845000", "155047.848000", "155047.850000", "155047.853000", "155047.855000", "155047.858000", "155047.860000", "155047.863000", "155047.865000", "155047.868000", "155127.798000", "155127.800000", "155127.803000", "155127.805000", "155127.808000", "155127.811000", "155127.813000", "155127.816000", "155127.818000", "155127.821000", "155127.823000", "155127.826000", "155127.828000", "155127.831000", "155127.833000", "155127.836000", "155127.838000", "155127.841000", "155127.843000", "155127.846000", "155127.849000", "155127.851000", "155127.853000", "155127.856000", "155127.859000", "155127.861000", "155127.864000", "155144.043000", "155144.045000", "155144.048000", "155144.050000", "155144.053000", "155144.060000", "155144.062000", "155144.065000", "155144.067000", "155144.070000", "155144.072000"],
      "InstanceNumber": [1, 2, 3, 4, 5, 6, 7, 8, 9, 10, 11, 12, 13, 14, 15, 16, 17, 18, 19, 20, 21, 22, 23, 24, 25, 26, 27, 28, 29, 30, 31, 32, 33, 34, 35, 36, 37, 38, 39, 40, 41, 42, 43, 44, 45, 46, 47, 48, 49, 50, 51, 52, 53, 54, 55, 56, 57, 58, 59, 60, 61, 62, 63, 64, 65, 66, 67, 68, 69, 70, 71, 72, 73, 74, 75, 76, 77, 78, 79, 80, 81, 82, 83, 84, 85, 86, 87, 88, 89, 90, 91, 92, 93, 94, 95, 96, 97, 98, 99, 100, 101, 102, 103, 104, 105, 106, 107, 108, 109, 110, 111, 112, 113, 114, 115, 116, 117, 118, 119, 120, 121, 122, 123, 124, 125, 126, 127, 128, 129, 130, 131, 132, 133, 134, 135, 136, 137, 138, 139, 140, 141, 142, 143, 144, 145, 146, 147, 148, 149, 150, 151, 152, 153, 154, 155, 156, 157, 158, 159, 160, 161, 162, 163, 164, 165, 166, 167, 168, 169, 170, 171, 172, 173, 174, 175, 176, 177, 178, 179, 180, 181, 182, 183, 184, 185, 186, 187, 188, 189, 190],
      "WindowCenter": [4862.0, 4864.0, 4860.0, 4888.0, 4888.0, 4856.0, 4860.0, 4832.0, 4864.0, 4860.0, 4864.0, 4862.0, 4864.0, 4866.0, 4884.0, 4914.0, 4864.0, 4856.0, 4828.0, 4834.0, 4858.0, 4856.0, 4886.0, 4886.0, 4886.0, 4864.0, 4858.0, 4886.0, 4864.0, 4832.0, 4836.0, 4886.0, 4860.0, 4834.0, 4858.0, 4908.0, 4900.0, 4854.0, 4890.0, 4834.0, 4828.0, 4800.0, 4862.0, 4914.0, 4912.0, 4882.0, 4888.0, 4888.0, 4860.0, 4830.0, 4858.0, 4890.0, 4860.0, 4864.0, 4910.0, 4890.0, 4862.0, 4858.0, 4886.0, 4858.0, 4860.0, 4862.0, 4864.0, 4860.0, 4886.0, 4860.0, 4858.0, 4858.0, 4858.0, 4886.0, 4860.0, 4860.0, 4860.0, 4858.0, 4860.0, 4860.0, 4864.0, 4856.0, 4884.0, 4854.0, 4882.0, 4884.0, 4854.0, 4856.0, 4854.0, 4856.0, 4886.0, 4856.0, 4854.0, 4860.0, 4856.0, 4906.0, 4888.0, 4862.0, 4860.0, 4912.0, 4912.0, 4832.0, 4852.0, 4906.0, 4876.0, 4824.0, 4860.0, 4830.0, 4834.0, 4856.0, 4860.0, 4884.0, 4886.0, 4888.0, 4886.0, 4908.0, 4914.0, 4858.0, 4834.0, 4832.0, 4826.0, 4860.0, 4858.0, 4884.0, 4886.0, 4886.0, 4908.0, 4884.0, 4862.0, 4856.0, 4858.0, 4858.0, 4832.0, 4860.0, 4858.0, 4884.0, 4884.0, 4888.0, 4888.0, 4860.0, 4860.0, 4858.0, 4860.0, 4860.0, 4858.0, 4884.0, 4884.0, 4886.0, 4886.0, 4884.0, 4856.0, 4862.0, 4882.0, 4834.0, 4860.0, 4888.0, 4910.0, 4912.0, 4886.0, 4888.0, 4862.0, 4858.0, 4828.0, 4830.0, 4834.0, 4888.0, 4884.0, 4884.0, 4888.0, 4884.0, 4882.0, 4862.0, 4858.0, 4854.0, 4834.0, 4858.0, 4882.0, 4860.0, 4888.0, 4856.0, 4886.0, 4858.0, 4886.0, 4860.0, 4860.0, 4862.0, 4856.0, 4880.0, 4860.0, 4862.0, 4860.0, 4858.0, 4886.0, 4860.0],
      "WindowWidth": [18620.0, 18628.0, 18624.0, 18672.0, 18668.0, 18618.0, 18620.0, 18584.0, 18630.0, 18616.0, 18634.0, 18630.0, 18630.0, 18628.0, 18664.0, 18710.0, 18628.0, 18612.0, 18582.0, 18588.0, 18618.0, 18610.0, 18662.0, 18660.0, 18664.0, 18620.0, 18624.0, 18680.0, 18630.0, 18582.0, 18588.0, 18660.0, 18622.0, 18582.0, 18622.0, 18704.0, 18704.0, 18634.0, 18664.0, 18586.0, 18578.0, 18550.0, 18626.0, 18716.0, 18706.0, 18660.0, 18672.0, 18678.0, 18624.0, 18578.0, 18624.0, 18674.0, 18624.0, 18628.0, 18712.0, 18666.0, 18628.0, 18620.0, 18664.0, 18620.0, 18622.0, 18622.0, 18624.0, 18626.0, 18676.0, 18630.0, 18626.0, 18630.0, 18624.0, 18668.0, 18620.0, 18630.0, 18624.0, 18624.0, 18628.0, 18626.0, 18634.0, 18622.0, 18658.0, 18626.0, 18670.0, 18674.0, 18628.0, 18630.0, 18632.0, 18632.0, 18666.0, 18626.0, 18624.0, 18628.0, 18626.0, 18704.0, 18666.0, 18626.0, 18628.0, 18712.0, 18710.0, 18584.0, 18624.0, 18730.0, 18668.0, 18582.0, 18624.0, 18586.0, 18582.0, 18620.0, 18626.0, 18664.0, 18664.0, 18672.0, 18668.0, 18708.0, 18714.0, 18624.0, 18588.0, 18584.0, 18578.0, 18624.0, 18628.0, 18674.0, 18666.0, 18672.0, 18714.0, 18668.0, 18632.0, 18616.0, 18620.0, 18618.0, 18586.0, 18628.0, 18626.0, 18664.0, 18660.0, 18670.0, 18668.0, 18622.0, 18624.0, 18618.0, 18620.0, 18628.0, 18618.0, 18670.0, 18668.0, 18664.0, 18668.0, 18666.0, 18620.0, 18628.0, 18658.0, 18584.0, 18622.0, 18668.0, 18698.0, 18708.0, 18668.0, 18676.0, 18626.0, 18622.0, 18584.0, 18580.0, 18586.0, 18676.0, 18664.0, 18662.0, 18672.0, 18656.0, 18662.0, 18630.0, 18622.0, 18616.0, 18588.0, 18630.0, 18670.0, 18632.0, 18668.0, 18626.0, 18660.0, 18622.0, 18666.0, 18630.0, 18630.0, 18630.0, 18616.0, 18660.0, 18626.0, 18630.0, 18630.0, 18622.0, 18666.0, 18628.0]
    },
    "slices": {}
  }
}