{
  "AcquisitionMatrixPE": 104,
  "AcquisitionNumber": 1,
  "AcquisitionTime": "15:47:0.347500",
  "BandwidthPerPixelPhaseEncode": 17.17,
  "BaseResolution": 104,
  "BodyPartExamined": "BRAIN",
  "CoilString": "HC1-7;NC1_2",
  "ConsistencyInfo": "N4_VE11C_LATEST_20160120",
  "ConversionSoftware": "dcm2niix",
  "ConversionSoftwareVersion": "v1.0.20190902",
  "DerivedVendorReportedEchoSpacing": 0.000560011,
  "DeviceSerialNumber": "167006",
  "DwellTime": 2.1e-06,
  "EchoTime": 0.037,
  "EchoTrainLength": 104,
  "EffectiveEchoSpacing": 0.000560011,
  "FlipAngle": 52,
  "ImageComments": "Unaliased_MB4_PE3_LB",
  "ImageOrientationPatientDICOM": [0.998206, -0.0574151, 0.0169529, 0.059829, 0.946841, -0.316091],
  "ImageType": [
    "ORIGINAL",
    "PRIMARY",
    "M",
    "MB",
    "ND",
    "MOSAIC"
],
  "ImagingFrequency": 123.259,
  "InPlanePhaseEncodingDirectionDICOM": "COL",
  "InstitutionAddress": "Chemin_Queen-Mary_4565_Montreal_District_CA_H3W_1W5",
  "InstitutionName": "IUGM",
  "InstitutionalDepartmentName": "Department",
  "MRAcquisitionType": "2D",
  "MagneticFieldStrength": 3,
  "Manufacturer": "Siemens",
  "ManufacturersModelName": "Prisma_fit",
  "Modality": "MR",
  "MultibandAccelerationFactor": 4,
  "PartialFourier": 1,
  "PatientPosition": "HFS",
  "PercentPhaseFOV": 100,
  "PhaseEncodingDirection": "j",
  "PhaseEncodingSteps": 104,
  "PhaseResolution": 1,
  "PixelBandwidth": 2290,
  "ProcedureStepDescription": "memory_things",
  "ProtocolName": "func_task-things_run-3",
  "PulseSequenceDetails": "%CustomerSeq%_cmrr_mbep2d_bold",
  "ReceiveCoilActiveElements": "HC1-7;NC1,2",
  "ReceiveCoilName": "HeadNeck_64",
  "ReconMatrixPE": 104,
  "RepetitionTime": 1.49,
  "SAR": 0.0530703,
  "ScanOptions": "FS",
  "ScanningSequence": "EP",
  "SequenceName": "epfid2d1_104",
  "SequenceVariant": "SK_SS",
  "SeriesDescription": "func_task-things_run-3",
  "SeriesNumber": 16,
  "ShimSetting": [636, -7269, -8798, 597, 8, -222, 1, -18],
  "SliceThickness": 2,
  "SliceTiming": [0, 0.785, 0.0975, 0.8825, 0.1975, 0.98, 0.295, 1.0775, 0.3925, 1.1775, 0.49, 1.275, 0.5875, 1.3725, 0.6875, 0, 0.785, 0.0975, 0.8825, 0.1975, 0.98, 0.295, 1.0775, 0.3925, 1.1775, 0.49, 1.275, 0.5875, 1.3725, 0.6875, 0, 0.785, 0.0975, 0.8825, 0.1975, 0.98, 0.295, 1.0775, 0.3925, 1.1775, 0.49, 1.275, 0.5875, 1.3725, 0.6875, 0, 0.785, 0.0975, 0.8825, 0.1975, 0.98, 0.295, 1.0775, 0.3925, 1.1775, 0.49, 1.275, 0.5875, 1.3725, 0.6875],
  "SoftwareVersions": "syngo_MR_E11",
  "SpacingBetweenSlices": 2,
  "StationName": "MRC35049",
  "TaskName": "things",
  "TotalReadoutTime": 0.0576811,
  "TxRefAmp": 271.336,
  "WipMemBlock": "e9805c63-11bf-4110-b645-af25cfa24cb0||Sequence: R016 ve11c/master r/e634e98; Dec 19 2017 11:00:25 by eja",
  "dcmmeta_affine": [
    [-1.9964128732681274, 0.11965793371200562, -0.004193298052996397, 101.14920043945312],
    [0.11483028531074524, 1.893681287765503, -0.6330758929252625, -72.67975616455078],
    [0.033905889838933945, 0.6321811676025391, 1.8971551656723022, -57.841670989990234],
    [0.0, 0.0, 0.0, 1.0]
],
  "dcmmeta_reorient_transform": [
    [0.0, -1.0, 0.0, 103.0],
    [1.0, 0.0, 0.0, 0.0],
    [0.0, 0.0, 1.0, 0.0],
    [0.0, 0.0, 0.0, 1.0]
],
  "dcmmeta_shape": [104, 104, 60, 190],
  "dcmmeta_slice_dim": 2,
  "dcmmeta_version": 0.6,
  "global": {
    "const": {
      "AcquisitionMatrix": [104, 0, 0, 104],
      "AngioFlag": "N",
      "BitsAllocated": 16,
      "BitsStored": 16,
      "BodyPartExamined": "BRAIN",
      "Columns": 832,
      "EchoNumbers": 1,
      "EchoTime": 37.0,
      "EchoTrainLength": 104,
      "FlipAngle": 52.0,
      "HighBit": 15,
      "ImageOrientationPatient": [0.99820644103764, -0.0574151438629, 0.01695294446907, 0.05982896567824, 0.94684066245966, -0.3160905800223],
      "ImagePositionPatient": [-883.72374183106, -769.87119498572, 225.04518673048],
      "ImageType": [
        "ORIGINAL",
        "PRIMARY",
        "M",
        "MB",
        "ND",
        "MOSAIC"
],
      "ImagedNucleus": "1H",
      "ImagingFrequency": 123.259048,
      "InPlanePhaseEncodingDirection": "COL",
      "MRAcquisitionType": "2D",
      "MagneticFieldStrength": 3.0,
      "Manufacturer": "SIEMENS",
      "ManufacturerModelName": "Prisma_fit",
      "Modality": "MR",
      "NumberOfAverages": 1.0,
      "NumberOfPhaseEncodingSteps": 104,
      "PercentPhaseFieldOfView": 100.0,
      "PercentSampling": 100.0,
      "PerformedProcedureStepStartTime": "153050.212000",
      "PhotometricInterpretation": "MONOCHROME2",
      "PixelBandwidth": 2290.0,
      "PixelRepresentation": 0,
      "PixelSpacing": [2.0, 2.0],
      "ProtocolName": "func_task-things_run-3",
      "RepetitionTime": 1490.0,
      "Rows": 832,
      "SAR": 0.05307026102542,
      "SamplesPerPixel": 1,
      "ScanOptions": "FS",
      "ScanningSequence": "EP",
      "SequenceName": "epfid2d1_104",
      "SequenceVariant": [
        "SK",
        "SS"
],
      "SeriesDescription": "func_task-things_run-3",
      "SeriesNumber": 16,
      "SeriesTime": "154807.696000",
      "SliceLocation": -32.073484087405,
      "SliceThickness": 2.0,
      "SmallestImagePixelValue": 0,
      "SoftwareVersions": "syngo MR E11",
      "SpacingBetweenSlices": 2.0000000396452,
      "SpecificCharacterSet": "ISO_IR 100",
      "StudyID": "1",
      "StudyTime": "153050.073000",
      "TransmitCoilName": "Body",
      "VariableFlipAngleFlag": "N",
      "WindowCenterWidthExplanation": "Algo1",
      "dBdt": 0.0},
    "slices": {}
  },
  "time": {
    "samples": {
      "AcquisitionNumber": [1, 2, 3, 4, 5, 6, 7, 8, 9, 10, 11, 12, 13, 14, 15, 16, 17, 18, 19, 20, 21, 22, 23, 24, 25, 26, 27, 28, 29, 30, 31, 32, 33, 34, 35, 36, 37, 38, 39, 40, 41, 42, 43, 44, 45, 46, 47, 48, 49, 50, 51, 52, 53, 54, 55, 56, 57, 58, 59, 60, 61, 62, 63, 64, 65, 66, 67, 68, 69, 70, 71, 72, 73, 74, 75, 76, 77, 78, 79, 80, 81, 82, 83, 84, 85, 86, 87, 88, 89, 90, 91, 92, 93, 94, 95, 96, 97, 98, 99, 100, 101, 102, 103, 104, 105, 106, 107, 108, 109, 110, 111, 112, 113, 114, 115, 116, 117, 118, 119, 120, 121, 122, 123, 124, 125, 126, 127, 128, 129, 130, 131, 132, 133, 134, 135, 136, 137, 138, 139, 140, 141, 142, 143, 144, 145, 146, 147, 148, 149, 150, 151, 152, 153, 154, 155, 156, 157, 158, 159, 160, 161, 162, 163, 164, 165, 166, 167, 168, 169, 170, 171, 172, 173, 174, 175, 176, 177, 178, 179, 180, 181, 182, 183, 184, 185, 186, 187, 188, 189, 190],
      "AcquisitionTime": ["154700.347500", "154701.837500", "154703.327500", "154704.817500", "154706.307500", "154707.797500", "154709.287500", "154710.777500", "154712.267500", "154713.757500", "154715.247500", "154716.737500", "154718.227500", "154719.717500", "154721.207500", "154722.697500", "154724.187500", "154725.677500", "154727.167500", "154728.657500", "154730.147500", "154731.637500", "154733.127500", "154734.617500", "154736.107500", "154737.597500", "154739.087500", "154740.577500", "154742.067500", "154743.557500", "154745.047500", "154746.537500", "154748.027500", "154749.517500", "154751.007500", "154752.497500", "154753.987500", "154755.477500", "154756.967500", "154758.457500", "154759.947500", "154801.437500", "154802.927500", "154804.417500", "154805.907500", "154807.397500", "154808.887500", "154810.377500", "154811.867500", "154813.357500", "154814.847500", "154816.337500", "154817.827500", "154819.317500", "154820.807500", "154822.297500", "154823.787500", "154825.277500", "154826.767500", "154828.257500", "154829.747500", "154831.237500", "154832.727500", "154834.217500", "154835.707500", "154837.197500", "154838.687500", "154840.177500", "154841.667500", "154843.157500", "154844.647500", "154846.137500", "154847.627500", "154849.117500", "154850.607500", "154852.097500", "154853.587500", "154855.077500", "154856.567500", "154858.057500", "154859.547500", "154901.037500", "154902.527500", "154904.017500", "154905.507500", "154906.997500", "154908.487500", "154909.977500", "154911.467500", "154912.957500", "154914.447500", "154915.937500", "154917.427500", "154918.917500", "154920.407500", "154921.897500", "154923.387500", "154924.877500", "154926.367500", "154927.857500", "154929.347500", "154930.837500", "154932.327500", "154933.817500", "154935.307500", "154936.797500", "154938.287500", "154939.777500", "154941.267500", "154942.757500", "154944.247500", "154945.737500", "154947.227500", "154948.717500", "154950.207500", "154951.697500", "154953.187500", "154954.677500", "154956.167500", "154957.657500", "154959.147500", "155000.637500", "155002.127500", "155003.617500", "155005.107500", "155006.597500", "155008.087500", "155009.577500", "155011.067500", "155012.557500", "155014.047500", "155015.537500", "155017.027500", "155018.517500", "155020.007500", "155021.497500", "155022.987500", "155024.477500", "155025.967500", "155027.457500", "155028.947500", "155030.437500", "155031.927500", "155033.417500", "155034.907500", "155036.397500", "155037.887500", "155039.377500", "155040.867500", "155042.357500", "155043.847500", "155045.337500", "155046.827500", "155048.317500", "155049.807500", "155051.297500", "155052.787500", "155054.277500", "155055.767500", "155057.257500", "155058.747500", "155100.237500", "155101.727500", "155103.217500", "155104.707500", "155106.197500", "155107.687500", "155109.177500", "155110.667500", "155112.157500", "155113.647500", "155115.137500", "155116.627500", "155118.117500", "155119.607500", "155121.097500", "155122.587500", "155124.077500", "155125.567500", "155127.057500", "155128.547500", "155130.037500", "155131.527500", "155133.017500", "155134.507500", "155135.997500", "155137.487500", "155138.977500", "155140.467500", "155141.957500"],
      "ContentTime": ["154807.699000", "154807.703000", "154807.706000", "154807.710000", "154807.713000", "154807.716000", "154807.720000", "154807.723000", "154807.726000", "154807.730000", "154807.734000", "154807.737000", "154807.741000", "154807.744000", "154827.662000", "154827.666000", "154827.669000", "154827.672000", "154827.676000", "154827.679000", "154827.682000", "154827.686000", "154827.689000", "154827.696000", "154827.699000", "154827.703000", "154827.706000", "154827.709000", "154827.713000", "154827.716000", "154827.719000", "154827.723000", "154827.726000", "154827.729000", "154847.662000", "154847.666000", "154847.669000", "154847.672000", "154847.676000", "154847.679000", "154847.682000", "154847.686000", "154847.689000", "154847.692000", "154847.696000", "154847.699000", "154847.702000", "154847.706000", "154847.709000", "154847.712000", "154847.716000", "154847.719000", "154847.722000", "154847.726000", "154907.662000", "154907.666000", "154907.669000", "154907.673000", "154907.676000", "154907.679000", "154907.691000", "154907.694000", "154907.697000", "154907.701000", "154907.704000", "154907.707000", "154907.711000", "154907.714000", "154907.717000", "154907.721000", "154907.724000", "154907.727000", "154907.731000", "154907.734000", "154927.662000", "154927.666000", "154927.669000", "154927.672000", "154927.675000", "154927.679000", "154927.682000", "154927.685000", "154927.689000", "154927.692000", "154927.695000", "154927.699000", "154927.702000", "154927.706000", "154927.710000", "154927.713000", "154927.716000", "154927.720000", "154927.723000", "154927.726000", "154927.740000", "155007.662000", "155007.666000", "155007.669000", "155007.673000", "155007.676000", "155007.680000", "155007.683000", "155007.686000", "155007.689000", "155007.693000", "155007.696000", "155007.700000", "155007.703000", "155007.706000", "155007.710000", "155007.713000", "155007.716000", "155007.720000", "155007.723000", "155007.726000", "155007.730000", "155007.733000", "155007.736000", "155007.740000", "155007.743000", "155007.746000", "155007.750000", "155007.753000", "155007.756000", "155007.760000", "155047.662000", "155047.666000", "155047.670000", "155047.673000", "155047.676000", "155047.680000", "155047.683000", "155047.686000", "155047.689000", "155047.693000", "155047.696000", "155047.700000", "155047.703000", "155047.706000", "155047.710000", "155047.713000", "155047.716000", "155047.720000", "155047.723000", "155047.726000", "155047.730000", "155047.733000", "155047.736000", "155047.740000", "155047.743000", "155047.747000", "155047.750000", "155127.662000", "155127.666000", "155127.669000", "155127.673000", "155127.676000", "155127.679000", "155127.683000", "155127.686000", "155127.690000", "155127.693000", "155127.696000", "155127.700000", "155127.703000", "155127.706000", "155127.709000", "155127.713000", "155127.716000", "155127.720000", "155127.723000", "155127.726000", "155127.730000", "155127.733000", "155127.736000", "155127.740000", "155127.743000", "155127.746000", "155127.749000", "155143.972000", "155143.976000", "155143.979000", "155143.983000", "155143.986000", "155143.990000", "155143.993000", "155143.996000", "155144.001000", "155144.004000", "155144.007000"],
      "InstanceCreationTime": ["154807.699000", "154807.703000", "154807.706000", "154807.710000", "154807.713000", "154807.716000", "154807.720000", "154807.723000", "154807.726000", "154807.730000", "154807.734000", "154807.737000", "154807.741000", "154807.744000", "154827.662000", "154827.666000", "154827.669000", "154827.672000", "154827.676000", "154827.679000", "154827.682000", "154827.686000", "154827.689000", "154827.696000", "154827.699000", "154827.703000", "154827.706000", "154827.709000", "154827.713000", "154827.716000", "154827.719000", "154827.723000", "154827.726000", "154827.729000", "154847.662000", "154847.666000", "154847.669000", "154847.672000", "154847.676000", "154847.679000", "154847.682000", "154847.686000", "154847.689000", "154847.692000", "154847.696000", "154847.699000", "154847.702000", "154847.706000", "154847.709000", "154847.712000", "154847.716000", "154847.719000", "154847.722000", "154847.726000", "154907.662000", "154907.666000", "154907.669000", "154907.673000", "154907.676000", "154907.679000", "154907.691000", "154907.694000", "154907.697000", "154907.701000", "154907.704000", "154907.707000", "154907.711000", "154907.714000", "154907.717000", "154907.721000", "154907.724000", "154907.727000", "154907.731000", "154907.734000", "154927.662000", "154927.666000", "154927.669000", "154927.672000", "154927.675000", "154927.679000", "154927.682000", "154927.685000", "154927.689000", "154927.692000", "154927.695000", "154927.699000", "154927.702000", "154927.706000", "154927.710000", "154927.713000", "154927.716000", "154927.720000", "154927.723000", "154927.726000", "154927.740000", "155007.662000", "155007.666000", "155007.669000", "155007.673000", "155007.676000", "155007.680000", "155007.683000", "155007.686000", "155007.689000", "155007.693000", "155007.696000", "155007.700000", "155007.703000", "155007.706000", "155007.710000", "155007.713000", "155007.716000", "155007.720000", "155007.723000", "155007.726000", "155007.730000", "155007.733000", "155007.736000", "155007.740000", "155007.743000", "155007.746000", "155007.750000", "155007.753000", "155007.756000", "155007.760000", "155047.662000", "155047.666000", "155047.670000", "155047.673000", "155047.676000", "155047.680000", "155047.683000", "155047.686000", "155047.689000", "155047.693000", "155047.696000", "155047.700000", "155047.703000", "155047.706000", "155047.710000", "155047.713000", "155047.716000", "155047.720000", "155047.723000", "155047.726000", "155047.730000", "155047.733000", "155047.736000", "155047.740000", "155047.743000", "155047.747000", "155047.750000", "155127.662000", "155127.666000", "155127.669000", "155127.673000", "155127.676000", "155127.679000", "155127.683000", "155127.686000", "155127.690000", "155127.693000", "155127.696000", "155127.700000", "155127.703000", "155127.706000", "155127.709000", "155127.713000", "155127.716000", "155127.720000", "155127.723000", "155127.726000", "155127.730000", "155127.733000", "155127.736000", "155127.740000", "155127.743000", "155127.746000", "155127.749000", "155143.972000", "155143.976000", "155143.979000", "155143.983000", "155143.986000", "155143.990000", "155143.993000", "155143.996000", "155144.001000", "155144.004000", "155144.007000"],
      "InstanceNumber": [1, 2, 3, 4, 5, 6, 7, 8, 9, 10, 11, 12, 13, 14, 15, 16, 17, 18, 19, 20, 21, 22, 23, 24, 25, 26, 27, 28, 29, 30, 31, 32, 33, 34, 35, 36, 37, 38, 39, 40, 41, 42, 43, 44, 45, 46, 47, 48, 49, 50, 51, 52, 53, 54, 55, 56, 57, 58, 59, 60, 61, 62, 63, 64, 65, 66, 67, 68, 69, 70, 71, 72, 73, 74, 75, 76, 77, 78, 79, 80, 81, 82, 83, 84, 85, 86, 87, 88, 89, 90, 91, 92, 93, 94, 95, 96, 97, 98, 99, 100, 101, 102, 103, 104, 105, 106, 107, 108, 109, 110, 111, 112, 113, 114, 115, 116, 117, 118, 119, 120, 121, 122, 123, 124, 125, 126, 127, 128, 129, 130, 131, 132, 133, 134, 135, 136, 137, 138, 139, 140, 141, 142, 143, 144, 145, 146, 147, 148, 149, 150, 151, 152, 153, 154, 155, 156, 157, 158, 159, 160, 161, 162, 163, 164, 165, 166, 167, 168, 169, 170, 171, 172, 173, 174, 175, 176, 177, 178, 179, 180, 181, 182, 183, 184, 185, 186, 187, 188, 189, 190],
      "LargestImagePixelValue": [40877, 40348, 39375, 38950, 38860, 38742, 38239, 38505, 38431, 38689, 38126, 38517, 38643, 38367, 38652, 38532, 38721, 38112, 38312, 38239, 38405, 38448, 38224, 38472, 38492, 38642, 38675, 38921, 39042, 39080, 38491, 38089, 38980, 38679, 38633, 38773, 40687, 40668, 40990, 39153, 38288, 38830, 38268, 38291, 38463, 38264, 38546, 38379, 37900, 38441, 38204, 39152, 38589, 38574, 38922, 38725, 38617, 39181, 38984, 39083, 38977, 38758, 39234, 39115, 39025, 38927, 39266, 39059, 39187, 39521, 39703, 39948, 39373, 39188, 39198, 39368, 39078, 39408, 39282, 39165, 39512, 39692, 39004, 39455, 39452, 39558, 39330, 39395, 39453, 39553, 39479, 38951, 39560, 39209, 39283, 39233, 39645, 38974, 39461, 39533, 40610, 40076, 39476, 38382, 38777, 38988, 39400, 39558, 39626, 37837, 39753, 39490, 39517, 39190, 39505, 39043, 39247, 39292, 39300, 38877, 39456, 39643, 39596, 39889, 39591, 39530, 39331, 39342, 39524, 39639, 39447, 39435, 39328, 39630, 39372, 39570, 39895, 39270, 39830, 39681, 39375, 39622, 39689, 39070, 39715, 39138, 38819, 39229, 38653, 39248, 38934, 39933, 39501, 39557, 39316, 39463, 39400, 39135, 39198, 39134, 38902, 38855, 39269, 39342, 39394, 39722, 39563, 39707, 39516, 39913, 39698, 39470, 40367, 39568, 39847, 40257, 39945, 40145, 39732, 39701, 40367, 39894, 40410, 40553, 40731, 40692, 40339, 40747, 40656, 40495],
      "WindowCenter": [10410.0, 10367.0, 10340.0, 10343.0, 10334.0, 10334.0, 10311.0, 10293.0, 10289.0, 10281.0, 10282.0, 10290.0, 10298.0, 10285.0, 10280.0, 10282.0, 10295.0, 10291.0, 10270.0, 10261.0, 10265.0, 10266.0, 10268.0, 10274.0, 10284.0, 10274.0, 10265.0, 10270.0, 10285.0, 10328.0, 10325.0, 10304.0, 10290.0, 10260.0, 10242.0, 10250.0, 10304.0, 10349.0, 10328.0, 10280.0, 10236.0, 10223.0, 10231.0, 10254.0, 10266.0, 10260.0, 10250.0, 10260.0, 10298.0, 10314.0, 10315.0, 10320.0, 10295.0, 10274.0, 10262.0, 10260.0, 10265.0, 10271.0, 10278.0, 10285.0, 10282.0, 10265.0, 10268.0, 10267.0, 10283.0, 10296.0, 10312.0, 10290.0, 10289.0, 10298.0, 10308.0, 10338.0, 10335.0, 10313.0, 10292.0, 10280.0, 10282.0, 10285.0, 10295.0, 10293.0, 10300.0, 10303.0, 10283.0, 10288.0, 10282.0, 10297.0, 10297.0, 10304.0, 10304.0, 10284.0, 10280.0, 10265.0, 10252.0, 10289.0, 10294.0, 10301.0, 10316.0, 10312.0, 10296.0, 10312.0, 10322.0, 10294.0, 10317.0, 10290.0, 10269.0, 10237.0, 10194.0, 10195.0, 10217.0, 10233.0, 10272.0, 10297.0, 10307.0, 10295.0, 10290.0, 10281.0, 10293.0, 10310.0, 10321.0, 10334.0, 10332.0, 10314.0, 10304.0, 10324.0, 10313.0, 10303.0, 10295.0, 10301.0, 10290.0, 10293.0, 10282.0, 10297.0, 10285.0, 10271.0, 10301.0, 10326.0, 10327.0, 10303.0, 10284.0, 10286.0, 10282.0, 10303.0, 10296.0, 10284.0, 10312.0, 10307.0, 10297.0, 10290.0, 10271.0, 10273.0, 10274.0, 10272.0, 10268.0, 10265.0, 10254.0, 10294.0, 10301.0, 10283.0, 10267.0, 10257.0, 10242.0, 10249.0, 10256.0, 10267.0, 10255.0, 10253.0, 10268.0, 10293.0, 10307.0, 10304.0, 10281.0, 10275.0, 10305.0, 10329.0, 10343.0, 10337.0, 10323.0, 10304.0, 10289.0, 10294.0, 10322.0, 10319.0, 10303.0, 10286.0, 10268.0, 10275.0, 10275.0, 10282.0, 10298.0, 10300.0],
      "WindowWidth": [22489.0, 22352.0, 22270.0, 22264.0, 22239.0, 22233.0, 22177.0, 22135.0, 22121.0, 22100.0, 22104.0, 22122.0, 22142.0, 22111.0, 22096.0, 22107.0, 22136.0, 22129.0, 22080.0, 22060.0, 22067.0, 22073.0, 22079.0, 22090.0, 22112.0, 22089.0, 22069.0, 22082.0, 22117.0, 22212.0, 22209.0, 22159.0, 22125.0, 22059.0, 22015.0, 22032.0, 22155.0, 22267.0, 22207.0, 22099.0, 21994.0, 21967.0, 21983.0, 22038.0, 22068.0, 22055.0, 22032.0, 22053.0, 22142.0, 22176.0, 22174.0, 22186.0, 22133.0, 22083.0, 22055.0, 22055.0, 22066.0, 22078.0, 22093.0, 22109.0, 22106.0, 22065.0, 22069.0, 22067.0, 22106.0, 22141.0, 22175.0, 22127.0, 22123.0, 22139.0, 22165.0, 22230.0, 22226.0, 22178.0, 22131.0, 22103.0, 22107.0, 22116.0, 22140.0, 22134.0, 22148.0, 22150.0, 22108.0, 22117.0, 22104.0, 22139.0, 22142.0, 22159.0, 22159.0, 22110.0, 22103.0, 22073.0, 22042.0, 22127.0, 22136.0, 22150.0, 22187.0, 22184.0, 22140.0, 22182.0, 22205.0, 22140.0, 22196.0, 22127.0, 22075.0, 22001.0, 21905.0, 21900.0, 21950.0, 21999.0, 22080.0, 22139.0, 22162.0, 22139.0, 22123.0, 22101.0, 22127.0, 22165.0, 22192.0, 22223.0, 22219.0, 22179.0, 22154.0, 22200.0, 22177.0, 22151.0, 22135.0, 22145.0, 22126.0, 22129.0, 22105.0, 22138.0, 22116.0, 22078.0, 22148.0, 22207.0, 22208.0, 22159.0, 22116.0, 22115.0, 22108.0, 22154.0, 22144.0, 22116.0, 22178.0, 22168.0, 22147.0, 22130.0, 22088.0, 22089.0, 22093.0, 22084.0, 22074.0, 22061.0, 22049.0, 22133.0, 22150.0, 22110.0, 22078.0, 22050.0, 22017.0, 22031.0, 22049.0, 22074.0, 22049.0, 22043.0, 22079.0, 22135.0, 22168.0, 22157.0, 22107.0, 22097.0, 22160.0, 22221.0, 22249.0, 22238.0, 22208.0, 22161.0, 22128.0, 22138.0, 22199.0, 22195.0, 22159.0, 22117.0, 22078.0, 22096.0, 22094.0, 22111.0, 22147.0, 22152.0]
    },
    "slices": {}
  }
}