{
  "AcquisitionMatrixPE": 104,
  "AcquisitionNumber": 1,
  "AcquisitionTime": "15:53:3.885000",
  "BandwidthPerPixelPhaseEncode": 17.17,
  "BaseResolution": 104,
  "BodyPartExamined": "BRAIN",
  "CoilString": "HC1-7;NC1_2",
  "ConsistencyInfo": "N4_VE11C_LATEST_20160120",
  "ConversionSoftware": "dcm2niix",
  "ConversionSoftwareVersion": "v1.0.20190902",
  "DerivedVendorReportedEchoSpacing": 0.000560011,
  "DeviceSerialNumber": "167006",
  "DwellTime": 2.1e-06,
  "EchoTime": 0.037,
  "EchoTrainLength": 104,
  "EffectiveEchoSpacing": 0.000560011,
  "FlipAngle": 52,
  "ImageComments": "Unaliased_MB4_PE3_LB",
  "ImageOrientationPatientDICOM": [0.998206, -0.0574151, 0.0169529, 0.059829, 0.946841, -0.316091],
  "ImageType": [
    "ORIGINAL",
    "PRIMARY",
    "P",
    "MB",
    "ND",
    "MOSAIC"
],
  "ImagingFrequency": 123.259,
  "InPlanePhaseEncodingDirectionDICOM": "COL",
  "InstitutionAddress": "Chemin_Queen-Mary_4565_Montreal_District_CA_H3W_1W5",
  "InstitutionName": "IUGM",
  "InstitutionalDepartmentName": "Department",
  "MRAcquisitionType": "2D",
  "MagneticFieldStrength": 3,
  "Manufacturer": "Siemens",
  "ManufacturersModelName": "Prisma_fit",
  "Modality": "MR",
  "MultibandAccelerationFactor": 4,
  "PartialFourier": 1,
  "PatientPosition": "HFS",
  "PercentPhaseFOV": 100,
  "PhaseEncodingDirection": "j",
  "PhaseEncodingSteps": 104,
  "PhaseResolution": 1,
  "PixelBandwidth": 2290,
  "ProcedureStepDescription": "memory_things",
  "ProtocolName": "func_task-things_run-4",
  "PulseSequenceDetails": "%CustomerSeq%_cmrr_mbep2d_bold",
  "ReceiveCoilActiveElements": "HC1-7;NC1,2",
  "ReceiveCoilName": "HeadNeck_64",
  "ReconMatrixPE": 104,
  "RepetitionTime": 1.49,
  "SAR": 0.0530703,
  "ScanOptions": "FS",
  "ScanningSequence": "EP",
  "SequenceName": "epfid2d1_104",
  "SequenceVariant": "SK_SS",
  "SeriesDescription": "func_task-things_run-4",
  "SeriesNumber": 20,
  "ShimSetting": [636, -7269, -8798, 597, 8, -222, 1, -18],
  "SliceThickness": 2,
  "SliceTiming": [0, 0.7825, 0.0975, 0.88, 0.195, 0.98, 0.2925, 1.0775, 0.39, 1.175, 0.49, 1.2725, 0.5875, 1.37, 0.685, 0, 0.7825, 0.0975, 0.88, 0.195, 0.98, 0.2925, 1.0775, 0.39, 1.175, 0.49, 1.2725, 0.5875, 1.37, 0.685, 0, 0.7825, 0.0975, 0.88, 0.195, 0.98, 0.2925, 1.0775, 0.39, 1.175, 0.49, 1.2725, 0.5875, 1.37, 0.685, 0, 0.7825, 0.0975, 0.88, 0.195, 0.98, 0.2925, 1.0775, 0.39, 1.175, 0.49, 1.2725, 0.5875, 1.37, 0.685],
  "SoftwareVersions": "syngo_MR_E11",
  "SpacingBetweenSlices": 2,
  "StationName": "MRC35049",
  "TaskName": "things",
  "TotalReadoutTime": 0.0576811,
  "TxRefAmp": 271.336,
  "WipMemBlock": "2eab5e13-3e2c-4272-8dd2-80e483c4f410||Sequence: R016 ve11c/master r/e634e98; Dec 19 2017 11:00:25 by eja",
  "dcmmeta_affine": [
    [-1.9964128732681274, 0.11965793371200562, -0.004193298052996397, 101.14920043945312],
    [0.11483028531074524, 1.893681287765503, -0.6330758929252625, -72.67975616455078],
    [0.033905889838933945, 0.6321811676025391, 1.8971551656723022, -57.841670989990234],
    [0.0, 0.0, 0.0, 1.0]
],
  "dcmmeta_reorient_transform": [
    [0.0, -1.0, 0.0, 103.0],
    [1.0, 0.0, 0.0, 0.0],
    [0.0, 0.0, 1.0, 0.0],
    [0.0, 0.0, 0.0, 1.0]
],
  "dcmmeta_shape": [104, 104, 60, 190],
  "dcmmeta_slice_dim": 2,
  "dcmmeta_version": 0.6,
  "global": {
    "const": {
      "AcquisitionMatrix": [104, 0, 0, 104],
      "AngioFlag": "N",
      "BitsAllocated": 16,
      "BitsStored": 16,
      "BodyPartExamined": "BRAIN",
      "Columns": 832,
      "EchoNumbers": 1,
      "EchoTime": 37.0,
      "EchoTrainLength": 104,
      "FlipAngle": 52.0,
      "HighBit": 15,
      "ImageOrientationPatient": [0.99820644103764, -0.0574151438629, 0.01695294446907, 0.05982896567824, 0.94684066245966, -0.3160905800223],
      "ImagePositionPatient": [-883.72374183106, -769.87119498572, 225.04518673048],
      "ImageType": [
        "ORIGINAL",
        "PRIMARY",
        "P",
        "MB",
        "ND",
        "MOSAIC"
],
      "ImagedNucleus": "1H",
      "ImagingFrequency": 123.259053,
      "InPlanePhaseEncodingDirection": "COL",
      "LargestImagePixelValue": 4095,
      "MRAcquisitionType": "2D",
      "MagneticFieldStrength": 3.0,
      "Manufacturer": "SIEMENS",
      "ManufacturerModelName": "Prisma_fit",
      "Modality": "MR",
      "NumberOfAverages": 1.0,
      "NumberOfPhaseEncodingSteps": 104,
      "PercentPhaseFieldOfView": 100.0,
      "PercentSampling": 100.0,
      "PerformedProcedureStepStartTime": "153050.212000",
      "PhotometricInterpretation": "MONOCHROME2",
      "PixelBandwidth": 2290.0,
      "PixelRepresentation": 0,
      "PixelSpacing": [2.0, 2.0],
      "ProtocolName": "func_task-things_run-4",
      "RepetitionTime": 1490.0,
      "RescaleIntercept": -4096.0,
      "RescaleSlope": 2.0,
      "RescaleType": "US",
      "Rows": 832,
      "SAR": 0.05307026102542,
      "SamplesPerPixel": 1,
      "ScanOptions": "FS",
      "ScanningSequence": "EP",
      "SequenceName": "epfid2d1_104",
      "SequenceVariant": [
        "SK",
        "SS"
],
      "SeriesDescription": "func_task-things_run-4",
      "SeriesNumber": 20,
      "SeriesTime": "155419.349000",
      "SliceLocation": -32.073484087405,
      "SliceThickness": 2.0,
      "SmallestImagePixelValue": 0,
      "SoftwareVersions": "syngo MR E11",
      "SpacingBetweenSlices": 2.0000000396452,
      "SpecificCharacterSet": "ISO_IR 100",
      "StudyID": "1",
      "StudyTime": "153050.073000",
      "TransmitCoilName": "Body",
      "VariableFlipAngleFlag": "N",
      "WindowCenterWidthExplanation": "Algo1",
      "dBdt": 0.0},
    "slices": {}
  },
  "time": {
    "samples": {
      "AcquisitionNumber": [1, 2, 3, 4, 5, 6, 7, 8, 9, 10, 11, 12, 13, 14, 15, 16, 17, 18, 19, 20, 21, 22, 23, 24, 25, 26, 27, 28, 29, 30, 31, 32, 33, 34, 35, 36, 37, 38, 39, 40, 41, 42, 43, 44, 45, 46, 47, 48, 49, 50, 51, 52, 53, 54, 55, 56, 57, 58, 59, 60, 61, 62, 63, 64, 65, 66, 67, 68, 69, 70, 71, 72, 73, 74, 75, 76, 77, 78, 79, 80, 81, 82, 83, 84, 85, 86, 87, 88, 89, 90, 91, 92, 93, 94, 95, 96, 97, 98, 99, 100, 101, 102, 103, 104, 105, 106, 107, 108, 109, 110, 111, 112, 113, 114, 115, 116, 117, 118, 119, 120, 121, 122, 123, 124, 125, 126, 127, 128, 129, 130, 131, 132, 133, 134, 135, 136, 137, 138, 139, 140, 141, 142, 143, 144, 145, 146, 147, 148, 149, 150, 151, 152, 153, 154, 155, 156, 157, 158, 159, 160, 161, 162, 163, 164, 165, 166, 167, 168, 169, 170, 171, 172, 173, 174, 175, 176, 177, 178, 179, 180, 181, 182, 183, 184, 185, 186, 187, 188, 189, 190],
      "AcquisitionTime": ["155303.885000", "155305.375000", "155306.865000", "155308.355000", "155309.845000", "155311.335000", "155312.825000", "155314.315000", "155315.805000", "155317.295000", "155318.785000", "155320.275000", "155321.765000", "155323.255000", "155324.745000", "155326.235000", "155327.725000", "155329.215000", "155330.705000", "155332.195000", "155333.685000", "155335.175000", "155336.665000", "155338.155000", "155339.645000", "155341.135000", "155342.625000", "155344.115000", "155345.605000", "155347.095000", "155348.585000", "155350.075000", "155351.565000", "155353.055000", "155354.545000", "155356.035000", "155357.525000", "155359.015000", "155400.505000", "155401.995000", "155403.485000", "155404.975000", "155406.465000", "155407.955000", "155409.445000", "155410.935000", "155412.425000", "155413.915000", "155415.405000", "155416.895000", "155418.385000", "155419.875000", "155421.365000", "155422.855000", "155424.345000", "155425.835000", "155427.325000", "155428.815000", "155430.305000", "155431.795000", "155433.285000", "155434.775000", "155436.265000", "155437.755000", "155439.245000", "155440.735000", "155442.225000", "155443.715000", "155445.205000", "155446.695000", "155448.185000", "155449.675000", "155451.165000", "155452.655000", "155454.145000", "155455.635000", "155457.125000", "155458.615000", "155500.105000", "155501.595000", "155503.085000", "155504.575000", "155506.065000", "155507.555000", "155509.045000", "155510.535000", "155512.025000", "155513.515000", "155515.005000", "155516.495000", "155517.985000", "155519.475000", "155520.965000", "155522.455000", "155523.945000", "155525.435000", "155526.925000", "155528.415000", "155529.905000", "155531.395000", "155532.885000", "155534.375000", "155535.865000", "155537.355000", "155538.845000", "155540.335000", "155541.825000", "155543.315000", "155544.805000", "155546.295000", "155547.785000", "155549.275000", "155550.765000", "155552.255000", "155553.745000", "155555.235000", "155556.725000", "155558.215000", "155559.705000", "155601.195000", "155602.685000", "155604.175000", "155605.665000", "155607.155000", "155608.645000", "155610.135000", "155611.625000", "155613.115000", "155614.605000", "155616.095000", "155617.585000", "155619.075000", "155620.565000", "155622.055000", "155623.545000", "155625.035000", "155626.525000", "155628.015000", "155629.505000", "155630.995000", "155632.485000", "155633.975000", "155635.465000", "155636.955000", "155638.445000", "155639.935000", "155641.425000", "155642.915000", "155644.405000", "155645.895000", "155647.385000", "155648.875000", "155650.365000", "155651.855000", "155653.345000", "155654.835000", "155656.325000", "155657.815000", "155659.305000", "155700.795000", "155702.285000", "155703.775000", "155705.265000", "155706.755000", "155708.245000", "155709.735000", "155711.225000", "155712.715000", "155714.205000", "155715.695000", "155717.185000", "155718.675000", "155720.165000", "155721.655000", "155723.145000", "155724.635000", "155726.125000", "155727.615000", "155729.105000", "155730.595000", "155732.085000", "155733.575000", "155735.065000", "155736.555000", "155738.045000", "155739.535000", "155741.025000", "155742.515000", "155744.005000", "155745.495000"],
      "ContentTime": ["155419.351000", "155419.353000", "155419.356000", "155419.358000", "155419.361000", "155419.363000", "155419.366000", "155419.368000", "155419.371000", "155419.373000", "155419.376000", "155419.378000", "155419.381000", "155419.384000", "155419.386000", "155419.388000", "155419.391000", "155419.394000", "155419.396000", "155419.398000", "155419.406000", "155439.285000", "155439.288000", "155439.291000", "155439.293000", "155439.296000", "155439.298000", "155439.301000", "155439.310000", "155439.313000", "155439.315000", "155439.318000", "155439.321000", "155439.323000", "155439.325000", "155439.328000", "155439.330000", "155439.333000", "155439.335000", "155439.338000", "155439.341000", "155459.290000", "155459.293000", "155459.295000", "155459.298000", "155459.300000", "155459.303000", "155459.305000", "155459.308000", "155459.310000", "155459.313000", "155459.315000", "155459.318000", "155459.321000", "155459.323000", "155459.326000", "155459.328000", "155459.331000", "155459.333000", "155459.336000", "155459.338000", "155519.290000", "155519.293000", "155519.295000", "155519.298000", "155519.300000", "155519.303000", "155519.305000", "155519.308000", "155519.310000", "155519.313000", "155519.315000", "155519.318000", "155519.320000", "155519.323000", "155519.325000", "155519.328000", "155519.330000", "155519.333000", "155519.335000", "155519.339000", "155519.342000", "155539.300000", "155539.303000", "155539.305000", "155539.308000", "155539.310000", "155539.313000", "155539.315000", "155539.318000", "155539.320000", "155539.323000", "155539.326000", "155539.328000", "155539.331000", "155539.333000", "155539.336000", "155539.338000", "155539.341000", "155539.343000", "155539.346000", "155539.348000", "155559.270000", "155559.273000", "155559.275000", "155559.277000", "155559.280000", "155559.282000", "155559.285000", "155559.288000", "155559.290000", "155559.293000", "155559.295000", "155559.298000", "155559.300000", "155559.303000", "155559.305000", "155639.340000", "155639.343000", "155639.350000", "155639.352000", "155639.355000", "155639.357000", "155639.360000", "155639.362000", "155639.365000", "155639.367000", "155639.370000", "155639.373000", "155639.375000", "155639.378000", "155639.380000", "155639.383000", "155639.385000", "155639.388000", "155639.390000", "155639.393000", "155639.395000", "155639.398000", "155639.401000", "155639.403000", "155639.406000", "155639.408000", "155719.325000", "155719.328000", "155719.330000", "155719.333000", "155719.335000", "155719.338000", "155719.340000", "155719.343000", "155719.345000", "155719.348000", "155719.351000", "155719.353000", "155719.356000", "155719.358000", "155719.361000", "155719.363000", "155719.366000", "155719.368000", "155719.371000", "155719.374000", "155719.376000", "155719.379000", "155719.381000", "155719.389000", "155719.391000", "155719.394000", "155719.396000", "155747.953000", "155747.955000", "155747.966000", "155747.969000", "155747.971000", "155747.974000", "155747.976000", "155747.979000", "155747.982000", "155747.984000", "155747.987000", "155747.989000", "155747.992000", "155747.994000", "155747.997000", "155748.000000", "155748.003000", "155748.005000", "155748.008000", "155748.010000"],
      "InstanceCreationTime": ["155419.351000", "155419.353000", "155419.356000", "155419.358000", "155419.361000", "155419.363000", "155419.366000", "155419.368000", "155419.371000", "155419.373000", "155419.376000", "155419.378000", "155419.381000", "155419.384000", "155419.386000", "155419.388000", "155419.391000", "155419.394000", "155419.396000", "155419.398000", "155419.406000", "155439.285000", "155439.288000", "155439.291000", "155439.293000", "155439.296000", "155439.298000", "155439.301000", "155439.310000", "155439.313000", "155439.315000", "155439.318000", "155439.321000", "155439.323000", "155439.325000", "155439.328000", "155439.330000", "155439.333000", "155439.335000", "155439.338000", "155439.341000", "155459.290000", "155459.293000", "155459.295000", "155459.298000", "155459.300000", "155459.303000", "155459.305000", "155459.308000", "155459.310000", "155459.313000", "155459.315000", "155459.318000", "155459.321000", "155459.323000", "155459.326000", "155459.328000", "155459.331000", "155459.333000", "155459.336000", "155459.338000", "155519.290000", "155519.293000", "155519.295000", "155519.298000", "155519.300000", "155519.303000", "155519.305000", "155519.308000", "155519.310000", "155519.313000", "155519.315000", "155519.318000", "155519.320000", "155519.323000", "155519.325000", "155519.328000", "155519.330000", "155519.333000", "155519.335000", "155519.339000", "155519.342000", "155539.300000", "155539.303000", "155539.305000", "155539.308000", "155539.310000", "155539.313000", "155539.315000", "155539.318000", "155539.320000", "155539.323000", "155539.326000", "155539.328000", "155539.331000", "155539.333000", "155539.336000", "155539.338000", "155539.341000", "155539.343000", "155539.346000", "155539.348000", "155559.270000", "155559.273000", "155559.275000", "155559.277000", "155559.280000", "155559.282000", "155559.285000", "155559.288000", "155559.290000", "155559.293000", "155559.295000", "155559.298000", "155559.300000", "155559.303000", "155559.305000", "155639.340000", "155639.343000", "155639.350000", "155639.352000", "155639.355000", "155639.357000", "155639.360000", "155639.362000", "155639.365000", "155639.367000", "155639.370000", "155639.373000", "155639.375000", "155639.378000", "155639.380000", "155639.383000", "155639.385000", "155639.388000", "155639.390000", "155639.393000", "155639.395000", "155639.398000", "155639.401000", "155639.403000", "155639.406000", "155639.408000", "155719.325000", "155719.328000", "155719.330000", "155719.333000", "155719.335000", "155719.338000", "155719.340000", "155719.343000", "155719.345000", "155719.348000", "155719.351000", "155719.353000", "155719.356000", "155719.358000", "155719.361000", "155719.363000", "155719.366000", "155719.368000", "155719.371000", "155719.374000", "155719.376000", "155719.379000", "155719.381000", "155719.389000", "155719.391000", "155719.394000", "155719.396000", "155747.953000", "155747.955000", "155747.966000", "155747.969000", "155747.971000", "155747.974000", "155747.976000", "155747.979000", "155747.982000", "155747.984000", "155747.987000", "155747.989000", "155747.992000", "155747.994000", "155747.997000", "155748.000000", "155748.003000", "155748.005000", "155748.008000", "155748.010000"],
      "InstanceNumber": [1, 2, 3, 4, 5, 6, 7, 8, 9, 10, 11, 12, 13, 14, 15, 16, 17, 18, 19, 20, 21, 22, 23, 24, 25, 26, 27, 28, 29, 30, 31, 32, 33, 34, 35, 36, 37, 38, 39, 40, 41, 42, 43, 44, 45, 46, 47, 48, 49, 50, 51, 52, 53, 54, 55, 56, 57, 58, 59, 60, 61, 62, 63, 64, 65, 66, 67, 68, 69, 70, 71, 72, 73, 74, 75, 76, 77, 78, 79, 80, 81, 82, 83, 84, 85, 86, 87, 88, 89, 90, 91, 92, 93, 94, 95, 96, 97, 98, 99, 100, 101, 102, 103, 104, 105, 106, 107, 108, 109, 110, 111, 112, 113, 114, 115, 116, 117, 118, 119, 120, 121, 122, 123, 124, 125, 126, 127, 128, 129, 130, 131, 132, 133, 134, 135, 136, 137, 138, 139, 140, 141, 142, 143, 144, 145, 146, 147, 148, 149, 150, 151, 152, 153, 154, 155, 156, 157, 158, 159, 160, 161, 162, 163, 164, 165, 166, 167, 168, 169, 170, 171, 172, 173, 174, 175, 176, 177, 178, 179, 180, 181, 182, 183, 184, 185, 186, 187, 188, 189, 190],
      "WindowCenter": [4860.0, 4856.0, 4858.0, 4828.0, 4826.0, 4824.0, 4832.0, 4882.0, 4888.0, 4886.0, 4910.0, 4884.0, 4828.0, 4826.0, 4824.0, 4824.0, 4882.0, 4886.0, 4860.0, 4886.0, 4832.0, 4832.0, 4834.0, 4832.0, 4828.0, 4854.0, 4832.0, 4858.0, 4832.0, 4832.0, 4858.0, 4828.0, 4832.0, 4830.0, 4828.0, 4858.0, 4830.0, 4856.0, 4832.0, 4854.0, 4854.0, 4854.0, 4882.0, 4858.0, 4856.0, 4854.0, 4826.0, 4832.0, 4828.0, 4852.0, 4852.0, 4854.0, 4858.0, 4860.0, 4892.0, 4854.0, 4834.0, 4828.0, 4826.0, 4832.0, 4826.0, 4854.0, 4832.0, 4852.0, 4854.0, 4832.0, 4832.0, 4856.0, 4854.0, 4860.0, 4888.0, 4830.0, 4824.0, 4804.0, 4834.0, 4830.0, 4858.0, 4882.0, 4856.0, 4858.0, 4854.0, 4856.0, 4856.0, 4834.0, 4858.0, 4832.0, 4826.0, 4832.0, 4828.0, 4856.0, 4860.0, 4884.0, 4854.0, 4856.0, 4856.0, 4830.0, 4828.0, 4860.0, 4854.0, 4830.0, 4854.0, 4834.0, 4884.0, 4856.0, 4828.0, 4852.0, 4828.0, 4832.0, 4828.0, 4854.0, 4832.0, 4856.0, 4858.0, 4830.0, 4882.0, 4854.0, 4832.0, 4860.0, 4884.0, 4856.0, 4832.0, 4854.0, 4828.0, 4802.0, 4860.0, 4862.0, 4832.0, 4884.0, 4884.0, 4830.0, 4826.0, 4876.0, 4912.0, 4856.0, 4824.0, 4824.0, 4830.0, 4854.0, 4856.0, 4884.0, 4860.0, 4858.0, 4830.0, 4828.0, 4832.0, 4832.0, 4854.0, 4856.0, 4828.0, 4854.0, 4830.0, 4852.0, 4830.0, 4856.0, 4832.0, 4886.0, 4882.0, 4828.0, 4824.0, 4826.0, 4854.0, 4858.0, 4858.0, 4886.0, 4858.0, 4858.0, 4830.0, 4824.0, 4830.0, 4854.0, 4830.0, 4856.0, 4856.0, 4858.0, 4858.0, 4858.0, 4832.0, 4882.0, 4914.0, 4856.0, 4826.0, 4796.0, 4818.0, 4824.0, 4830.0, 4884.0, 4906.0, 4884.0, 4884.0, 4904.0],
      "WindowWidth": [18634.0, 18624.0, 18622.0, 18576.0, 18576.0, 18580.0, 18590.0, 18668.0, 18676.0, 18660.0, 18714.0, 18666.0, 18580.0, 18580.0, 18582.0, 18576.0, 18660.0, 18664.0, 18626.0, 18668.0, 18590.0, 18582.0, 18586.0, 18582.0, 18586.0, 18620.0, 18594.0, 18624.0, 18590.0, 18586.0, 18624.0, 18584.0, 18588.0, 18586.0, 18586.0, 18622.0, 18586.0, 18622.0, 18584.0, 18616.0, 18626.0, 18616.0, 18668.0, 18636.0, 18620.0, 18620.0, 18584.0, 18592.0, 18582.0, 18622.0, 18622.0, 18618.0, 18620.0, 18620.0, 18670.0, 18614.0, 18582.0, 18580.0, 18576.0, 18586.0, 18582.0, 18618.0, 18586.0, 18618.0, 18616.0, 18586.0, 18590.0, 18618.0, 18616.0, 18626.0, 18666.0, 18584.0, 18578.0, 18546.0, 18588.0, 18584.0, 18630.0, 18656.0, 18622.0, 18622.0, 18618.0, 18622.0, 18620.0, 18586.0, 18622.0, 18588.0, 18578.0, 18584.0, 18582.0, 18624.0, 18622.0, 18672.0, 18620.0, 18612.0, 18624.0, 18584.0, 18582.0, 18636.0, 18616.0, 18580.0, 18620.0, 18588.0, 18668.0, 18620.0, 18582.0, 18620.0, 18584.0, 18590.0, 18586.0, 18618.0, 18590.0, 18624.0, 18632.0, 18590.0, 18678.0, 18626.0, 18588.0, 18630.0, 18666.0, 18622.0, 18584.0, 18622.0, 18584.0, 18546.0, 18614.0, 18630.0, 18586.0, 18664.0, 18670.0, 18586.0, 18582.0, 18672.0, 18708.0, 18624.0, 18582.0, 18580.0, 18586.0, 18624.0, 18622.0, 18670.0, 18632.0, 18626.0, 18590.0, 18584.0, 18586.0, 18590.0, 18620.0, 18622.0, 18582.0, 18618.0, 18588.0, 18622.0, 18586.0, 18628.0, 18590.0, 18670.0, 18658.0, 18582.0, 18582.0, 18576.0, 18624.0, 18628.0, 18626.0, 18672.0, 18618.0, 18632.0, 18584.0, 18580.0, 18588.0, 18618.0, 18584.0, 18618.0, 18626.0, 18622.0, 18638.0, 18624.0, 18594.0, 18680.0, 18724.0, 18630.0, 18576.0, 18544.0, 18574.0, 18576.0, 18588.0, 18672.0, 18712.0, 18672.0, 18672.0, 18720.0]
    },
    "slices": {}
  }
}