{
  "AcquisitionMatrixPE": 104,
  "AcquisitionNumber": 1,
  "AcquisitionTime": "15:34:27.965000",
  "BandwidthPerPixelPhaseEncode": 17.17,
  "BaseResolution": 104,
  "BodyPartExamined": "BRAIN",
  "CoilString": "HC1-7;NC1_2",
  "ConsistencyInfo": "N4_VE11C_LATEST_20160120",
  "ConversionSoftware": "dcm2niix",
  "ConversionSoftwareVersion": "v1.0.20190902",
  "DerivedVendorReportedEchoSpacing": 0.000560011,
  "DeviceSerialNumber": "167006",
  "DwellTime": 2.1e-06,
  "EchoTime": 0.037,
  "EchoTrainLength": 104,
  "EffectiveEchoSpacing": 0.000560011,
  "FlipAngle": 52,
  "ImageComments": "Unaliased_MB4_PE3_LB",
  "ImageOrientationPatientDICOM": [0.998206, -0.0574151, 0.0169529, 0.059829, 0.946841, -0.316091],
  "ImageType": [
    "ORIGINAL",
    "PRIMARY",
    "M",
    "MB",
    "ND",
    "MOSAIC"
],
  "ImagingFrequency": 123.259,
  "InPlanePhaseEncodingDirectionDICOM": "COL",
  "InstitutionAddress": "Chemin_Queen-Mary_4565_Montreal_District_CA_H3W_1W5",
  "InstitutionName": "IUGM",
  "InstitutionalDepartmentName": "Department",
  "MRAcquisitionType": "2D",
  "MagneticFieldStrength": 3,
  "Manufacturer": "Siemens",
  "ManufacturersModelName": "Prisma_fit",
  "Modality": "MR",
  "MultibandAccelerationFactor": 4,
  "PartialFourier": 1,
  "PatientPosition": "HFS",
  "PercentPhaseFOV": 100,
  "PhaseEncodingDirection": "j",
  "PhaseEncodingSteps": 104,
  "PhaseResolution": 1,
  "PixelBandwidth": 2290,
  "ProcedureStepDescription": "memory_things",
  "ProtocolName": "func_task-things_run-1",
  "PulseSequenceDetails": "%CustomerSeq%_cmrr_mbep2d_bold",
  "ReceiveCoilActiveElements": "HC1-7;NC1,2",
  "ReceiveCoilName": "HeadNeck_64",
  "ReconMatrixPE": 104,
  "RepetitionTime": 1.49,
  "SAR": 0.0530703,
  "ScanOptions": "FS",
  "ScanningSequence": "EP",
  "SequenceName": "epfid2d1_104",
  "SequenceVariant": "SK_SS",
  "SeriesDescription": "func_task-things_run-1",
  "SeriesNumber": 10,
  "ShimSetting": [636, -7269, -8798, 597, 8, -222, 1, -18],
  "SliceThickness": 2,
  "SliceTiming": [0, 0.7825, 0.0975, 0.88, 0.195, 0.98, 0.2925, 1.0775, 0.39, 1.175, 0.49, 1.2725, 0.5875, 1.37, 0.685, 0, 0.7825, 0.0975, 0.88, 0.195, 0.98, 0.2925, 1.0775, 0.39, 1.175, 0.49, 1.2725, 0.5875, 1.37, 0.685, 0, 0.7825, 0.0975, 0.88, 0.195, 0.98, 0.2925, 1.0775, 0.39, 1.175, 0.49, 1.2725, 0.5875, 1.37, 0.685, 0, 0.7825, 0.0975, 0.88, 0.195, 0.98, 0.2925, 1.0775, 0.39, 1.175, 0.49, 1.2725, 0.5875, 1.37, 0.685],
  "SoftwareVersions": "syngo_MR_E11",
  "SpacingBetweenSlices": 2,
  "StationName": "MRC35049",
  "TaskName": "things",
  "TotalReadoutTime": 0.0576811,
  "TxRefAmp": 271.336,
  "WipMemBlock": "039ce70f-db80-4945-a24b-b28ca9d68a67||Sequence: R016 ve11c/master r/e634e98; Dec 19 2017 11:00:25 by eja",
  "dcmmeta_affine": [
    [-1.9964128732681274, 0.11965793371200562, -0.004193298052996397, 101.14920043945312],
    [0.11483028531074524, 1.893681287765503, -0.6330758929252625, -72.67975616455078],
    [0.033905889838933945, 0.6321811676025391, 1.8971551656723022, -57.841670989990234],
    [0.0, 0.0, 0.0, 1.0]
],
  "dcmmeta_reorient_transform": [
    [0.0, -1.0, 0.0, 103.0],
    [1.0, 0.0, 0.0, 0.0],
    [0.0, 0.0, 1.0, 0.0],
    [0.0, 0.0, 0.0, 1.0]
],
  "dcmmeta_shape": [104, 104, 60, 190],
  "dcmmeta_slice_dim": 2,
  "dcmmeta_version": 0.6,
  "global": {
    "const": {
      "AcquisitionMatrix": [104, 0, 0, 104],
      "AngioFlag": "N",
      "BitsAllocated": 16,
      "BitsStored": 16,
      "BodyPartExamined": "BRAIN",
      "Columns": 832,
      "EchoNumbers": 1,
      "EchoTime": 37.0,
      "EchoTrainLength": 104,
      "FlipAngle": 52.0,
      "HighBit": 15,
      "ImageOrientationPatient": [0.99820644103764, -0.0574151438629, 0.01695294446907, 0.05982896567824, 0.94684066245966, -0.3160905800223],
      "ImagePositionPatient": [-883.72374183106, -769.87119498572, 225.04518673048],
      "ImageType": [
        "ORIGINAL",
        "PRIMARY",
        "M",
        "MB",
        "ND",
        "MOSAIC"
],
      "ImagedNucleus": "1H",
      "ImagingFrequency": 123.259042,
      "InPlanePhaseEncodingDirection": "COL",
      "MRAcquisitionType": "2D",
      "MagneticFieldStrength": 3.0,
      "Manufacturer": "SIEMENS",
      "ManufacturerModelName": "Prisma_fit",
      "Modality": "MR",
      "NumberOfAverages": 1.0,
      "NumberOfPhaseEncodingSteps": 104,
      "PercentPhaseFieldOfView": 100.0,
      "PercentSampling": 100.0,
      "PerformedProcedureStepStartTime": "153050.212000",
      "PhotometricInterpretation": "MONOCHROME2",
      "PixelBandwidth": 2290.0,
      "PixelRepresentation": 0,
      "PixelSpacing": [2.0, 2.0],
      "ProtocolName": "func_task-things_run-1",
      "RepetitionTime": 1490.0,
      "Rows": 832,
      "SAR": 0.05307026102542,
      "SamplesPerPixel": 1,
      "ScanOptions": "FS",
      "ScanningSequence": "EP",
      "SequenceName": "epfid2d1_104",
      "SequenceVariant": [
        "SK",
        "SS"
],
      "SeriesDescription": "func_task-things_run-1",
      "SeriesNumber": 10,
      "SeriesTime": "153559.216000",
      "SliceLocation": -32.073484087405,
      "SliceThickness": 2.0,
      "SmallestImagePixelValue": 0,
      "SoftwareVersions": "syngo MR E11",
      "SpacingBetweenSlices": 2.0000000396452,
      "SpecificCharacterSet": "ISO_IR 100",
      "StudyID": "1",
      "StudyTime": "153050.073000",
      "TransmitCoilName": "Body",
      "VariableFlipAngleFlag": "N",
      "WindowCenterWidthExplanation": "Algo1",
      "dBdt": 0.0},
    "slices": {}
  },
  "time": {
    "samples": {
      "AcquisitionNumber": [1, 2, 3, 4, 5, 6, 7, 8, 9, 10, 11, 12, 13, 14, 15, 16, 17, 18, 19, 20, 21, 22, 23, 24, 25, 26, 27, 28, 29, 30, 31, 32, 33, 34, 35, 36, 37, 38, 39, 40, 41, 42, 43, 44, 45, 46, 47, 48, 49, 50, 51, 52, 53, 54, 55, 56, 57, 58, 59, 60, 61, 62, 63, 64, 65, 66, 67, 68, 69, 70, 71, 72, 73, 74, 75, 76, 77, 78, 79, 80, 81, 82, 83, 84, 85, 86, 87, 88, 89, 90, 91, 92, 93, 94, 95, 96, 97, 98, 99, 100, 101, 102, 103, 104, 105, 106, 107, 108, 109, 110, 111, 112, 113, 114, 115, 116, 117, 118, 119, 120, 121, 122, 123, 124, 125, 126, 127, 128, 129, 130, 131, 132, 133, 134, 135, 136, 137, 138, 139, 140, 141, 142, 143, 144, 145, 146, 147, 148, 149, 150, 151, 152, 153, 154, 155, 156, 157, 158, 159, 160, 161, 162, 163, 164, 165, 166, 167, 168, 169, 170, 171, 172, 173, 174, 175, 176, 177, 178, 179, 180, 181, 182, 183, 184, 185, 186, 187, 188, 189, 190],
      "AcquisitionTime": ["153427.965000", "153429.455000", "153430.945000", "153432.435000", "153433.925000", "153435.415000", "153436.905000", "153438.395000", "153439.885000", "153441.375000", "153442.865000", "153444.355000", "153445.845000", "153447.335000", "153448.825000", "153450.315000", "153451.805000", "153453.295000", "153454.785000", "153456.275000", "153457.765000", "153459.255000", "153500.745000", "153502.235000", "153503.725000", "153505.215000", "153506.705000", "153508.195000", "153509.685000", "153511.175000", "153512.665000", "153514.155000", "153515.645000", "153517.135000", "153518.625000", "153520.115000", "153521.605000", "153523.095000", "153524.585000", "153526.075000", "153527.565000", "153529.055000", "153530.545000", "153532.035000", "153533.525000", "153535.015000", "153536.505000", "153537.995000", "153539.485000", "153540.975000", "153542.465000", "153543.955000", "153545.445000", "153546.935000", "153548.425000", "153549.915000", "153551.405000", "153552.895000", "153554.385000", "153555.875000", "153557.365000", "153558.855000", "153600.345000", "153601.835000", "153603.325000", "153604.815000", "153606.305000", "153607.795000", "153609.285000", "153610.775000", "153612.265000", "153613.755000", "153615.245000", "153616.735000", "153618.225000", "153619.715000", "153621.205000", "153622.695000", "153624.185000", "153625.675000", "153627.165000", "153628.655000", "153630.145000", "153631.635000", "153633.125000", "153634.615000", "153636.105000", "153637.595000", "153639.085000", "153640.575000", "153642.065000", "153643.555000", "153645.045000", "153646.535000", "153648.025000", "153649.515000", "153651.005000", "153652.495000", "153653.985000", "153655.475000", "153656.965000", "153658.455000", "153659.945000", "153701.435000", "153702.925000", "153704.415000", "153705.905000", "153707.395000", "153708.885000", "153710.375000", "153711.865000", "153713.355000", "153714.845000", "153716.335000", "153717.825000", "153719.315000", "153720.805000", "153722.295000", "153723.785000", "153725.275000", "153726.765000", "153728.255000", "153729.745000", "153731.235000", "153732.725000", "153734.215000", "153735.705000", "153737.195000", "153738.685000", "153740.175000", "153741.665000", "153743.155000", "153744.645000", "153746.135000", "153747.625000", "153749.115000", "153750.605000", "153752.095000", "153753.585000", "153755.075000", "153756.565000", "153758.055000", "153759.545000", "153801.035000", "153802.525000", "153804.015000", "153805.505000", "153806.995000", "153808.485000", "153809.975000", "153811.465000", "153812.955000", "153814.445000", "153815.935000", "153817.425000", "153818.915000", "153820.405000", "153821.895000", "153823.385000", "153824.875000", "153826.365000", "153827.855000", "153829.345000", "153830.835000", "153832.325000", "153833.815000", "153835.305000", "153836.795000", "153838.285000", "153839.775000", "153841.265000", "153842.755000", "153844.245000", "153845.735000", "153847.225000", "153848.715000", "153850.205000", "153851.695000", "153853.185000", "153854.675000", "153856.165000", "153857.655000", "153859.145000", "153900.635000", "153902.125000", "153903.615000", "153905.105000", "153906.595000", "153908.085000", "153909.575000"],
      "ContentTime": ["153559.219000", "153559.222000", "153559.226000", "153559.229000", "153559.242000", "153559.245000", "153559.249000", "153559.252000", "153559.255000", "153559.259000", "153559.262000", "153559.265000", "153559.268000", "153559.272000", "153559.275000", "153559.278000", "153559.282000", "153559.285000", "153559.288000", "153559.291000", "153559.295000", "153559.298000", "153559.301000", "153559.304000", "153559.308000", "153559.318000", "153559.321000", "153559.324000", "153559.328000", "153559.332000", "153559.335000", "153559.339000", "153559.342000", "153559.345000", "153559.349000", "153559.352000", "153559.355000", "153619.176000", "153619.180000", "153619.183000", "153619.186000", "153619.190000", "153619.193000", "153619.196000", "153619.200000", "153619.203000", "153619.206000", "153619.210000", "153619.213000", "153619.216000", "153619.220000", "153619.223000", "153619.226000", "153619.229000", "153619.233000", "153619.236000", "153619.239000", "153619.243000", "153639.176000", "153639.180000", "153639.183000", "153639.186000", "153639.190000", "153639.193000", "153639.196000", "153639.200000", "153639.203000", "153639.206000", "153639.209000", "153639.213000", "153639.216000", "153639.219000", "153639.223000", "153639.226000", "153639.229000", "153639.232000", "153639.236000", "153639.239000", "153659.176000", "153659.180000", "153659.183000", "153659.187000", "153659.190000", "153659.193000", "153659.197000", "153659.200000", "153659.203000", "153659.206000", "153659.210000", "153659.213000", "153659.216000", "153659.220000", "153659.223000", "153659.226000", "153659.230000", "153659.233000", "153659.236000", "153659.240000", "153739.176000", "153739.180000", "153739.183000", "153739.187000", "153739.190000", "153739.193000", "153739.197000", "153739.200000", "153739.203000", "153739.207000", "153739.210000", "153739.214000", "153739.217000", "153739.220000", "153739.224000", "153739.227000", "153739.230000", "153739.234000", "153739.237000", "153739.241000", "153739.244000", "153739.247000", "153739.251000", "153739.254000", "153739.257000", "153739.261000", "153739.264000", "153739.267000", "153739.271000", "153819.176000", "153819.180000", "153819.183000", "153819.187000", "153819.190000", "153819.194000", "153819.197000", "153819.200000", "153819.203000", "153819.207000", "153819.210000", "153819.214000", "153819.217000", "153819.220000", "153819.223000", "153819.227000", "153819.230000", "153819.233000", "153819.237000", "153819.240000", "153819.243000", "153819.247000", "153819.250000", "153819.253000", "153819.257000", "153819.260000", "153819.263000", "153859.176000", "153859.180000", "153859.184000", "153859.187000", "153859.191000", "153859.194000", "153859.197000", "153859.201000", "153859.204000", "153859.207000", "153859.211000", "153859.214000", "153859.217000", "153859.221000", "153859.224000", "153859.228000", "153859.231000", "153859.234000", "153859.237000", "153859.241000", "153859.244000", "153859.248000", "153859.251000", "153859.269000", "153859.272000", "153859.275000", "153859.279000", "153911.738000", "153911.742000", "153911.745000", "153911.749000", "153911.752000", "153911.756000", "153911.759000", "153911.763000", "153911.766000"],
      "InstanceCreationTime": ["153559.219000", "153559.222000", "153559.226000", "153559.229000", "153559.242000", "153559.245000", "153559.249000", "153559.252000", "153559.255000", "153559.259000", "153559.262000", "153559.265000", "153559.268000", "153559.272000", "153559.275000", "153559.278000", "153559.282000", "153559.285000", "153559.288000", "153559.291000", "153559.295000", "153559.298000", "153559.301000", "153559.304000", "153559.308000", "153559.318000", "153559.321000", "153559.324000", "153559.328000", "153559.332000", "153559.335000", "153559.339000", "153559.342000", "153559.345000", "153559.349000", "153559.352000", "153559.355000", "153619.176000", "153619.180000", "153619.183000", "153619.186000", "153619.190000", "153619.193000", "153619.196000", "153619.200000", "153619.203000", "153619.206000", "153619.210000", "153619.213000", "153619.216000", "153619.220000", "153619.223000", "153619.226000", "153619.229000", "153619.233000", "153619.236000", "153619.239000", "153619.243000", "153639.176000", "153639.180000", "153639.183000", "153639.186000", "153639.190000", "153639.193000", "153639.196000", "153639.200000", "153639.203000", "153639.206000", "153639.209000", "153639.213000", "153639.216000", "153639.219000", "153639.223000", "153639.226000", "153639.229000", "153639.232000", "153639.236000", "153639.239000", "153659.176000", "153659.180000", "153659.183000", "153659.187000", "153659.190000", "153659.193000", "153659.197000", "153659.200000", "153659.203000", "153659.206000", "153659.210000", "153659.213000", "153659.216000", "153659.220000", "153659.223000", "153659.226000", "153659.230000", "153659.233000", "153659.236000", "153659.240000", "153739.176000", "153739.180000", "153739.183000", "153739.187000", "153739.190000", "153739.193000", "153739.197000", "153739.200000", "153739.203000", "153739.207000", "153739.210000", "153739.214000", "153739.217000", "153739.220000", "153739.224000", "153739.227000", "153739.230000", "153739.234000", "153739.237000", "153739.241000", "153739.244000", "153739.247000", "153739.251000", "153739.254000", "153739.257000", "153739.261000", "153739.264000", "153739.267000", "153739.271000", "153819.176000", "153819.180000", "153819.183000", "153819.187000", "153819.190000", "153819.194000", "153819.197000", "153819.200000", "153819.203000", "153819.207000", "153819.210000", "153819.214000", "153819.217000", "153819.220000", "153819.223000", "153819.227000", "153819.230000", "153819.233000", "153819.237000", "153819.240000", "153819.243000", "153819.247000", "153819.250000", "153819.253000", "153819.257000", "153819.260000", "153819.263000", "153859.176000", "153859.180000", "153859.184000", "153859.187000", "153859.191000", "153859.194000", "153859.197000", "153859.201000", "153859.204000", "153859.207000", "153859.211000", "153859.214000", "153859.217000", "153859.221000", "153859.224000", "153859.228000", "153859.231000", "153859.234000", "153859.237000", "153859.241000", "153859.244000", "153859.248000", "153859.251000", "153859.269000", "153859.272000", "153859.275000", "153859.279000", "153911.738000", "153911.742000", "153911.745000", "153911.749000", "153911.752000", "153911.756000", "153911.759000", "153911.763000", "153911.766000"],
      "InstanceNumber": [1, 2, 3, 4, 5, 6, 7, 8, 9, 10, 11, 12, 13, 14, 15, 16, 17, 18, 19, 20, 21, 22, 23, 24, 25, 26, 27, 28, 29, 30, 31, 32, 33, 34, 35, 36, 37, 38, 39, 40, 41, 42, 43, 44, 45, 46, 47, 48, 49, 50, 51, 52, 53, 54, 55, 56, 57, 58, 59, 60, 61, 62, 63, 64, 65, 66, 67, 68, 69, 70, 71, 72, 73, 74, 75, 76, 77, 78, 79, 80, 81, 82, 83, 84, 85, 86, 87, 88, 89, 90, 91, 92, 93, 94, 95, 96, 97, 98, 99, 100, 101, 102, 103, 104, 105, 106, 107, 108, 109, 110, 111, 112, 113, 114, 115, 116, 117, 118, 119, 120, 121, 122, 123, 124, 125, 126, 127, 128, 129, 130, 131, 132, 133, 134, 135, 136, 137, 138, 139, 140, 141, 142, 143, 144, 145, 146, 147, 148, 149, 150, 151, 152, 153, 154, 155, 156, 157, 158, 159, 160, 161, 162, 163, 164, 165, 166, 167, 168, 169, 170, 171, 172, 173, 174, 175, 176, 177, 178, 179, 180, 181, 182, 183, 184, 185, 186, 187, 188, 189, 190],
      "LargestImagePixelValue": [45456, 43457, 43280, 42705, 42472, 42347, 42035, 42322, 42046, 41911, 42157, 41792, 42327, 41818, 42251, 41988, 42040, 42521, 41721, 42293, 41967, 42071, 42372, 42179, 42136, 41786, 41804, 42035, 41269, 42708, 41158, 41723, 42328, 42109, 41660, 40796, 41162, 41127, 42018, 41504, 42039, 42261, 41640, 42380, 42124, 41582, 41356, 41817, 41142, 41217, 41430, 41420, 41909, 41286, 42223, 41256, 41768, 40694, 40742, 40564, 40581, 41372, 40875, 41677, 41041, 41994, 41396, 41720, 41507, 41727, 41624, 41552, 41882, 41464, 41680, 41298, 41344, 41593, 41277, 41762, 41213, 41932, 40522, 41487, 41260, 42308, 41356, 41492, 41405, 41255, 41718, 41275, 41754, 41070, 41510, 40828, 41303, 41332, 41630, 41908, 41410, 40838, 41733, 41771, 41265, 41072, 41515, 41123, 41967, 41862, 41589, 42135, 41408, 42002, 41466, 41474, 41431, 41992, 41842, 41278, 41663, 41101, 42080, 41527, 41431, 41687, 41014, 41131, 41018, 41613, 41266, 41113, 40664, 40185, 41173, 40959, 40480, 40761, 41396, 40627, 40494, 40861, 39570, 40197, 39915, 40315, 40322, 40553, 40707, 40484, 41022, 40074, 41071, 40295, 41099, 40171, 40684, 40395, 39996, 40935, 40495, 40360, 40395, 40394, 40198, 40244, 40715, 40552, 40568, 40402, 39846, 40039, 40239, 39984, 40517, 40295, 40236, 40191, 39764, 40124, 40101, 40527, 40116, 40291, 40117, 39874, 40471, 39897, 40145, 40088],
      "WindowCenter": [10551.0, 10490.0, 10445.0, 10426.0, 10414.0, 10414.0, 10414.0, 10426.0, 10429.0, 10421.0, 10426.0, 10414.0, 10418.0, 10419.0, 10419.0, 10414.0, 10413.0, 10412.0, 10402.0, 10418.0, 10446.0, 10442.0, 10422.0, 10403.0, 10397.0, 10405.0, 10404.0, 10420.0, 10418.0, 10434.0, 10430.0, 10449.0, 10448.0, 10420.0, 10405.0, 10379.0, 10366.0, 10365.0, 10359.0, 10343.0, 10340.0, 10355.0, 10359.0, 10376.0, 10401.0, 10398.0, 10399.0, 10397.0, 10391.0, 10392.0, 10407.0, 10416.0, 10430.0, 10431.0, 10428.0, 10417.0, 10421.0, 10420.0, 10420.0, 10412.0, 10405.0, 10415.0, 10419.0, 10416.0, 10403.0, 10404.0, 10400.0, 10406.0, 10408.0, 10407.0, 10400.0, 10393.0, 10395.0, 10404.0, 10405.0, 10400.0, 10391.0, 10396.0, 10391.0, 10403.0, 10400.0, 10402.0, 10394.0, 10392.0, 10383.0, 10386.0, 10374.0, 10380.0, 10382.0, 10377.0, 10379.0, 10388.0, 10389.0, 10385.0, 10396.0, 10392.0, 10397.0, 10397.0, 10406.0, 10396.0, 10394.0, 10384.0, 10388.0, 10393.0, 10391.0, 10392.0, 10389.0, 10384.0, 10386.0, 10387.0, 10380.0, 10393.0, 10399.0, 10397.0, 10396.0, 10387.0, 10390.0, 10396.0, 10404.0, 10397.0, 10390.0, 10378.0, 10379.0, 10373.0, 10380.0, 10396.0, 10391.0, 10377.0, 10368.0, 10379.0, 10404.0, 10419.0, 10418.0, 10407.0, 10387.0, 10355.0, 10340.0, 10350.0, 10381.0, 10401.0, 10395.0, 10401.0, 10392.0, 10390.0, 10390.0, 10388.0, 10395.0, 10395.0, 10395.0, 10388.0, 10393.0, 10391.0, 10402.0, 10396.0, 10386.0, 10378.0, 10376.0, 10372.0, 10371.0, 10374.0, 10392.0, 10380.0, 10380.0, 10378.0, 10386.0, 10379.0, 10378.0, 10371.0, 10370.0, 10363.0, 10370.0, 10375.0, 10380.0, 10361.0, 10355.0, 10362.0, 10370.0, 10395.0, 10400.0, 10385.0, 10384.0, 10378.0, 10368.0, 10365.0, 10372.0, 10366.0, 10371.0, 10366.0, 10358.0, 10365.0],
      "WindowWidth": [22860.0, 22681.0, 22558.0, 22497.0, 22461.0, 22458.0, 22454.0, 22478.0, 22487.0, 22467.0, 22477.0, 22451.0, 22457.0, 22461.0, 22460.0, 22451.0, 22446.0, 22443.0, 22424.0, 22457.0, 22525.0, 22516.0, 22466.0, 22422.0, 22410.0, 22429.0, 22427.0, 22465.0, 22462.0, 22492.0, 22489.0, 22534.0, 22531.0, 22466.0, 22430.0, 22370.0, 22337.0, 22333.0, 22322.0, 22287.0, 22276.0, 22313.0, 22328.0, 22362.0, 22418.0, 22413.0, 22416.0, 22409.0, 22397.0, 22397.0, 22432.0, 22453.0, 22486.0, 22489.0, 22480.0, 22458.0, 22464.0, 22469.0, 22467.0, 22449.0, 22432.0, 22452.0, 22463.0, 22455.0, 22429.0, 22423.0, 22419.0, 22429.0, 22437.0, 22434.0, 22418.0, 22404.0, 22403.0, 22426.0, 22430.0, 22419.0, 22397.0, 22409.0, 22397.0, 22424.0, 22418.0, 22419.0, 22407.0, 22398.0, 22379.0, 22381.0, 22357.0, 22370.0, 22378.0, 22365.0, 22367.0, 22389.0, 22390.0, 22386.0, 22406.0, 22401.0, 22409.0, 22409.0, 22428.0, 22409.0, 22407.0, 22382.0, 22388.0, 22396.0, 22399.0, 22401.0, 22392.0, 22380.0, 22382.0, 22384.0, 22371.0, 22398.0, 22416.0, 22410.0, 22403.0, 22384.0, 22394.0, 22405.0, 22425.0, 22410.0, 22392.0, 22369.0, 22365.0, 22354.0, 22368.0, 22405.0, 22395.0, 22367.0, 22346.0, 22369.0, 22428.0, 22463.0, 22460.0, 22437.0, 22387.0, 22315.0, 22282.0, 22304.0, 22372.0, 22419.0, 22405.0, 22419.0, 22402.0, 22398.0, 22398.0, 22391.0, 22406.0, 22407.0, 22407.0, 22391.0, 22398.0, 22399.0, 22419.0, 22407.0, 22384.0, 22370.0, 22363.0, 22355.0, 22350.0, 22356.0, 22398.0, 22373.0, 22372.0, 22367.0, 22387.0, 22371.0, 22368.0, 22351.0, 22348.0, 22333.0, 22352.0, 22365.0, 22373.0, 22333.0, 22319.0, 22336.0, 22352.0, 22410.0, 22423.0, 22391.0, 22384.0, 22371.0, 22350.0, 22342.0, 22356.0, 22346.0, 22354.0, 22346.0, 22326.0, 22342.0]
    },
    "slices": {}
  }
}