{
  "AcquisitionMatrixPE": 104,
  "AcquisitionNumber": 1,
  "AcquisitionTime": "16:05:22.847500",
  "BandwidthPerPixelPhaseEncode": 17.17,
  "BaseResolution": 104,
  "BodyPartExamined": "BRAIN",
  "CoilString": "HC1-7;NC1_2",
  "ConsistencyInfo": "N4_VE11C_LATEST_20160120",
  "ConversionSoftware": "dcm2niix",
  "ConversionSoftwareVersion": "v1.0.20190902",
  "DerivedVendorReportedEchoSpacing": 0.000560011,
  "DeviceSerialNumber": "167006",
  "DwellTime": 2.1e-06,
  "EchoTime": 0.037,
  "EchoTrainLength": 104,
  "EffectiveEchoSpacing": 0.000560011,
  "FlipAngle": 52,
  "ImageComments": "Unaliased_MB4_PE3_LB",
  "ImageOrientationPatientDICOM": [0.998206, -0.0574151, 0.0169529, 0.059829, 0.946841, -0.316091],
  "ImageType": [
    "ORIGINAL",
    "PRIMARY",
    "M",
    "MB",
    "ND",
    "MOSAIC"
],
  "ImagingFrequency": 123.259,
  "InPlanePhaseEncodingDirectionDICOM": "COL",
  "InstitutionAddress": "Chemin_Queen-Mary_4565_Montreal_District_CA_H3W_1W5",
  "InstitutionName": "IUGM",
  "InstitutionalDepartmentName": "Department",
  "MRAcquisitionType": "2D",
  "MagneticFieldStrength": 3,
  "Manufacturer": "Siemens",
  "ManufacturersModelName": "Prisma_fit",
  "Modality": "MR",
  "MultibandAccelerationFactor": 4,
  "PartialFourier": 1,
  "PatientPosition": "HFS",
  "PercentPhaseFOV": 100,
  "PhaseEncodingDirection": "j",
  "PhaseEncodingSteps": 104,
  "PhaseResolution": 1,
  "PixelBandwidth": 2290,
  "ProcedureStepDescription": "memory_things",
  "ProtocolName": "func_task-things_run-6",
  "PulseSequenceDetails": "%CustomerSeq%_cmrr_mbep2d_bold",
  "ReceiveCoilActiveElements": "HC1-7;NC1,2",
  "ReceiveCoilName": "HeadNeck_64",
  "ReconMatrixPE": 104,
  "RepetitionTime": 1.49,
  "SAR": 0.0530703,
  "ScanOptions": "FS",
  "ScanningSequence": "EP",
  "SequenceName": "epfid2d1_104",
  "SequenceVariant": "SK_SS",
  "SeriesDescription": "func_task-things_run-6",
  "SeriesNumber": 25,
  "ShimSetting": [636, -7269, -8798, 597, 8, -222, 1, -18],
  "SliceThickness": 2,
  "SliceTiming": [0, 0.7825, 0.0975, 0.88, 0.195, 0.98, 0.2925, 1.0775, 0.39, 1.175, 0.49, 1.2725, 0.5875, 1.37, 0.685, 0, 0.7825, 0.0975, 0.88, 0.195, 0.98, 0.2925, 1.0775, 0.39, 1.175, 0.49, 1.2725, 0.5875, 1.37, 0.685, 0, 0.7825, 0.0975, 0.88, 0.195, 0.98, 0.2925, 1.0775, 0.39, 1.175, 0.49, 1.2725, 0.5875, 1.37, 0.685, 0, 0.7825, 0.0975, 0.88, 0.195, 0.98, 0.2925, 1.0775, 0.39, 1.175, 0.49, 1.2725, 0.5875, 1.37, 0.685],
  "SoftwareVersions": "syngo_MR_E11",
  "SpacingBetweenSlices": 2,
  "StationName": "MRC35049",
  "TaskName": "things",
  "TotalReadoutTime": 0.0576811,
  "TxRefAmp": 271.336,
  "WipMemBlock": "402af9d4-0924-4b7b-b0ad-6d6e8c1a0f8f||Sequence: R016 ve11c/master r/e634e98; Dec 19 2017 11:00:25 by eja",
  "dcmmeta_affine": [
    [-1.9964128732681274, 0.11965793371200562, -0.004193298052996397, 101.14920043945312],
    [0.11483028531074524, 1.893681287765503, -0.6330758929252625, -72.67975616455078],
    [0.033905889838933945, 0.6321811676025391, 1.8971551656723022, -57.841670989990234],
    [0.0, 0.0, 0.0, 1.0]
],
  "dcmmeta_reorient_transform": [
    [0.0, -1.0, 0.0, 103.0],
    [1.0, 0.0, 0.0, 0.0],
    [0.0, 0.0, 1.0, 0.0],
    [0.0, 0.0, 0.0, 1.0]
],
  "dcmmeta_shape": [104, 104, 60, 190],
  "dcmmeta_slice_dim": 2,
  "dcmmeta_version": 0.6,
  "global": {
    "const": {
      "AcquisitionMatrix": [104, 0, 0, 104],
      "AngioFlag": "N",
      "BitsAllocated": 16,
      "BitsStored": 16,
      "BodyPartExamined": "BRAIN",
      "Columns": 832,
      "EchoNumbers": 1,
      "EchoTime": 37.0,
      "EchoTrainLength": 104,
      "FlipAngle": 52.0,
      "HighBit": 15,
      "ImageOrientationPatient": [0.99820644103764, -0.0574151438629, 0.01695294446907, 0.05982896567824, 0.94684066245966, -0.3160905800223],
      "ImagePositionPatient": [-883.72374183106, -769.87119498572, 225.04518673048],
      "ImageType": [
        "ORIGINAL",
        "PRIMARY",
        "M",
        "MB",
        "ND",
        "MOSAIC"
],
      "ImagedNucleus": "1H",
      "ImagingFrequency": 123.259058,
      "InPlanePhaseEncodingDirection": "COL",
      "MRAcquisitionType": "2D",
      "MagneticFieldStrength": 3.0,
      "Manufacturer": "SIEMENS",
      "ManufacturerModelName": "Prisma_fit",
      "Modality": "MR",
      "NumberOfAverages": 1.0,
      "NumberOfPhaseEncodingSteps": 104,
      "PercentPhaseFieldOfView": 100.0,
      "PercentSampling": 100.0,
      "PerformedProcedureStepStartTime": "153050.212000",
      "PhotometricInterpretation": "MONOCHROME2",
      "PixelBandwidth": 2290.0,
      "PixelRepresentation": 0,
      "PixelSpacing": [2.0, 2.0],
      "ProtocolName": "func_task-things_run-6",
      "RepetitionTime": 1490.0,
      "Rows": 832,
      "SAR": 0.05307026102542,
      "SamplesPerPixel": 1,
      "ScanOptions": "FS",
      "ScanningSequence": "EP",
      "SequenceName": "epfid2d1_104",
      "SequenceVariant": [
        "SK",
        "SS"
],
      "SeriesDescription": "func_task-things_run-6",
      "SeriesNumber": 25,
      "SeriesTime": "160627.707000",
      "SliceLocation": -32.073484087405,
      "SliceThickness": 2.0,
      "SmallestImagePixelValue": 0,
      "SoftwareVersions": "syngo MR E11",
      "SpacingBetweenSlices": 2.0000000396452,
      "SpecificCharacterSet": "ISO_IR 100",
      "StudyID": "1",
      "StudyTime": "153050.073000",
      "TransmitCoilName": "Body",
      "VariableFlipAngleFlag": "N",
      "WindowCenterWidthExplanation": "Algo1",
      "dBdt": 0.0},
    "slices": {}
  },
  "time": {
    "samples": {
      "AcquisitionNumber": [1, 2, 3, 4, 5, 6, 7, 8, 9, 10, 11, 12, 13, 14, 15, 16, 17, 18, 19, 20, 21, 22, 23, 24, 25, 26, 27, 28, 29, 30, 31, 32, 33, 34, 35, 36, 37, 38, 39, 40, 41, 42, 43, 44, 45, 46, 47, 48, 49, 50, 51, 52, 53, 54, 55, 56, 57, 58, 59, 60, 61, 62, 63, 64, 65, 66, 67, 68, 69, 70, 71, 72, 73, 74, 75, 76, 77, 78, 79, 80, 81, 82, 83, 84, 85, 86, 87, 88, 89, 90, 91, 92, 93, 94, 95, 96, 97, 98, 99, 100, 101, 102, 103, 104, 105, 106, 107, 108, 109, 110, 111, 112, 113, 114, 115, 116, 117, 118, 119, 120, 121, 122, 123, 124, 125, 126, 127, 128, 129, 130, 131, 132, 133, 134, 135, 136, 137, 138, 139, 140, 141, 142, 143, 144, 145, 146, 147, 148, 149, 150, 151, 152, 153, 154, 155, 156, 157, 158, 159, 160, 161, 162, 163, 164, 165, 166, 167, 168, 169, 170, 171, 172, 173, 174, 175, 176, 177, 178, 179, 180, 181, 182, 183, 184, 185, 186, 187, 188, 189, 190],
      "AcquisitionTime": ["160522.847500", "160524.337500", "160525.827500", "160527.317500", "160528.807500", "160530.297500", "160531.787500", "160533.277500", "160534.767500", "160536.257500", "160537.747500", "160539.237500", "160540.727500", "160542.217500", "160543.707500", "160545.197500", "160546.687500", "160548.177500", "160549.667500", "160551.157500", "160552.647500", "160554.137500", "160555.627500", "160557.117500", "160558.607500", "160600.097500", "160601.587500", "160603.077500", "160604.567500", "160606.057500", "160607.547500", "160609.037500", "160610.527500", "160612.017500", "160613.507500", "160614.997500", "160616.487500", "160617.977500", "160619.467500", "160620.957500", "160622.447500", "160623.937500", "160625.427500", "160626.917500", "160628.407500", "160629.897500", "160631.387500", "160632.877500", "160634.367500", "160635.857500", "160637.347500", "160638.837500", "160640.327500", "160641.817500", "160643.307500", "160644.797500", "160646.287500", "160647.777500", "160649.267500", "160650.757500", "160652.247500", "160653.737500", "160655.227500", "160656.717500", "160658.207500", "160659.697500", "160701.187500", "160702.677500", "160704.167500", "160705.657500", "160707.147500", "160708.637500", "160710.127500", "160711.617500", "160713.107500", "160714.597500", "160716.087500", "160717.577500", "160719.067500", "160720.557500", "160722.047500", "160723.537500", "160725.027500", "160726.517500", "160728.007500", "160729.497500", "160730.987500", "160732.477500", "160733.967500", "160735.457500", "160736.947500", "160738.437500", "160739.927500", "160741.417500", "160742.907500", "160744.397500", "160745.887500", "160747.377500", "160748.867500", "160750.357500", "160751.847500", "160753.337500", "160754.827500", "160756.317500", "160757.807500", "160759.297500", "160800.787500", "160802.277500", "160803.767500", "160805.257500", "160806.747500", "160808.237500", "160809.727500", "160811.217500", "160812.707500", "160814.197500", "160815.687500", "160817.177500", "160818.667500", "160820.157500", "160821.647500", "160823.137500", "160824.627500", "160826.117500", "160827.607500", "160829.097500", "160830.587500", "160832.077500", "160833.567500", "160835.057500", "160836.547500", "160838.037500", "160839.527500", "160841.017500", "160842.507500", "160843.997500", "160845.487500", "160846.977500", "160848.467500", "160849.957500", "160851.447500", "160852.937500", "160854.427500", "160855.917500", "160857.407500", "160858.897500", "160900.387500", "160901.877500", "160903.367500", "160904.857500", "160906.347500", "160907.837500", "160909.327500", "160910.817500", "160912.307500", "160913.797500", "160915.287500", "160916.777500", "160918.267500", "160919.757500", "160921.247500", "160922.737500", "160924.227500", "160925.717500", "160927.207500", "160928.697500", "160930.187500", "160931.677500", "160933.167500", "160934.657500", "160936.147500", "160937.637500", "160939.127500", "160940.617500", "160942.107500", "160943.597500", "160945.087500", "160946.577500", "160948.067500", "160949.557500", "160951.047500", "160952.537500", "160954.027500", "160955.517500", "160957.007500", "160958.497500", "160959.987500", "161001.477500", "161002.967500", "161004.457500"],
      "ContentTime": ["160627.711000", "160627.714000", "160627.718000", "160627.721000", "160627.724000", "160627.728000", "160627.739000", "160627.743000", "160627.746000", "160627.749000", "160627.753000", "160627.756000", "160647.662000", "160647.666000", "160647.669000", "160647.672000", "160647.691000", "160647.694000", "160647.697000", "160647.701000", "160647.704000", "160647.707000", "160647.711000", "160647.714000", "160647.717000", "160647.721000", "160647.724000", "160647.727000", "160647.731000", "160647.734000", "160647.737000", "160647.740000", "160707.662000", "160707.666000", "160707.669000", "160707.672000", "160707.676000", "160707.679000", "160707.682000", "160707.686000", "160707.689000", "160707.692000", "160707.695000", "160707.699000", "160707.702000", "160707.705000", "160707.708000", "160707.712000", "160707.715000", "160707.718000", "160707.722000", "160707.725000", "160727.662000", "160727.666000", "160727.669000", "160727.672000", "160727.676000", "160727.679000", "160727.682000", "160727.686000", "160727.689000", "160727.693000", "160727.696000", "160727.699000", "160727.703000", "160727.706000", "160727.709000", "160727.713000", "160727.716000", "160727.719000", "160727.722000", "160727.726000", "160747.662000", "160747.666000", "160747.669000", "160747.672000", "160747.676000", "160747.679000", "160747.682000", "160747.686000", "160747.689000", "160747.692000", "160747.695000", "160747.699000", "160747.702000", "160747.705000", "160747.709000", "160747.712000", "160747.715000", "160747.719000", "160747.722000", "160747.725000", "160747.735000", "160827.662000", "160827.666000", "160827.669000", "160827.672000", "160827.676000", "160827.679000", "160827.682000", "160827.686000", "160827.689000", "160827.692000", "160827.695000", "160827.699000", "160827.702000", "160827.705000", "160827.718000", "160827.721000", "160827.725000", "160827.729000", "160827.732000", "160827.735000", "160827.739000", "160827.742000", "160827.745000", "160827.749000", "160827.752000", "160827.755000", "160827.759000", "160827.762000", "160827.765000", "160827.768000", "160907.662000", "160907.666000", "160907.669000", "160907.673000", "160907.676000", "160907.679000", "160907.682000", "160907.686000", "160907.689000", "160907.692000", "160907.696000", "160907.699000", "160907.702000", "160907.706000", "160907.709000", "160907.712000", "160907.715000", "160907.719000", "160907.722000", "160907.725000", "160907.729000", "160907.732000", "160907.735000", "160907.739000", "160907.742000", "160907.745000", "160907.748000", "160947.662000", "160947.666000", "160947.669000", "160947.672000", "160947.676000", "160947.679000", "160947.682000", "160947.686000", "160947.689000", "160947.692000", "160947.696000", "160947.699000", "160947.702000", "160947.705000", "160947.709000", "160947.712000", "160947.715000", "160947.718000", "160947.722000", "160947.725000", "160947.728000", "160947.732000", "160947.735000", "160947.738000", "160947.741000", "160947.745000", "160947.748000", "161006.265000", "161006.269000", "161006.272000", "161006.275000", "161006.279000", "161006.282000", "161006.285000", "161006.289000", "161006.292000", "161006.295000", "161006.299000", "161006.302000", "161006.305000"],
      "InstanceCreationTime": ["160627.711000", "160627.714000", "160627.718000", "160627.721000", "160627.724000", "160627.728000", "160627.739000", "160627.743000", "160627.746000", "160627.749000", "160627.753000", "160627.756000", "160647.662000", "160647.666000", "160647.669000", "160647.672000", "160647.691000", "160647.694000", "160647.697000", "160647.701000", "160647.704000", "160647.707000", "160647.711000", "160647.714000", "160647.717000", "160647.721000", "160647.724000", "160647.727000", "160647.731000", "160647.734000", "160647.737000", "160647.740000", "160707.662000", "160707.666000", "160707.669000", "160707.672000", "160707.676000", "160707.679000", "160707.682000", "160707.686000", "160707.689000", "160707.692000", "160707.695000", "160707.699000", "160707.702000", "160707.705000", "160707.708000", "160707.712000", "160707.715000", "160707.718000", "160707.722000", "160707.725000", "160727.662000", "160727.666000", "160727.669000", "160727.672000", "160727.676000", "160727.679000", "160727.682000", "160727.686000", "160727.689000", "160727.693000", "160727.696000", "160727.699000", "160727.703000", "160727.706000", "160727.709000", "160727.713000", "160727.716000", "160727.719000", "160727.722000", "160727.726000", "160747.662000", "160747.666000", "160747.669000", "160747.672000", "160747.676000", "160747.679000", "160747.682000", "160747.686000", "160747.689000", "160747.692000", "160747.695000", "160747.699000", "160747.702000", "160747.705000", "160747.709000", "160747.712000", "160747.715000", "160747.719000", "160747.722000", "160747.725000", "160747.735000", "160827.662000", "160827.666000", "160827.669000", "160827.672000", "160827.676000", "160827.679000", "160827.682000", "160827.686000", "160827.689000", "160827.692000", "160827.695000", "160827.699000", "160827.702000", "160827.705000", "160827.718000", "160827.721000", "160827.725000", "160827.729000", "160827.732000", "160827.735000", "160827.739000", "160827.742000", "160827.745000", "160827.749000", "160827.752000", "160827.755000", "160827.759000", "160827.762000", "160827.765000", "160827.768000", "160907.662000", "160907.666000", "160907.669000", "160907.673000", "160907.676000", "160907.679000", "160907.682000", "160907.686000", "160907.689000", "160907.692000", "160907.696000", "160907.699000", "160907.702000", "160907.706000", "160907.709000", "160907.712000", "160907.715000", "160907.719000", "160907.722000", "160907.725000", "160907.729000", "160907.732000", "160907.735000", "160907.739000", "160907.742000", "160907.745000", "160907.748000", "160947.662000", "160947.666000", "160947.669000", "160947.672000", "160947.676000", "160947.679000", "160947.682000", "160947.686000", "160947.689000", "160947.692000", "160947.696000", "160947.699000", "160947.702000", "160947.705000", "160947.709000", "160947.712000", "160947.715000", "160947.718000", "160947.722000", "160947.725000", "160947.728000", "160947.732000", "160947.735000", "160947.738000", "160947.741000", "160947.745000", "160947.748000", "161006.265000", "161006.269000", "161006.272000", "161006.275000", "161006.279000", "161006.282000", "161006.285000", "161006.289000", "161006.292000", "161006.295000", "161006.299000", "161006.302000", "161006.305000"],
      "InstanceNumber": [1, 2, 3, 4, 5, 6, 7, 8, 9, 10, 11, 12, 13, 14, 15, 16, 17, 18, 19, 20, 21, 22, 23, 24, 25, 26, 27, 28, 29, 30, 31, 32, 33, 34, 35, 36, 37, 38, 39, 40, 41, 42, 43, 44, 45, 46, 47, 48, 49, 50, 51, 52, 53, 54, 55, 56, 57, 58, 59, 60, 61, 62, 63, 64, 65, 66, 67, 68, 69, 70, 71, 72, 73, 74, 75, 76, 77, 78, 79, 80, 81, 82, 83, 84, 85, 86, 87, 88, 89, 90, 91, 92, 93, 94, 95, 96, 97, 98, 99, 100, 101, 102, 103, 104, 105, 106, 107, 108, 109, 110, 111, 112, 113, 114, 115, 116, 117, 118, 119, 120, 121, 122, 123, 124, 125, 126, 127, 128, 129, 130, 131, 132, 133, 134, 135, 136, 137, 138, 139, 140, 141, 142, 143, 144, 145, 146, 147, 148, 149, 150, 151, 152, 153, 154, 155, 156, 157, 158, 159, 160, 161, 162, 163, 164, 165, 166, 167, 168, 169, 170, 171, 172, 173, 174, 175, 176, 177, 178, 179, 180, 181, 182, 183, 184, 185, 186, 187, 188, 189, 190],
      "LargestImagePixelValue": [40269, 39292, 38449, 38217, 37551, 37670, 37894, 37365, 36992, 37534, 37548, 36923, 37195, 38387, 37739, 37238, 37592, 36949, 37344, 37407, 37154, 37344, 37331, 37569, 37364, 36711, 37648, 37625, 36808, 37343, 36967, 37458, 37256, 37796, 37407, 37704, 37769, 36926, 36787, 37287, 37168, 37249, 37673, 37174, 37018, 37448, 37526, 37337, 37453, 37383, 37361, 37717, 37557, 36928, 37311, 37293, 37072, 37325, 37102, 36860, 37108, 37000, 37028, 37425, 37434, 37497, 37879, 37454, 36729, 37451, 37818, 36919, 37084, 36879, 36925, 37353, 37946, 37133, 36821, 37131, 37313, 37820, 37419, 37463, 35404, 34830, 36064, 36260, 36421, 36652, 37155, 37401, 37142, 37039, 37269, 36926, 37315, 37264, 36705, 37214, 37437, 37161, 36841, 36829, 36994, 37306, 37477, 37197, 37227, 36819, 37356, 37600, 37089, 37464, 36948, 37235, 37214, 37522, 37200, 36964, 37505, 37679, 37367, 36723, 37413, 38675, 37826, 38261, 39285, 37058, 37203, 36858, 36588, 36990, 36450, 36437, 36564, 36607, 37132, 36822, 37246, 36409, 36380, 36798, 36975, 36745, 36101, 36407, 36865, 36268, 36665, 37638, 37984, 37268, 37168, 37447, 37411, 37999, 37798, 37980, 37506, 37265, 38139, 37391, 37010, 37969, 37515, 37062, 37523, 37385, 37423, 37672, 37320, 37754, 38164, 37874, 38201, 38089, 37723, 36955, 37367, 37646, 37652, 37838, 38165, 37685, 37751, 37676, 37855, 37692],
      "WindowCenter": [10271.0, 10211.0, 10190.0, 10186.0, 10180.0, 10185.0, 10185.0, 10170.0, 10179.0, 10181.0, 10190.0, 10202.0, 10185.0, 10225.0, 10212.0, 10209.0, 10215.0, 10198.0, 10191.0, 10171.0, 10162.0, 10167.0, 10165.0, 10174.0, 10175.0, 10173.0, 10189.0, 10206.0, 10191.0, 10180.0, 10156.0, 10158.0, 10159.0, 10173.0, 10199.0, 10221.0, 10230.0, 10208.0, 10205.0, 10209.0, 10188.0, 10188.0, 10176.0, 10162.0, 10191.0, 10194.0, 10178.0, 10176.0, 10177.0, 10198.0, 10195.0, 10193.0, 10178.0, 10162.0, 10193.0, 10190.0, 10168.0, 10167.0, 10157.0, 10148.0, 10161.0, 10163.0, 10155.0, 10176.0, 10190.0, 10192.0, 10190.0, 10177.0, 10165.0, 10174.0, 10187.0, 10194.0, 10185.0, 10156.0, 10144.0, 10149.0, 10161.0, 10174.0, 10177.0, 10169.0, 10167.0, 10166.0, 10169.0, 10208.0, 10182.0, 10171.0, 10187.0, 10172.0, 10152.0, 10127.0, 10107.0, 10112.0, 10135.0, 10148.0, 10151.0, 10155.0, 10181.0, 10185.0, 10202.0, 10220.0, 10241.0, 10228.0, 10192.0, 10174.0, 10163.0, 10167.0, 10174.0, 10184.0, 10194.0, 10186.0, 10178.0, 10198.0, 10213.0, 10219.0, 10199.0, 10184.0, 10157.0, 10160.0, 10171.0, 10187.0, 10193.0, 10183.0, 10159.0, 10132.0, 10142.0, 10197.0, 10213.0, 10236.0, 10217.0, 10195.0, 10139.0, 10101.0, 10091.0, 10095.0, 10094.0, 10091.0, 10101.0, 10126.0, 10141.0, 10150.0, 10178.0, 10195.0, 10200.0, 10203.0, 10208.0, 10240.0, 10276.0, 10282.0, 10266.0, 10222.0, 10189.0, 10178.0, 10186.0, 10194.0, 10209.0, 10210.0, 10187.0, 10174.0, 10164.0, 10171.0, 10182.0, 10195.0, 10197.0, 10182.0, 10176.0, 10174.0, 10167.0, 10168.0, 10193.0, 10194.0, 10187.0, 10174.0, 10165.0, 10172.0, 10173.0, 10176.0, 10197.0, 10209.0, 10212.0, 10187.0, 10189.0, 10185.0, 10162.0, 10140.0, 10151.0, 10134.0, 10134.0, 10151.0, 10162.0, 10171.0],
      "WindowWidth": [22138.0, 21963.0, 21893.0, 21874.0, 21854.0, 21862.0, 21857.0, 21823.0, 21843.0, 21846.0, 21867.0, 21892.0, 21854.0, 21939.0, 21911.0, 21907.0, 21922.0, 21887.0, 21869.0, 21823.0, 21804.0, 21811.0, 21809.0, 21829.0, 21835.0, 21835.0, 21863.0, 21901.0, 21873.0, 21848.0, 21795.0, 21796.0, 21799.0, 21830.0, 21888.0, 21936.0, 21960.0, 21915.0, 21907.0, 21911.0, 21868.0, 21866.0, 21840.0, 21807.0, 21872.0, 21879.0, 21844.0, 21839.0, 21842.0, 21892.0, 21884.0, 21878.0, 21846.0, 21810.0, 21878.0, 21870.0, 21822.0, 21814.0, 21792.0, 21775.0, 21803.0, 21811.0, 21791.0, 21837.0, 21869.0, 21874.0, 21868.0, 21839.0, 21817.0, 21832.0, 21859.0, 21882.0, 21858.0, 21795.0, 21764.0, 21771.0, 21798.0, 21829.0, 21838.0, 21820.0, 21811.0, 21808.0, 21815.0, 21908.0, 21854.0, 21831.0, 21859.0, 21823.0, 21778.0, 21719.0, 21672.0, 21682.0, 21734.0, 21765.0, 21775.0, 21787.0, 21841.0, 21855.0, 21897.0, 21933.0, 21978.0, 21952.0, 21873.0, 21831.0, 21807.0, 21810.0, 21827.0, 21852.0, 21876.0, 21862.0, 21839.0, 21882.0, 21917.0, 21931.0, 21886.0, 21853.0, 21791.0, 21793.0, 21821.0, 21859.0, 21871.0, 21846.0, 21793.0, 21738.0, 21752.0, 21875.0, 21924.0, 21993.0, 21932.0, 21876.0, 21750.0, 21664.0, 21644.0, 21651.0, 21653.0, 21647.0, 21673.0, 21726.0, 21760.0, 21780.0, 21839.0, 21883.0, 21897.0, 21901.0, 21911.0, 21985.0, 22074.0, 22088.0, 22048.0, 21950.0, 21875.0, 21842.0, 21860.0, 21885.0, 21915.0, 21917.0, 21868.0, 21834.0, 21812.0, 21826.0, 21854.0, 21887.0, 21887.0, 21856.0, 21844.0, 21831.0, 21814.0, 21821.0, 21874.0, 21880.0, 21865.0, 21831.0, 21810.0, 21825.0, 21829.0, 21838.0, 21889.0, 21919.0, 21927.0, 21875.0, 21872.0, 21859.0, 21810.0, 21757.0, 21782.0, 21751.0, 21748.0, 21786.0, 21813.0, 21835.0]
    },
    "slices": {}
  }
}