{
  "AcquisitionMatrixPE": 104,
  "AcquisitionNumber": 1,
  "AcquisitionTime": "15:40:41.845000",
  "BandwidthPerPixelPhaseEncode": 17.17,
  "BaseResolution": 104,
  "BodyPartExamined": "BRAIN",
  "CoilString": "HC1-7;NC1_2",
  "ConsistencyInfo": "N4_VE11C_LATEST_20160120",
  "ConversionSoftware": "dcm2niix",
  "ConversionSoftwareVersion": "v1.0.20190902",
  "DerivedVendorReportedEchoSpacing": 0.000560011,
  "DeviceSerialNumber": "167006",
  "DwellTime": 2.1e-06,
  "EchoTime": 0.037,
  "EchoTrainLength": 104,
  "EffectiveEchoSpacing": 0.000560011,
  "FlipAngle": 52,
  "ImageComments": "Unaliased_MB4_PE3_LB",
  "ImageOrientationPatientDICOM": [0.998206, -0.0574151, 0.0169529, 0.059829, 0.946841, -0.316091],
  "ImageType": [
    "ORIGINAL",
    "PRIMARY",
    "M",
    "MB",
    "ND",
    "MOSAIC"
],
  "ImagingFrequency": 123.259,
  "InPlanePhaseEncodingDirectionDICOM": "COL",
  "InstitutionAddress": "Chemin_Queen-Mary_4565_Montreal_District_CA_H3W_1W5",
  "InstitutionName": "IUGM",
  "InstitutionalDepartmentName": "Department",
  "MRAcquisitionType": "2D",
  "MagneticFieldStrength": 3,
  "Manufacturer": "Siemens",
  "ManufacturersModelName": "Prisma_fit",
  "Modality": "MR",
  "MultibandAccelerationFactor": 4,
  "PartialFourier": 1,
  "PatientPosition": "HFS",
  "PercentPhaseFOV": 100,
  "PhaseEncodingDirection": "j",
  "PhaseEncodingSteps": 104,
  "PhaseResolution": 1,
  "PixelBandwidth": 2290,
  "ProcedureStepDescription": "memory_things",
  "ProtocolName": "func_task-things_run-2",
  "PulseSequenceDetails": "%CustomerSeq%_cmrr_mbep2d_bold",
  "ReceiveCoilActiveElements": "HC1-7;NC1,2",
  "ReceiveCoilName": "HeadNeck_64",
  "ReconMatrixPE": 104,
  "RepetitionTime": 1.49,
  "SAR": 0.0530703,
  "ScanOptions": "FS",
  "ScanningSequence": "EP",
  "SequenceName": "epfid2d1_104",
  "SequenceVariant": "SK_SS",
  "SeriesDescription": "func_task-things_run-2",
  "SeriesNumber": 13,
  "ShimSetting": [636, -7269, -8798, 597, 8, -222, 1, -18],
  "SliceThickness": 2,
  "SliceTiming": [0, 0.7825, 0.0975, 0.88, 0.195, 0.98, 0.2925, 1.0775, 0.39, 1.175, 0.49, 1.2725, 0.5875, 1.37, 0.685, 0, 0.7825, 0.0975, 0.88, 0.195, 0.98, 0.2925, 1.0775, 0.39, 1.175, 0.49, 1.2725, 0.5875, 1.37, 0.685, 0, 0.7825, 0.0975, 0.88, 0.195, 0.98, 0.2925, 1.0775, 0.39, 1.175, 0.49, 1.2725, 0.5875, 1.37, 0.685, 0, 0.7825, 0.0975, 0.88, 0.195, 0.98, 0.2925, 1.0775, 0.39, 1.175, 0.49, 1.2725, 0.5875, 1.37, 0.685],
  "SoftwareVersions": "syngo_MR_E11",
  "SpacingBetweenSlices": 2,
  "StationName": "MRC35049",
  "TaskName": "things",
  "TotalReadoutTime": 0.0576811,
  "TxRefAmp": 271.336,
  "WipMemBlock": "40544f22-d9f2-4c80-98e7-34b9c0b84903||Sequence: R016 ve11c/master r/e634e98; Dec 19 2017 11:00:25 by eja",
  "dcmmeta_affine": [
    [-1.9964128732681274, 0.11965793371200562, -0.004193298052996397, 101.14920043945312],
    [0.11483028531074524, 1.893681287765503, -0.6330758929252625, -72.67975616455078],
    [0.033905889838933945, 0.6321811676025391, 1.8971551656723022, -57.841670989990234],
    [0.0, 0.0, 0.0, 1.0]
],
  "dcmmeta_reorient_transform": [
    [0.0, -1.0, 0.0, 103.0],
    [1.0, 0.0, 0.0, 0.0],
    [0.0, 0.0, 1.0, 0.0],
    [0.0, 0.0, 0.0, 1.0]
],
  "dcmmeta_shape": [104, 104, 60, 190],
  "dcmmeta_slice_dim": 2,
  "dcmmeta_version": 0.6,
  "global": {
    "const": {
      "AcquisitionMatrix": [104, 0, 0, 104],
      "AngioFlag": "N",
      "BitsAllocated": 16,
      "BitsStored": 16,
      "BodyPartExamined": "BRAIN",
      "Columns": 832,
      "EchoNumbers": 1,
      "EchoTime": 37.0,
      "EchoTrainLength": 104,
      "FlipAngle": 52.0,
      "HighBit": 15,
      "ImageOrientationPatient": [0.99820644103764, -0.0574151438629, 0.01695294446907, 0.05982896567824, 0.94684066245966, -0.3160905800223],
      "ImagePositionPatient": [-883.72374183106, -769.87119498572, 225.04518673048],
      "ImageType": [
        "ORIGINAL",
        "PRIMARY",
        "M",
        "MB",
        "ND",
        "MOSAIC"
],
      "ImagedNucleus": "1H",
      "ImagingFrequency": 123.259046,
      "InPlanePhaseEncodingDirection": "COL",
      "MRAcquisitionType": "2D",
      "MagneticFieldStrength": 3.0,
      "Manufacturer": "SIEMENS",
      "ManufacturerModelName": "Prisma_fit",
      "Modality": "MR",
      "NumberOfAverages": 1.0,
      "NumberOfPhaseEncodingSteps": 104,
      "PercentPhaseFieldOfView": 100.0,
      "PercentSampling": 100.0,
      "PerformedProcedureStepStartTime": "153050.212000",
      "PhotometricInterpretation": "MONOCHROME2",
      "PixelBandwidth": 2290.0,
      "PixelRepresentation": 0,
      "PixelSpacing": [2.0, 2.0],
      "ProtocolName": "func_task-things_run-2",
      "RepetitionTime": 1490.0,
      "Rows": 832,
      "SAR": 0.05307026102542,
      "SamplesPerPixel": 1,
      "ScanOptions": "FS",
      "ScanningSequence": "EP",
      "SequenceName": "epfid2d1_104",
      "SequenceVariant": [
        "SK",
        "SS"
],
      "SeriesDescription": "func_task-things_run-2",
      "SeriesNumber": 13,
      "SeriesTime": "154200.382000",
      "SliceLocation": -32.073484087405,
      "SliceThickness": 2.0,
      "SmallestImagePixelValue": 0,
      "SoftwareVersions": "syngo MR E11",
      "SpacingBetweenSlices": 2.0000000396452,
      "SpecificCharacterSet": "ISO_IR 100",
      "StudyID": "1",
      "StudyTime": "153050.073000",
      "TransmitCoilName": "Body",
      "VariableFlipAngleFlag": "N",
      "WindowCenterWidthExplanation": "Algo1",
      "dBdt": 0.0},
    "slices": {}
  },
  "time": {
    "samples": {
      "AcquisitionNumber": [1, 2, 3, 4, 5, 6, 7, 8, 9, 10, 11, 12, 13, 14, 15, 16, 17, 18, 19, 20, 21, 22, 23, 24, 25, 26, 27, 28, 29, 30, 31, 32, 33, 34, 35, 36, 37, 38, 39, 40, 41, 42, 43, 44, 45, 46, 47, 48, 49, 50, 51, 52, 53, 54, 55, 56, 57, 58, 59, 60, 61, 62, 63, 64, 65, 66, 67, 68, 69, 70, 71, 72, 73, 74, 75, 76, 77, 78, 79, 80, 81, 82, 83, 84, 85, 86, 87, 88, 89, 90, 91, 92, 93, 94, 95, 96, 97, 98, 99, 100, 101, 102, 103, 104, 105, 106, 107, 108, 109, 110, 111, 112, 113, 114, 115, 116, 117, 118, 119, 120, 121, 122, 123, 124, 125, 126, 127, 128, 129, 130, 131, 132, 133, 134, 135, 136, 137, 138, 139, 140, 141, 142, 143, 144, 145, 146, 147, 148, 149, 150, 151, 152, 153, 154, 155, 156, 157, 158, 159, 160, 161, 162, 163, 164, 165, 166, 167, 168, 169, 170, 171, 172, 173, 174, 175, 176, 177, 178, 179, 180, 181, 182, 183, 184, 185, 186, 187, 188, 189, 190],
      "AcquisitionTime": ["154041.845000", "154043.335000", "154044.825000", "154046.315000", "154047.805000", "154049.295000", "154050.785000", "154052.275000", "154053.765000", "154055.255000", "154056.745000", "154058.235000", "154059.725000", "154101.215000", "154102.705000", "154104.195000", "154105.685000", "154107.175000", "154108.665000", "154110.155000", "154111.645000", "154113.135000", "154114.625000", "154116.115000", "154117.605000", "154119.095000", "154120.585000", "154122.075000", "154123.565000", "154125.055000", "154126.545000", "154128.035000", "154129.525000", "154131.015000", "154132.505000", "154133.995000", "154135.485000", "154136.975000", "154138.465000", "154139.955000", "154141.445000", "154142.935000", "154144.425000", "154145.915000", "154147.405000", "154148.895000", "154150.385000", "154151.875000", "154153.365000", "154154.855000", "154156.345000", "154157.835000", "154159.325000", "154200.815000", "154202.305000", "154203.795000", "154205.285000", "154206.775000", "154208.265000", "154209.755000", "154211.245000", "154212.735000", "154214.225000", "154215.715000", "154217.205000", "154218.695000", "154220.185000", "154221.675000", "154223.165000", "154224.655000", "154226.145000", "154227.635000", "154229.125000", "154230.615000", "154232.105000", "154233.595000", "154235.085000", "154236.575000", "154238.065000", "154239.555000", "154241.045000", "154242.535000", "154244.025000", "154245.515000", "154247.005000", "154248.495000", "154249.985000", "154251.475000", "154252.965000", "154254.455000", "154255.945000", "154257.435000", "154258.925000", "154300.415000", "154301.905000", "154303.395000", "154304.885000", "154306.375000", "154307.865000", "154309.355000", "154310.845000", "154312.335000", "154313.825000", "154315.315000", "154316.805000", "154318.295000", "154319.785000", "154321.275000", "154322.765000", "154324.255000", "154325.745000", "154327.235000", "154328.725000", "154330.215000", "154331.705000", "154333.195000", "154334.685000", "154336.175000", "154337.665000", "154339.155000", "154340.645000", "154342.135000", "154343.625000", "154345.115000", "154346.605000", "154348.095000", "154349.585000", "154351.075000", "154352.565000", "154354.055000", "154355.545000", "154357.035000", "154358.525000", "154400.015000", "154401.505000", "154402.995000", "154404.485000", "154405.975000", "154407.465000", "154408.955000", "154410.445000", "154411.935000", "154413.425000", "154414.915000", "154416.405000", "154417.895000", "154419.385000", "154420.875000", "154422.365000", "154423.855000", "154425.345000", "154426.835000", "154428.325000", "154429.815000", "154431.305000", "154432.795000", "154434.285000", "154435.775000", "154437.265000", "154438.755000", "154440.245000", "154441.735000", "154443.225000", "154444.715000", "154446.205000", "154447.695000", "154449.185000", "154450.675000", "154452.165000", "154453.655000", "154455.145000", "154456.635000", "154458.125000", "154459.615000", "154501.105000", "154502.595000", "154504.085000", "154505.575000", "154507.065000", "154508.555000", "154510.045000", "154511.535000", "154513.025000", "154514.515000", "154516.005000", "154517.495000", "154518.985000", "154520.475000", "154521.965000", "154523.455000"],
      "ContentTime": ["154200.385000", "154200.389000", "154200.392000", "154200.396000", "154200.399000", "154200.402000", "154200.406000", "154200.414000", "154200.418000", "154200.421000", "154200.424000", "154200.428000", "154200.431000", "154200.434000", "154200.437000", "154200.441000", "154200.444000", "154200.448000", "154200.451000", "154200.454000", "154200.457000", "154200.461000", "154200.464000", "154200.467000", "154220.352000", "154220.356000", "154220.359000", "154220.362000", "154220.366000", "154220.369000", "154220.372000", "154220.376000", "154220.379000", "154220.383000", "154220.386000", "154220.389000", "154220.392000", "154220.396000", "154220.399000", "154220.402000", "154220.406000", "154220.421000", "154220.424000", "154220.428000", "154240.352000", "154240.356000", "154240.359000", "154240.362000", "154240.366000", "154240.369000", "154240.372000", "154240.376000", "154240.379000", "154240.383000", "154240.386000", "154240.389000", "154240.392000", "154240.396000", "154240.399000", "154240.402000", "154240.406000", "154240.409000", "154240.412000", "154240.416000", "154240.419000", "154300.352000", "154300.356000", "154300.359000", "154300.362000", "154300.366000", "154300.369000", "154300.372000", "154300.376000", "154300.379000", "154300.382000", "154300.386000", "154300.389000", "154300.392000", "154300.396000", "154300.399000", "154300.409000", "154300.413000", "154300.416000", "154300.419000", "154300.423000", "154320.352000", "154320.356000", "154320.359000", "154320.363000", "154320.366000", "154320.369000", "154320.373000", "154320.376000", "154320.379000", "154320.383000", "154320.386000", "154320.389000", "154320.393000", "154320.396000", "154320.399000", "154320.403000", "154320.406000", "154320.409000", "154320.412000", "154320.416000", "154400.352000", "154400.356000", "154400.359000", "154400.363000", "154400.366000", "154400.369000", "154400.373000", "154400.376000", "154400.379000", "154400.383000", "154400.386000", "154400.389000", "154400.393000", "154400.396000", "154400.399000", "154400.403000", "154400.406000", "154400.409000", "154400.413000", "154400.423000", "154400.426000", "154400.429000", "154400.433000", "154400.436000", "154400.439000", "154400.443000", "154400.446000", "154440.352000", "154440.356000", "154440.359000", "154440.363000", "154440.366000", "154440.369000", "154440.373000", "154440.376000", "154440.379000", "154440.383000", "154440.386000", "154440.389000", "154440.393000", "154440.396000", "154440.399000", "154440.403000", "154440.406000", "154440.409000", "154440.413000", "154440.416000", "154440.419000", "154440.423000", "154440.426000", "154440.430000", "154440.433000", "154440.436000", "154440.440000", "154520.352000", "154520.356000", "154520.359000", "154520.363000", "154520.366000", "154520.369000", "154520.373000", "154520.376000", "154520.379000", "154520.383000", "154520.386000", "154520.389000", "154520.393000", "154520.396000", "154520.399000", "154520.403000", "154520.406000", "154520.410000", "154520.413000", "154520.423000", "154520.426000", "154520.429000", "154520.433000", "154520.436000", "154520.439000", "154520.443000", "154520.446000", "154526.125000", "154526.128000", "154526.132000", "154526.135000"],
      "InstanceCreationTime": ["154200.385000", "154200.389000", "154200.392000", "154200.396000", "154200.399000", "154200.402000", "154200.406000", "154200.414000", "154200.418000", "154200.421000", "154200.424000", "154200.428000", "154200.431000", "154200.434000", "154200.437000", "154200.441000", "154200.444000", "154200.448000", "154200.451000", "154200.454000", "154200.457000", "154200.461000", "154200.464000", "154200.467000", "154220.352000", "154220.356000", "154220.359000", "154220.362000", "154220.366000", "154220.369000", "154220.372000", "154220.376000", "154220.379000", "154220.383000", "154220.386000", "154220.389000", "154220.392000", "154220.396000", "154220.399000", "154220.402000", "154220.406000", "154220.421000", "154220.424000", "154220.428000", "154240.352000", "154240.356000", "154240.359000", "154240.362000", "154240.366000", "154240.369000", "154240.372000", "154240.376000", "154240.379000", "154240.383000", "154240.386000", "154240.389000", "154240.392000", "154240.396000", "154240.399000", "154240.402000", "154240.406000", "154240.409000", "154240.412000", "154240.416000", "154240.419000", "154300.352000", "154300.356000", "154300.359000", "154300.362000", "154300.366000", "154300.369000", "154300.372000", "154300.376000", "154300.379000", "154300.382000", "154300.386000", "154300.389000", "154300.392000", "154300.396000", "154300.399000", "154300.409000", "154300.413000", "154300.416000", "154300.419000", "154300.423000", "154320.352000", "154320.356000", "154320.359000", "154320.363000", "154320.366000", "154320.369000", "154320.373000", "154320.376000", "154320.379000", "154320.383000", "154320.386000", "154320.389000", "154320.393000", "154320.396000", "154320.399000", "154320.403000", "154320.406000", "154320.409000", "154320.412000", "154320.416000", "154400.352000", "154400.356000", "154400.359000", "154400.363000", "154400.366000", "154400.369000", "154400.373000", "154400.376000", "154400.379000", "154400.383000", "154400.386000", "154400.389000", "154400.393000", "154400.396000", "154400.399000", "154400.403000", "154400.406000", "154400.409000", "154400.413000", "154400.423000", "154400.426000", "154400.429000", "154400.433000", "154400.436000", "154400.439000", "154400.443000", "154400.446000", "154440.352000", "154440.356000", "154440.359000", "154440.363000", "154440.366000", "154440.369000", "154440.373000", "154440.376000", "154440.379000", "154440.383000", "154440.386000", "154440.389000", "154440.393000", "154440.396000", "154440.399000", "154440.403000", "154440.406000", "154440.409000", "154440.413000", "154440.416000", "154440.419000", "154440.423000", "154440.426000", "154440.430000", "154440.433000", "154440.436000", "154440.440000", "154520.352000", "154520.356000", "154520.359000", "154520.363000", "154520.366000", "154520.369000", "154520.373000", "154520.376000", "154520.379000", "154520.383000", "154520.386000", "154520.389000", "154520.393000", "154520.396000", "154520.399000", "154520.403000", "154520.406000", "154520.410000", "154520.413000", "154520.423000", "154520.426000", "154520.429000", "154520.433000", "154520.436000", "154520.439000", "154520.443000", "154520.446000", "154526.125000", "154526.128000", "154526.132000", "154526.135000"],
      "InstanceNumber": [1, 2, 3, 4, 5, 6, 7, 8, 9, 10, 11, 12, 13, 14, 15, 16, 17, 18, 19, 20, 21, 22, 23, 24, 25, 26, 27, 28, 29, 30, 31, 32, 33, 34, 35, 36, 37, 38, 39, 40, 41, 42, 43, 44, 45, 46, 47, 48, 49, 50, 51, 52, 53, 54, 55, 56, 57, 58, 59, 60, 61, 62, 63, 64, 65, 66, 67, 68, 69, 70, 71, 72, 73, 74, 75, 76, 77, 78, 79, 80, 81, 82, 83, 84, 85, 86, 87, 88, 89, 90, 91, 92, 93, 94, 95, 96, 97, 98, 99, 100, 101, 102, 103, 104, 105, 106, 107, 108, 109, 110, 111, 112, 113, 114, 115, 116, 117, 118, 119, 120, 121, 122, 123, 124, 125, 126, 127, 128, 129, 130, 131, 132, 133, 134, 135, 136, 137, 138, 139, 140, 141, 142, 143, 144, 145, 146, 147, 148, 149, 150, 151, 152, 153, 154, 155, 156, 157, 158, 159, 160, 161, 162, 163, 164, 165, 166, 167, 168, 169, 170, 171, 172, 173, 174, 175, 176, 177, 178, 179, 180, 181, 182, 183, 184, 185, 186, 187, 188, 189, 190],
      "LargestImagePixelValue": [43038, 42923, 42344, 41619, 40156, 39634, 38970, 38402, 38883, 39146, 39237, 38865, 39506, 39012, 39414, 39603, 39242, 39025, 39267, 38952, 38568, 38936, 39323, 39232, 39929, 40463, 39902, 39672, 39112, 38688, 39606, 39388, 39563, 39415, 39375, 40006, 39664, 39543, 39230, 39355, 39687, 39197, 39218, 39238, 38913, 39687, 39466, 39248, 39354, 39361, 39145, 39295, 39187, 39424, 39447, 39278, 39957, 39189, 39286, 39172, 39195, 39694, 39178, 38927, 39227, 39140, 39254, 39199, 39231, 38833, 38876, 38827, 39279, 38868, 39022, 39152, 39816, 38906, 38526, 39321, 38738, 39284, 39216, 39812, 39348, 39214, 39692, 39237, 39111, 38770, 39242, 38988, 38888, 39162, 39116, 38966, 38763, 38590, 38618, 39095, 39094, 38860, 39151, 39069, 38914, 39055, 39103, 38557, 38701, 39345, 39094, 38835, 38689, 39109, 38748, 39050, 39083, 38953, 39273, 39095, 39854, 39377, 39226, 39279, 39680, 39055, 39066, 39232, 39300, 38898, 39171, 39068, 39256, 39630, 39233, 39375, 39211, 39372, 39106, 39227, 38865, 39312, 39591, 39175, 38761, 39241, 39696, 39204, 39202, 38881, 39049, 38963, 39472, 39429, 39305, 39071, 38537, 38942, 38457, 39652, 39131, 38969, 39235, 39025, 39405, 39747, 39600, 39680, 39774, 39443, 39235, 39081, 39447, 39578, 39413, 39271, 39280, 39140, 38803, 39321, 38892, 39092, 38834, 38913, 39153, 39309, 39100, 39888, 39321, 39754],
      "WindowCenter": [10459.0, 10410.0, 10406.0, 10413.0, 10354.0, 10352.0, 10321.0, 10300.0, 10300.0, 10280.0, 10268.0, 10256.0, 10258.0, 10266.0, 10296.0, 10337.0, 10367.0, 10363.0, 10345.0, 10307.0, 10299.0, 10303.0, 10317.0, 10319.0, 10336.0, 10360.0, 10338.0, 10359.0, 10318.0, 10270.0, 10282.0, 10273.0, 10275.0, 10256.0, 10247.0, 10258.0, 10289.0, 10321.0, 10313.0, 10281.0, 10269.0, 10268.0, 10290.0, 10307.0, 10313.0, 10310.0, 10303.0, 10324.0, 10336.0, 10335.0, 10330.0, 10319.0, 10305.0, 10324.0, 10326.0, 10306.0, 10301.0, 10289.0, 10294.0, 10298.0, 10297.0, 10295.0, 10290.0, 10295.0, 10297.0, 10289.0, 10295.0, 10305.0, 10321.0, 10302.0, 10306.0, 10314.0, 10343.0, 10333.0, 10308.0, 10284.0, 10286.0, 10302.0, 10302.0, 10319.0, 10299.0, 10287.0, 10271.0, 10270.0, 10270.0, 10278.0, 10292.0, 10301.0, 10296.0, 10315.0, 10321.0, 10301.0, 10277.0, 10272.0, 10301.0, 10330.0, 10325.0, 10304.0, 10293.0, 10282.0, 10290.0, 10292.0, 10290.0, 10297.0, 10297.0, 10294.0, 10282.0, 10276.0, 10283.0, 10296.0, 10313.0, 10318.0, 10319.0, 10332.0, 10318.0, 10315.0, 10305.0, 10321.0, 10341.0, 10341.0, 10328.0, 10314.0, 10322.0, 10308.0, 10283.0, 10259.0, 10260.0, 10273.0, 10288.0, 10292.0, 10287.0, 10285.0, 10283.0, 10288.0, 10298.0, 10307.0, 10323.0, 10327.0, 10304.0, 10309.0, 10312.0, 10333.0, 10338.0, 10326.0, 10314.0, 10306.0, 10304.0, 10304.0, 10329.0, 10316.0, 10278.0, 10251.0, 10245.0, 10245.0, 10258.0, 10258.0, 10286.0, 10268.0, 10249.0, 10254.0, 10210.0, 10199.0, 10207.0, 10233.0, 10266.0, 10273.0, 10272.0, 10262.0, 10262.0, 10280.0, 10290.0, 10213.0, 10296.0, 10294.0, 10289.0, 10283.0, 10279.0, 10266.0, 10275.0, 10278.0, 10266.0, 10270.0, 10265.0, 10279.0, 10281.0, 10280.0, 10281.0, 10292.0, 10303.0, 10311.0],
      "WindowWidth": [22643.0, 22480.0, 22449.0, 22465.0, 22324.0, 22301.0, 22223.0, 22171.0, 22168.0, 22121.0, 22092.0, 22066.0, 22071.0, 22094.0, 22163.0, 22256.0, 22324.0, 22317.0, 22277.0, 22188.0, 22165.0, 22171.0, 22201.0, 22210.0, 22245.0, 22305.0, 22253.0, 22308.0, 22213.0, 22097.0, 22121.0, 22095.0, 22099.0, 22059.0, 22040.0, 22064.0, 22136.0, 22213.0, 22201.0, 22126.0, 22095.0, 22092.0, 22139.0, 22178.0, 22194.0, 22185.0, 22170.0, 22220.0, 22251.0, 22248.0, 22237.0, 22211.0, 22178.0, 22217.0, 22224.0, 22179.0, 22167.0, 22141.0, 22153.0, 22165.0, 22164.0, 22158.0, 22146.0, 22158.0, 22163.0, 22144.0, 22158.0, 22185.0, 22221.0, 22180.0, 22187.0, 22207.0, 22270.0, 22250.0, 22190.0, 22138.0, 22140.0, 22177.0, 22180.0, 22214.0, 22173.0, 22144.0, 22107.0, 22105.0, 22106.0, 22121.0, 22151.0, 22173.0, 22162.0, 22207.0, 22219.0, 22174.0, 22119.0, 22106.0, 22172.0, 22242.0, 22236.0, 22187.0, 22158.0, 22132.0, 22150.0, 22154.0, 22150.0, 22164.0, 22165.0, 22160.0, 22130.0, 22120.0, 22135.0, 22162.0, 22201.0, 22216.0, 22219.0, 22245.0, 22216.0, 22207.0, 22182.0, 22220.0, 22266.0, 22270.0, 22234.0, 22203.0, 22221.0, 22191.0, 22134.0, 22078.0, 22082.0, 22112.0, 22145.0, 22159.0, 22147.0, 22139.0, 22134.0, 22143.0, 22169.0, 22190.0, 22226.0, 22234.0, 22185.0, 22194.0, 22204.0, 22252.0, 22259.0, 22236.0, 22206.0, 22185.0, 22180.0, 22177.0, 22236.0, 22208.0, 22122.0, 22056.0, 22041.0, 22042.0, 22076.0, 22082.0, 22145.0, 22089.0, 22047.0, 22056.0, 21955.0, 21928.0, 21946.0, 22007.0, 22084.0, 22101.0, 22098.0, 22074.0, 22073.0, 22116.0, 22140.0, 21955.0, 22156.0, 22144.0, 22132.0, 22120.0, 22109.0, 22084.0, 22105.0, 22110.0, 22084.0, 22089.0, 22080.0, 22111.0, 22116.0, 22116.0, 22119.0, 22139.0, 22168.0, 22187.0]
    },
    "slices": {}
  }
}