{
  "AcquisitionMatrixPE": 104,
  "AcquisitionNumber": 1,
  "AcquisitionTime": "15:59:9.700000",
  "BandwidthPerPixelPhaseEncode": 17.17,
  "BaseResolution": 104,
  "BodyPartExamined": "BRAIN",
  "CoilString": "HC1-7;NC1_2",
  "ConsistencyInfo": "N4_VE11C_LATEST_20160120",
  "ConversionSoftware": "dcm2niix",
  "ConversionSoftwareVersion": "v1.0.20190902",
  "DerivedVendorReportedEchoSpacing": 0.000560011,
  "DeviceSerialNumber": "167006",
  "DwellTime": 2.1e-06,
  "EchoTime": 0.037,
  "EchoTrainLength": 104,
  "EffectiveEchoSpacing": 0.000560011,
  "FlipAngle": 52,
  "ImageComments": "Unaliased_MB4_PE3_LB",
  "ImageOrientationPatientDICOM": [0.998206, -0.0574151, 0.0169529, 0.059829, 0.946841, -0.316091],
  "ImageType": [
    "ORIGINAL",
    "PRIMARY",
    "M",
    "MB",
    "ND",
    "MOSAIC"
],
  "ImagingFrequency": 123.259,
  "InPlanePhaseEncodingDirectionDICOM": "COL",
  "InstitutionAddress": "Chemin_Queen-Mary_4565_Montreal_District_CA_H3W_1W5",
  "InstitutionName": "IUGM",
  "InstitutionalDepartmentName": "Department",
  "MRAcquisitionType": "2D",
  "MagneticFieldStrength": 3,
  "Manufacturer": "Siemens",
  "ManufacturersModelName": "Prisma_fit",
  "Modality": "MR",
  "MultibandAccelerationFactor": 4,
  "PartialFourier": 1,
  "PatientPosition": "HFS",
  "PercentPhaseFOV": 100,
  "PhaseEncodingDirection": "j",
  "PhaseEncodingSteps": 104,
  "PhaseResolution": 1,
  "PixelBandwidth": 2290,
  "ProcedureStepDescription": "memory_things",
  "ProtocolName": "func_task-things_run-5",
  "PulseSequenceDetails": "%CustomerSeq%_cmrr_mbep2d_bold",
  "ReceiveCoilActiveElements": "HC1-7;NC1,2",
  "ReceiveCoilName": "HeadNeck_64",
  "ReconMatrixPE": 104,
  "RepetitionTime": 1.49,
  "SAR": 0.0530703,
  "ScanOptions": "FS",
  "ScanningSequence": "EP",
  "SequenceName": "epfid2d1_104",
  "SequenceVariant": "SK_SS",
  "SeriesDescription": "func_task-things_run-5",
  "SeriesNumber": 22,
  "ShimSetting": [636, -7269, -8798, 597, 8, -222, 1, -18],
  "SliceThickness": 2,
  "SliceTiming": [0, 0.7825, 0.0975, 0.8825, 0.195, 0.98, 0.2925, 1.0775, 0.3925, 1.175, 0.49, 1.2725, 0.5875, 1.3725, 0.685, 0, 0.7825, 0.0975, 0.8825, 0.195, 0.98, 0.2925, 1.0775, 0.3925, 1.175, 0.49, 1.2725, 0.5875, 1.3725, 0.685, 0, 0.7825, 0.0975, 0.8825, 0.195, 0.98, 0.2925, 1.0775, 0.3925, 1.175, 0.49, 1.2725, 0.5875, 1.3725, 0.685, 0, 0.7825, 0.0975, 0.8825, 0.195, 0.98, 0.2925, 1.0775, 0.3925, 1.175, 0.49, 1.2725, 0.5875, 1.3725, 0.685],
  "SoftwareVersions": "syngo_MR_E11",
  "SpacingBetweenSlices": 2,
  "StationName": "MRC35049",
  "TaskName": "things",
  "TotalReadoutTime": 0.0576811,
  "TxRefAmp": 271.336,
  "WipMemBlock": "08d131e1-ccfb-493a-acbe-a966fe122ec7||Sequence: R016 ve11c/master r/e634e98; Dec 19 2017 11:00:25 by eja",
  "dcmmeta_affine": [
    [-1.9964128732681274, 0.11965793371200562, -0.004193298052996397, 101.14920043945312],
    [0.11483028531074524, 1.893681287765503, -0.6330758929252625, -72.67975616455078],
    [0.033905889838933945, 0.6321811676025391, 1.8971551656723022, -57.841670989990234],
    [0.0, 0.0, 0.0, 1.0]
],
  "dcmmeta_reorient_transform": [
    [0.0, -1.0, 0.0, 103.0],
    [1.0, 0.0, 0.0, 0.0],
    [0.0, 0.0, 1.0, 0.0],
    [0.0, 0.0, 0.0, 1.0]
],
  "dcmmeta_shape": [104, 104, 60, 190],
  "dcmmeta_slice_dim": 2,
  "dcmmeta_version": 0.6,
  "global": {
    "const": {
      "AcquisitionMatrix": [104, 0, 0, 104],
      "AngioFlag": "N",
      "BitsAllocated": 16,
      "BitsStored": 16,
      "BodyPartExamined": "BRAIN",
      "Columns": 832,
      "EchoNumbers": 1,
      "EchoTime": 37.0,
      "EchoTrainLength": 104,
      "FlipAngle": 52.0,
      "HighBit": 15,
      "ImageOrientationPatient": [0.99820644103764, -0.0574151438629, 0.01695294446907, 0.05982896567824, 0.94684066245966, -0.3160905800223],
      "ImagePositionPatient": [-883.72374183106, -769.87119498572, 225.04518673048],
      "ImageType": [
        "ORIGINAL",
        "PRIMARY",
        "M",
        "MB",
        "ND",
        "MOSAIC"
],
      "ImagedNucleus": "1H",
      "ImagingFrequency": 123.259056,
      "InPlanePhaseEncodingDirection": "COL",
      "MRAcquisitionType": "2D",
      "MagneticFieldStrength": 3.0,
      "Manufacturer": "SIEMENS",
      "ManufacturerModelName": "Prisma_fit",
      "Modality": "MR",
      "NumberOfAverages": 1.0,
      "NumberOfPhaseEncodingSteps": 104,
      "PercentPhaseFieldOfView": 100.0,
      "PercentSampling": 100.0,
      "PerformedProcedureStepStartTime": "153050.212000",
      "PhotometricInterpretation": "MONOCHROME2",
      "PixelBandwidth": 2290.0,
      "PixelRepresentation": 0,
      "PixelSpacing": [2.0, 2.0],
      "ProtocolName": "func_task-things_run-5",
      "RepetitionTime": 1490.0,
      "Rows": 832,
      "SAR": 0.05307026102542,
      "SamplesPerPixel": 1,
      "ScanOptions": "FS",
      "ScanningSequence": "EP",
      "SequenceName": "epfid2d1_104",
      "SequenceVariant": [
        "SK",
        "SS"
],
      "SeriesDescription": "func_task-things_run-5",
      "SeriesNumber": 22,
      "SeriesTime": "160040.400000",
      "SliceLocation": -32.073484087405,
      "SliceThickness": 2.0,
      "SmallestImagePixelValue": 0,
      "SoftwareVersions": "syngo MR E11",
      "SpacingBetweenSlices": 2.0000000396452,
      "SpecificCharacterSet": "ISO_IR 100",
      "StudyID": "1",
      "StudyTime": "153050.073000",
      "TransmitCoilName": "Body",
      "VariableFlipAngleFlag": "N",
      "WindowCenterWidthExplanation": "Algo1",
      "dBdt": 0.0},
    "slices": {}
  },
  "time": {
    "samples": {
      "AcquisitionNumber": [1, 2, 3, 4, 5, 6, 7, 8, 9, 10, 11, 12, 13, 14, 15, 16, 17, 18, 19, 20, 21, 22, 23, 24, 25, 26, 27, 28, 29, 30, 31, 32, 33, 34, 35, 36, 37, 38, 39, 40, 41, 42, 43, 44, 45, 46, 47, 48, 49, 50, 51, 52, 53, 54, 55, 56, 57, 58, 59, 60, 61, 62, 63, 64, 65, 66, 67, 68, 69, 70, 71, 72, 73, 74, 75, 76, 77, 78, 79, 80, 81, 82, 83, 84, 85, 86, 87, 88, 89, 90, 91, 92, 93, 94, 95, 96, 97, 98, 99, 100, 101, 102, 103, 104, 105, 106, 107, 108, 109, 110, 111, 112, 113, 114, 115, 116, 117, 118, 119, 120, 121, 122, 123, 124, 125, 126, 127, 128, 129, 130, 131, 132, 133, 134, 135, 136, 137, 138, 139, 140, 141, 142, 143, 144, 145, 146, 147, 148, 149, 150, 151, 152, 153, 154, 155, 156, 157, 158, 159, 160, 161, 162, 163, 164, 165, 166, 167, 168, 169, 170, 171, 172, 173, 174, 175, 176, 177, 178, 179, 180, 181, 182, 183, 184, 185, 186, 187, 188, 189, 190],
      "AcquisitionTime": ["155909.700000", "155911.190000", "155912.680000", "155914.170000", "155915.660000", "155917.150000", "155918.640000", "155920.130000", "155921.620000", "155923.110000", "155924.600000", "155926.090000", "155927.580000", "155929.070000", "155930.560000", "155932.050000", "155933.540000", "155935.030000", "155936.520000", "155938.010000", "155939.500000", "155940.990000", "155942.480000", "155943.970000", "155945.460000", "155946.950000", "155948.440000", "155949.930000", "155951.420000", "155952.910000", "155954.400000", "155955.890000", "155957.380000", "155958.870000", "160000.360000", "160001.850000", "160003.340000", "160004.830000", "160006.320000", "160007.810000", "160009.300000", "160010.790000", "160012.280000", "160013.770000", "160015.260000", "160016.750000", "160018.240000", "160019.730000", "160021.220000", "160022.710000", "160024.200000", "160025.690000", "160027.180000", "160028.670000", "160030.160000", "160031.650000", "160033.140000", "160034.630000", "160036.120000", "160037.610000", "160039.100000", "160040.590000", "160042.080000", "160043.570000", "160045.060000", "160046.550000", "160048.040000", "160049.530000", "160051.020000", "160052.510000", "160054.000000", "160055.490000", "160056.980000", "160058.470000", "160059.960000", "160101.450000", "160102.940000", "160104.430000", "160105.920000", "160107.410000", "160108.900000", "160110.390000", "160111.880000", "160113.370000", "160114.860000", "160116.350000", "160117.840000", "160119.330000", "160120.820000", "160122.310000", "160123.800000", "160125.290000", "160126.780000", "160128.270000", "160129.760000", "160131.250000", "160132.740000", "160134.230000", "160135.720000", "160137.210000", "160138.700000", "160140.190000", "160141.680000", "160143.170000", "160144.660000", "160146.150000", "160147.640000", "160149.130000", "160150.620000", "160152.110000", "160153.600000", "160155.090000", "160156.580000", "160158.070000", "160159.560000", "160201.050000", "160202.540000", "160204.030000", "160205.520000", "160207.010000", "160208.500000", "160209.990000", "160211.480000", "160212.970000", "160214.460000", "160215.950000", "160217.440000", "160218.930000", "160220.420000", "160221.910000", "160223.400000", "160224.890000", "160226.380000", "160227.870000", "160229.360000", "160230.850000", "160232.340000", "160233.830000", "160235.320000", "160236.810000", "160238.300000", "160239.790000", "160241.280000", "160242.770000", "160244.260000", "160245.750000", "160247.240000", "160248.730000", "160250.220000", "160251.710000", "160253.200000", "160254.690000", "160256.180000", "160257.670000", "160259.160000", "160300.650000", "160302.140000", "160303.630000", "160305.120000", "160306.610000", "160308.100000", "160309.590000", "160311.080000", "160312.570000", "160314.060000", "160315.550000", "160317.040000", "160318.530000", "160320.020000", "160321.510000", "160323.000000", "160324.490000", "160325.980000", "160327.470000", "160328.960000", "160330.450000", "160331.940000", "160333.430000", "160334.920000", "160336.410000", "160337.900000", "160339.390000", "160340.880000", "160342.370000", "160343.860000", "160345.350000", "160346.840000", "160348.330000", "160349.820000", "160351.310000"],
      "ContentTime": ["160040.403000", "160040.407000", "160040.410000", "160040.413000", "160040.416000", "160040.420000", "160040.423000", "160040.427000", "160040.430000", "160040.433000", "160040.437000", "160040.440000", "160040.443000", "160040.446000", "160040.450000", "160040.453000", "160040.456000", "160040.466000", "160040.470000", "160040.473000", "160040.476000", "160040.480000", "160040.483000", "160040.486000", "160040.490000", "160040.493000", "160040.497000", "160040.500000", "160040.503000", "160040.507000", "160040.510000", "160040.513000", "160040.517000", "160040.520000", "160040.523000", "160040.527000", "160040.540000", "160040.543000", "160100.352000", "160100.356000", "160100.359000", "160100.362000", "160100.366000", "160100.369000", "160100.372000", "160100.375000", "160100.379000", "160100.382000", "160100.390000", "160100.393000", "160100.396000", "160100.400000", "160100.403000", "160100.406000", "160100.409000", "160100.413000", "160100.416000", "160100.419000", "160120.352000", "160120.356000", "160120.359000", "160120.363000", "160120.366000", "160120.369000", "160120.373000", "160120.376000", "160120.379000", "160120.383000", "160120.386000", "160120.389000", "160120.393000", "160120.396000", "160120.400000", "160120.403000", "160120.406000", "160120.409000", "160120.413000", "160120.416000", "160140.352000", "160140.356000", "160140.359000", "160140.362000", "160140.366000", "160140.369000", "160140.372000", "160140.376000", "160140.379000", "160140.382000", "160140.386000", "160140.389000", "160140.392000", "160140.395000", "160140.399000", "160140.402000", "160140.405000", "160140.409000", "160140.412000", "160140.415000", "160140.418000", "160220.353000", "160220.357000", "160220.360000", "160220.363000", "160220.367000", "160220.370000", "160220.373000", "160220.377000", "160220.380000", "160220.383000", "160220.386000", "160220.390000", "160220.393000", "160220.396000", "160220.400000", "160220.403000", "160220.406000", "160220.409000", "160220.413000", "160220.416000", "160220.419000", "160220.423000", "160220.435000", "160220.439000", "160220.442000", "160220.445000", "160220.449000", "160220.452000", "160300.352000", "160300.356000", "160300.359000", "160300.362000", "160300.366000", "160300.369000", "160300.372000", "160300.376000", "160300.379000", "160300.382000", "160300.385000", "160300.389000", "160300.392000", "160300.395000", "160300.399000", "160300.402000", "160300.405000", "160300.408000", "160300.412000", "160300.415000", "160300.418000", "160300.422000", "160300.425000", "160300.428000", "160300.431000", "160300.435000", "160300.438000", "160340.352000", "160340.356000", "160340.359000", "160340.362000", "160340.366000", "160340.369000", "160340.372000", "160340.375000", "160340.379000", "160340.382000", "160340.385000", "160340.388000", "160340.392000", "160340.395000", "160340.398000", "160340.402000", "160340.405000", "160340.408000", "160340.412000", "160340.415000", "160340.418000", "160340.421000", "160340.425000", "160340.428000", "160340.431000", "160340.435000", "160340.438000", "160352.990000", "160352.994000", "160352.997000", "160353.002000", "160353.005000", "160353.008000", "160353.012000", "160353.015000", "160353.018000"],
      "InstanceCreationTime": ["160040.403000", "160040.407000", "160040.410000", "160040.413000", "160040.416000", "160040.420000", "160040.423000", "160040.427000", "160040.430000", "160040.433000", "160040.437000", "160040.440000", "160040.443000", "160040.446000", "160040.450000", "160040.453000", "160040.456000", "160040.466000", "160040.470000", "160040.473000", "160040.476000", "160040.480000", "160040.483000", "160040.486000", "160040.490000", "160040.493000", "160040.497000", "160040.500000", "160040.503000", "160040.507000", "160040.510000", "160040.513000", "160040.517000", "160040.520000", "160040.523000", "160040.527000", "160040.540000", "160040.543000", "160100.352000", "160100.356000", "160100.359000", "160100.362000", "160100.366000", "160100.369000", "160100.372000", "160100.375000", "160100.379000", "160100.382000", "160100.390000", "160100.393000", "160100.396000", "160100.400000", "160100.403000", "160100.406000", "160100.409000", "160100.413000", "160100.416000", "160100.419000", "160120.352000", "160120.356000", "160120.359000", "160120.363000", "160120.366000", "160120.369000", "160120.373000", "160120.376000", "160120.379000", "160120.383000", "160120.386000", "160120.389000", "160120.393000", "160120.396000", "160120.400000", "160120.403000", "160120.406000", "160120.409000", "160120.413000", "160120.416000", "160140.352000", "160140.356000", "160140.359000", "160140.362000", "160140.366000", "160140.369000", "160140.372000", "160140.376000", "160140.379000", "160140.382000", "160140.386000", "160140.389000", "160140.392000", "160140.395000", "160140.399000", "160140.402000", "160140.405000", "160140.409000", "160140.412000", "160140.415000", "160140.418000", "160220.353000", "160220.357000", "160220.360000", "160220.363000", "160220.367000", "160220.370000", "160220.373000", "160220.377000", "160220.380000", "160220.383000", "160220.386000", "160220.390000", "160220.393000", "160220.396000", "160220.400000", "160220.403000", "160220.406000", "160220.409000", "160220.413000", "160220.416000", "160220.419000", "160220.423000", "160220.435000", "160220.439000", "160220.442000", "160220.445000", "160220.449000", "160220.452000", "160300.352000", "160300.356000", "160300.359000", "160300.362000", "160300.366000", "160300.369000", "160300.372000", "160300.376000", "160300.379000", "160300.382000", "160300.385000", "160300.389000", "160300.392000", "160300.395000", "160300.399000", "160300.402000", "160300.405000", "160300.408000", "160300.412000", "160300.415000", "160300.418000", "160300.422000", "160300.425000", "160300.428000", "160300.431000", "160300.435000", "160300.438000", "160340.352000", "160340.356000", "160340.359000", "160340.362000", "160340.366000", "160340.369000", "160340.372000", "160340.375000", "160340.379000", "160340.382000", "160340.385000", "160340.388000", "160340.392000", "160340.395000", "160340.398000", "160340.402000", "160340.405000", "160340.408000", "160340.412000", "160340.415000", "160340.418000", "160340.421000", "160340.425000", "160340.428000", "160340.431000", "160340.435000", "160340.438000", "160352.990000", "160352.994000", "160352.997000", "160353.002000", "160353.005000", "160353.008000", "160353.012000", "160353.015000", "160353.018000"],
      "InstanceNumber": [1, 2, 3, 4, 5, 6, 7, 8, 9, 10, 11, 12, 13, 14, 15, 16, 17, 18, 19, 20, 21, 22, 23, 24, 25, 26, 27, 28, 29, 30, 31, 32, 33, 34, 35, 36, 37, 38, 39, 40, 41, 42, 43, 44, 45, 46, 47, 48, 49, 50, 51, 52, 53, 54, 55, 56, 57, 58, 59, 60, 61, 62, 63, 64, 65, 66, 67, 68, 69, 70, 71, 72, 73, 74, 75, 76, 77, 78, 79, 80, 81, 82, 83, 84, 85, 86, 87, 88, 89, 90, 91, 92, 93, 94, 95, 96, 97, 98, 99, 100, 101, 102, 103, 104, 105, 106, 107, 108, 109, 110, 111, 112, 113, 114, 115, 116, 117, 118, 119, 120, 121, 122, 123, 124, 125, 126, 127, 128, 129, 130, 131, 132, 133, 134, 135, 136, 137, 138, 139, 140, 141, 142, 143, 144, 145, 146, 147, 148, 149, 150, 151, 152, 153, 154, 155, 156, 157, 158, 159, 160, 161, 162, 163, 164, 165, 166, 167, 168, 169, 170, 171, 172, 173, 174, 175, 176, 177, 178, 179, 180, 181, 182, 183, 184, 185, 186, 187, 188, 189, 190],
      "LargestImagePixelValue": [39744, 39337, 38213, 38170, 37776, 37742, 37419, 37356, 37405, 37298, 37516, 37548, 37710, 37541, 37392, 37313, 37059, 37229, 37205, 36981, 37412, 37675, 37407, 37159, 36937, 37142, 36812, 37209, 37731, 37287, 37609, 37636, 37751, 37661, 37672, 38158, 37925, 37266, 38187, 38076, 37574, 38529, 38331, 38105, 37035, 37723, 37560, 36257, 37193, 37178, 36449, 36937, 36832, 36242, 36382, 37344, 36784, 36469, 36808, 36395, 36315, 36496, 37456, 37330, 36955, 37321, 37096, 36692, 36631, 36834, 36516, 36509, 37125, 36545, 36664, 36475, 36437, 36569, 36352, 36388, 36280, 37043, 36832, 36539, 37449, 36546, 36863, 37095, 36929, 36552, 35896, 36589, 36954, 36635, 36414, 36550, 37306, 36641, 36559, 36375, 36543, 36283, 35779, 36607, 38328, 37701, 38310, 37927, 37289, 36534, 36558, 35944, 36776, 37281, 37087, 36710, 37012, 36540, 36447, 35905, 37265, 37103, 36961, 37404, 37100, 36450, 36737, 37178, 37050, 36723, 36553, 36583, 37023, 37475, 36963, 37773, 36535, 36726, 37148, 36393, 35614, 36206, 36603, 36987, 37425, 37231, 37968, 38398, 38346, 37738, 37419, 37475, 37601, 37777, 37543, 38317, 38375, 38263, 38190, 37897, 37560, 37804, 37576, 37412, 38103, 38192, 37697, 37438, 37856, 37396, 37907, 37480, 38205, 37624, 38006, 37877, 38019, 37686, 37857, 37784, 37980, 38107, 37967, 38228, 37567, 38709, 38054, 38114, 38104, 37629],
      "WindowCenter": [10269.0, 10249.0, 10211.0, 10207.0, 10187.0, 10180.0, 10175.0, 10172.0, 10178.0, 10188.0, 10189.0, 10172.0, 10154.0, 10129.0, 10135.0, 10159.0, 10186.0, 10172.0, 10141.0, 10121.0, 10132.0, 10148.0, 10170.0, 10165.0, 10163.0, 10171.0, 10187.0, 10199.0, 10197.0, 10176.0, 10169.0, 10163.0, 10177.0, 10189.0, 10179.0, 10161.0, 10166.0, 10156.0, 10188.0, 10181.0, 10161.0, 10167.0, 10162.0, 10147.0, 10125.0, 10093.0, 10080.0, 10072.0, 10074.0, 10061.0, 10041.0, 10046.0, 10060.0, 10088.0, 10121.0, 10138.0, 10126.0, 10126.0, 10161.0, 10182.0, 10164.0, 10142.0, 10141.0, 10149.0, 10157.0, 10162.0, 10173.0, 10174.0, 10163.0, 10150.0, 10128.0, 10131.0, 10142.0, 10132.0, 10145.0, 10150.0, 10149.0, 10151.0, 10151.0, 10149.0, 10136.0, 10143.0, 10139.0, 10140.0, 10167.0, 10157.0, 10146.0, 10121.0, 10113.0, 10117.0, 10146.0, 10161.0, 10156.0, 10150.0, 10133.0, 10129.0, 10139.0, 10112.0, 10102.0, 10095.0, 10099.0, 10111.0, 10121.0, 10124.0, 10136.0, 10151.0, 10192.0, 10143.0, 10128.0, 10087.0, 10066.0, 10039.0, 10033.0, 10044.0, 10061.0, 10081.0, 10113.0, 10122.0, 10135.0, 10096.0, 10109.0, 10133.0, 10148.0, 10158.0, 10144.0, 10115.0, 10090.0, 10068.0, 10090.0, 10118.0, 10132.0, 10116.0, 10120.0, 10128.0, 10134.0, 10171.0, 10159.0, 10151.0, 10142.0, 10135.0, 10130.0, 10121.0, 10110.0, 10113.0, 10117.0, 10122.0, 10147.0, 10164.0, 10164.0, 10144.0, 10132.0, 10128.0, 10127.0, 10139.0, 10161.0, 10174.0, 10153.0, 10148.0, 10150.0, 10160.0, 10162.0, 10174.0, 10171.0, 10174.0, 10166.0, 10151.0, 10153.0, 10138.0, 10123.0, 10104.0, 10109.0, 10111.0, 10140.0, 10153.0, 10161.0, 10148.0, 10145.0, 10144.0, 10168.0, 10195.0, 10195.0, 10178.0, 10162.0, 10162.0, 10157.0, 10170.0, 10154.0, 10152.0, 10164.0, 10175.0],
      "WindowWidth": [22151.0, 22067.0, 21967.0, 21943.0, 21886.0, 21864.0, 21850.0, 21840.0, 21858.0, 21878.0, 21881.0, 21845.0, 21805.0, 21751.0, 21765.0, 21816.0, 21876.0, 21843.0, 21773.0, 21726.0, 21750.0, 21786.0, 21839.0, 21831.0, 21829.0, 21845.0, 21879.0, 21908.0, 21900.0, 21856.0, 21837.0, 21826.0, 21857.0, 21886.0, 21861.0, 21821.0, 21831.0, 21816.0, 21880.0, 21866.0, 21824.0, 21830.0, 21828.0, 21788.0, 21741.0, 21662.0, 21630.0, 21621.0, 21620.0, 21591.0, 21551.0, 21562.0, 21592.0, 21657.0, 21735.0, 21770.0, 21747.0, 21744.0, 21818.0, 21866.0, 21830.0, 21777.0, 21766.0, 21785.0, 21812.0, 21818.0, 21843.0, 21849.0, 21829.0, 21796.0, 21748.0, 21752.0, 21771.0, 21752.0, 21779.0, 21795.0, 21793.0, 21797.0, 21796.0, 21789.0, 21766.0, 21774.0, 21768.0, 21774.0, 21827.0, 21810.0, 21782.0, 21723.0, 21705.0, 21716.0, 21785.0, 21816.0, 21807.0, 21793.0, 21755.0, 21741.0, 21762.0, 21708.0, 21683.0, 21668.0, 21673.0, 21701.0, 21728.0, 21730.0, 21742.0, 21785.0, 21890.0, 21774.0, 21735.0, 21644.0, 21592.0, 21535.0, 21515.0, 21536.0, 21576.0, 21621.0, 21695.0, 21727.0, 21758.0, 21673.0, 21693.0, 21746.0, 21781.0, 21799.0, 21767.0, 21703.0, 21648.0, 21598.0, 21649.0, 21717.0, 21753.0, 21716.0, 21721.0, 21741.0, 21751.0, 21827.0, 21811.0, 21794.0, 21772.0, 21762.0, 21758.0, 21732.0, 21704.0, 21706.0, 21713.0, 21727.0, 21779.0, 21815.0, 21817.0, 21779.0, 21756.0, 21745.0, 21742.0, 21765.0, 21817.0, 21842.0, 21796.0, 21784.0, 21791.0, 21817.0, 21822.0, 21846.0, 21844.0, 21851.0, 21829.0, 21791.0, 21796.0, 21766.0, 21733.0, 21691.0, 21701.0, 21708.0, 21769.0, 21799.0, 21818.0, 21792.0, 21785.0, 21783.0, 21835.0, 21896.0, 21897.0, 21855.0, 21823.0, 21823.0, 21815.0, 21840.0, 21807.0, 21801.0, 21826.0, 21855.0]
    },
    "slices": {}
  }
}