{
  "AcquisitionMatrixPE": 104,
  "AcquisitionNumber": 1,
  "AcquisitionTime": "15:42:57.992500",
  "BandwidthPerPixelPhaseEncode": 17.17,
  "BaseResolution": 104,
  "BodyPartExamined": "BRAIN",
  "CoilString": "HC1-7;NC1_2",
  "ConsistencyInfo": "N4_VE11C_LATEST_20160120",
  "ConversionSoftware": "dcm2niix",
  "ConversionSoftwareVersion": "v1.0.20190902",
  "DerivedVendorReportedEchoSpacing": 0.000560011,
  "DeviceSerialNumber": "167006",
  "DwellTime": 2.1e-06,
  "EchoTime": 0.037,
  "EchoTrainLength": 104,
  "EffectiveEchoSpacing": 0.000560011,
  "FlipAngle": 52,
  "ImageComments": "Unaliased_MB4_PE3_LB",
  "ImageOrientationPatientDICOM": [0.999026, -0.0400557, 0.0185041, 0.0439678, 0.938905, -0.341356],
  "ImageType": [
    "ORIGINAL",
    "PRIMARY",
    "P",
    "MB",
    "ND",
    "MOSAIC"
],
  "ImagingFrequency": 123.259,
  "InPlanePhaseEncodingDirectionDICOM": "COL",
  "InstitutionAddress": "Chemin_Queen-Mary_4565_Montreal_District_CA_H3W_1W5",
  "InstitutionName": "IUGM",
  "InstitutionalDepartmentName": "Department",
  "MRAcquisitionType": "2D",
  "MagneticFieldStrength": 3,
  "Manufacturer": "Siemens",
  "ManufacturersModelName": "Prisma_fit",
  "Modality": "MR",
  "MultibandAccelerationFactor": 4,
  "PartialFourier": 1,
  "PatientPosition": "HFS",
  "PercentPhaseFOV": 100,
  "PhaseEncodingDirection": "j",
  "PhaseEncodingSteps": 104,
  "PhaseResolution": 1,
  "PixelBandwidth": 2290,
  "ProcedureStepDescription": "memory_things",
  "ProtocolName": "func_task-things_run-5",
  "PulseSequenceDetails": "%CustomerSeq%_cmrr_mbep2d_bold",
  "ReceiveCoilActiveElements": "HC1-7;NC1,2",
  "ReceiveCoilName": "HeadNeck_64",
  "ReconMatrixPE": 104,
  "RepetitionTime": 1.49,
  "SAR": 0.0411304,
  "ScanOptions": "FS",
  "ScanningSequence": "EP",
  "SequenceName": "epfid2d1_104",
  "SequenceVariant": "SK_SS",
  "SeriesDescription": "func_task-things_run-5",
  "SeriesNumber": 23,
  "ShimSetting": [625, -7248, -8821, 561, 6, -190, -52, -19],
  "SliceThickness": 2,
  "SliceTiming": [0, 0.785, 0.0975, 0.8825, 0.1975, 0.98, 0.295, 1.0775, 0.3925, 1.1775, 0.49, 1.275, 0.5875, 1.3725, 0.6875, 0, 0.785, 0.0975, 0.8825, 0.1975, 0.98, 0.295, 1.0775, 0.3925, 1.1775, 0.49, 1.275, 0.5875, 1.3725, 0.6875, 0, 0.785, 0.0975, 0.8825, 0.1975, 0.98, 0.295, 1.0775, 0.3925, 1.1775, 0.49, 1.275, 0.5875, 1.3725, 0.6875, 0, 0.785, 0.0975, 0.8825, 0.1975, 0.98, 0.295, 1.0775, 0.3925, 1.1775, 0.49, 1.275, 0.5875, 1.3725, 0.6875],
  "SoftwareVersions": "syngo_MR_E11",
  "SpacingBetweenSlices": 2,
  "StationName": "MRC35049",
  "TaskName": "things",
  "TotalReadoutTime": 0.0576811,
  "TxRefAmp": 242.368,
  "WipMemBlock": "0a5b1585-859e-4ffa-8c24-5fce56fd9f42||Sequence: R016 ve11c/master r/e634e98; Dec 19 2017 11:00:25 by eja",
  "dcmmeta_affine": [
    [-1.9980522394180298, 0.08793563395738602, 0.007400795351713896, 102.94126892089844],
    [0.08011139929294586, 1.8778107166290283, -0.6836733222007751, -68.13802337646484],
    [0.037008270621299744, 0.6827110648155212, 1.8795042037963867, -67.21177673339844],
    [0.0, 0.0, 0.0, 1.0]
],
  "dcmmeta_reorient_transform": [
    [0.0, -1.0, 0.0, 103.0],
    [1.0, 0.0, 0.0, 0.0],
    [0.0, 0.0, 1.0, 0.0],
    [0.0, 0.0, 0.0, 1.0]
],
  "dcmmeta_shape": [104, 104, 60, 190],
  "dcmmeta_slice_dim": 2,
  "dcmmeta_version": 0.6,
  "global": {
    "const": {
      "AcquisitionMatrix": [104, 0, 0, 104],
      "AngioFlag": "N",
      "BitsAllocated": 16,
      "BitsStored": 16,
      "BodyPartExamined": "BRAIN",
      "Columns": 832,
      "EchoNumbers": 1,
      "EchoTime": 37.0,
      "EchoTrainLength": 104,
      "FlipAngle": 52.0,
      "HighBit": 15,
      "ImageOrientationPatient": [0.9990260947641, -0.0400556983049, 0.01850413504314, 0.04396781820737, 0.93890534212711, -0.3413555177337],
      "ImagePositionPatient": [-871.29820972403, -779.63902144264, 238.14326279786],
      "ImageType": [
        "ORIGINAL",
        "PRIMARY",
        "P",
        "MB",
        "ND",
        "MOSAIC"
],
      "ImagedNucleus": "1H",
      "ImagingFrequency": 123.258881,
      "InPlanePhaseEncodingDirection": "COL",
      "LargestImagePixelValue": 4095,
      "MRAcquisitionType": "2D",
      "MagneticFieldStrength": 3.0,
      "Manufacturer": "SIEMENS",
      "ManufacturerModelName": "Prisma_fit",
      "Modality": "MR",
      "NumberOfAverages": 1.0,
      "NumberOfPhaseEncodingSteps": 104,
      "PercentPhaseFieldOfView": 100.0,
      "PercentSampling": 100.0,
      "PerformedProcedureStepStartTime": "150056.657000",
      "PhotometricInterpretation": "MONOCHROME2",
      "PixelBandwidth": 2290.0,
      "PixelRepresentation": 0,
      "PixelSpacing": [2.0, 2.0],
      "ProtocolName": "func_task-things_run-5",
      "RepetitionTime": 1490.0,
      "RescaleIntercept": -4096.0,
      "RescaleSlope": 2.0,
      "RescaleType": "US",
      "Rows": 832,
      "SAR": 0.04113042020062,
      "SamplesPerPixel": 1,
      "ScanOptions": "FS",
      "ScanningSequence": "EP",
      "SequenceName": "epfid2d1_104",
      "SequenceVariant": [
        "SK",
        "SS"
],
      "SeriesDescription": "func_task-things_run-5",
      "SeriesNumber": 23,
      "SeriesTime": "154428.354000",
      "SliceLocation": -39.489415294022,
      "SliceThickness": 2.0,
      "SmallestImagePixelValue": 0,
      "SoftwareVersions": "syngo MR E11",
      "SpacingBetweenSlices": 2.0000000195537,
      "SpecificCharacterSet": "ISO_IR 100",
      "StudyID": "1",
      "StudyTime": "150056.560000",
      "TransmitCoilName": "Body",
      "VariableFlipAngleFlag": "N",
      "WindowCenterWidthExplanation": "Algo1",
      "dBdt": 0.0},
    "slices": {}
  },
  "time": {
    "samples": {
      "AcquisitionNumber": [1, 2, 3, 4, 5, 6, 7, 8, 9, 10, 11, 12, 13, 14, 15, 16, 17, 18, 19, 20, 21, 22, 23, 24, 25, 26, 27, 28, 29, 30, 31, 32, 33, 34, 35, 36, 37, 38, 39, 40, 41, 42, 43, 44, 45, 46, 47, 48, 49, 50, 51, 52, 53, 54, 55, 56, 57, 58, 59, 60, 61, 62, 63, 64, 65, 66, 67, 68, 69, 70, 71, 72, 73, 74, 75, 76, 77, 78, 79, 80, 81, 82, 83, 84, 85, 86, 87, 88, 89, 90, 91, 92, 93, 94, 95, 96, 97, 98, 99, 100, 101, 102, 103, 104, 105, 106, 107, 108, 109, 110, 111, 112, 113, 114, 115, 116, 117, 118, 119, 120, 121, 122, 123, 124, 125, 126, 127, 128, 129, 130, 131, 132, 133, 134, 135, 136, 137, 138, 139, 140, 141, 142, 143, 144, 145, 146, 147, 148, 149, 150, 151, 152, 153, 154, 155, 156, 157, 158, 159, 160, 161, 162, 163, 164, 165, 166, 167, 168, 169, 170, 171, 172, 173, 174, 175, 176, 177, 178, 179, 180, 181, 182, 183, 184, 185, 186, 187, 188, 189, 190],
      "AcquisitionTime": ["154257.992500", "154259.482500", "154300.972500", "154302.462500", "154303.952500", "154305.442500", "154306.932500", "154308.422500", "154309.912500", "154311.402500", "154312.892500", "154314.382500", "154315.872500", "154317.362500", "154318.852500", "154320.342500", "154321.832500", "154323.322500", "154324.812500", "154326.302500", "154327.792500", "154329.282500", "154330.772500", "154332.262500", "154333.752500", "154335.242500", "154336.732500", "154338.222500", "154339.712500", "154341.202500", "154342.692500", "154344.182500", "154345.672500", "154347.162500", "154348.652500", "154350.142500", "154351.632500", "154353.122500", "154354.612500", "154356.102500", "154357.592500", "154359.082500", "154400.572500", "154402.062500", "154403.552500", "154405.042500", "154406.532500", "154408.022500", "154409.512500", "154411.002500", "154412.492500", "154413.982500", "154415.472500", "154416.962500", "154418.452500", "154419.942500", "154421.432500", "154422.922500", "154424.412500", "154425.902500", "154427.392500", "154428.882500", "154430.372500", "154431.862500", "154433.352500", "154434.842500", "154436.332500", "154437.822500", "154439.312500", "154440.802500", "154442.292500", "154443.782500", "154445.272500", "154446.762500", "154448.252500", "154449.742500", "154451.232500", "154452.722500", "154454.212500", "154455.702500", "154457.192500", "154458.682500", "154500.172500", "154501.662500", "154503.152500", "154504.642500", "154506.132500", "154507.622500", "154509.112500", "154510.602500", "154512.092500", "154513.582500", "154515.072500", "154516.562500", "154518.052500", "154519.542500", "154521.032500", "154522.522500", "154524.012500", "154525.502500", "154526.992500", "154528.482500", "154529.972500", "154531.462500", "154532.952500", "154534.442500", "154535.932500", "154537.422500", "154538.912500", "154540.402500", "154541.892500", "154543.382500", "154544.872500", "154546.362500", "154547.852500", "154549.342500", "154550.832500", "154552.322500", "154553.812500", "154555.302500", "154556.792500", "154558.282500", "154559.772500", "154601.262500", "154602.752500", "154604.242500", "154605.732500", "154607.222500", "154608.712500", "154610.202500", "154611.692500", "154613.182500", "154614.672500", "154616.162500", "154617.652500", "154619.142500", "154620.632500", "154622.122500", "154623.612500", "154625.102500", "154626.592500", "154628.082500", "154629.572500", "154631.062500", "154632.552500", "154634.042500", "154635.532500", "154637.022500", "154638.512500", "154640.002500", "154641.492500", "154642.982500", "154644.472500", "154645.962500", "154647.452500", "154648.942500", "154650.432500", "154651.922500", "154653.412500", "154654.902500", "154656.392500", "154657.882500", "154659.372500", "154700.862500", "154702.352500", "154703.842500", "154705.332500", "154706.822500", "154708.312500", "154709.802500", "154711.292500", "154712.782500", "154714.272500", "154715.762500", "154717.252500", "154718.742500", "154720.232500", "154721.722500", "154723.212500", "154724.702500", "154726.192500", "154727.682500", "154729.172500", "154730.662500", "154732.152500", "154733.642500", "154735.132500", "154736.622500", "154738.112500", "154739.602500"],
      "ContentTime": ["154428.356000", "154428.359000", "154428.369000", "154428.371000", "154428.374000", "154428.376000", "154428.379000", "154428.381000", "154428.384000", "154428.386000", "154428.389000", "154428.391000", "154428.394000", "154428.396000", "154428.399000", "154428.401000", "154428.404000", "154428.406000", "154428.409000", "154428.411000", "154428.414000", "154428.416000", "154428.419000", "154428.421000", "154428.424000", "154428.426000", "154428.429000", "154428.431000", "154428.434000", "154428.436000", "154428.439000", "154428.441000", "154428.444000", "154428.446000", "154428.448000", "154428.451000", "154428.453000", "154428.456000", "154448.245000", "154448.248000", "154448.250000", "154448.253000", "154448.255000", "154448.258000", "154448.260000", "154448.263000", "154448.265000", "154448.268000", "154448.270000", "154448.273000", "154448.275000", "154448.278000", "154448.280000", "154448.283000", "154448.286000", "154448.289000", "154448.291000", "154448.294000", "154448.296000", "154508.233000", "154508.235000", "154508.238000", "154508.240000", "154508.243000", "154508.245000", "154508.248000", "154508.250000", "154508.253000", "154508.255000", "154508.258000", "154508.260000", "154508.263000", "154508.265000", "154508.268000", "154508.270000", "154508.273000", "154508.275000", "154508.278000", "154508.280000", "154528.226000", "154528.228000", "154528.231000", "154528.233000", "154528.236000", "154528.238000", "154528.241000", "154528.243000", "154528.246000", "154528.248000", "154528.251000", "154528.253000", "154528.256000", "154528.258000", "154528.261000", "154528.263000", "154528.265000", "154528.268000", "154528.270000", "154528.273000", "154608.263000", "154608.266000", "154608.268000", "154608.271000", "154608.273000", "154608.276000", "154608.278000", "154608.281000", "154608.283000", "154608.286000", "154608.288000", "154608.291000", "154608.293000", "154608.296000", "154608.298000", "154608.301000", "154608.303000", "154608.306000", "154608.309000", "154608.311000", "154608.314000", "154608.316000", "154608.319000", "154608.321000", "154608.324000", "154608.326000", "154608.329000", "154608.331000", "154648.293000", "154648.296000", "154648.299000", "154648.301000", "154648.304000", "154648.306000", "154648.309000", "154648.311000", "154648.314000", "154648.316000", "154648.319000", "154648.321000", "154648.324000", "154648.326000", "154648.329000", "154648.331000", "154648.334000", "154648.336000", "154648.339000", "154648.341000", "154648.344000", "154648.346000", "154648.349000", "154648.351000", "154648.354000", "154648.356000", "154648.359000", "154728.249000", "154728.252000", "154728.254000", "154728.257000", "154728.259000", "154728.262000", "154728.264000", "154728.267000", "154728.269000", "154728.272000", "154728.274000", "154728.277000", "154728.279000", "154728.282000", "154728.284000", "154728.287000", "154728.290000", "154728.292000", "154728.295000", "154728.297000", "154728.300000", "154728.302000", "154728.305000", "154728.307000", "154728.310000", "154728.312000", "154728.315000", "154741.411000", "154741.414000", "154741.417000", "154741.419000", "154741.422000", "154741.425000", "154741.427000", "154741.430000", "154741.432000"],
      "InstanceCreationTime": ["154428.356000", "154428.359000", "154428.369000", "154428.371000", "154428.374000", "154428.376000", "154428.379000", "154428.381000", "154428.384000", "154428.386000", "154428.389000", "154428.391000", "154428.394000", "154428.396000", "154428.399000", "154428.401000", "154428.404000", "154428.406000", "154428.409000", "154428.411000", "154428.414000", "154428.416000", "154428.419000", "154428.421000", "154428.424000", "154428.426000", "154428.429000", "154428.431000", "154428.434000", "154428.436000", "154428.439000", "154428.441000", "154428.444000", "154428.446000", "154428.448000", "154428.451000", "154428.453000", "154428.456000", "154448.245000", "154448.248000", "154448.250000", "154448.253000", "154448.255000", "154448.258000", "154448.260000", "154448.263000", "154448.265000", "154448.268000", "154448.270000", "154448.273000", "154448.275000", "154448.278000", "154448.280000", "154448.283000", "154448.286000", "154448.289000", "154448.291000", "154448.294000", "154448.296000", "154508.233000", "154508.235000", "154508.238000", "154508.240000", "154508.243000", "154508.245000", "154508.248000", "154508.250000", "154508.253000", "154508.255000", "154508.258000", "154508.260000", "154508.263000", "154508.265000", "154508.268000", "154508.270000", "154508.273000", "154508.275000", "154508.278000", "154508.280000", "154528.226000", "154528.228000", "154528.231000", "154528.233000", "154528.236000", "154528.238000", "154528.241000", "154528.243000", "154528.246000", "154528.248000", "154528.251000", "154528.253000", "154528.256000", "154528.258000", "154528.261000", "154528.263000", "154528.265000", "154528.268000", "154528.270000", "154528.273000", "154608.263000", "154608.266000", "154608.268000", "154608.271000", "154608.273000", "154608.276000", "154608.278000", "154608.281000", "154608.283000", "154608.286000", "154608.288000", "154608.291000", "154608.293000", "154608.296000", "154608.298000", "154608.301000", "154608.303000", "154608.306000", "154608.309000", "154608.311000", "154608.314000", "154608.316000", "154608.319000", "154608.321000", "154608.324000", "154608.326000", "154608.329000", "154608.331000", "154648.293000", "154648.296000", "154648.299000", "154648.301000", "154648.304000", "154648.306000", "154648.309000", "154648.311000", "154648.314000", "154648.316000", "154648.319000", "154648.321000", "154648.324000", "154648.326000", "154648.329000", "154648.331000", "154648.334000", "154648.336000", "154648.339000", "154648.341000", "154648.344000", "154648.346000", "154648.349000", "154648.351000", "154648.354000", "154648.356000", "154648.359000", "154728.249000", "154728.252000", "154728.254000", "154728.257000", "154728.259000", "154728.262000", "154728.264000", "154728.267000", "154728.269000", "154728.272000", "154728.274000", "154728.277000", "154728.279000", "154728.282000", "154728.284000", "154728.287000", "154728.290000", "154728.292000", "154728.295000", "154728.297000", "154728.300000", "154728.302000", "154728.305000", "154728.307000", "154728.310000", "154728.312000", "154728.315000", "154741.411000", "154741.414000", "154741.417000", "154741.419000", "154741.422000", "154741.425000", "154741.427000", "154741.430000", "154741.432000"],
      "InstanceNumber": [1, 2, 3, 4, 5, 6, 7, 8, 9, 10, 11, 12, 13, 14, 15, 16, 17, 18, 19, 20, 21, 22, 23, 24, 25, 26, 27, 28, 29, 30, 31, 32, 33, 34, 35, 36, 37, 38, 39, 40, 41, 42, 43, 44, 45, 46, 47, 48, 49, 50, 51, 52, 53, 54, 55, 56, 57, 58, 59, 60, 61, 62, 63, 64, 65, 66, 67, 68, 69, 70, 71, 72, 73, 74, 75, 76, 77, 78, 79, 80, 81, 82, 83, 84, 85, 86, 87, 88, 89, 90, 91, 92, 93, 94, 95, 96, 97, 98, 99, 100, 101, 102, 103, 104, 105, 106, 107, 108, 109, 110, 111, 112, 113, 114, 115, 116, 117, 118, 119, 120, 121, 122, 123, 124, 125, 126, 127, 128, 129, 130, 131, 132, 133, 134, 135, 136, 137, 138, 139, 140, 141, 142, 143, 144, 145, 146, 147, 148, 149, 150, 151, 152, 153, 154, 155, 156, 157, 158, 159, 160, 161, 162, 163, 164, 165, 166, 167, 168, 169, 170, 171, 172, 173, 174, 175, 176, 177, 178, 179, 180, 181, 182, 183, 184, 185, 186, 187, 188, 189, 190],
      "WindowCenter": [4826.0, 4850.0, 4828.0, 4828.0, 4878.0, 4830.0, 4826.0, 4824.0, 4832.0, 4906.0, 4906.0, 4828.0, 4822.0, 4798.0, 4852.0, 4900.0, 4906.0, 4828.0, 4800.0, 4820.0, 4828.0, 4832.0, 4850.0, 4852.0, 4856.0, 4906.0, 4874.0, 4878.0, 4822.0, 4822.0, 4828.0, 4822.0, 4826.0, 4852.0, 4852.0, 4854.0, 4856.0, 4876.0, 4880.0, 4828.0, 4830.0, 4822.0, 4824.0, 4830.0, 4826.0, 4826.0, 4882.0, 4854.0, 4852.0, 4854.0, 4830.0, 4878.0, 4852.0, 4830.0, 4854.0, 4824.0, 4852.0, 4828.0, 4856.0, 4878.0, 4854.0, 4852.0, 4830.0, 4828.0, 4856.0, 4830.0, 4852.0, 4852.0, 4828.0, 4854.0, 4830.0, 4850.0, 4826.0, 4830.0, 4852.0, 4824.0, 4878.0, 4826.0, 4878.0, 4854.0, 4854.0, 4828.0, 4856.0, 4826.0, 4852.0, 4852.0, 4854.0, 4854.0, 4854.0, 4824.0, 4852.0, 4854.0, 4830.0, 4854.0, 4856.0, 4852.0, 4850.0, 4824.0, 4826.0, 4828.0, 4878.0, 4880.0, 4830.0, 4822.0, 4826.0, 4876.0, 4860.0, 4902.0, 4874.0, 4850.0, 4850.0, 4850.0, 4856.0, 4856.0, 4848.0, 4884.0, 4878.0, 4904.0, 4904.0, 4878.0, 4830.0, 4822.0, 4820.0, 4824.0, 4828.0, 4852.0, 4874.0, 4902.0, 4858.0, 4828.0, 4824.0, 4824.0, 4826.0, 4852.0, 4880.0, 4856.0, 4828.0, 4828.0, 4878.0, 4906.0, 4854.0, 4828.0, 4852.0, 4828.0, 4826.0, 4826.0, 4826.0, 4878.0, 4882.0, 4852.0, 4854.0, 4852.0, 4826.0, 4824.0, 4856.0, 4828.0, 4848.0, 4852.0, 4824.0, 4876.0, 4854.0, 4824.0, 4850.0, 4826.0, 4852.0, 4856.0, 4826.0, 4850.0, 4828.0, 4850.0, 4852.0, 4828.0, 4850.0, 4854.0, 4850.0, 4876.0, 4824.0, 4824.0, 4828.0, 4826.0, 4850.0, 4826.0, 4856.0, 4848.0, 4826.0, 4856.0, 4828.0, 4828.0, 4824.0, 4822.0],
      "WindowWidth": [18584.0, 18618.0, 18586.0, 18584.0, 18660.0, 18584.0, 18584.0, 18578.0, 18586.0, 18706.0, 18712.0, 18582.0, 18576.0, 18544.0, 18632.0, 18718.0, 18704.0, 18578.0, 18546.0, 18578.0, 18584.0, 18586.0, 18618.0, 18628.0, 18632.0, 18712.0, 18690.0, 18662.0, 18574.0, 18580.0, 18584.0, 18578.0, 18584.0, 18624.0, 18622.0, 18622.0, 18628.0, 18668.0, 18670.0, 18586.0, 18584.0, 18578.0, 18578.0, 18584.0, 18582.0, 18588.0, 18662.0, 18624.0, 18632.0, 18622.0, 18586.0, 18662.0, 18620.0, 18586.0, 18620.0, 18582.0, 18622.0, 18584.0, 18626.0, 18668.0, 18612.0, 18620.0, 18584.0, 18588.0, 18630.0, 18584.0, 18620.0, 18618.0, 18586.0, 18618.0, 18592.0, 18618.0, 18582.0, 18592.0, 18622.0, 18580.0, 18656.0, 18588.0, 18660.0, 18616.0, 18624.0, 18580.0, 18624.0, 18588.0, 18628.0, 18626.0, 18624.0, 18628.0, 18624.0, 18584.0, 18626.0, 18618.0, 18588.0, 18622.0, 18630.0, 18624.0, 18632.0, 18584.0, 18584.0, 18584.0, 18668.0, 18662.0, 18586.0, 18580.0, 18586.0, 18662.0, 18674.0, 18722.0, 18662.0, 18618.0, 18624.0, 18618.0, 18622.0, 18624.0, 18622.0, 18678.0, 18668.0, 18712.0, 18708.0, 18664.0, 18592.0, 18580.0, 18584.0, 18586.0, 18588.0, 18630.0, 18684.0, 18716.0, 18630.0, 18580.0, 18584.0, 18578.0, 18584.0, 18622.0, 18674.0, 18624.0, 18592.0, 18590.0, 18668.0, 18712.0, 18616.0, 18586.0, 18620.0, 18592.0, 18582.0, 18588.0, 18586.0, 18666.0, 18666.0, 18630.0, 18624.0, 18624.0, 18584.0, 18584.0, 18628.0, 18590.0, 18618.0, 18620.0, 18582.0, 18670.0, 18634.0, 18582.0, 18620.0, 18584.0, 18626.0, 18626.0, 18588.0, 18622.0, 18590.0, 18620.0, 18620.0, 18590.0, 18618.0, 18622.0, 18630.0, 18668.0, 18590.0, 18596.0, 18592.0, 18592.0, 18626.0, 18596.0, 18628.0, 18624.0, 18592.0, 18638.0, 18588.0, 18594.0, 18588.0, 18588.0]
    },
    "slices": {}
  }
}