{
  "AcquisitionMatrixPE": 104,
  "AcquisitionNumber": 1,
  "AcquisitionTime": "15:23:50.035000",
  "BandwidthPerPixelPhaseEncode": 17.17,
  "BaseResolution": 104,
  "BodyPartExamined": "BRAIN",
  "CoilString": "HC1-7;NC1_2",
  "ConsistencyInfo": "N4_VE11C_LATEST_20160120",
  "ConversionSoftware": "dcm2niix",
  "ConversionSoftwareVersion": "v1.0.20190902",
  "DerivedVendorReportedEchoSpacing": 0.000560011,
  "DeviceSerialNumber": "167006",
  "DwellTime": 2.1e-06,
  "EchoTime": 0.037,
  "EchoTrainLength": 104,
  "EffectiveEchoSpacing": 0.000560011,
  "FlipAngle": 52,
  "ImageComments": "Unaliased_MB4_PE3_LB",
  "ImageOrientationPatientDICOM": [0.999026, -0.0400557, 0.0185041, 0.0439678, 0.938905, -0.341356],
  "ImageType": [
    "ORIGINAL",
    "PRIMARY",
    "M",
    "MB",
    "ND",
    "MOSAIC"
],
  "ImagingFrequency": 123.259,
  "InPlanePhaseEncodingDirectionDICOM": "COL",
  "InstitutionAddress": "Chemin_Queen-Mary_4565_Montreal_District_CA_H3W_1W5",
  "InstitutionName": "IUGM",
  "InstitutionalDepartmentName": "Department",
  "MRAcquisitionType": "2D",
  "MagneticFieldStrength": 3,
  "Manufacturer": "Siemens",
  "ManufacturersModelName": "Prisma_fit",
  "Modality": "MR",
  "MultibandAccelerationFactor": 4,
  "PartialFourier": 1,
  "PatientPosition": "HFS",
  "PercentPhaseFOV": 100,
  "PhaseEncodingDirection": "j",
  "PhaseEncodingSteps": 104,
  "PhaseResolution": 1,
  "PixelBandwidth": 2290,
  "ProcedureStepDescription": "memory_things",
  "ProtocolName": "func_task-things_run-2",
  "PulseSequenceDetails": "%CustomerSeq%_cmrr_mbep2d_bold",
  "ReceiveCoilActiveElements": "HC1-7;NC1,2",
  "ReceiveCoilName": "HeadNeck_64",
  "ReconMatrixPE": 104,
  "RepetitionTime": 1.49,
  "SAR": 0.0411304,
  "ScanOptions": "FS",
  "ScanningSequence": "EP",
  "SequenceName": "epfid2d1_104",
  "SequenceVariant": "SK_SS",
  "SeriesDescription": "func_task-things_run-2",
  "SeriesNumber": 13,
  "ShimSetting": [625, -7248, -8821, 561, 6, -190, -52, -19],
  "SliceThickness": 2,
  "SliceTiming": [0, 0.7825, 0.0975, 0.8825, 0.195, 0.98, 0.2925, 1.0775, 0.3925, 1.175, 0.49, 1.2725, 0.5875, 1.3725, 0.685, 0, 0.7825, 0.0975, 0.8825, 0.195, 0.98, 0.2925, 1.0775, 0.3925, 1.175, 0.49, 1.2725, 0.5875, 1.3725, 0.685, 0, 0.7825, 0.0975, 0.8825, 0.195, 0.98, 0.2925, 1.0775, 0.3925, 1.175, 0.49, 1.2725, 0.5875, 1.3725, 0.685, 0, 0.7825, 0.0975, 0.8825, 0.195, 0.98, 0.2925, 1.0775, 0.3925, 1.175, 0.49, 1.2725, 0.5875, 1.3725, 0.685],
  "SoftwareVersions": "syngo_MR_E11",
  "SpacingBetweenSlices": 2,
  "StationName": "MRC35049",
  "TaskName": "things",
  "TotalReadoutTime": 0.0576811,
  "TxRefAmp": 242.368,
  "WipMemBlock": "6305db3e-35d7-4ae4-904a-1f59fb2b4937||Sequence: R016 ve11c/master r/e634e98; Dec 19 2017 11:00:25 by eja",
  "dcmmeta_affine": [
    [-1.9980522394180298, 0.08793563395738602, 0.007400795351713896, 102.94126892089844],
    [0.08011139929294586, 1.8778107166290283, -0.6836733222007751, -68.13802337646484],
    [0.037008270621299744, 0.6827110648155212, 1.8795042037963867, -67.21177673339844],
    [0.0, 0.0, 0.0, 1.0]
],
  "dcmmeta_reorient_transform": [
    [0.0, -1.0, 0.0, 103.0],
    [1.0, 0.0, 0.0, 0.0],
    [0.0, 0.0, 1.0, 0.0],
    [0.0, 0.0, 0.0, 1.0]
],
  "dcmmeta_shape": [104, 104, 60, 190],
  "dcmmeta_slice_dim": 2,
  "dcmmeta_version": 0.6,
  "global": {
    "const": {
      "AcquisitionMatrix": [104, 0, 0, 104],
      "AngioFlag": "N",
      "BitsAllocated": 16,
      "BitsStored": 16,
      "BodyPartExamined": "BRAIN",
      "Columns": 832,
      "EchoNumbers": 1,
      "EchoTime": 37.0,
      "EchoTrainLength": 104,
      "FlipAngle": 52.0,
      "HighBit": 15,
      "ImageOrientationPatient": [0.9990260947641, -0.0400556983049, 0.01850413504314, 0.04396781820737, 0.93890534212711, -0.3413555177337],
      "ImagePositionPatient": [-871.29820972403, -779.63902144264, 238.14326279786],
      "ImageType": [
        "ORIGINAL",
        "PRIMARY",
        "M",
        "MB",
        "ND",
        "MOSAIC"
],
      "ImagedNucleus": "1H",
      "ImagingFrequency": 123.258874,
      "InPlanePhaseEncodingDirection": "COL",
      "MRAcquisitionType": "2D",
      "MagneticFieldStrength": 3.0,
      "Manufacturer": "SIEMENS",
      "ManufacturerModelName": "Prisma_fit",
      "Modality": "MR",
      "NumberOfAverages": 1.0,
      "NumberOfPhaseEncodingSteps": 104,
      "PercentPhaseFieldOfView": 100.0,
      "PercentSampling": 100.0,
      "PerformedProcedureStepStartTime": "150056.657000",
      "PhotometricInterpretation": "MONOCHROME2",
      "PixelBandwidth": 2290.0,
      "PixelRepresentation": 0,
      "PixelSpacing": [2.0, 2.0],
      "ProtocolName": "func_task-things_run-2",
      "RepetitionTime": 1490.0,
      "Rows": 832,
      "SAR": 0.04113042020062,
      "SamplesPerPixel": 1,
      "ScanOptions": "FS",
      "ScanningSequence": "EP",
      "SequenceName": "epfid2d1_104",
      "SequenceVariant": [
        "SK",
        "SS"
],
      "SeriesDescription": "func_task-things_run-2",
      "SeriesNumber": 13,
      "SeriesTime": "152448.154000",
      "SliceLocation": -39.489415294022,
      "SliceThickness": 2.0,
      "SmallestImagePixelValue": 0,
      "SoftwareVersions": "syngo MR E11",
      "SpacingBetweenSlices": 2.0000000195537,
      "SpecificCharacterSet": "ISO_IR 100",
      "StudyID": "1",
      "StudyTime": "150056.560000",
      "TransmitCoilName": "Body",
      "VariableFlipAngleFlag": "N",
      "WindowCenterWidthExplanation": "Algo1",
      "dBdt": 0.0},
    "slices": {}
  },
  "time": {
    "samples": {
      "AcquisitionNumber": [1, 2, 3, 4, 5, 6, 7, 8, 9, 10, 11, 12, 13, 14, 15, 16, 17, 18, 19, 20, 21, 22, 23, 24, 25, 26, 27, 28, 29, 30, 31, 32, 33, 34, 35, 36, 37, 38, 39, 40, 41, 42, 43, 44, 45, 46, 47, 48, 49, 50, 51, 52, 53, 54, 55, 56, 57, 58, 59, 60, 61, 62, 63, 64, 65, 66, 67, 68, 69, 70, 71, 72, 73, 74, 75, 76, 77, 78, 79, 80, 81, 82, 83, 84, 85, 86, 87, 88, 89, 90, 91, 92, 93, 94, 95, 96, 97, 98, 99, 100, 101, 102, 103, 104, 105, 106, 107, 108, 109, 110, 111, 112, 113, 114, 115, 116, 117, 118, 119, 120, 121, 122, 123, 124, 125, 126, 127, 128, 129, 130, 131, 132, 133, 134, 135, 136, 137, 138, 139, 140, 141, 142, 143, 144, 145, 146, 147, 148, 149, 150, 151, 152, 153, 154, 155, 156, 157, 158, 159, 160, 161, 162, 163, 164, 165, 166, 167, 168, 169, 170, 171, 172, 173, 174, 175, 176, 177, 178, 179, 180, 181, 182, 183, 184, 185, 186, 187, 188, 189, 190],
      "AcquisitionTime": ["152350.035000", "152351.525000", "152353.015000", "152354.505000", "152355.995000", "152357.485000", "152358.975000", "152400.465000", "152401.955000", "152403.445000", "152404.935000", "152406.425000", "152407.915000", "152409.405000", "152410.895000", "152412.385000", "152413.875000", "152415.365000", "152416.855000", "152418.345000", "152419.835000", "152421.325000", "152422.815000", "152424.305000", "152425.795000", "152427.285000", "152428.775000", "152430.265000", "152431.755000", "152433.245000", "152434.735000", "152436.225000", "152437.715000", "152439.205000", "152440.695000", "152442.185000", "152443.675000", "152445.165000", "152446.655000", "152448.145000", "152449.635000", "152451.125000", "152452.615000", "152454.105000", "152455.595000", "152457.085000", "152458.575000", "152500.065000", "152501.555000", "152503.045000", "152504.535000", "152506.025000", "152507.515000", "152509.005000", "152510.495000", "152511.985000", "152513.475000", "152514.965000", "152516.455000", "152517.945000", "152519.435000", "152520.925000", "152522.415000", "152523.905000", "152525.395000", "152526.885000", "152528.375000", "152529.865000", "152531.355000", "152532.845000", "152534.335000", "152535.825000", "152537.315000", "152538.805000", "152540.295000", "152541.785000", "152543.275000", "152544.765000", "152546.255000", "152547.745000", "152549.235000", "152550.725000", "152552.215000", "152553.705000", "152555.195000", "152556.685000", "152558.175000", "152559.665000", "152601.155000", "152602.645000", "152604.135000", "152605.625000", "152607.115000", "152608.605000", "152610.095000", "152611.585000", "152613.075000", "152614.565000", "152616.055000", "152617.545000", "152619.035000", "152620.525000", "152622.015000", "152623.505000", "152624.995000", "152626.485000", "152627.975000", "152629.465000", "152630.955000", "152632.445000", "152633.935000", "152635.425000", "152636.915000", "152638.405000", "152639.895000", "152641.385000", "152642.875000", "152644.365000", "152645.855000", "152647.345000", "152648.835000", "152650.325000", "152651.815000", "152653.305000", "152654.795000", "152656.285000", "152657.775000", "152659.265000", "152700.755000", "152702.245000", "152703.735000", "152705.225000", "152706.715000", "152708.205000", "152709.695000", "152711.185000", "152712.675000", "152714.165000", "152715.655000", "152717.145000", "152718.635000", "152720.125000", "152721.615000", "152723.105000", "152724.595000", "152726.085000", "152727.575000", "152729.065000", "152730.555000", "152732.045000", "152733.535000", "152735.025000", "152736.515000", "152738.005000", "152739.495000", "152740.985000", "152742.475000", "152743.965000", "152745.455000", "152746.945000", "152748.435000", "152749.925000", "152751.415000", "152752.905000", "152754.395000", "152755.885000", "152757.375000", "152758.865000", "152800.355000", "152801.845000", "152803.335000", "152804.825000", "152806.315000", "152807.805000", "152809.295000", "152810.785000", "152812.275000", "152813.765000", "152815.255000", "152816.745000", "152818.235000", "152819.725000", "152821.215000", "152822.705000", "152824.195000", "152825.685000", "152827.175000", "152828.665000", "152830.155000", "152831.645000"],
      "ContentTime": ["152448.157000", "152448.161000", "152448.164000", "152448.176000", "152508.120000", "152508.137000", "152508.140000", "152508.144000", "152508.147000", "152508.150000", "152508.153000", "152508.157000", "152508.161000", "152508.164000", "152508.167000", "152508.171000", "152508.174000", "152508.177000", "152508.181000", "152508.184000", "152508.187000", "152508.191000", "152508.194000", "152508.197000", "152508.200000", "152528.120000", "152528.124000", "152528.127000", "152528.130000", "152528.134000", "152528.137000", "152528.140000", "152528.143000", "152528.147000", "152528.150000", "152528.153000", "152528.157000", "152528.160000", "152528.163000", "152528.167000", "152528.170000", "152528.173000", "152528.177000", "152528.180000", "152528.183000", "152548.120000", "152548.124000", "152548.127000", "152548.130000", "152548.134000", "152548.137000", "152548.140000", "152548.143000", "152548.147000", "152548.150000", "152548.153000", "152548.157000", "152548.160000", "152548.163000", "152548.167000", "152548.170000", "152548.173000", "152548.177000", "152548.180000", "152548.183000", "152608.120000", "152608.124000", "152608.127000", "152608.130000", "152608.133000", "152608.137000", "152608.140000", "152608.143000", "152608.147000", "152608.150000", "152608.153000", "152608.157000", "152608.160000", "152608.163000", "152608.167000", "152608.170000", "152608.173000", "152608.183000", "152608.186000", "152608.190000", "152608.193000", "152648.119000", "152648.123000", "152648.126000", "152648.130000", "152648.133000", "152648.136000", "152648.140000", "152648.143000", "152648.146000", "152648.150000", "152648.153000", "152648.156000", "152648.160000", "152648.163000", "152648.166000", "152648.170000", "152648.173000", "152648.176000", "152648.179000", "152648.183000", "152648.186000", "152648.189000", "152648.193000", "152648.196000", "152648.199000", "152648.203000", "152648.206000", "152648.209000", "152648.213000", "152648.225000", "152648.229000", "152648.232000", "152728.120000", "152728.124000", "152728.127000", "152728.131000", "152728.134000", "152728.137000", "152728.140000", "152728.144000", "152728.147000", "152728.150000", "152728.154000", "152728.157000", "152728.160000", "152728.164000", "152728.167000", "152728.170000", "152728.174000", "152728.177000", "152728.180000", "152728.183000", "152728.187000", "152728.190000", "152728.193000", "152728.197000", "152728.200000", "152728.203000", "152728.207000", "152808.120000", "152808.124000", "152808.127000", "152808.131000", "152808.134000", "152808.137000", "152808.141000", "152808.144000", "152808.147000", "152808.151000", "152808.154000", "152808.157000", "152808.160000", "152808.164000", "152808.167000", "152808.170000", "152808.174000", "152808.177000", "152808.180000", "152808.184000", "152808.187000", "152808.190000", "152808.193000", "152808.197000", "152808.214000", "152808.218000", "152808.221000", "152833.983000", "152833.987000", "152833.990000", "152833.993000", "152833.997000", "152834.001000", "152834.004000", "152834.008000", "152834.011000", "152834.015000", "152834.018000", "152834.021000", "152834.025000", "152834.028000", "152834.031000", "152834.035000", "152834.038000", "152834.042000"],
      "InstanceCreationTime": ["152448.157000", "152448.161000", "152448.164000", "152448.176000", "152508.120000", "152508.137000", "152508.140000", "152508.144000", "152508.147000", "152508.150000", "152508.153000", "152508.157000", "152508.161000", "152508.164000", "152508.167000", "152508.171000", "152508.174000", "152508.177000", "152508.181000", "152508.184000", "152508.187000", "152508.191000", "152508.194000", "152508.197000", "152508.200000", "152528.120000", "152528.124000", "152528.127000", "152528.130000", "152528.134000", "152528.137000", "152528.140000", "152528.143000", "152528.147000", "152528.150000", "152528.153000", "152528.157000", "152528.160000", "152528.163000", "152528.167000", "152528.170000", "152528.173000", "152528.177000", "152528.180000", "152528.183000", "152548.120000", "152548.124000", "152548.127000", "152548.130000", "152548.134000", "152548.137000", "152548.140000", "152548.143000", "152548.147000", "152548.150000", "152548.153000", "152548.157000", "152548.160000", "152548.163000", "152548.167000", "152548.170000", "152548.173000", "152548.177000", "152548.180000", "152548.183000", "152608.120000", "152608.124000", "152608.127000", "152608.130000", "152608.133000", "152608.137000", "152608.140000", "152608.143000", "152608.147000", "152608.150000", "152608.153000", "152608.157000", "152608.160000", "152608.163000", "152608.167000", "152608.170000", "152608.173000", "152608.183000", "152608.186000", "152608.190000", "152608.193000", "152648.119000", "152648.123000", "152648.126000", "152648.130000", "152648.133000", "152648.136000", "152648.140000", "152648.143000", "152648.146000", "152648.150000", "152648.153000", "152648.156000", "152648.160000", "152648.163000", "152648.166000", "152648.170000", "152648.173000", "152648.176000", "152648.179000", "152648.183000", "152648.186000", "152648.189000", "152648.193000", "152648.196000", "152648.199000", "152648.203000", "152648.206000", "152648.209000", "152648.213000", "152648.225000", "152648.229000", "152648.232000", "152728.120000", "152728.124000", "152728.127000", "152728.131000", "152728.134000", "152728.137000", "152728.140000", "152728.144000", "152728.147000", "152728.150000", "152728.154000", "152728.157000", "152728.160000", "152728.164000", "152728.167000", "152728.170000", "152728.174000", "152728.177000", "152728.180000", "152728.183000", "152728.187000", "152728.190000", "152728.193000", "152728.197000", "152728.200000", "152728.203000", "152728.207000", "152808.120000", "152808.124000", "152808.127000", "152808.131000", "152808.134000", "152808.137000", "152808.141000", "152808.144000", "152808.147000", "152808.151000", "152808.154000", "152808.157000", "152808.160000", "152808.164000", "152808.167000", "152808.170000", "152808.174000", "152808.177000", "152808.180000", "152808.184000", "152808.187000", "152808.190000", "152808.193000", "152808.197000", "152808.214000", "152808.218000", "152808.221000", "152833.983000", "152833.987000", "152833.990000", "152833.993000", "152833.997000", "152834.001000", "152834.004000", "152834.008000", "152834.011000", "152834.015000", "152834.018000", "152834.021000", "152834.025000", "152834.028000", "152834.031000", "152834.035000", "152834.038000", "152834.042000"],
      "InstanceNumber": [1, 2, 3, 4, 5, 6, 7, 8, 9, 10, 11, 12, 13, 14, 15, 16, 17, 18, 19, 20, 21, 22, 23, 24, 25, 26, 27, 28, 29, 30, 31, 32, 33, 34, 35, 36, 37, 38, 39, 40, 41, 42, 43, 44, 45, 46, 47, 48, 49, 50, 51, 52, 53, 54, 55, 56, 57, 58, 59, 60, 61, 62, 63, 64, 65, 66, 67, 68, 69, 70, 71, 72, 73, 74, 75, 76, 77, 78, 79, 80, 81, 82, 83, 84, 85, 86, 87, 88, 89, 90, 91, 92, 93, 94, 95, 96, 97, 98, 99, 100, 101, 102, 103, 104, 105, 106, 107, 108, 109, 110, 111, 112, 113, 114, 115, 116, 117, 118, 119, 120, 121, 122, 123, 124, 125, 126, 127, 128, 129, 130, 131, 132, 133, 134, 135, 136, 137, 138, 139, 140, 141, 142, 143, 144, 145, 146, 147, 148, 149, 150, 151, 152, 153, 154, 155, 156, 157, 158, 159, 160, 161, 162, 163, 164, 165, 166, 167, 168, 169, 170, 171, 172, 173, 174, 175, 176, 177, 178, 179, 180, 181, 182, 183, 184, 185, 186, 187, 188, 189, 190],
      "LargestImagePixelValue": [44792, 43526, 42866, 42382, 41607, 41602, 40102, 41221, 41962, 41376, 42143, 41742, 41722, 42085, 41568, 41670, 41709, 41972, 41682, 41982, 42435, 41188, 41517, 41652, 41274, 40731, 40935, 41460, 41266, 41071, 41708, 40948, 41577, 42056, 41434, 40655, 41053, 41366, 41650, 41107, 41558, 40847, 41023, 40989, 41035, 41670, 41282, 41099, 42001, 40994, 41274, 41240, 41660, 41123, 41259, 41291, 41054, 41393, 41402, 40982, 41198, 41465, 41552, 40883, 41702, 41144, 41676, 41898, 41397, 41276, 40810, 40850, 41594, 42092, 41123, 41128, 41220, 41587, 41607, 40983, 41345, 41342, 41569, 41792, 41221, 40722, 41476, 41244, 41014, 40974, 40863, 39472, 41189, 41273, 40923, 41057, 40446, 40087, 40993, 41154, 41242, 40976, 41332, 40618, 41629, 40224, 39154, 40343, 40861, 40915, 40473, 40238, 40183, 39934, 40113, 40712, 40584, 39710, 40195, 40474, 40368, 40990, 40622, 40821, 40242, 40376, 40337, 40503, 40450, 40648, 40829, 40653, 41199, 41304, 39975, 40829, 40957, 40247, 40985, 40797, 40056, 41246, 40987, 40676, 40519, 40781, 40812, 41072, 40449, 40880, 40440, 40594, 39881, 41279, 40551, 39839, 41119, 41109, 40927, 40905, 40085, 40779, 41026, 40492, 40471, 40699, 40264, 40381, 40540, 40362, 40477, 40242, 40461, 41241, 40356, 40727, 40680, 40423, 40138, 39965, 40737, 40535, 40337, 40281, 40203, 40493, 40718, 40763, 41132, 40145],
      "WindowCenter": [10416.0, 10363.0, 10342.0, 10324.0, 10315.0, 10327.0, 10317.0, 10325.0, 10339.0, 10307.0, 10305.0, 10293.0, 10299.0, 10314.0, 10323.0, 10334.0, 10334.0, 10332.0, 10314.0, 10302.0, 10297.0, 10277.0, 10282.0, 10269.0, 10261.0, 10256.0, 10265.0, 10260.0, 10250.0, 10258.0, 10281.0, 10272.0, 10277.0, 10274.0, 10275.0, 10278.0, 10271.0, 10267.0, 10263.0, 10261.0, 10259.0, 10238.0, 10237.0, 10226.0, 10225.0, 10264.0, 10282.0, 10286.0, 10280.0, 10259.0, 10273.0, 10275.0, 10281.0, 10275.0, 10268.0, 10274.0, 10270.0, 10280.0, 10275.0, 10276.0, 10283.0, 10274.0, 10277.0, 10276.0, 10282.0, 10261.0, 10259.0, 10262.0, 10265.0, 10268.0, 10273.0, 10276.0, 10268.0, 10276.0, 10294.0, 10314.0, 10293.0, 10275.0, 10263.0, 10264.0, 10288.0, 10275.0, 10258.0, 10262.0, 10264.0, 10259.0, 10270.0, 10266.0, 10266.0, 10267.0, 10281.0, 10268.0, 10278.0, 10281.0, 10261.0, 10259.0, 10264.0, 10273.0, 10283.0, 10281.0, 10299.0, 10302.0, 10299.0, 10279.0, 10279.0, 10297.0, 10283.0, 10288.0, 10285.0, 10270.0, 10235.0, 10202.0, 10190.0, 10205.0, 10222.0, 10239.0, 10256.0, 10266.0, 10257.0, 10255.0, 10267.0, 10297.0, 10304.0, 10303.0, 10289.0, 10275.0, 10271.0, 10273.0, 10266.0, 10266.0, 10270.0, 10263.0, 10276.0, 10289.0, 10283.0, 10287.0, 10278.0, 10273.0, 10286.0, 10286.0, 10276.0, 10278.0, 10269.0, 10263.0, 10254.0, 10258.0, 10274.0, 10283.0, 10272.0, 10269.0, 10257.0, 10261.0, 10257.0, 10272.0, 10267.0, 10280.0, 10298.0, 10285.0, 10285.0, 10276.0, 10251.0, 10260.0, 10252.0, 10244.0, 10253.0, 10259.0, 10263.0, 10263.0, 10267.0, 10262.0, 10263.0, 10262.0, 10257.0, 10287.0, 10279.0, 10278.0, 10279.0, 10272.0, 10266.0, 10268.0, 10265.0, 10268.0, 10264.0, 10256.0, 10246.0, 10239.0, 10253.0, 10270.0, 10268.0, 10250.0],
      "WindowWidth": [22535.0, 22369.0, 22297.0, 22243.0, 22214.0, 22239.0, 22221.0, 22229.0, 22261.0, 22194.0, 22181.0, 22157.0, 22169.0, 22203.0, 22224.0, 22248.0, 22249.0, 22244.0, 22208.0, 22177.0, 22163.0, 22120.0, 22130.0, 22104.0, 22088.0, 22077.0, 22099.0, 22081.0, 22061.0, 22078.0, 22131.0, 22116.0, 22125.0, 22117.0, 22125.0, 22130.0, 22113.0, 22101.0, 22088.0, 22087.0, 22081.0, 22037.0, 22034.0, 22015.0, 22010.0, 22092.0, 22136.0, 22147.0, 22126.0, 22082.0, 22115.0, 22121.0, 22135.0, 22121.0, 22103.0, 22115.0, 22108.0, 22129.0, 22120.0, 22123.0, 22136.0, 22117.0, 22121.0, 22124.0, 22133.0, 22091.0, 22085.0, 22087.0, 22097.0, 22105.0, 22114.0, 22124.0, 22106.0, 22120.0, 22164.0, 22209.0, 22162.0, 22119.0, 22091.0, 22096.0, 22146.0, 22120.0, 22081.0, 22086.0, 22095.0, 22085.0, 22108.0, 22100.0, 22102.0, 22101.0, 22133.0, 22112.0, 22122.0, 22131.0, 22091.0, 22084.0, 22100.0, 22121.0, 22138.0, 22131.0, 22174.0, 22182.0, 22173.0, 22133.0, 22131.0, 22177.0, 22150.0, 22152.0, 22141.0, 22109.0, 22032.0, 21958.0, 21928.0, 21964.0, 22003.0, 22045.0, 22084.0, 22109.0, 22086.0, 22078.0, 22102.0, 22167.0, 22184.0, 22181.0, 22152.0, 22120.0, 22110.0, 22116.0, 22103.0, 22104.0, 22110.0, 22094.0, 22121.0, 22149.0, 22143.0, 22147.0, 22123.0, 22116.0, 22143.0, 22145.0, 22125.0, 22127.0, 22104.0, 22093.0, 22075.0, 22080.0, 22113.0, 22137.0, 22116.0, 22106.0, 22083.0, 22086.0, 22082.0, 22111.0, 22100.0, 22134.0, 22171.0, 22143.0, 22142.0, 22122.0, 22070.0, 22084.0, 22069.0, 22049.0, 22069.0, 22084.0, 22095.0, 22094.0, 22102.0, 22093.0, 22094.0, 22093.0, 22082.0, 22144.0, 22132.0, 22127.0, 22131.0, 22115.0, 22104.0, 22110.0, 22101.0, 22105.0, 22099.0, 22079.0, 22057.0, 22039.0, 22071.0, 22110.0, 22103.0, 22067.0]
    },
    "slices": {}
  }
}