{
  "AcquisitionMatrixPE": 104,
  "AcquisitionNumber": 1,
  "AcquisitionTime": "15:30:1.782500",
  "BandwidthPerPixelPhaseEncode": 17.17,
  "BaseResolution": 104,
  "BodyPartExamined": "BRAIN",
  "CoilString": "HC1-7;NC1_2",
  "ConsistencyInfo": "N4_VE11C_LATEST_20160120",
  "ConversionSoftware": "dcm2niix",
  "ConversionSoftwareVersion": "v1.0.20190902",
  "DerivedVendorReportedEchoSpacing": 0.000560011,
  "DeviceSerialNumber": "167006",
  "DwellTime": 2.1e-06,
  "EchoTime": 0.037,
  "EchoTrainLength": 104,
  "EffectiveEchoSpacing": 0.000560011,
  "FlipAngle": 52,
  "ImageComments": "Unaliased_MB4_PE3_LB",
  "ImageOrientationPatientDICOM": [0.999026, -0.0400557, 0.0185041, 0.0439678, 0.938905, -0.341356],
  "ImageType": [
    "ORIGINAL",
    "PRIMARY",
    "P",
    "MB",
    "ND",
    "MOSAIC"
],
  "ImagingFrequency": 123.259,
  "InPlanePhaseEncodingDirectionDICOM": "COL",
  "InstitutionAddress": "Chemin_Queen-Mary_4565_Montreal_District_CA_H3W_1W5",
  "InstitutionName": "IUGM",
  "InstitutionalDepartmentName": "Department",
  "MRAcquisitionType": "2D",
  "MagneticFieldStrength": 3,
  "Manufacturer": "Siemens",
  "ManufacturersModelName": "Prisma_fit",
  "Modality": "MR",
  "MultibandAccelerationFactor": 4,
  "PartialFourier": 1,
  "PatientPosition": "HFS",
  "PercentPhaseFOV": 100,
  "PhaseEncodingDirection": "j",
  "PhaseEncodingSteps": 104,
  "PhaseResolution": 1,
  "PixelBandwidth": 2290,
  "ProcedureStepDescription": "memory_things",
  "ProtocolName": "func_task-things_run-3",
  "PulseSequenceDetails": "%CustomerSeq%_cmrr_mbep2d_bold",
  "ReceiveCoilActiveElements": "HC1-7;NC1,2",
  "ReceiveCoilName": "HeadNeck_64",
  "ReconMatrixPE": 104,
  "RepetitionTime": 1.49,
  "SAR": 0.0411304,
  "ScanOptions": "FS",
  "ScanningSequence": "EP",
  "SequenceName": "epfid2d1_104",
  "SequenceVariant": "SK_SS",
  "SeriesDescription": "func_task-things_run-3",
  "SeriesNumber": 17,
  "ShimSetting": [625, -7248, -8821, 561, 6, -190, -52, -19],
  "SliceThickness": 2,
  "SliceTiming": [0, 0.785, 0.0975, 0.8825, 0.1975, 0.98, 0.295, 1.0775, 0.3925, 1.1775, 0.49, 1.275, 0.5875, 1.3725, 0.6875, 0, 0.785, 0.0975, 0.8825, 0.1975, 0.98, 0.295, 1.0775, 0.3925, 1.1775, 0.49, 1.275, 0.5875, 1.3725, 0.6875, 0, 0.785, 0.0975, 0.8825, 0.1975, 0.98, 0.295, 1.0775, 0.3925, 1.1775, 0.49, 1.275, 0.5875, 1.3725, 0.6875, 0, 0.785, 0.0975, 0.8825, 0.1975, 0.98, 0.295, 1.0775, 0.3925, 1.1775, 0.49, 1.275, 0.5875, 1.3725, 0.6875],
  "SoftwareVersions": "syngo_MR_E11",
  "SpacingBetweenSlices": 2,
  "StationName": "MRC35049",
  "TaskName": "things",
  "TotalReadoutTime": 0.0576811,
  "TxRefAmp": 242.368,
  "WipMemBlock": "22dfb45e-4e2a-4a02-80ae-a921825a1031||Sequence: R016 ve11c/master r/e634e98; Dec 19 2017 11:00:25 by eja",
  "dcmmeta_affine": [
    [-1.9980522394180298, 0.08793563395738602, 0.007400795351713896, 102.94126892089844],
    [0.08011139929294586, 1.8778107166290283, -0.6836733222007751, -68.13802337646484],
    [0.037008270621299744, 0.6827110648155212, 1.8795042037963867, -67.21177673339844],
    [0.0, 0.0, 0.0, 1.0]
],
  "dcmmeta_reorient_transform": [
    [0.0, -1.0, 0.0, 103.0],
    [1.0, 0.0, 0.0, 0.0],
    [0.0, 0.0, 1.0, 0.0],
    [0.0, 0.0, 0.0, 1.0]
],
  "dcmmeta_shape": [104, 104, 60, 190],
  "dcmmeta_slice_dim": 2,
  "dcmmeta_version": 0.6,
  "global": {
    "const": {
      "AcquisitionMatrix": [104, 0, 0, 104],
      "AngioFlag": "N",
      "BitsAllocated": 16,
      "BitsStored": 16,
      "BodyPartExamined": "BRAIN",
      "Columns": 832,
      "EchoNumbers": 1,
      "EchoTime": 37.0,
      "EchoTrainLength": 104,
      "FlipAngle": 52.0,
      "HighBit": 15,
      "ImageOrientationPatient": [0.9990260947641, -0.0400556983049, 0.01850413504314, 0.04396781820737, 0.93890534212711, -0.3413555177337],
      "ImagePositionPatient": [-871.29820972403, -779.63902144264, 238.14326279786],
      "ImageType": [
        "ORIGINAL",
        "PRIMARY",
        "P",
        "MB",
        "ND",
        "MOSAIC"
],
      "ImagedNucleus": "1H",
      "ImagingFrequency": 123.258877,
      "InPlanePhaseEncodingDirection": "COL",
      "LargestImagePixelValue": 4095,
      "MRAcquisitionType": "2D",
      "MagneticFieldStrength": 3.0,
      "Manufacturer": "SIEMENS",
      "ManufacturerModelName": "Prisma_fit",
      "Modality": "MR",
      "NumberOfAverages": 1.0,
      "NumberOfPhaseEncodingSteps": 104,
      "PercentPhaseFieldOfView": 100.0,
      "PercentSampling": 100.0,
      "PerformedProcedureStepStartTime": "150056.657000",
      "PhotometricInterpretation": "MONOCHROME2",
      "PixelBandwidth": 2290.0,
      "PixelRepresentation": 0,
      "PixelSpacing": [2.0, 2.0],
      "ProtocolName": "func_task-things_run-3",
      "RepetitionTime": 1490.0,
      "RescaleIntercept": -4096.0,
      "RescaleSlope": 2.0,
      "RescaleType": "US",
      "Rows": 832,
      "SAR": 0.04113042020062,
      "SamplesPerPixel": 1,
      "ScanOptions": "FS",
      "ScanningSequence": "EP",
      "SequenceName": "epfid2d1_104",
      "SequenceVariant": [
        "SK",
        "SS"
],
      "SeriesDescription": "func_task-things_run-3",
      "SeriesNumber": 17,
      "SeriesTime": "153133.420000",
      "SliceLocation": -39.489415294022,
      "SliceThickness": 2.0,
      "SmallestImagePixelValue": 0,
      "SoftwareVersions": "syngo MR E11",
      "SpacingBetweenSlices": 2.0000000195537,
      "SpecificCharacterSet": "ISO_IR 100",
      "StudyID": "1",
      "StudyTime": "150056.560000",
      "TransmitCoilName": "Body",
      "VariableFlipAngleFlag": "N",
      "WindowCenterWidthExplanation": "Algo1",
      "dBdt": 0.0},
    "slices": {}
  },
  "time": {
    "samples": {
      "AcquisitionNumber": [1, 2, 3, 4, 5, 6, 7, 8, 9, 10, 11, 12, 13, 14, 15, 16, 17, 18, 19, 20, 21, 22, 23, 24, 25, 26, 27, 28, 29, 30, 31, 32, 33, 34, 35, 36, 37, 38, 39, 40, 41, 42, 43, 44, 45, 46, 47, 48, 49, 50, 51, 52, 53, 54, 55, 56, 57, 58, 59, 60, 61, 62, 63, 64, 65, 66, 67, 68, 69, 70, 71, 72, 73, 74, 75, 76, 77, 78, 79, 80, 81, 82, 83, 84, 85, 86, 87, 88, 89, 90, 91, 92, 93, 94, 95, 96, 97, 98, 99, 100, 101, 102, 103, 104, 105, 106, 107, 108, 109, 110, 111, 112, 113, 114, 115, 116, 117, 118, 119, 120, 121, 122, 123, 124, 125, 126, 127, 128, 129, 130, 131, 132, 133, 134, 135, 136, 137, 138, 139, 140, 141, 142, 143, 144, 145, 146, 147, 148, 149, 150, 151, 152, 153, 154, 155, 156, 157, 158, 159, 160, 161, 162, 163, 164, 165, 166, 167, 168, 169, 170, 171, 172, 173, 174, 175, 176, 177, 178, 179, 180, 181, 182, 183, 184, 185, 186, 187, 188, 189, 190],
      "AcquisitionTime": ["153001.782500", "153003.272500", "153004.762500", "153006.252500", "153007.742500", "153009.232500", "153010.722500", "153012.212500", "153013.702500", "153015.192500", "153016.682500", "153018.172500", "153019.662500", "153021.152500", "153022.642500", "153024.132500", "153025.622500", "153027.112500", "153028.602500", "153030.092500", "153031.582500", "153033.072500", "153034.562500", "153036.052500", "153037.542500", "153039.032500", "153040.522500", "153042.012500", "153043.502500", "153044.992500", "153046.482500", "153047.972500", "153049.462500", "153050.952500", "153052.442500", "153053.932500", "153055.422500", "153056.912500", "153058.402500", "153059.892500", "153101.382500", "153102.872500", "153104.362500", "153105.852500", "153107.342500", "153108.832500", "153110.322500", "153111.812500", "153113.302500", "153114.792500", "153116.282500", "153117.772500", "153119.262500", "153120.752500", "153122.242500", "153123.732500", "153125.222500", "153126.712500", "153128.202500", "153129.692500", "153131.182500", "153132.672500", "153134.162500", "153135.652500", "153137.142500", "153138.632500", "153140.122500", "153141.612500", "153143.102500", "153144.592500", "153146.082500", "153147.572500", "153149.062500", "153150.552500", "153152.042500", "153153.532500", "153155.022500", "153156.512500", "153158.002500", "153159.492500", "153200.982500", "153202.472500", "153203.962500", "153205.452500", "153206.942500", "153208.432500", "153209.922500", "153211.412500", "153212.902500", "153214.392500", "153215.882500", "153217.372500", "153218.862500", "153220.352500", "153221.842500", "153223.332500", "153224.822500", "153226.312500", "153227.802500", "153229.292500", "153230.782500", "153232.272500", "153233.762500", "153235.252500", "153236.742500", "153238.232500", "153239.722500", "153241.212500", "153242.702500", "153244.192500", "153245.682500", "153247.172500", "153248.662500", "153250.152500", "153251.642500", "153253.132500", "153254.622500", "153256.112500", "153257.602500", "153259.092500", "153300.582500", "153302.072500", "153303.562500", "153305.052500", "153306.542500", "153308.032500", "153309.522500", "153311.012500", "153312.502500", "153313.992500", "153315.482500", "153316.972500", "153318.462500", "153319.952500", "153321.442500", "153322.932500", "153324.422500", "153325.912500", "153327.402500", "153328.892500", "153330.382500", "153331.872500", "153333.362500", "153334.852500", "153336.342500", "153337.832500", "153339.322500", "153340.812500", "153342.302500", "153343.792500", "153345.282500", "153346.772500", "153348.262500", "153349.752500", "153351.242500", "153352.732500", "153354.222500", "153355.712500", "153357.202500", "153358.692500", "153400.182500", "153401.672500", "153403.162500", "153404.652500", "153406.142500", "153407.632500", "153409.122500", "153410.612500", "153412.102500", "153413.592500", "153415.082500", "153416.572500", "153418.062500", "153419.552500", "153421.042500", "153422.532500", "153424.022500", "153425.512500", "153427.002500", "153428.492500", "153429.982500", "153431.472500", "153432.962500", "153434.452500", "153435.942500", "153437.432500", "153438.922500", "153440.412500", "153441.902500", "153443.392500"],
      "ContentTime": ["153133.422000", "153133.425000", "153133.428000", "153133.430000", "153133.433000", "153133.435000", "153133.438000", "153133.440000", "153133.443000", "153133.446000", "153133.448000", "153133.451000", "153133.453000", "153133.456000", "153133.458000", "153133.461000", "153133.463000", "153133.465000", "153133.468000", "153133.470000", "153133.473000", "153133.475000", "153133.478000", "153133.480000", "153133.483000", "153133.485000", "153133.488000", "153133.490000", "153133.494000", "153133.496000", "153133.499000", "153133.501000", "153133.504000", "153133.506000", "153133.509000", "153133.511000", "153133.514000", "153133.516000", "153153.305000", "153153.308000", "153153.310000", "153153.313000", "153153.315000", "153153.318000", "153153.320000", "153153.323000", "153153.325000", "153153.328000", "153153.330000", "153153.333000", "153153.335000", "153153.338000", "153153.340000", "153153.343000", "153153.346000", "153153.348000", "153153.351000", "153153.353000", "153213.298000", "153213.301000", "153213.303000", "153213.306000", "153213.308000", "153213.311000", "153213.313000", "153213.316000", "153213.319000", "153213.321000", "153213.323000", "153213.326000", "153213.328000", "153213.331000", "153213.333000", "153213.336000", "153213.338000", "153213.341000", "153213.343000", "153213.346000", "153213.348000", "153233.303000", "153233.306000", "153233.308000", "153233.311000", "153233.313000", "153233.316000", "153233.318000", "153233.321000", "153233.323000", "153233.326000", "153233.328000", "153233.331000", "153233.333000", "153233.336000", "153233.338000", "153233.341000", "153233.343000", "153233.346000", "153233.348000", "153233.351000", "153313.351000", "153313.354000", "153313.356000", "153313.359000", "153313.361000", "153313.364000", "153313.366000", "153313.369000", "153313.371000", "153313.374000", "153313.376000", "153313.379000", "153313.381000", "153313.383000", "153313.386000", "153313.388000", "153313.391000", "153313.393000", "153313.396000", "153313.398000", "153313.401000", "153313.403000", "153313.406000", "153313.408000", "153313.411000", "153313.413000", "153313.416000", "153313.419000", "153313.421000", "153353.330000", "153353.333000", "153353.336000", "153353.338000", "153353.341000", "153353.343000", "153353.346000", "153353.348000", "153353.351000", "153353.353000", "153353.356000", "153353.358000", "153353.361000", "153353.364000", "153353.366000", "153353.369000", "153353.371000", "153353.374000", "153353.376000", "153353.379000", "153353.381000", "153353.384000", "153353.386000", "153353.389000", "153353.391000", "153353.394000", "153353.396000", "153433.709000", "153433.711000", "153433.714000", "153433.716000", "153433.719000", "153433.722000", "153433.724000", "153433.727000", "153433.729000", "153433.732000", "153433.734000", "153433.737000", "153433.739000", "153433.742000", "153433.744000", "153433.747000", "153433.749000", "153433.752000", "153433.754000", "153433.757000", "153433.759000", "153433.762000", "153433.764000", "153433.767000", "153433.770000", "153433.772000", "153445.402000", "153445.404000", "153445.407000", "153445.410000", "153445.412000", "153445.415000", "153445.417000", "153445.420000", "153445.422000"],
      "InstanceCreationTime": ["153133.422000", "153133.425000", "153133.428000", "153133.430000", "153133.433000", "153133.435000", "153133.438000", "153133.440000", "153133.443000", "153133.446000", "153133.448000", "153133.451000", "153133.453000", "153133.456000", "153133.458000", "153133.461000", "153133.463000", "153133.465000", "153133.468000", "153133.470000", "153133.473000", "153133.475000", "153133.478000", "153133.480000", "153133.483000", "153133.485000", "153133.488000", "153133.490000", "153133.494000", "153133.496000", "153133.499000", "153133.501000", "153133.504000", "153133.506000", "153133.509000", "153133.511000", "153133.514000", "153133.516000", "153153.305000", "153153.308000", "153153.310000", "153153.313000", "153153.315000", "153153.318000", "153153.320000", "153153.323000", "153153.325000", "153153.328000", "153153.330000", "153153.333000", "153153.335000", "153153.338000", "153153.340000", "153153.343000", "153153.346000", "153153.348000", "153153.351000", "153153.353000", "153213.298000", "153213.301000", "153213.303000", "153213.306000", "153213.308000", "153213.311000", "153213.313000", "153213.316000", "153213.319000", "153213.321000", "153213.323000", "153213.326000", "153213.328000", "153213.331000", "153213.333000", "153213.336000", "153213.338000", "153213.341000", "153213.343000", "153213.346000", "153213.348000", "153233.303000", "153233.306000", "153233.308000", "153233.311000", "153233.313000", "153233.316000", "153233.318000", "153233.321000", "153233.323000", "153233.326000", "153233.328000", "153233.331000", "153233.333000", "153233.336000", "153233.338000", "153233.341000", "153233.343000", "153233.346000", "153233.348000", "153233.351000", "153313.351000", "153313.354000", "153313.356000", "153313.359000", "153313.361000", "153313.364000", "153313.366000", "153313.369000", "153313.371000", "153313.374000", "153313.376000", "153313.379000", "153313.381000", "153313.383000", "153313.386000", "153313.388000", "153313.391000", "153313.393000", "153313.396000", "153313.398000", "153313.401000", "153313.403000", "153313.406000", "153313.408000", "153313.411000", "153313.413000", "153313.416000", "153313.419000", "153313.421000", "153353.330000", "153353.333000", "153353.336000", "153353.338000", "153353.341000", "153353.343000", "153353.346000", "153353.348000", "153353.351000", "153353.353000", "153353.356000", "153353.358000", "153353.361000", "153353.364000", "153353.366000", "153353.369000", "153353.371000", "153353.374000", "153353.376000", "153353.379000", "153353.381000", "153353.384000", "153353.386000", "153353.389000", "153353.391000", "153353.394000", "153353.396000", "153433.709000", "153433.711000", "153433.714000", "153433.716000", "153433.719000", "153433.722000", "153433.724000", "153433.727000", "153433.729000", "153433.732000", "153433.734000", "153433.737000", "153433.739000", "153433.742000", "153433.744000", "153433.747000", "153433.749000", "153433.752000", "153433.754000", "153433.757000", "153433.759000", "153433.762000", "153433.764000", "153433.767000", "153433.770000", "153433.772000", "153445.402000", "153445.404000", "153445.407000", "153445.410000", "153445.412000", "153445.415000", "153445.417000", "153445.420000", "153445.422000"],
      "InstanceNumber": [1, 2, 3, 4, 5, 6, 7, 8, 9, 10, 11, 12, 13, 14, 15, 16, 17, 18, 19, 20, 21, 22, 23, 24, 25, 26, 27, 28, 29, 30, 31, 32, 33, 34, 35, 36, 37, 38, 39, 40, 41, 42, 43, 44, 45, 46, 47, 48, 49, 50, 51, 52, 53, 54, 55, 56, 57, 58, 59, 60, 61, 62, 63, 64, 65, 66, 67, 68, 69, 70, 71, 72, 73, 74, 75, 76, 77, 78, 79, 80, 81, 82, 83, 84, 85, 86, 87, 88, 89, 90, 91, 92, 93, 94, 95, 96, 97, 98, 99, 100, 101, 102, 103, 104, 105, 106, 107, 108, 109, 110, 111, 112, 113, 114, 115, 116, 117, 118, 119, 120, 121, 122, 123, 124, 125, 126, 127, 128, 129, 130, 131, 132, 133, 134, 135, 136, 137, 138, 139, 140, 141, 142, 143, 144, 145, 146, 147, 148, 149, 150, 151, 152, 153, 154, 155, 156, 157, 158, 159, 160, 161, 162, 163, 164, 165, 166, 167, 168, 169, 170, 171, 172, 173, 174, 175, 176, 177, 178, 179, 180, 181, 182, 183, 184, 185, 186, 187, 188, 189, 190],
      "WindowCenter": [4880.0, 4854.0, 4882.0, 4880.0, 4882.0, 4856.0, 4906.0, 4882.0, 4856.0, 4904.0, 4882.0, 4852.0, 4906.0, 4878.0, 4852.0, 4906.0, 4834.0, 4904.0, 4854.0, 4826.0, 4828.0, 4858.0, 4880.0, 4880.0, 4880.0, 4902.0, 4882.0, 4882.0, 4902.0, 4884.0, 4856.0, 4878.0, 4856.0, 4852.0, 4886.0, 4878.0, 4874.0, 4880.0, 4878.0, 4904.0, 4886.0, 4856.0, 4882.0, 4884.0, 4856.0, 4878.0, 4882.0, 4858.0, 4880.0, 4880.0, 4884.0, 4856.0, 4878.0, 4880.0, 4876.0, 4906.0, 4858.0, 4880.0, 4880.0, 4854.0, 4882.0, 4858.0, 4858.0, 4878.0, 4882.0, 4878.0, 4880.0, 4880.0, 4854.0, 4876.0, 4858.0, 4876.0, 4880.0, 4876.0, 4882.0, 4876.0, 4882.0, 4858.0, 4884.0, 4880.0, 4876.0, 4880.0, 4854.0, 4880.0, 4858.0, 4880.0, 4882.0, 4876.0, 4900.0, 4880.0, 4854.0, 4880.0, 4856.0, 4856.0, 4856.0, 4856.0, 4880.0, 4880.0, 4880.0, 4880.0, 4878.0, 4880.0, 4856.0, 4878.0, 4882.0, 4878.0, 4902.0, 4884.0, 4856.0, 4876.0, 4854.0, 4880.0, 4880.0, 4856.0, 4882.0, 4906.0, 4856.0, 4880.0, 4858.0, 4876.0, 4882.0, 4878.0, 4884.0, 4856.0, 4882.0, 4878.0, 4854.0, 4878.0, 4882.0, 4854.0, 4876.0, 4856.0, 4856.0, 4880.0, 4854.0, 4880.0, 4906.0, 4854.0, 4882.0, 4880.0, 4880.0, 4856.0, 4876.0, 4878.0, 4878.0, 4880.0, 4880.0, 4878.0, 4884.0, 4856.0, 4880.0, 4858.0, 4878.0, 4880.0, 4856.0, 4878.0, 4880.0, 4880.0, 4882.0, 4876.0, 4880.0, 4854.0, 4880.0, 4854.0, 4878.0, 4880.0, 4878.0, 4882.0, 4878.0, 4878.0, 4858.0, 4876.0, 4878.0, 4882.0, 4858.0, 4882.0, 4882.0, 4876.0, 4880.0, 4856.0, 4882.0, 4878.0, 4876.0, 4878.0, 4876.0, 4882.0, 4856.0, 4854.0, 4884.0, 4856.0],
      "WindowWidth": [18668.0, 18624.0, 18674.0, 18660.0, 18676.0, 18626.0, 18700.0, 18670.0, 18624.0, 18714.0, 18672.0, 18622.0, 18712.0, 18660.0, 18618.0, 18714.0, 18640.0, 18722.0, 18620.0, 18586.0, 18584.0, 18628.0, 18664.0, 18664.0, 18676.0, 18712.0, 18674.0, 18662.0, 18702.0, 18672.0, 18624.0, 18664.0, 18624.0, 18622.0, 18684.0, 18666.0, 18660.0, 18676.0, 18666.0, 18704.0, 18674.0, 18628.0, 18674.0, 18664.0, 18624.0, 18662.0, 18670.0, 18632.0, 18674.0, 18664.0, 18676.0, 18630.0, 18674.0, 18664.0, 18658.0, 18708.0, 18628.0, 18662.0, 18666.0, 18628.0, 18670.0, 18630.0, 18632.0, 18666.0, 18678.0, 18662.0, 18672.0, 18668.0, 18628.0, 18672.0, 18632.0, 18668.0, 18662.0, 18664.0, 18672.0, 18662.0, 18678.0, 18632.0, 18676.0, 18666.0, 18664.0, 18668.0, 18628.0, 18672.0, 18632.0, 18672.0, 18662.0, 18662.0, 18718.0, 18670.0, 18626.0, 18664.0, 18626.0, 18636.0, 18636.0, 18626.0, 18670.0, 18670.0, 18670.0, 18666.0, 18666.0, 18664.0, 18634.0, 18674.0, 18664.0, 18660.0, 18714.0, 18674.0, 18626.0, 18664.0, 18626.0, 18670.0, 18678.0, 18632.0, 18668.0, 18706.0, 18630.0, 18670.0, 18628.0, 18660.0, 18670.0, 18658.0, 18674.0, 18634.0, 18676.0, 18660.0, 18628.0, 18682.0, 18678.0, 18624.0, 18662.0, 18632.0, 18636.0, 18670.0, 18630.0, 18676.0, 18702.0, 18630.0, 18676.0, 18662.0, 18666.0, 18628.0, 18662.0, 18674.0, 18662.0, 18672.0, 18666.0, 18668.0, 18676.0, 18632.0, 18670.0, 18628.0, 18664.0, 18668.0, 18632.0, 18672.0, 18664.0, 18674.0, 18670.0, 18662.0, 18672.0, 18628.0, 18670.0, 18626.0, 18666.0, 18666.0, 18664.0, 18670.0, 18654.0, 18676.0, 18632.0, 18670.0, 18662.0, 18674.0, 18632.0, 18670.0, 18662.0, 18670.0, 18664.0, 18632.0, 18674.0, 18666.0, 18662.0, 18662.0, 18666.0, 18670.0, 18630.0, 18624.0, 18672.0, 18628.0]
    },
    "slices": {}
  }
}