{
  "AcquisitionMatrixPE": 104,
  "AcquisitionNumber": 1,
  "AcquisitionTime": "15:49:27.250000",
  "BandwidthPerPixelPhaseEncode": 17.17,
  "BaseResolution": 104,
  "BodyPartExamined": "BRAIN",
  "CoilString": "HC1-7;NC1_2",
  "ConsistencyInfo": "N4_VE11C_LATEST_20160120",
  "ConversionSoftware": "dcm2niix",
  "ConversionSoftwareVersion": "v1.0.20190902",
  "DerivedVendorReportedEchoSpacing": 0.000560011,
  "DeviceSerialNumber": "167006",
  "DwellTime": 2.1e-06,
  "EchoTime": 0.037,
  "EchoTrainLength": 104,
  "EffectiveEchoSpacing": 0.000560011,
  "FlipAngle": 52,
  "ImageComments": "Unaliased_MB4_PE3_LB",
  "ImageOrientationPatientDICOM": [0.999026, -0.0400557, 0.0185041, 0.0439678, 0.938905, -0.341356],
  "ImageType": [
    "ORIGINAL",
    "PRIMARY",
    "P",
    "MB",
    "ND",
    "MOSAIC"
],
  "ImagingFrequency": 123.259,
  "InPlanePhaseEncodingDirectionDICOM": "COL",
  "InstitutionAddress": "Chemin_Queen-Mary_4565_Montreal_District_CA_H3W_1W5",
  "InstitutionName": "IUGM",
  "InstitutionalDepartmentName": "Department",
  "MRAcquisitionType": "2D",
  "MagneticFieldStrength": 3,
  "Manufacturer": "Siemens",
  "ManufacturersModelName": "Prisma_fit",
  "Modality": "MR",
  "MultibandAccelerationFactor": 4,
  "PartialFourier": 1,
  "PatientPosition": "HFS",
  "PercentPhaseFOV": 100,
  "PhaseEncodingDirection": "j",
  "PhaseEncodingSteps": 104,
  "PhaseResolution": 1,
  "PixelBandwidth": 2290,
  "ProcedureStepDescription": "memory_things",
  "ProtocolName": "func_task-things_run-6",
  "PulseSequenceDetails": "%CustomerSeq%_cmrr_mbep2d_bold",
  "ReceiveCoilActiveElements": "HC1-7;NC1,2",
  "ReceiveCoilName": "HeadNeck_64",
  "ReconMatrixPE": 104,
  "RepetitionTime": 1.49,
  "SAR": 0.0411304,
  "ScanOptions": "FS",
  "ScanningSequence": "EP",
  "SequenceName": "epfid2d1_104",
  "SequenceVariant": "SK_SS",
  "SeriesDescription": "func_task-things_run-6",
  "SeriesNumber": 26,
  "ShimSetting": [625, -7248, -8821, 561, 6, -190, -52, -19],
  "SliceThickness": 2,
  "SliceTiming": [0, 0.785, 0.1, 0.8825, 0.1975, 0.98, 0.295, 1.08, 0.3925, 1.1775, 0.49, 1.275, 0.59, 1.3725, 0.6875, 0, 0.785, 0.1, 0.8825, 0.1975, 0.98, 0.295, 1.08, 0.3925, 1.1775, 0.49, 1.275, 0.59, 1.3725, 0.6875, 0, 0.785, 0.1, 0.8825, 0.1975, 0.98, 0.295, 1.08, 0.3925, 1.1775, 0.49, 1.275, 0.59, 1.3725, 0.6875, 0, 0.785, 0.1, 0.8825, 0.1975, 0.98, 0.295, 1.08, 0.3925, 1.1775, 0.49, 1.275, 0.59, 1.3725, 0.6875],
  "SoftwareVersions": "syngo_MR_E11",
  "SpacingBetweenSlices": 2,
  "StationName": "MRC35049",
  "TaskName": "things",
  "TotalReadoutTime": 0.0576811,
  "TxRefAmp": 242.368,
  "WipMemBlock": "b52a8c3c-9de8-43d1-8e56-db598874c4a0||Sequence: R016 ve11c/master r/e634e98; Dec 19 2017 11:00:25 by eja",
  "dcmmeta_affine": [
    [-1.9980522394180298, 0.08793563395738602, 0.007400795351713896, 102.94126892089844],
    [0.08011139929294586, 1.8778107166290283, -0.6836733222007751, -68.13802337646484],
    [0.037008270621299744, 0.6827110648155212, 1.8795042037963867, -67.21177673339844],
    [0.0, 0.0, 0.0, 1.0]
],
  "dcmmeta_reorient_transform": [
    [0.0, -1.0, 0.0, 103.0],
    [1.0, 0.0, 0.0, 0.0],
    [0.0, 0.0, 1.0, 0.0],
    [0.0, 0.0, 0.0, 1.0]
],
  "dcmmeta_shape": [104, 104, 60, 190],
  "dcmmeta_slice_dim": 2,
  "dcmmeta_version": 0.6,
  "global": {
    "const": {
      "AcquisitionMatrix": [104, 0, 0, 104],
      "AngioFlag": "N",
      "BitsAllocated": 16,
      "BitsStored": 16,
      "BodyPartExamined": "BRAIN",
      "Columns": 832,
      "EchoNumbers": 1,
      "EchoTime": 37.0,
      "EchoTrainLength": 104,
      "FlipAngle": 52.0,
      "HighBit": 15,
      "ImageOrientationPatient": [0.9990260947641, -0.0400556983049, 0.01850413504314, 0.04396781820737, 0.93890534212711, -0.3413555177337],
      "ImagePositionPatient": [-871.29820972403, -779.63902144264, 238.14326279786],
      "ImageType": [
        "ORIGINAL",
        "PRIMARY",
        "P",
        "MB",
        "ND",
        "MOSAIC"
],
      "ImagedNucleus": "1H",
      "ImagingFrequency": 123.258882,
      "InPlanePhaseEncodingDirection": "COL",
      "LargestImagePixelValue": 4095,
      "MRAcquisitionType": "2D",
      "MagneticFieldStrength": 3.0,
      "Manufacturer": "SIEMENS",
      "ManufacturerModelName": "Prisma_fit",
      "Modality": "MR",
      "NumberOfAverages": 1.0,
      "NumberOfPhaseEncodingSteps": 104,
      "PercentPhaseFieldOfView": 100.0,
      "PercentSampling": 100.0,
      "PerformedProcedureStepStartTime": "150056.657000",
      "PhotometricInterpretation": "MONOCHROME2",
      "PixelBandwidth": 2290.0,
      "PixelRepresentation": 0,
      "PixelSpacing": [2.0, 2.0],
      "ProtocolName": "func_task-things_run-6",
      "RepetitionTime": 1490.0,
      "RescaleIntercept": -4096.0,
      "RescaleSlope": 2.0,
      "RescaleType": "US",
      "Rows": 832,
      "SAR": 0.04113042020062,
      "SamplesPerPixel": 1,
      "ScanOptions": "FS",
      "ScanningSequence": "EP",
      "SequenceName": "epfid2d1_104",
      "SequenceVariant": [
        "SK",
        "SS"
],
      "SeriesDescription": "func_task-things_run-6",
      "SeriesNumber": 26,
      "SeriesTime": "155053.371000",
      "SliceLocation": -39.489415294022,
      "SliceThickness": 2.0,
      "SmallestImagePixelValue": 0,
      "SoftwareVersions": "syngo MR E11",
      "SpacingBetweenSlices": 2.0000000195537,
      "SpecificCharacterSet": "ISO_IR 100",
      "StudyID": "1",
      "StudyTime": "150056.560000",
      "TransmitCoilName": "Body",
      "VariableFlipAngleFlag": "N",
      "WindowCenterWidthExplanation": "Algo1",
      "dBdt": 0.0},
    "slices": {}
  },
  "time": {
    "samples": {
      "AcquisitionNumber": [1, 2, 3, 4, 5, 6, 7, 8, 9, 10, 11, 12, 13, 14, 15, 16, 17, 18, 19, 20, 21, 22, 23, 24, 25, 26, 27, 28, 29, 30, 31, 32, 33, 34, 35, 36, 37, 38, 39, 40, 41, 42, 43, 44, 45, 46, 47, 48, 49, 50, 51, 52, 53, 54, 55, 56, 57, 58, 59, 60, 61, 62, 63, 64, 65, 66, 67, 68, 69, 70, 71, 72, 73, 74, 75, 76, 77, 78, 79, 80, 81, 82, 83, 84, 85, 86, 87, 88, 89, 90, 91, 92, 93, 94, 95, 96, 97, 98, 99, 100, 101, 102, 103, 104, 105, 106, 107, 108, 109, 110, 111, 112, 113, 114, 115, 116, 117, 118, 119, 120, 121, 122, 123, 124, 125, 126, 127, 128, 129, 130, 131, 132, 133, 134, 135, 136, 137, 138, 139, 140, 141, 142, 143, 144, 145, 146, 147, 148, 149, 150, 151, 152, 153, 154, 155, 156, 157, 158, 159, 160, 161, 162, 163, 164, 165, 166, 167, 168, 169, 170, 171, 172, 173, 174, 175, 176, 177, 178, 179, 180, 181, 182, 183, 184, 185, 186, 187, 188, 189, 190],
      "AcquisitionTime": ["154927.250000", "154928.740000", "154930.230000", "154931.720000", "154933.210000", "154934.700000", "154936.190000", "154937.680000", "154939.170000", "154940.660000", "154942.150000", "154943.640000", "154945.130000", "154946.620000", "154948.110000", "154949.600000", "154951.090000", "154952.580000", "154954.070000", "154955.560000", "154957.050000", "154958.540000", "155000.030000", "155001.520000", "155003.010000", "155004.500000", "155005.990000", "155007.480000", "155008.970000", "155010.460000", "155011.950000", "155013.440000", "155014.930000", "155016.420000", "155017.910000", "155019.400000", "155020.890000", "155022.380000", "155023.870000", "155025.360000", "155026.850000", "155028.340000", "155029.830000", "155031.320000", "155032.810000", "155034.300000", "155035.790000", "155037.280000", "155038.770000", "155040.260000", "155041.750000", "155043.240000", "155044.730000", "155046.220000", "155047.710000", "155049.200000", "155050.690000", "155052.180000", "155053.670000", "155055.160000", "155056.650000", "155058.140000", "155059.630000", "155101.120000", "155102.610000", "155104.100000", "155105.590000", "155107.080000", "155108.570000", "155110.060000", "155111.550000", "155113.040000", "155114.530000", "155116.020000", "155117.510000", "155119.000000", "155120.490000", "155121.980000", "155123.470000", "155124.960000", "155126.450000", "155127.940000", "155129.430000", "155130.920000", "155132.410000", "155133.900000", "155135.390000", "155136.880000", "155138.370000", "155139.860000", "155141.350000", "155142.840000", "155144.330000", "155145.820000", "155147.310000", "155148.800000", "155150.290000", "155151.780000", "155153.270000", "155154.760000", "155156.250000", "155157.740000", "155159.230000", "155200.720000", "155202.210000", "155203.700000", "155205.190000", "155206.680000", "155208.170000", "155209.660000", "155211.150000", "155212.640000", "155214.130000", "155215.620000", "155217.110000", "155218.600000", "155220.090000", "155221.580000", "155223.070000", "155224.560000", "155226.050000", "155227.540000", "155229.030000", "155230.520000", "155232.010000", "155233.500000", "155234.990000", "155236.480000", "155237.970000", "155239.460000", "155240.950000", "155242.440000", "155243.930000", "155245.420000", "155246.910000", "155248.400000", "155249.890000", "155251.380000", "155252.870000", "155254.360000", "155255.850000", "155257.340000", "155258.830000", "155300.320000", "155301.810000", "155303.300000", "155304.790000", "155306.280000", "155307.770000", "155309.260000", "155310.750000", "155312.240000", "155313.730000", "155315.220000", "155316.710000", "155318.200000", "155319.690000", "155321.180000", "155322.670000", "155324.160000", "155325.650000", "155327.140000", "155328.630000", "155330.120000", "155331.610000", "155333.100000", "155334.590000", "155336.080000", "155337.570000", "155339.060000", "155340.550000", "155342.040000", "155343.530000", "155345.020000", "155346.510000", "155348.000000", "155349.490000", "155350.980000", "155352.470000", "155353.960000", "155355.450000", "155356.940000", "155358.430000", "155359.920000", "155401.410000", "155402.900000", "155404.390000", "155405.880000", "155407.370000", "155408.860000"],
      "ContentTime": ["155053.373000", "155053.376000", "155053.378000", "155053.381000", "155053.383000", "155053.386000", "155053.388000", "155053.391000", "155053.393000", "155053.396000", "155053.398000", "155053.401000", "155053.403000", "155053.406000", "155053.408000", "155053.411000", "155053.413000", "155053.416000", "155053.418000", "155053.421000", "155053.423000", "155053.441000", "155053.444000", "155053.446000", "155053.449000", "155053.451000", "155053.454000", "155053.456000", "155053.459000", "155053.462000", "155113.330000", "155113.333000", "155113.336000", "155113.338000", "155113.340000", "155113.343000", "155113.345000", "155113.348000", "155113.350000", "155113.353000", "155113.355000", "155113.358000", "155113.360000", "155113.363000", "155113.365000", "155113.368000", "155113.370000", "155113.373000", "155113.375000", "155113.377000", "155133.740000", "155133.743000", "155133.745000", "155133.748000", "155133.750000", "155133.753000", "155133.755000", "155133.758000", "155133.760000", "155133.764000", "155133.766000", "155133.769000", "155133.771000", "155133.774000", "155133.776000", "155133.779000", "155133.781000", "155133.783000", "155133.786000", "155133.788000", "155133.791000", "155153.305000", "155153.308000", "155153.311000", "155153.313000", "155153.316000", "155153.318000", "155153.321000", "155153.323000", "155153.326000", "155153.328000", "155153.331000", "155153.333000", "155153.336000", "155153.338000", "155153.341000", "155153.343000", "155153.346000", "155153.348000", "155153.351000", "155153.353000", "155233.355000", "155233.358000", "155233.360000", "155233.363000", "155233.365000", "155233.368000", "155233.370000", "155233.373000", "155233.375000", "155233.378000", "155233.380000", "155233.383000", "155233.385000", "155233.388000", "155233.390000", "155233.393000", "155233.395000", "155233.398000", "155233.400000", "155233.403000", "155233.405000", "155233.408000", "155233.410000", "155233.413000", "155233.415000", "155233.418000", "155233.420000", "155233.423000", "155233.425000", "155233.428000", "155233.430000", "155233.433000", "155233.435000", "155313.344000", "155313.347000", "155313.350000", "155313.352000", "155313.355000", "155313.357000", "155313.360000", "155313.362000", "155313.365000", "155313.367000", "155313.370000", "155313.372000", "155313.375000", "155313.377000", "155313.379000", "155313.382000", "155313.384000", "155313.387000", "155313.389000", "155313.392000", "155313.394000", "155313.397000", "155313.399000", "155313.402000", "155313.404000", "155313.407000", "155313.409000", "155353.346000", "155353.348000", "155353.351000", "155353.353000", "155353.356000", "155353.358000", "155353.361000", "155353.363000", "155353.366000", "155353.368000", "155353.371000", "155353.373000", "155353.376000", "155353.378000", "155353.381000", "155353.384000", "155353.386000", "155353.389000", "155353.391000", "155353.394000", "155353.396000", "155353.399000", "155353.401000", "155353.404000", "155353.406000", "155353.409000", "155411.273000", "155411.276000", "155411.278000", "155411.281000", "155411.283000", "155411.286000", "155411.288000", "155411.291000", "155411.293000", "155411.296000", "155411.298000", "155411.301000", "155411.303000"],
      "InstanceCreationTime": ["155053.373000", "155053.376000", "155053.378000", "155053.381000", "155053.383000", "155053.386000", "155053.388000", "155053.391000", "155053.393000", "155053.396000", "155053.398000", "155053.401000", "155053.403000", "155053.406000", "155053.408000", "155053.411000", "155053.413000", "155053.416000", "155053.418000", "155053.421000", "155053.423000", "155053.441000", "155053.444000", "155053.446000", "155053.449000", "155053.451000", "155053.454000", "155053.456000", "155053.459000", "155053.462000", "155113.330000", "155113.333000", "155113.336000", "155113.338000", "155113.340000", "155113.343000", "155113.345000", "155113.348000", "155113.350000", "155113.353000", "155113.355000", "155113.358000", "155113.360000", "155113.363000", "155113.365000", "155113.368000", "155113.370000", "155113.373000", "155113.375000", "155113.377000", "155133.740000", "155133.743000", "155133.745000", "155133.748000", "155133.750000", "155133.753000", "155133.755000", "155133.758000", "155133.760000", "155133.764000", "155133.766000", "155133.769000", "155133.771000", "155133.774000", "155133.776000", "155133.779000", "155133.781000", "155133.783000", "155133.786000", "155133.788000", "155133.791000", "155153.305000", "155153.308000", "155153.311000", "155153.313000", "155153.316000", "155153.318000", "155153.321000", "155153.323000", "155153.326000", "155153.328000", "155153.331000", "155153.333000", "155153.336000", "155153.338000", "155153.341000", "155153.343000", "155153.346000", "155153.348000", "155153.351000", "155153.353000", "155233.355000", "155233.358000", "155233.360000", "155233.363000", "155233.365000", "155233.368000", "155233.370000", "155233.373000", "155233.375000", "155233.378000", "155233.380000", "155233.383000", "155233.385000", "155233.388000", "155233.390000", "155233.393000", "155233.395000", "155233.398000", "155233.400000", "155233.403000", "155233.405000", "155233.408000", "155233.410000", "155233.413000", "155233.415000", "155233.418000", "155233.420000", "155233.423000", "155233.425000", "155233.428000", "155233.430000", "155233.433000", "155233.435000", "155313.344000", "155313.347000", "155313.350000", "155313.352000", "155313.355000", "155313.357000", "155313.360000", "155313.362000", "155313.365000", "155313.367000", "155313.370000", "155313.372000", "155313.375000", "155313.377000", "155313.379000", "155313.382000", "155313.384000", "155313.387000", "155313.389000", "155313.392000", "155313.394000", "155313.397000", "155313.399000", "155313.402000", "155313.404000", "155313.407000", "155313.409000", "155353.346000", "155353.348000", "155353.351000", "155353.353000", "155353.356000", "155353.358000", "155353.361000", "155353.363000", "155353.366000", "155353.368000", "155353.371000", "155353.373000", "155353.376000", "155353.378000", "155353.381000", "155353.384000", "155353.386000", "155353.389000", "155353.391000", "155353.394000", "155353.396000", "155353.399000", "155353.401000", "155353.404000", "155353.406000", "155353.409000", "155411.273000", "155411.276000", "155411.278000", "155411.281000", "155411.283000", "155411.286000", "155411.288000", "155411.291000", "155411.293000", "155411.296000", "155411.298000", "155411.301000", "155411.303000"],
      "InstanceNumber": [1, 2, 3, 4, 5, 6, 7, 8, 9, 10, 11, 12, 13, 14, 15, 16, 17, 18, 19, 20, 21, 22, 23, 24, 25, 26, 27, 28, 29, 30, 31, 32, 33, 34, 35, 36, 37, 38, 39, 40, 41, 42, 43, 44, 45, 46, 47, 48, 49, 50, 51, 52, 53, 54, 55, 56, 57, 58, 59, 60, 61, 62, 63, 64, 65, 66, 67, 68, 69, 70, 71, 72, 73, 74, 75, 76, 77, 78, 79, 80, 81, 82, 83, 84, 85, 86, 87, 88, 89, 90, 91, 92, 93, 94, 95, 96, 97, 98, 99, 100, 101, 102, 103, 104, 105, 106, 107, 108, 109, 110, 111, 112, 113, 114, 115, 116, 117, 118, 119, 120, 121, 122, 123, 124, 125, 126, 127, 128, 129, 130, 131, 132, 133, 134, 135, 136, 137, 138, 139, 140, 141, 142, 143, 144, 145, 146, 147, 148, 149, 150, 151, 152, 153, 154, 155, 156, 157, 158, 159, 160, 161, 162, 163, 164, 165, 166, 167, 168, 169, 170, 171, 172, 173, 174, 175, 176, 177, 178, 179, 180, 181, 182, 183, 184, 185, 186, 187, 188, 189, 190],
      "WindowCenter": [4850.0, 4826.0, 4854.0, 4830.0, 4878.0, 4900.0, 4906.0, 4828.0, 4820.0, 4816.0, 4820.0, 4880.0, 4880.0, 4882.0, 4880.0, 4878.0, 4854.0, 4824.0, 4876.0, 4880.0, 4828.0, 4824.0, 4826.0, 4826.0, 4830.0, 4852.0, 4876.0, 4878.0, 4878.0, 4904.0, 4852.0, 4880.0, 4854.0, 4822.0, 4822.0, 4826.0, 4830.0, 4826.0, 4880.0, 4878.0, 4876.0, 4876.0, 4848.0, 4854.0, 4824.0, 4828.0, 4830.0, 4850.0, 4902.0, 4880.0, 4832.0, 4856.0, 4852.0, 4852.0, 4828.0, 4832.0, 4856.0, 4828.0, 4878.0, 4852.0, 4852.0, 4900.0, 4882.0, 4826.0, 4850.0, 4826.0, 4828.0, 4826.0, 4830.0, 4854.0, 4878.0, 4858.0, 4882.0, 4854.0, 4830.0, 4852.0, 4852.0, 4826.0, 4850.0, 4828.0, 4854.0, 4850.0, 4878.0, 4854.0, 4854.0, 4880.0, 4852.0, 4854.0, 4826.0, 4854.0, 4852.0, 4828.0, 4830.0, 4880.0, 4852.0, 4854.0, 4880.0, 4830.0, 4830.0, 4854.0, 4830.0, 4826.0, 4878.0, 4852.0, 4852.0, 4876.0, 4828.0, 4852.0, 4828.0, 4852.0, 4856.0, 4852.0, 4852.0, 4828.0, 4852.0, 4854.0, 4852.0, 4854.0, 4852.0, 4880.0, 4858.0, 4852.0, 4850.0, 4824.0, 4848.0, 4822.0, 4878.0, 4878.0, 4880.0, 4902.0, 4880.0, 4860.0, 4850.0, 4852.0, 4878.0, 4826.0, 4848.0, 4874.0, 4826.0, 4852.0, 4828.0, 4828.0, 4854.0, 4856.0, 4856.0, 4854.0, 4856.0, 4854.0, 4856.0, 4852.0, 4878.0, 4900.0, 4906.0, 4832.0, 4824.0, 4828.0, 4826.0, 4830.0, 4878.0, 4880.0, 4878.0, 4906.0, 4880.0, 4882.0, 4828.0, 4852.0, 4828.0, 4826.0, 4830.0, 4856.0, 4880.0, 4878.0, 4878.0, 4854.0, 4854.0, 4854.0, 4826.0, 4852.0, 4852.0, 4830.0, 4856.0, 4854.0, 4856.0, 4850.0, 4856.0, 4854.0, 4848.0, 4856.0, 4852.0, 4872.0],
      "WindowWidth": [18618.0, 18582.0, 18624.0, 18586.0, 18666.0, 18722.0, 18710.0, 18580.0, 18580.0, 18584.0, 18588.0, 18670.0, 18662.0, 18666.0, 18674.0, 18676.0, 18616.0, 18582.0, 18676.0, 18672.0, 18580.0, 18576.0, 18580.0, 18586.0, 18592.0, 18626.0, 18660.0, 18664.0, 18674.0, 18712.0, 18622.0, 18664.0, 18618.0, 18578.0, 18580.0, 18584.0, 18594.0, 18586.0, 18666.0, 18662.0, 18678.0, 18660.0, 18620.0, 18624.0, 18578.0, 18590.0, 18588.0, 18618.0, 18710.0, 18666.0, 18588.0, 18628.0, 18622.0, 18622.0, 18588.0, 18588.0, 18630.0, 18586.0, 18664.0, 18630.0, 18628.0, 18710.0, 18664.0, 18582.0, 18620.0, 18584.0, 18590.0, 18584.0, 18588.0, 18626.0, 18662.0, 18628.0, 18674.0, 18626.0, 18584.0, 18618.0, 18614.0, 18584.0, 18614.0, 18580.0, 18624.0, 18620.0, 18664.0, 18624.0, 18618.0, 18656.0, 18618.0, 18630.0, 18586.0, 18630.0, 18620.0, 18582.0, 18588.0, 18674.0, 18626.0, 18626.0, 18670.0, 18590.0, 18582.0, 18620.0, 18590.0, 18580.0, 18662.0, 18628.0, 18620.0, 18658.0, 18582.0, 18618.0, 18586.0, 18620.0, 18630.0, 18620.0, 18624.0, 18588.0, 18624.0, 18624.0, 18616.0, 18628.0, 18616.0, 18674.0, 18628.0, 18616.0, 18620.0, 18586.0, 18628.0, 18588.0, 18672.0, 18656.0, 18678.0, 18708.0, 18670.0, 18628.0, 18618.0, 18616.0, 18662.0, 18586.0, 18640.0, 18692.0, 18592.0, 18616.0, 18584.0, 18590.0, 18618.0, 18630.0, 18634.0, 18632.0, 18634.0, 18632.0, 18628.0, 18624.0, 18672.0, 18722.0, 18718.0, 18586.0, 18584.0, 18584.0, 18582.0, 18586.0, 18664.0, 18666.0, 18672.0, 18710.0, 18666.0, 18664.0, 18588.0, 18622.0, 18586.0, 18582.0, 18594.0, 18634.0, 18668.0, 18668.0, 18666.0, 18628.0, 18630.0, 18622.0, 18584.0, 18624.0, 18616.0, 18592.0, 18628.0, 18626.0, 18634.0, 18628.0, 18626.0, 18628.0, 18624.0, 18634.0, 18624.0, 18668.0]
    },
    "slices": {}
  }
}