{
  "AcquisitionMatrixPE": 104,
  "AcquisitionNumber": 1,
  "AcquisitionTime": "15:23:50.035000",
  "BandwidthPerPixelPhaseEncode": 17.17,
  "BaseResolution": 104,
  "BodyPartExamined": "BRAIN",
  "CoilString": "HC1-7;NC1_2",
  "ConsistencyInfo": "N4_VE11C_LATEST_20160120",
  "ConversionSoftware": "dcm2niix",
  "ConversionSoftwareVersion": "v1.0.20190902",
  "DerivedVendorReportedEchoSpacing": 0.000560011,
  "DeviceSerialNumber": "167006",
  "DwellTime": 2.1e-06,
  "EchoTime": 0.037,
  "EchoTrainLength": 104,
  "EffectiveEchoSpacing": 0.000560011,
  "FlipAngle": 52,
  "ImageComments": "Unaliased_MB4_PE3_LB",
  "ImageOrientationPatientDICOM": [0.999026, -0.0400557, 0.0185041, 0.0439678, 0.938905, -0.341356],
  "ImageType": [
    "ORIGINAL",
    "PRIMARY",
    "P",
    "MB",
    "ND",
    "MOSAIC"
],
  "ImagingFrequency": 123.259,
  "InPlanePhaseEncodingDirectionDICOM": "COL",
  "InstitutionAddress": "Chemin_Queen-Mary_4565_Montreal_District_CA_H3W_1W5",
  "InstitutionName": "IUGM",
  "InstitutionalDepartmentName": "Department",
  "MRAcquisitionType": "2D",
  "MagneticFieldStrength": 3,
  "Manufacturer": "Siemens",
  "ManufacturersModelName": "Prisma_fit",
  "Modality": "MR",
  "MultibandAccelerationFactor": 4,
  "PartialFourier": 1,
  "PatientPosition": "HFS",
  "PercentPhaseFOV": 100,
  "PhaseEncodingDirection": "j",
  "PhaseEncodingSteps": 104,
  "PhaseResolution": 1,
  "PixelBandwidth": 2290,
  "ProcedureStepDescription": "memory_things",
  "ProtocolName": "func_task-things_run-2",
  "PulseSequenceDetails": "%CustomerSeq%_cmrr_mbep2d_bold",
  "ReceiveCoilActiveElements": "HC1-7;NC1,2",
  "ReceiveCoilName": "HeadNeck_64",
  "ReconMatrixPE": 104,
  "RepetitionTime": 1.49,
  "SAR": 0.0411304,
  "ScanOptions": "FS",
  "ScanningSequence": "EP",
  "SequenceName": "epfid2d1_104",
  "SequenceVariant": "SK_SS",
  "SeriesDescription": "func_task-things_run-2",
  "SeriesNumber": 14,
  "ShimSetting": [625, -7248, -8821, 561, 6, -190, -52, -19],
  "SliceThickness": 2,
  "SliceTiming": [0, 0.7825, 0.0975, 0.8825, 0.195, 0.98, 0.2925, 1.0775, 0.3925, 1.175, 0.49, 1.2725, 0.5875, 1.3725, 0.685, 0, 0.7825, 0.0975, 0.8825, 0.195, 0.98, 0.2925, 1.0775, 0.3925, 1.175, 0.49, 1.2725, 0.5875, 1.3725, 0.685, 0, 0.7825, 0.0975, 0.8825, 0.195, 0.98, 0.2925, 1.0775, 0.3925, 1.175, 0.49, 1.2725, 0.5875, 1.3725, 0.685, 0, 0.7825, 0.0975, 0.8825, 0.195, 0.98, 0.2925, 1.0775, 0.3925, 1.175, 0.49, 1.2725, 0.5875, 1.3725, 0.685],
  "SoftwareVersions": "syngo_MR_E11",
  "SpacingBetweenSlices": 2,
  "StationName": "MRC35049",
  "TaskName": "things",
  "TotalReadoutTime": 0.0576811,
  "TxRefAmp": 242.368,
  "WipMemBlock": "6305db3e-35d7-4ae4-904a-1f59fb2b4937||Sequence: R016 ve11c/master r/e634e98; Dec 19 2017 11:00:25 by eja",
  "dcmmeta_affine": [
    [-1.9980522394180298, 0.08793563395738602, 0.007400795351713896, 102.94126892089844],
    [0.08011139929294586, 1.8778107166290283, -0.6836733222007751, -68.13802337646484],
    [0.037008270621299744, 0.6827110648155212, 1.8795042037963867, -67.21177673339844],
    [0.0, 0.0, 0.0, 1.0]
],
  "dcmmeta_reorient_transform": [
    [0.0, -1.0, 0.0, 103.0],
    [1.0, 0.0, 0.0, 0.0],
    [0.0, 0.0, 1.0, 0.0],
    [0.0, 0.0, 0.0, 1.0]
],
  "dcmmeta_shape": [104, 104, 60, 190],
  "dcmmeta_slice_dim": 2,
  "dcmmeta_version": 0.6,
  "global": {
    "const": {
      "AcquisitionMatrix": [104, 0, 0, 104],
      "AngioFlag": "N",
      "BitsAllocated": 16,
      "BitsStored": 16,
      "BodyPartExamined": "BRAIN",
      "Columns": 832,
      "EchoNumbers": 1,
      "EchoTime": 37.0,
      "EchoTrainLength": 104,
      "FlipAngle": 52.0,
      "HighBit": 15,
      "ImageOrientationPatient": [0.9990260947641, -0.0400556983049, 0.01850413504314, 0.04396781820737, 0.93890534212711, -0.3413555177337],
      "ImagePositionPatient": [-871.29820972403, -779.63902144264, 238.14326279786],
      "ImageType": [
        "ORIGINAL",
        "PRIMARY",
        "P",
        "MB",
        "ND",
        "MOSAIC"
],
      "ImagedNucleus": "1H",
      "ImagingFrequency": 123.258874,
      "InPlanePhaseEncodingDirection": "COL",
      "LargestImagePixelValue": 4095,
      "MRAcquisitionType": "2D",
      "MagneticFieldStrength": 3.0,
      "Manufacturer": "SIEMENS",
      "ManufacturerModelName": "Prisma_fit",
      "Modality": "MR",
      "NumberOfAverages": 1.0,
      "NumberOfPhaseEncodingSteps": 104,
      "PercentPhaseFieldOfView": 100.0,
      "PercentSampling": 100.0,
      "PerformedProcedureStepStartTime": "150056.657000",
      "PhotometricInterpretation": "MONOCHROME2",
      "PixelBandwidth": 2290.0,
      "PixelRepresentation": 0,
      "PixelSpacing": [2.0, 2.0],
      "ProtocolName": "func_task-things_run-2",
      "RepetitionTime": 1490.0,
      "RescaleIntercept": -4096.0,
      "RescaleSlope": 2.0,
      "RescaleType": "US",
      "Rows": 832,
      "SAR": 0.04113042020062,
      "SamplesPerPixel": 1,
      "ScanOptions": "FS",
      "ScanningSequence": "EP",
      "SequenceName": "epfid2d1_104",
      "SequenceVariant": [
        "SK",
        "SS"
],
      "SeriesDescription": "func_task-things_run-2",
      "SeriesNumber": 14,
      "SeriesTime": "152448.211000",
      "SliceLocation": -39.489415294022,
      "SliceThickness": 2.0,
      "SmallestImagePixelValue": 0,
      "SoftwareVersions": "syngo MR E11",
      "SpacingBetweenSlices": 2.0000000195537,
      "SpecificCharacterSet": "ISO_IR 100",
      "StudyID": "1",
      "StudyTime": "150056.560000",
      "TransmitCoilName": "Body",
      "VariableFlipAngleFlag": "N",
      "WindowCenterWidthExplanation": "Algo1",
      "dBdt": 0.0},
    "slices": {}
  },
  "time": {
    "samples": {
      "AcquisitionNumber": [1, 2, 3, 4, 5, 6, 7, 8, 9, 10, 11, 12, 13, 14, 15, 16, 17, 18, 19, 20, 21, 22, 23, 24, 25, 26, 27, 28, 29, 30, 31, 32, 33, 34, 35, 36, 37, 38, 39, 40, 41, 42, 43, 44, 45, 46, 47, 48, 49, 50, 51, 52, 53, 54, 55, 56, 57, 58, 59, 60, 61, 62, 63, 64, 65, 66, 67, 68, 69, 70, 71, 72, 73, 74, 75, 76, 77, 78, 79, 80, 81, 82, 83, 84, 85, 86, 87, 88, 89, 90, 91, 92, 93, 94, 95, 96, 97, 98, 99, 100, 101, 102, 103, 104, 105, 106, 107, 108, 109, 110, 111, 112, 113, 114, 115, 116, 117, 118, 119, 120, 121, 122, 123, 124, 125, 126, 127, 128, 129, 130, 131, 132, 133, 134, 135, 136, 137, 138, 139, 140, 141, 142, 143, 144, 145, 146, 147, 148, 149, 150, 151, 152, 153, 154, 155, 156, 157, 158, 159, 160, 161, 162, 163, 164, 165, 166, 167, 168, 169, 170, 171, 172, 173, 174, 175, 176, 177, 178, 179, 180, 181, 182, 183, 184, 185, 186, 187, 188, 189, 190],
      "AcquisitionTime": ["152350.035000", "152351.525000", "152353.015000", "152354.505000", "152355.995000", "152357.485000", "152358.975000", "152400.465000", "152401.955000", "152403.445000", "152404.935000", "152406.425000", "152407.915000", "152409.405000", "152410.895000", "152412.385000", "152413.875000", "152415.365000", "152416.855000", "152418.345000", "152419.835000", "152421.325000", "152422.815000", "152424.305000", "152425.795000", "152427.285000", "152428.775000", "152430.265000", "152431.755000", "152433.245000", "152434.735000", "152436.225000", "152437.715000", "152439.205000", "152440.695000", "152442.185000", "152443.675000", "152445.165000", "152446.655000", "152448.145000", "152449.635000", "152451.125000", "152452.615000", "152454.105000", "152455.595000", "152457.085000", "152458.575000", "152500.065000", "152501.555000", "152503.045000", "152504.535000", "152506.025000", "152507.515000", "152509.005000", "152510.495000", "152511.985000", "152513.475000", "152514.965000", "152516.455000", "152517.945000", "152519.435000", "152520.925000", "152522.415000", "152523.905000", "152525.395000", "152526.885000", "152528.375000", "152529.865000", "152531.355000", "152532.845000", "152534.335000", "152535.825000", "152537.315000", "152538.805000", "152540.295000", "152541.785000", "152543.275000", "152544.765000", "152546.255000", "152547.745000", "152549.235000", "152550.725000", "152552.215000", "152553.705000", "152555.195000", "152556.685000", "152558.175000", "152559.665000", "152601.155000", "152602.645000", "152604.135000", "152605.625000", "152607.115000", "152608.605000", "152610.095000", "152611.585000", "152613.075000", "152614.565000", "152616.055000", "152617.545000", "152619.035000", "152620.525000", "152622.015000", "152623.505000", "152624.995000", "152626.485000", "152627.975000", "152629.465000", "152630.955000", "152632.445000", "152633.935000", "152635.425000", "152636.915000", "152638.405000", "152639.895000", "152641.385000", "152642.875000", "152644.365000", "152645.855000", "152647.345000", "152648.835000", "152650.325000", "152651.815000", "152653.305000", "152654.795000", "152656.285000", "152657.775000", "152659.265000", "152700.755000", "152702.245000", "152703.735000", "152705.225000", "152706.715000", "152708.205000", "152709.695000", "152711.185000", "152712.675000", "152714.165000", "152715.655000", "152717.145000", "152718.635000", "152720.125000", "152721.615000", "152723.105000", "152724.595000", "152726.085000", "152727.575000", "152729.065000", "152730.555000", "152732.045000", "152733.535000", "152735.025000", "152736.515000", "152738.005000", "152739.495000", "152740.985000", "152742.475000", "152743.965000", "152745.455000", "152746.945000", "152748.435000", "152749.925000", "152751.415000", "152752.905000", "152754.395000", "152755.885000", "152757.375000", "152758.865000", "152800.355000", "152801.845000", "152803.335000", "152804.825000", "152806.315000", "152807.805000", "152809.295000", "152810.785000", "152812.275000", "152813.765000", "152815.255000", "152816.745000", "152818.235000", "152819.725000", "152821.215000", "152822.705000", "152824.195000", "152825.685000", "152827.175000", "152828.665000", "152830.155000", "152831.645000"],
      "ContentTime": ["152448.213000", "152448.215000", "152448.218000", "152448.220000", "152508.252000", "152508.254000", "152508.257000", "152508.259000", "152508.262000", "152508.264000", "152508.267000", "152508.269000", "152508.272000", "152508.274000", "152508.277000", "152508.282000", "152508.285000", "152508.287000", "152508.290000", "152508.292000", "152508.295000", "152508.297000", "152508.299000", "152508.302000", "152508.306000", "152528.222000", "152528.225000", "152528.227000", "152528.236000", "152528.239000", "152528.241000", "152528.244000", "152528.246000", "152528.249000", "152528.251000", "152528.253000", "152528.260000", "152528.262000", "152528.265000", "152528.267000", "152528.269000", "152528.272000", "152528.274000", "152528.277000", "152528.279000", "152548.232000", "152548.235000", "152548.237000", "152548.240000", "152548.242000", "152548.245000", "152548.247000", "152548.250000", "152548.252000", "152548.255000", "152548.262000", "152548.265000", "152548.267000", "152548.270000", "152548.272000", "152548.275000", "152548.277000", "152548.280000", "152548.282000", "152548.285000", "152608.237000", "152608.240000", "152608.242000", "152608.245000", "152608.247000", "152608.250000", "152608.252000", "152608.254000", "152608.257000", "152608.259000", "152608.262000", "152608.264000", "152608.267000", "152608.269000", "152608.272000", "152608.274000", "152608.277000", "152608.279000", "152608.282000", "152608.284000", "152608.287000", "152648.291000", "152648.294000", "152648.296000", "152648.299000", "152648.301000", "152648.304000", "152648.306000", "152648.309000", "152648.311000", "152648.314000", "152648.316000", "152648.319000", "152648.321000", "152648.324000", "152648.326000", "152648.329000", "152648.331000", "152648.334000", "152648.336000", "152648.339000", "152648.341000", "152648.343000", "152648.346000", "152648.348000", "152648.351000", "152648.353000", "152648.356000", "152648.358000", "152648.361000", "152648.363000", "152648.366000", "152648.368000", "152728.265000", "152728.268000", "152728.270000", "152728.273000", "152728.275000", "152728.278000", "152728.280000", "152728.283000", "152728.285000", "152728.288000", "152728.290000", "152728.293000", "152728.296000", "152728.298000", "152728.301000", "152728.303000", "152728.306000", "152728.308000", "152728.311000", "152728.313000", "152728.316000", "152728.318000", "152728.321000", "152728.323000", "152728.326000", "152728.328000", "152728.331000", "152808.267000", "152808.269000", "152808.272000", "152808.274000", "152808.277000", "152808.279000", "152808.282000", "152808.284000", "152808.287000", "152808.289000", "152808.292000", "152808.294000", "152808.297000", "152808.299000", "152808.302000", "152808.304000", "152808.307000", "152808.309000", "152808.312000", "152808.314000", "152808.317000", "152808.319000", "152808.322000", "152808.324000", "152808.327000", "152808.329000", "152808.331000", "152834.094000", "152834.097000", "152834.100000", "152834.102000", "152834.105000", "152834.108000", "152834.110000", "152834.113000", "152834.115000", "152834.118000", "152834.120000", "152834.123000", "152834.126000", "152834.128000", "152834.131000", "152834.133000", "152834.136000", "152834.139000"],
      "InstanceCreationTime": ["152448.213000", "152448.215000", "152448.218000", "152448.220000", "152508.252000", "152508.254000", "152508.257000", "152508.259000", "152508.262000", "152508.264000", "152508.267000", "152508.269000", "152508.272000", "152508.274000", "152508.277000", "152508.282000", "152508.285000", "152508.287000", "152508.290000", "152508.292000", "152508.295000", "152508.297000", "152508.299000", "152508.302000", "152508.306000", "152528.222000", "152528.225000", "152528.227000", "152528.236000", "152528.239000", "152528.241000", "152528.244000", "152528.246000", "152528.249000", "152528.251000", "152528.253000", "152528.260000", "152528.262000", "152528.265000", "152528.267000", "152528.269000", "152528.272000", "152528.274000", "152528.277000", "152528.279000", "152548.232000", "152548.235000", "152548.237000", "152548.240000", "152548.242000", "152548.245000", "152548.247000", "152548.250000", "152548.252000", "152548.255000", "152548.262000", "152548.265000", "152548.267000", "152548.270000", "152548.272000", "152548.275000", "152548.277000", "152548.280000", "152548.282000", "152548.285000", "152608.237000", "152608.240000", "152608.242000", "152608.245000", "152608.247000", "152608.250000", "152608.252000", "152608.254000", "152608.257000", "152608.259000", "152608.262000", "152608.264000", "152608.267000", "152608.269000", "152608.272000", "152608.274000", "152608.277000", "152608.279000", "152608.282000", "152608.284000", "152608.287000", "152648.291000", "152648.294000", "152648.296000", "152648.299000", "152648.301000", "152648.304000", "152648.306000", "152648.309000", "152648.311000", "152648.314000", "152648.316000", "152648.319000", "152648.321000", "152648.324000", "152648.326000", "152648.329000", "152648.331000", "152648.334000", "152648.336000", "152648.339000", "152648.341000", "152648.343000", "152648.346000", "152648.348000", "152648.351000", "152648.353000", "152648.356000", "152648.358000", "152648.361000", "152648.363000", "152648.366000", "152648.368000", "152728.265000", "152728.268000", "152728.270000", "152728.273000", "152728.275000", "152728.278000", "152728.280000", "152728.283000", "152728.285000", "152728.288000", "152728.290000", "152728.293000", "152728.296000", "152728.298000", "152728.301000", "152728.303000", "152728.306000", "152728.308000", "152728.311000", "152728.313000", "152728.316000", "152728.318000", "152728.321000", "152728.323000", "152728.326000", "152728.328000", "152728.331000", "152808.267000", "152808.269000", "152808.272000", "152808.274000", "152808.277000", "152808.279000", "152808.282000", "152808.284000", "152808.287000", "152808.289000", "152808.292000", "152808.294000", "152808.297000", "152808.299000", "152808.302000", "152808.304000", "152808.307000", "152808.309000", "152808.312000", "152808.314000", "152808.317000", "152808.319000", "152808.322000", "152808.324000", "152808.327000", "152808.329000", "152808.331000", "152834.094000", "152834.097000", "152834.100000", "152834.102000", "152834.105000", "152834.108000", "152834.110000", "152834.113000", "152834.115000", "152834.118000", "152834.120000", "152834.123000", "152834.126000", "152834.128000", "152834.131000", "152834.133000", "152834.136000", "152834.139000"],
      "InstanceNumber": [1, 2, 3, 4, 5, 6, 7, 8, 9, 10, 11, 12, 13, 14, 15, 16, 17, 18, 19, 20, 21, 22, 23, 24, 25, 26, 27, 28, 29, 30, 31, 32, 33, 34, 35, 36, 37, 38, 39, 40, 41, 42, 43, 44, 45, 46, 47, 48, 49, 50, 51, 52, 53, 54, 55, 56, 57, 58, 59, 60, 61, 62, 63, 64, 65, 66, 67, 68, 69, 70, 71, 72, 73, 74, 75, 76, 77, 78, 79, 80, 81, 82, 83, 84, 85, 86, 87, 88, 89, 90, 91, 92, 93, 94, 95, 96, 97, 98, 99, 100, 101, 102, 103, 104, 105, 106, 107, 108, 109, 110, 111, 112, 113, 114, 115, 116, 117, 118, 119, 120, 121, 122, 123, 124, 125, 126, 127, 128, 129, 130, 131, 132, 133, 134, 135, 136, 137, 138, 139, 140, 141, 142, 143, 144, 145, 146, 147, 148, 149, 150, 151, 152, 153, 154, 155, 156, 157, 158, 159, 160, 161, 162, 163, 164, 165, 166, 167, 168, 169, 170, 171, 172, 173, 174, 175, 176, 177, 178, 179, 180, 181, 182, 183, 184, 185, 186, 187, 188, 189, 190],
      "WindowCenter": [4852.0, 4880.0, 4846.0, 4876.0, 4878.0, 4854.0, 4852.0, 4878.0, 4882.0, 4878.0, 4878.0, 4882.0, 4880.0, 4882.0, 4852.0, 4878.0, 4882.0, 4876.0, 4880.0, 4880.0, 4880.0, 4852.0, 4828.0, 4878.0, 4904.0, 4854.0, 4854.0, 4854.0, 4878.0, 4878.0, 4878.0, 4880.0, 4856.0, 4900.0, 4904.0, 4858.0, 4830.0, 4852.0, 4852.0, 4854.0, 4902.0, 4880.0, 4858.0, 4876.0, 4854.0, 4902.0, 4876.0, 4854.0, 4876.0, 4852.0, 4880.0, 4854.0, 4878.0, 4880.0, 4856.0, 4878.0, 4854.0, 4850.0, 4880.0, 4852.0, 4850.0, 4880.0, 4856.0, 4852.0, 4880.0, 4850.0, 4880.0, 4878.0, 4854.0, 4874.0, 4878.0, 4850.0, 4854.0, 4902.0, 4882.0, 4848.0, 4826.0, 4824.0, 4878.0, 4880.0, 4854.0, 4878.0, 4880.0, 4854.0, 4880.0, 4854.0, 4874.0, 4852.0, 4852.0, 4880.0, 4880.0, 4854.0, 4882.0, 4880.0, 4878.0, 4902.0, 4882.0, 4854.0, 4878.0, 4856.0, 4854.0, 4882.0, 4852.0, 4880.0, 4860.0, 4868.0, 4884.0, 4828.0, 4828.0, 4824.0, 4830.0, 4856.0, 4878.0, 4882.0, 4882.0, 4898.0, 4876.0, 4884.0, 4828.0, 4852.0, 4824.0, 4852.0, 4854.0, 4858.0, 4904.0, 4902.0, 4880.0, 4902.0, 4880.0, 4858.0, 4878.0, 4852.0, 4854.0, 4904.0, 4854.0, 4854.0, 4882.0, 4854.0, 4876.0, 4904.0, 4882.0, 4878.0, 4880.0, 4856.0, 4852.0, 4880.0, 4856.0, 4856.0, 4878.0, 4880.0, 4878.0, 4880.0, 4856.0, 4904.0, 4904.0, 4856.0, 4876.0, 4884.0, 4854.0, 4880.0, 4854.0, 4854.0, 4880.0, 4854.0, 4882.0, 4878.0, 4878.0, 4880.0, 4878.0, 4878.0, 4854.0, 4878.0, 4880.0, 4854.0, 4880.0, 4880.0, 4878.0, 4880.0, 4856.0, 4880.0, 4882.0, 4854.0, 4878.0, 4856.0, 4858.0, 4882.0, 4854.0, 4876.0, 4880.0, 4880.0],
      "WindowWidth": [18636.0, 18676.0, 18624.0, 18680.0, 18676.0, 18628.0, 18630.0, 18660.0, 18670.0, 18666.0, 18664.0, 18670.0, 18662.0, 18672.0, 18616.0, 18658.0, 18666.0, 18660.0, 18676.0, 18664.0, 18678.0, 18624.0, 18590.0, 18666.0, 18708.0, 18628.0, 18622.0, 18624.0, 18672.0, 18668.0, 18674.0, 18666.0, 18630.0, 18712.0, 18722.0, 18626.0, 18590.0, 18624.0, 18626.0, 18626.0, 18704.0, 18672.0, 18630.0, 18666.0, 18638.0, 18710.0, 18664.0, 18626.0, 18672.0, 18628.0, 18670.0, 18630.0, 18662.0, 18670.0, 18632.0, 18670.0, 18624.0, 18626.0, 18682.0, 18630.0, 18624.0, 18678.0, 18636.0, 18628.0, 18670.0, 18620.0, 18662.0, 18668.0, 18630.0, 18674.0, 18666.0, 18622.0, 18636.0, 18722.0, 18678.0, 18620.0, 18590.0, 18592.0, 18670.0, 18672.0, 18632.0, 18672.0, 18668.0, 18630.0, 18674.0, 18624.0, 18662.0, 18628.0, 18632.0, 18664.0, 18664.0, 18628.0, 18662.0, 18658.0, 18678.0, 18728.0, 18670.0, 18628.0, 18664.0, 18626.0, 18628.0, 18676.0, 18626.0, 18672.0, 18680.0, 18690.0, 18660.0, 18578.0, 18582.0, 18582.0, 18590.0, 18632.0, 18666.0, 18680.0, 18678.0, 18714.0, 18694.0, 18676.0, 18590.0, 18618.0, 18586.0, 18622.0, 18628.0, 18628.0, 18708.0, 18712.0, 18670.0, 18704.0, 18668.0, 18628.0, 18658.0, 18620.0, 18626.0, 18706.0, 18632.0, 18630.0, 18670.0, 18632.0, 18658.0, 18712.0, 18664.0, 18670.0, 18674.0, 18632.0, 18626.0, 18672.0, 18628.0, 18636.0, 18674.0, 18662.0, 18662.0, 18668.0, 18624.0, 18710.0, 18714.0, 18630.0, 18668.0, 18670.0, 18632.0, 18672.0, 18626.0, 18624.0, 18670.0, 18630.0, 18676.0, 18662.0, 18670.0, 18670.0, 18660.0, 18670.0, 18628.0, 18666.0, 18670.0, 18628.0, 18678.0, 18668.0, 18662.0, 18674.0, 18628.0, 18670.0, 18680.0, 18628.0, 18666.0, 18628.0, 18628.0, 18674.0, 18630.0, 18672.0, 18664.0, 18674.0]
    },
    "slices": {}
  }
}