{
  "AcquisitionMatrixPE": 104,
  "AcquisitionNumber": 1,
  "AcquisitionTime": "15:42:57.992500",
  "BandwidthPerPixelPhaseEncode": 17.17,
  "BaseResolution": 104,
  "BodyPartExamined": "BRAIN",
  "CoilString": "HC1-7;NC1_2",
  "ConsistencyInfo": "N4_VE11C_LATEST_20160120",
  "ConversionSoftware": "dcm2niix",
  "ConversionSoftwareVersion": "v1.0.20190902",
  "DerivedVendorReportedEchoSpacing": 0.000560011,
  "DeviceSerialNumber": "167006",
  "DwellTime": 2.1e-06,
  "EchoTime": 0.037,
  "EchoTrainLength": 104,
  "EffectiveEchoSpacing": 0.000560011,
  "FlipAngle": 52,
  "ImageComments": "Unaliased_MB4_PE3_LB",
  "ImageOrientationPatientDICOM": [0.999026, -0.0400557, 0.0185041, 0.0439678, 0.938905, -0.341356],
  "ImageType": [
    "ORIGINAL",
    "PRIMARY",
    "M",
    "MB",
    "ND",
    "MOSAIC"
],
  "ImagingFrequency": 123.259,
  "InPlanePhaseEncodingDirectionDICOM": "COL",
  "InstitutionAddress": "Chemin_Queen-Mary_4565_Montreal_District_CA_H3W_1W5",
  "InstitutionName": "IUGM",
  "InstitutionalDepartmentName": "Department",
  "MRAcquisitionType": "2D",
  "MagneticFieldStrength": 3,
  "Manufacturer": "Siemens",
  "ManufacturersModelName": "Prisma_fit",
  "Modality": "MR",
  "MultibandAccelerationFactor": 4,
  "PartialFourier": 1,
  "PatientPosition": "HFS",
  "PercentPhaseFOV": 100,
  "PhaseEncodingDirection": "j",
  "PhaseEncodingSteps": 104,
  "PhaseResolution": 1,
  "PixelBandwidth": 2290,
  "ProcedureStepDescription": "memory_things",
  "ProtocolName": "func_task-things_run-5",
  "PulseSequenceDetails": "%CustomerSeq%_cmrr_mbep2d_bold",
  "ReceiveCoilActiveElements": "HC1-7;NC1,2",
  "ReceiveCoilName": "HeadNeck_64",
  "ReconMatrixPE": 104,
  "RepetitionTime": 1.49,
  "SAR": 0.0411304,
  "ScanOptions": "FS",
  "ScanningSequence": "EP",
  "SequenceName": "epfid2d1_104",
  "SequenceVariant": "SK_SS",
  "SeriesDescription": "func_task-things_run-5",
  "SeriesNumber": 22,
  "ShimSetting": [625, -7248, -8821, 561, 6, -190, -52, -19],
  "SliceThickness": 2,
  "SliceTiming": [0, 0.785, 0.0975, 0.8825, 0.1975, 0.98, 0.295, 1.0775, 0.3925, 1.1775, 0.49, 1.275, 0.5875, 1.3725, 0.6875, 0, 0.785, 0.0975, 0.8825, 0.1975, 0.98, 0.295, 1.0775, 0.3925, 1.1775, 0.49, 1.275, 0.5875, 1.3725, 0.6875, 0, 0.785, 0.0975, 0.8825, 0.1975, 0.98, 0.295, 1.0775, 0.3925, 1.1775, 0.49, 1.275, 0.5875, 1.3725, 0.6875, 0, 0.785, 0.0975, 0.8825, 0.1975, 0.98, 0.295, 1.0775, 0.3925, 1.1775, 0.49, 1.275, 0.5875, 1.3725, 0.6875],
  "SoftwareVersions": "syngo_MR_E11",
  "SpacingBetweenSlices": 2,
  "StationName": "MRC35049",
  "TaskName": "things",
  "TotalReadoutTime": 0.0576811,
  "TxRefAmp": 242.368,
  "WipMemBlock": "0a5b1585-859e-4ffa-8c24-5fce56fd9f42||Sequence: R016 ve11c/master r/e634e98; Dec 19 2017 11:00:25 by eja",
  "dcmmeta_affine": [
    [-1.9980522394180298, 0.08793563395738602, 0.007400795351713896, 102.94126892089844],
    [0.08011139929294586, 1.8778107166290283, -0.6836733222007751, -68.13802337646484],
    [0.037008270621299744, 0.6827110648155212, 1.8795042037963867, -67.21177673339844],
    [0.0, 0.0, 0.0, 1.0]
],
  "dcmmeta_reorient_transform": [
    [0.0, -1.0, 0.0, 103.0],
    [1.0, 0.0, 0.0, 0.0],
    [0.0, 0.0, 1.0, 0.0],
    [0.0, 0.0, 0.0, 1.0]
],
  "dcmmeta_shape": [104, 104, 60, 190],
  "dcmmeta_slice_dim": 2,
  "dcmmeta_version": 0.6,
  "global": {
    "const": {
      "AcquisitionMatrix": [104, 0, 0, 104],
      "AngioFlag": "N",
      "BitsAllocated": 16,
      "BitsStored": 16,
      "BodyPartExamined": "BRAIN",
      "Columns": 832,
      "EchoNumbers": 1,
      "EchoTime": 37.0,
      "EchoTrainLength": 104,
      "FlipAngle": 52.0,
      "HighBit": 15,
      "ImageOrientationPatient": [0.9990260947641, -0.0400556983049, 0.01850413504314, 0.04396781820737, 0.93890534212711, -0.3413555177337],
      "ImagePositionPatient": [-871.29820972403, -779.63902144264, 238.14326279786],
      "ImageType": [
        "ORIGINAL",
        "PRIMARY",
        "M",
        "MB",
        "ND",
        "MOSAIC"
],
      "ImagedNucleus": "1H",
      "ImagingFrequency": 123.258881,
      "InPlanePhaseEncodingDirection": "COL",
      "MRAcquisitionType": "2D",
      "MagneticFieldStrength": 3.0,
      "Manufacturer": "SIEMENS",
      "ManufacturerModelName": "Prisma_fit",
      "Modality": "MR",
      "NumberOfAverages": 1.0,
      "NumberOfPhaseEncodingSteps": 104,
      "PercentPhaseFieldOfView": 100.0,
      "PercentSampling": 100.0,
      "PerformedProcedureStepStartTime": "150056.657000",
      "PhotometricInterpretation": "MONOCHROME2",
      "PixelBandwidth": 2290.0,
      "PixelRepresentation": 0,
      "PixelSpacing": [2.0, 2.0],
      "ProtocolName": "func_task-things_run-5",
      "RepetitionTime": 1490.0,
      "Rows": 832,
      "SAR": 0.04113042020062,
      "SamplesPerPixel": 1,
      "ScanOptions": "FS",
      "ScanningSequence": "EP",
      "SequenceName": "epfid2d1_104",
      "SequenceVariant": [
        "SK",
        "SS"
],
      "SeriesDescription": "func_task-things_run-5",
      "SeriesNumber": 22,
      "SeriesTime": "154428.149000",
      "SliceLocation": -39.489415294022,
      "SliceThickness": 2.0,
      "SmallestImagePixelValue": 0,
      "SoftwareVersions": "syngo MR E11",
      "SpacingBetweenSlices": 2.0000000195537,
      "SpecificCharacterSet": "ISO_IR 100",
      "StudyID": "1",
      "StudyTime": "150056.560000",
      "TransmitCoilName": "Body",
      "VariableFlipAngleFlag": "N",
      "WindowCenterWidthExplanation": "Algo1",
      "dBdt": 0.0},
    "slices": {}
  },
  "time": {
    "samples": {
      "AcquisitionNumber": [1, 2, 3, 4, 5, 6, 7, 8, 9, 10, 11, 12, 13, 14, 15, 16, 17, 18, 19, 20, 21, 22, 23, 24, 25, 26, 27, 28, 29, 30, 31, 32, 33, 34, 35, 36, 37, 38, 39, 40, 41, 42, 43, 44, 45, 46, 47, 48, 49, 50, 51, 52, 53, 54, 55, 56, 57, 58, 59, 60, 61, 62, 63, 64, 65, 66, 67, 68, 69, 70, 71, 72, 73, 74, 75, 76, 77, 78, 79, 80, 81, 82, 83, 84, 85, 86, 87, 88, 89, 90, 91, 92, 93, 94, 95, 96, 97, 98, 99, 100, 101, 102, 103, 104, 105, 106, 107, 108, 109, 110, 111, 112, 113, 114, 115, 116, 117, 118, 119, 120, 121, 122, 123, 124, 125, 126, 127, 128, 129, 130, 131, 132, 133, 134, 135, 136, 137, 138, 139, 140, 141, 142, 143, 144, 145, 146, 147, 148, 149, 150, 151, 152, 153, 154, 155, 156, 157, 158, 159, 160, 161, 162, 163, 164, 165, 166, 167, 168, 169, 170, 171, 172, 173, 174, 175, 176, 177, 178, 179, 180, 181, 182, 183, 184, 185, 186, 187, 188, 189, 190],
      "AcquisitionTime": ["154257.992500", "154259.482500", "154300.972500", "154302.462500", "154303.952500", "154305.442500", "154306.932500", "154308.422500", "154309.912500", "154311.402500", "154312.892500", "154314.382500", "154315.872500", "154317.362500", "154318.852500", "154320.342500", "154321.832500", "154323.322500", "154324.812500", "154326.302500", "154327.792500", "154329.282500", "154330.772500", "154332.262500", "154333.752500", "154335.242500", "154336.732500", "154338.222500", "154339.712500", "154341.202500", "154342.692500", "154344.182500", "154345.672500", "154347.162500", "154348.652500", "154350.142500", "154351.632500", "154353.122500", "154354.612500", "154356.102500", "154357.592500", "154359.082500", "154400.572500", "154402.062500", "154403.552500", "154405.042500", "154406.532500", "154408.022500", "154409.512500", "154411.002500", "154412.492500", "154413.982500", "154415.472500", "154416.962500", "154418.452500", "154419.942500", "154421.432500", "154422.922500", "154424.412500", "154425.902500", "154427.392500", "154428.882500", "154430.372500", "154431.862500", "154433.352500", "154434.842500", "154436.332500", "154437.822500", "154439.312500", "154440.802500", "154442.292500", "154443.782500", "154445.272500", "154446.762500", "154448.252500", "154449.742500", "154451.232500", "154452.722500", "154454.212500", "154455.702500", "154457.192500", "154458.682500", "154500.172500", "154501.662500", "154503.152500", "154504.642500", "154506.132500", "154507.622500", "154509.112500", "154510.602500", "154512.092500", "154513.582500", "154515.072500", "154516.562500", "154518.052500", "154519.542500", "154521.032500", "154522.522500", "154524.012500", "154525.502500", "154526.992500", "154528.482500", "154529.972500", "154531.462500", "154532.952500", "154534.442500", "154535.932500", "154537.422500", "154538.912500", "154540.402500", "154541.892500", "154543.382500", "154544.872500", "154546.362500", "154547.852500", "154549.342500", "154550.832500", "154552.322500", "154553.812500", "154555.302500", "154556.792500", "154558.282500", "154559.772500", "154601.262500", "154602.752500", "154604.242500", "154605.732500", "154607.222500", "154608.712500", "154610.202500", "154611.692500", "154613.182500", "154614.672500", "154616.162500", "154617.652500", "154619.142500", "154620.632500", "154622.122500", "154623.612500", "154625.102500", "154626.592500", "154628.082500", "154629.572500", "154631.062500", "154632.552500", "154634.042500", "154635.532500", "154637.022500", "154638.512500", "154640.002500", "154641.492500", "154642.982500", "154644.472500", "154645.962500", "154647.452500", "154648.942500", "154650.432500", "154651.922500", "154653.412500", "154654.902500", "154656.392500", "154657.882500", "154659.372500", "154700.862500", "154702.352500", "154703.842500", "154705.332500", "154706.822500", "154708.312500", "154709.802500", "154711.292500", "154712.782500", "154714.272500", "154715.762500", "154717.252500", "154718.742500", "154720.232500", "154721.722500", "154723.212500", "154724.702500", "154726.192500", "154727.682500", "154729.172500", "154730.662500", "154732.152500", "154733.642500", "154735.132500", "154736.622500", "154738.112500", "154739.602500"],
      "ContentTime": ["154428.153000", "154428.156000", "154428.160000", "154428.163000", "154428.166000", "154428.169000", "154428.173000", "154428.176000", "154428.179000", "154428.183000", "154428.186000", "154428.189000", "154428.193000", "154428.196000", "154428.199000", "154428.203000", "154428.206000", "154428.209000", "154428.212000", "154428.216000", "154428.219000", "154428.229000", "154428.232000", "154428.236000", "154428.239000", "154428.243000", "154428.246000", "154428.249000", "154428.253000", "154428.256000", "154428.259000", "154428.263000", "154428.266000", "154428.269000", "154428.273000", "154428.276000", "154428.289000", "154428.292000", "154448.119000", "154448.123000", "154448.126000", "154448.129000", "154448.133000", "154448.142000", "154448.146000", "154448.149000", "154448.152000", "154448.156000", "154448.159000", "154448.162000", "154448.166000", "154448.169000", "154448.172000", "154448.176000", "154448.179000", "154448.182000", "154448.185000", "154448.189000", "154448.192000", "154508.119000", "154508.123000", "154508.126000", "154508.129000", "154508.133000", "154508.136000", "154508.139000", "154508.143000", "154508.146000", "154508.149000", "154508.152000", "154508.156000", "154508.159000", "154508.162000", "154508.166000", "154508.169000", "154508.172000", "154508.176000", "154508.179000", "154508.182000", "154528.119000", "154528.123000", "154528.126000", "154528.129000", "154528.133000", "154528.136000", "154528.139000", "154528.142000", "154528.146000", "154528.149000", "154528.152000", "154528.156000", "154528.159000", "154528.162000", "154528.165000", "154528.169000", "154528.172000", "154528.175000", "154528.179000", "154528.182000", "154608.120000", "154608.124000", "154608.127000", "154608.130000", "154608.134000", "154608.137000", "154608.140000", "154608.144000", "154608.147000", "154608.150000", "154608.154000", "154608.157000", "154608.160000", "154608.163000", "154608.167000", "154608.170000", "154608.174000", "154608.177000", "154608.180000", "154608.183000", "154608.187000", "154608.190000", "154608.193000", "154608.197000", "154608.200000", "154608.203000", "154608.206000", "154608.210000", "154648.120000", "154648.124000", "154648.127000", "154648.130000", "154648.134000", "154648.137000", "154648.161000", "154648.164000", "154648.167000", "154648.171000", "154648.174000", "154648.177000", "154648.180000", "154648.184000", "154648.187000", "154648.191000", "154648.194000", "154648.197000", "154648.200000", "154648.204000", "154648.207000", "154648.210000", "154648.214000", "154648.217000", "154648.220000", "154648.224000", "154648.227000", "154728.119000", "154728.123000", "154728.126000", "154728.129000", "154728.133000", "154728.136000", "154728.139000", "154728.143000", "154728.146000", "154728.149000", "154728.153000", "154728.156000", "154728.159000", "154728.163000", "154728.166000", "154728.169000", "154728.173000", "154728.176000", "154728.179000", "154728.183000", "154728.186000", "154728.189000", "154728.193000", "154728.196000", "154728.199000", "154728.203000", "154728.206000", "154741.333000", "154741.336000", "154741.340000", "154741.343000", "154741.346000", "154741.350000", "154741.353000", "154741.356000", "154741.360000"],
      "InstanceCreationTime": ["154428.153000", "154428.156000", "154428.160000", "154428.163000", "154428.166000", "154428.169000", "154428.173000", "154428.176000", "154428.179000", "154428.183000", "154428.186000", "154428.189000", "154428.193000", "154428.196000", "154428.199000", "154428.203000", "154428.206000", "154428.209000", "154428.212000", "154428.216000", "154428.219000", "154428.229000", "154428.232000", "154428.236000", "154428.239000", "154428.243000", "154428.246000", "154428.249000", "154428.253000", "154428.256000", "154428.259000", "154428.263000", "154428.266000", "154428.269000", "154428.273000", "154428.276000", "154428.289000", "154428.292000", "154448.119000", "154448.123000", "154448.126000", "154448.129000", "154448.133000", "154448.142000", "154448.146000", "154448.149000", "154448.152000", "154448.156000", "154448.159000", "154448.162000", "154448.166000", "154448.169000", "154448.172000", "154448.176000", "154448.179000", "154448.182000", "154448.185000", "154448.189000", "154448.192000", "154508.119000", "154508.123000", "154508.126000", "154508.129000", "154508.133000", "154508.136000", "154508.139000", "154508.143000", "154508.146000", "154508.149000", "154508.152000", "154508.156000", "154508.159000", "154508.162000", "154508.166000", "154508.169000", "154508.172000", "154508.176000", "154508.179000", "154508.182000", "154528.119000", "154528.123000", "154528.126000", "154528.129000", "154528.133000", "154528.136000", "154528.139000", "154528.142000", "154528.146000", "154528.149000", "154528.152000", "154528.156000", "154528.159000", "154528.162000", "154528.165000", "154528.169000", "154528.172000", "154528.175000", "154528.179000", "154528.182000", "154608.120000", "154608.124000", "154608.127000", "154608.130000", "154608.134000", "154608.137000", "154608.140000", "154608.144000", "154608.147000", "154608.150000", "154608.154000", "154608.157000", "154608.160000", "154608.163000", "154608.167000", "154608.170000", "154608.174000", "154608.177000", "154608.180000", "154608.183000", "154608.187000", "154608.190000", "154608.193000", "154608.197000", "154608.200000", "154608.203000", "154608.206000", "154608.210000", "154648.120000", "154648.124000", "154648.127000", "154648.130000", "154648.134000", "154648.137000", "154648.161000", "154648.164000", "154648.167000", "154648.171000", "154648.174000", "154648.177000", "154648.180000", "154648.184000", "154648.187000", "154648.191000", "154648.194000", "154648.197000", "154648.200000", "154648.204000", "154648.207000", "154648.210000", "154648.214000", "154648.217000", "154648.220000", "154648.224000", "154648.227000", "154728.119000", "154728.123000", "154728.126000", "154728.129000", "154728.133000", "154728.136000", "154728.139000", "154728.143000", "154728.146000", "154728.149000", "154728.153000", "154728.156000", "154728.159000", "154728.163000", "154728.166000", "154728.169000", "154728.173000", "154728.176000", "154728.179000", "154728.183000", "154728.186000", "154728.189000", "154728.193000", "154728.196000", "154728.199000", "154728.203000", "154728.206000", "154741.333000", "154741.336000", "154741.340000", "154741.343000", "154741.346000", "154741.350000", "154741.353000", "154741.356000", "154741.360000"],
      "InstanceNumber": [1, 2, 3, 4, 5, 6, 7, 8, 9, 10, 11, 12, 13, 14, 15, 16, 17, 18, 19, 20, 21, 22, 23, 24, 25, 26, 27, 28, 29, 30, 31, 32, 33, 34, 35, 36, 37, 38, 39, 40, 41, 42, 43, 44, 45, 46, 47, 48, 49, 50, 51, 52, 53, 54, 55, 56, 57, 58, 59, 60, 61, 62, 63, 64, 65, 66, 67, 68, 69, 70, 71, 72, 73, 74, 75, 76, 77, 78, 79, 80, 81, 82, 83, 84, 85, 86, 87, 88, 89, 90, 91, 92, 93, 94, 95, 96, 97, 98, 99, 100, 101, 102, 103, 104, 105, 106, 107, 108, 109, 110, 111, 112, 113, 114, 115, 116, 117, 118, 119, 120, 121, 122, 123, 124, 125, 126, 127, 128, 129, 130, 131, 132, 133, 134, 135, 136, 137, 138, 139, 140, 141, 142, 143, 144, 145, 146, 147, 148, 149, 150, 151, 152, 153, 154, 155, 156, 157, 158, 159, 160, 161, 162, 163, 164, 165, 166, 167, 168, 169, 170, 171, 172, 173, 174, 175, 176, 177, 178, 179, 180, 181, 182, 183, 184, 185, 186, 187, 188, 189, 190],
      "LargestImagePixelValue": [46457, 44722, 44066, 43446, 43397, 42408, 42988, 42613, 42688, 43370, 43179, 42287, 42451, 42361, 43038, 43532, 41937, 41661, 42064, 42991, 42772, 42617, 42717, 42715, 42693, 42710, 42744, 41976, 42103, 42917, 42472, 42253, 42353, 42029, 42715, 42975, 42603, 42529, 43013, 42164, 42542, 41972, 42536, 42419, 42159, 42435, 42292, 43063, 42508, 42838, 42354, 42452, 42785, 42313, 41877, 41811, 42117, 42271, 42137, 42425, 42505, 42290, 42550, 42718, 42592, 42748, 42100, 42183, 42244, 42162, 43008, 42465, 42580, 42381, 42196, 42401, 42483, 41862, 41282, 41657, 41358, 41922, 42401, 41925, 41802, 41477, 41849, 41672, 41831, 41759, 42064, 41643, 41783, 42031, 41830, 41887, 41993, 41937, 41712, 41623, 41672, 42116, 41942, 41528, 41627, 41634, 42133, 41887, 42386, 41883, 42077, 41958, 41640, 42209, 41585, 42149, 42212, 41899, 42593, 42792, 42080, 42041, 42150, 41618, 41889, 41086, 41446, 42128, 42192, 41711, 41862, 41558, 41766, 41228, 41588, 41533, 41698, 41677, 41713, 42401, 41697, 41233, 41615, 41567, 41409, 41011, 41522, 41190, 41296, 41435, 41537, 41630, 41799, 41462, 40955, 41211, 40470, 40867, 40896, 40802, 41003, 41081, 40871, 41022, 40431, 41064, 41048, 40930, 41543, 41026, 40964, 40868, 41345, 41312, 40939, 41285, 41345, 40768, 41258, 41307, 41390, 41123, 41086, 41363, 41058, 41100, 41050, 41122, 41084, 40918],
      "WindowCenter": [10468.0, 10393.0, 10346.0, 10332.0, 10331.0, 10324.0, 10338.0, 10340.0, 10336.0, 10356.0, 10345.0, 10325.0, 10302.0, 10296.0, 10315.0, 10351.0, 10345.0, 10317.0, 10297.0, 10297.0, 10297.0, 10292.0, 10277.0, 10267.0, 10267.0, 10282.0, 10313.0, 10336.0, 10339.0, 10334.0, 10332.0, 10336.0, 10352.0, 10347.0, 10327.0, 10312.0, 10303.0, 10308.0, 10322.0, 10334.0, 10328.0, 10309.0, 10310.0, 10318.0, 10334.0, 10344.0, 10350.0, 10358.0, 10361.0, 10351.0, 10361.0, 10379.0, 10372.0, 10359.0, 10337.0, 10317.0, 10312.0, 10305.0, 10311.0, 10324.0, 10327.0, 10338.0, 10323.0, 10311.0, 10300.0, 10307.0, 10319.0, 10312.0, 10314.0, 10306.0, 10299.0, 10309.0, 10302.0, 10297.0, 10296.0, 10308.0, 10312.0, 10323.0, 10355.0, 10365.0, 10360.0, 10336.0, 10329.0, 10308.0, 10304.0, 10289.0, 10295.0, 10290.0, 10282.0, 10273.0, 10270.0, 10263.0, 10278.0, 10279.0, 10278.0, 10287.0, 10301.0, 10304.0, 10314.0, 10310.0, 10305.0, 10301.0, 10294.0, 10287.0, 10285.0, 10300.0, 10345.0, 10352.0, 10314.0, 10288.0, 10285.0, 10277.0, 10263.0, 10259.0, 10247.0, 10264.0, 10299.0, 10320.0, 10312.0, 10298.0, 10280.0, 10271.0, 10276.0, 10286.0, 10295.0, 10291.0, 10320.0, 10344.0, 10347.0, 10326.0, 10317.0, 10309.0, 10314.0, 10322.0, 10339.0, 10344.0, 10336.0, 10310.0, 10322.0, 10379.0, 10408.0, 10404.0, 10387.0, 10355.0, 10322.0, 10298.0, 10292.0, 10292.0, 10309.0, 10320.0, 10318.0, 10303.0, 10309.0, 10317.0, 10327.0, 10342.0, 10348.0, 10353.0, 10339.0, 10331.0, 10338.0, 10357.0, 10362.0, 10332.0, 10317.0, 10306.0, 10312.0, 10315.0, 10310.0, 10298.0, 10295.0, 10296.0, 10302.0, 10302.0, 10301.0, 10302.0, 10324.0, 10322.0, 10318.0, 10310.0, 10306.0, 10299.0, 10298.0, 10292.0, 10279.0, 10284.0, 10294.0, 10310.0, 10295.0, 10279.0],
      "WindowWidth": [22664.0, 22450.0, 22319.0, 22270.0, 22264.0, 22245.0, 22269.0, 22273.0, 22263.0, 22307.0, 22286.0, 22239.0, 22188.0, 22171.0, 22210.0, 22302.0, 22294.0, 22228.0, 22178.0, 22171.0, 22172.0, 22164.0, 22131.0, 22103.0, 22106.0, 22144.0, 22215.0, 22273.0, 22280.0, 22263.0, 22256.0, 22266.0, 22301.0, 22288.0, 22241.0, 22208.0, 22190.0, 22201.0, 22231.0, 22262.0, 22249.0, 22209.0, 22208.0, 22225.0, 22262.0, 22284.0, 22299.0, 22315.0, 22324.0, 22302.0, 22327.0, 22369.0, 22354.0, 22326.0, 22277.0, 22227.0, 22213.0, 22197.0, 22212.0, 22240.0, 22247.0, 22274.0, 22239.0, 22211.0, 22186.0, 22201.0, 22228.0, 22213.0, 22220.0, 22203.0, 22184.0, 22205.0, 22191.0, 22180.0, 22178.0, 22204.0, 22215.0, 22242.0, 22314.0, 22340.0, 22329.0, 22277.0, 22257.0, 22209.0, 22198.0, 22166.0, 22176.0, 22169.0, 22149.0, 22131.0, 22123.0, 22108.0, 22141.0, 22143.0, 22142.0, 22162.0, 22191.0, 22199.0, 22222.0, 22217.0, 22205.0, 22193.0, 22177.0, 22161.0, 22152.0, 22185.0, 22290.0, 22313.0, 22227.0, 22166.0, 22157.0, 22140.0, 22111.0, 22099.0, 22068.0, 22101.0, 22183.0, 22232.0, 22217.0, 22185.0, 22145.0, 22124.0, 22133.0, 22157.0, 22181.0, 22173.0, 22236.0, 22288.0, 22297.0, 22254.0, 22230.0, 22213.0, 22218.0, 22238.0, 22276.0, 22289.0, 22272.0, 22215.0, 22240.0, 22366.0, 22438.0, 22430.0, 22388.0, 22312.0, 22239.0, 22188.0, 22170.0, 22171.0, 22210.0, 22239.0, 22232.0, 22198.0, 22210.0, 22229.0, 22255.0, 22287.0, 22306.0, 22312.0, 22281.0, 22265.0, 22281.0, 22324.0, 22334.0, 22269.0, 22236.0, 22208.0, 22220.0, 22228.0, 22213.0, 22191.0, 22181.0, 22186.0, 22197.0, 22199.0, 22199.0, 22199.0, 22248.0, 22246.0, 22232.0, 22215.0, 22203.0, 22188.0, 22186.0, 22174.0, 22150.0, 22158.0, 22181.0, 22216.0, 22184.0, 22150.0]
    },
    "slices": {}
  }
}