{
  "AcquisitionMatrixPE": 104,
  "AcquisitionNumber": 1,
  "AcquisitionTime": "15:17:39.977500",
  "BandwidthPerPixelPhaseEncode": 17.17,
  "BaseResolution": 104,
  "BodyPartExamined": "BRAIN",
  "CoilString": "HC1-7;NC1_2",
  "ConsistencyInfo": "N4_VE11C_LATEST_20160120",
  "ConversionSoftware": "dcm2niix",
  "ConversionSoftwareVersion": "v1.0.20190902",
  "DerivedVendorReportedEchoSpacing": 0.000560011,
  "DeviceSerialNumber": "167006",
  "DwellTime": 2.1e-06,
  "EchoTime": 0.037,
  "EchoTrainLength": 104,
  "EffectiveEchoSpacing": 0.000560011,
  "FlipAngle": 52,
  "ImageComments": "Unaliased_MB4_PE3_LB",
  "ImageOrientationPatientDICOM": [0.999026, -0.0400557, 0.0185041, 0.0439678, 0.938905, -0.341356],
  "ImageType": [
    "ORIGINAL",
    "PRIMARY",
    "P",
    "MB",
    "ND",
    "MOSAIC"
],
  "ImagingFrequency": 123.259,
  "InPlanePhaseEncodingDirectionDICOM": "COL",
  "InstitutionAddress": "Chemin_Queen-Mary_4565_Montreal_District_CA_H3W_1W5",
  "InstitutionName": "IUGM",
  "InstitutionalDepartmentName": "Department",
  "MRAcquisitionType": "2D",
  "MagneticFieldStrength": 3,
  "Manufacturer": "Siemens",
  "ManufacturersModelName": "Prisma_fit",
  "Modality": "MR",
  "MultibandAccelerationFactor": 4,
  "PartialFourier": 1,
  "PatientPosition": "HFS",
  "PercentPhaseFOV": 100,
  "PhaseEncodingDirection": "j",
  "PhaseEncodingSteps": 104,
  "PhaseResolution": 1,
  "PixelBandwidth": 2290,
  "ProcedureStepDescription": "memory_things",
  "ProtocolName": "func_task-things_run-1",
  "PulseSequenceDetails": "%CustomerSeq%_cmrr_mbep2d_bold",
  "ReceiveCoilActiveElements": "HC1-7;NC1,2",
  "ReceiveCoilName": "HeadNeck_64",
  "ReconMatrixPE": 104,
  "RepetitionTime": 1.49,
  "SAR": 0.0411304,
  "ScanOptions": "FS",
  "ScanningSequence": "EP",
  "SequenceName": "epfid2d1_104",
  "SequenceVariant": "SK_SS",
  "SeriesDescription": "func_task-things_run-1",
  "SeriesNumber": 11,
  "ShimSetting": [625, -7248, -8821, 561, 6, -190, -52, -19],
  "SliceThickness": 2,
  "SliceTiming": [0, 0.785, 0.0975, 0.8825, 0.195, 0.98, 0.295, 1.0775, 0.3925, 1.175, 0.49, 1.275, 0.5875, 1.3725, 0.685, 0, 0.785, 0.0975, 0.8825, 0.195, 0.98, 0.295, 1.0775, 0.3925, 1.175, 0.49, 1.275, 0.5875, 1.3725, 0.685, 0, 0.785, 0.0975, 0.8825, 0.195, 0.98, 0.295, 1.0775, 0.3925, 1.175, 0.49, 1.275, 0.5875, 1.3725, 0.685, 0, 0.785, 0.0975, 0.8825, 0.195, 0.98, 0.295, 1.0775, 0.3925, 1.175, 0.49, 1.275, 0.5875, 1.3725, 0.685],
  "SoftwareVersions": "syngo_MR_E11",
  "SpacingBetweenSlices": 2,
  "StationName": "MRC35049",
  "TaskName": "things",
  "TotalReadoutTime": 0.0576811,
  "TxRefAmp": 242.368,
  "WipMemBlock": "2baa5917-ad88-4db0-b56d-c3aa049cea42||Sequence: R016 ve11c/master r/e634e98; Dec 19 2017 11:00:25 by eja",
  "dcmmeta_affine": [
    [-1.9980522394180298, 0.08793563395738602, 0.007400795351713896, 102.94126892089844],
    [0.08011139929294586, 1.8778107166290283, -0.6836733222007751, -68.13802337646484],
    [0.037008270621299744, 0.6827110648155212, 1.8795042037963867, -67.21177673339844],
    [0.0, 0.0, 0.0, 1.0]
],
  "dcmmeta_reorient_transform": [
    [0.0, -1.0, 0.0, 103.0],
    [1.0, 0.0, 0.0, 0.0],
    [0.0, 0.0, 1.0, 0.0],
    [0.0, 0.0, 0.0, 1.0]
],
  "dcmmeta_shape": [104, 104, 60, 190],
  "dcmmeta_slice_dim": 2,
  "dcmmeta_version": 0.6,
  "global": {
    "const": {
      "AcquisitionMatrix": [104, 0, 0, 104],
      "AngioFlag": "N",
      "BitsAllocated": 16,
      "BitsStored": 16,
      "BodyPartExamined": "BRAIN",
      "Columns": 832,
      "EchoNumbers": 1,
      "EchoTime": 37.0,
      "EchoTrainLength": 104,
      "FlipAngle": 52.0,
      "HighBit": 15,
      "ImageOrientationPatient": [0.9990260947641, -0.0400556983049, 0.01850413504314, 0.04396781820737, 0.93890534212711, -0.3413555177337],
      "ImagePositionPatient": [-871.29820972403, -779.63902144264, 238.14326279786],
      "ImageType": [
        "ORIGINAL",
        "PRIMARY",
        "P",
        "MB",
        "ND",
        "MOSAIC"
],
      "ImagedNucleus": "1H",
      "ImagingFrequency": 123.258871,
      "InPlanePhaseEncodingDirection": "COL",
      "LargestImagePixelValue": 4095,
      "MRAcquisitionType": "2D",
      "MagneticFieldStrength": 3.0,
      "Manufacturer": "SIEMENS",
      "ManufacturerModelName": "Prisma_fit",
      "Modality": "MR",
      "NumberOfAverages": 1.0,
      "NumberOfPhaseEncodingSteps": 104,
      "PercentPhaseFieldOfView": 100.0,
      "PercentSampling": 100.0,
      "PerformedProcedureStepStartTime": "150056.657000",
      "PhotometricInterpretation": "MONOCHROME2",
      "PixelBandwidth": 2290.0,
      "PixelRepresentation": 0,
      "PixelSpacing": [2.0, 2.0],
      "ProtocolName": "func_task-things_run-1",
      "RepetitionTime": 1490.0,
      "RescaleIntercept": -4096.0,
      "RescaleSlope": 2.0,
      "RescaleType": "US",
      "Rows": 832,
      "SAR": 0.04113042020062,
      "SamplesPerPixel": 1,
      "ScanOptions": "FS",
      "ScanningSequence": "EP",
      "SequenceName": "epfid2d1_104",
      "SequenceVariant": [
        "SK",
        "SS"
],
      "SeriesDescription": "func_task-things_run-1",
      "SeriesNumber": 11,
      "SeriesTime": "151859.785000",
      "SliceLocation": -39.489415294022,
      "SliceThickness": 2.0,
      "SmallestImagePixelValue": 0,
      "SoftwareVersions": "syngo MR E11",
      "SpacingBetweenSlices": 2.0000000195537,
      "SpecificCharacterSet": "ISO_IR 100",
      "StudyID": "1",
      "StudyTime": "150056.560000",
      "TransmitCoilName": "Body",
      "VariableFlipAngleFlag": "N",
      "WindowCenterWidthExplanation": "Algo1",
      "dBdt": 0.0},
    "slices": {}
  },
  "time": {
    "samples": {
      "AcquisitionNumber": [1, 2, 3, 4, 5, 6, 7, 8, 9, 10, 11, 12, 13, 14, 15, 16, 17, 18, 19, 20, 21, 22, 23, 24, 25, 26, 27, 28, 29, 30, 31, 32, 33, 34, 35, 36, 37, 38, 39, 40, 41, 42, 43, 44, 45, 46, 47, 48, 49, 50, 51, 52, 53, 54, 55, 56, 57, 58, 59, 60, 61, 62, 63, 64, 65, 66, 67, 68, 69, 70, 71, 72, 73, 74, 75, 76, 77, 78, 79, 80, 81, 82, 83, 84, 85, 86, 87, 88, 89, 90, 91, 92, 93, 94, 95, 96, 97, 98, 99, 100, 101, 102, 103, 104, 105, 106, 107, 108, 109, 110, 111, 112, 113, 114, 115, 116, 117, 118, 119, 120, 121, 122, 123, 124, 125, 126, 127, 128, 129, 130, 131, 132, 133, 134, 135, 136, 137, 138, 139, 140, 141, 142, 143, 144, 145, 146, 147, 148, 149, 150, 151, 152, 153, 154, 155, 156, 157, 158, 159, 160, 161, 162, 163, 164, 165, 166, 167, 168, 169, 170, 171, 172, 173, 174, 175, 176, 177, 178, 179, 180, 181, 182, 183, 184, 185, 186, 187, 188, 189, 190],
      "AcquisitionTime": ["151739.977500", "151741.467500", "151742.957500", "151744.447500", "151745.937500", "151747.427500", "151748.917500", "151750.407500", "151751.897500", "151753.387500", "151754.877500", "151756.367500", "151757.857500", "151759.347500", "151800.837500", "151802.327500", "151803.817500", "151805.307500", "151806.797500", "151808.287500", "151809.777500", "151811.267500", "151812.757500", "151814.247500", "151815.737500", "151817.227500", "151818.717500", "151820.207500", "151821.697500", "151823.187500", "151824.677500", "151826.167500", "151827.657500", "151829.147500", "151830.637500", "151832.127500", "151833.617500", "151835.107500", "151836.597500", "151838.087500", "151839.577500", "151841.067500", "151842.557500", "151844.047500", "151845.537500", "151847.027500", "151848.517500", "151850.007500", "151851.497500", "151852.987500", "151854.477500", "151855.967500", "151857.457500", "151858.947500", "151900.437500", "151901.927500", "151903.417500", "151904.907500", "151906.397500", "151907.887500", "151909.377500", "151910.867500", "151912.357500", "151913.847500", "151915.337500", "151916.827500", "151918.317500", "151919.807500", "151921.297500", "151922.787500", "151924.277500", "151925.767500", "151927.257500", "151928.747500", "151930.237500", "151931.727500", "151933.217500", "151934.707500", "151936.197500", "151937.687500", "151939.177500", "151940.667500", "151942.157500", "151943.647500", "151945.137500", "151946.627500", "151948.117500", "151949.607500", "151951.097500", "151952.587500", "151954.077500", "151955.567500", "151957.057500", "151958.547500", "152000.037500", "152001.527500", "152003.017500", "152004.507500", "152005.997500", "152007.487500", "152008.977500", "152010.467500", "152011.957500", "152013.447500", "152014.937500", "152016.427500", "152017.917500", "152019.407500", "152020.897500", "152022.387500", "152023.877500", "152025.367500", "152026.857500", "152028.347500", "152029.837500", "152031.327500", "152032.817500", "152034.307500", "152035.797500", "152037.287500", "152038.777500", "152040.267500", "152041.757500", "152043.247500", "152044.737500", "152046.227500", "152047.717500", "152049.207500", "152050.697500", "152052.187500", "152053.677500", "152055.167500", "152056.657500", "152058.147500", "152059.637500", "152101.127500", "152102.617500", "152104.107500", "152105.597500", "152107.087500", "152108.577500", "152110.067500", "152111.557500", "152113.047500", "152114.537500", "152116.027500", "152117.517500", "152119.007500", "152120.497500", "152121.987500", "152123.477500", "152124.967500", "152126.457500", "152127.947500", "152129.437500", "152130.927500", "152132.417500", "152133.907500", "152135.397500", "152136.887500", "152138.377500", "152139.867500", "152141.357500", "152142.847500", "152144.337500", "152145.827500", "152147.317500", "152148.807500", "152150.297500", "152151.787500", "152153.277500", "152154.767500", "152156.257500", "152157.747500", "152159.237500", "152200.727500", "152202.217500", "152203.707500", "152205.197500", "152206.687500", "152208.177500", "152209.667500", "152211.157500", "152212.647500", "152214.137500", "152215.627500", "152217.117500", "152218.607500", "152220.097500", "152221.587500"],
      "ContentTime": ["151859.787000", "151859.790000", "151859.793000", "151859.795000", "151859.798000", "151859.800000", "151859.803000", "151859.805000", "151859.808000", "151859.810000", "151859.813000", "151859.815000", "151859.818000", "151859.820000", "151859.823000", "151859.825000", "151859.828000", "151859.830000", "151859.833000", "151859.835000", "151859.838000", "151859.840000", "151859.843000", "151859.845000", "151859.848000", "151859.850000", "151859.854000", "151919.716000", "151919.719000", "151919.721000", "151919.724000", "151919.726000", "151919.729000", "151919.731000", "151919.734000", "151919.736000", "151919.739000", "151919.741000", "151919.744000", "151919.746000", "151919.749000", "151919.751000", "151919.754000", "151919.756000", "151919.759000", "151919.761000", "151919.764000", "151939.721000", "151939.723000", "151939.726000", "151939.728000", "151939.731000", "151939.733000", "151939.736000", "151939.738000", "151939.741000", "151939.743000", "151939.746000", "151939.748000", "151939.751000", "151939.753000", "151939.756000", "151939.758000", "151939.761000", "151939.763000", "151939.766000", "151939.768000", "152000.131000", "152000.133000", "152000.136000", "152000.138000", "152000.141000", "152000.143000", "152000.146000", "152000.148000", "152000.151000", "152000.153000", "152000.156000", "152000.159000", "152000.161000", "152000.164000", "152000.166000", "152000.169000", "152000.171000", "152000.174000", "152000.176000", "152000.179000", "152039.780000", "152039.783000", "152039.785000", "152039.788000", "152039.790000", "152039.792000", "152039.795000", "152039.798000", "152039.800000", "152039.803000", "152039.805000", "152039.807000", "152039.810000", "152039.812000", "152039.815000", "152039.817000", "152039.820000", "152039.822000", "152039.825000", "152039.827000", "152039.830000", "152039.832000", "152039.835000", "152039.837000", "152039.840000", "152039.842000", "152039.845000", "152039.847000", "152039.849000", "152039.852000", "152039.854000", "152039.857000", "152039.859000", "152119.748000", "152119.750000", "152119.753000", "152119.755000", "152119.758000", "152119.760000", "152119.763000", "152119.765000", "152119.768000", "152119.770000", "152119.773000", "152119.775000", "152119.778000", "152119.780000", "152119.783000", "152119.785000", "152119.788000", "152119.790000", "152119.793000", "152119.795000", "152119.798000", "152119.800000", "152119.803000", "152119.805000", "152119.808000", "152119.810000", "152119.813000", "152159.754000", "152159.756000", "152159.759000", "152159.761000", "152159.764000", "152159.766000", "152159.769000", "152159.771000", "152159.774000", "152159.776000", "152159.779000", "152159.781000", "152159.784000", "152159.786000", "152159.789000", "152159.791000", "152159.794000", "152159.796000", "152159.799000", "152159.801000", "152159.804000", "152159.806000", "152159.808000", "152159.811000", "152159.813000", "152159.816000", "152159.818000", "152223.499000", "152223.502000", "152223.505000", "152223.507000", "152223.510000", "152223.512000", "152223.515000", "152223.518000", "152223.520000", "152223.523000", "152223.525000", "152223.528000", "152223.530000", "152223.533000", "152223.535000", "152223.538000"],
      "InstanceCreationTime": ["151859.787000", "151859.790000", "151859.793000", "151859.795000", "151859.798000", "151859.800000", "151859.803000", "151859.805000", "151859.808000", "151859.810000", "151859.813000", "151859.815000", "151859.818000", "151859.820000", "151859.823000", "151859.825000", "151859.828000", "151859.830000", "151859.833000", "151859.835000", "151859.838000", "151859.840000", "151859.843000", "151859.845000", "151859.848000", "151859.850000", "151859.854000", "151919.716000", "151919.719000", "151919.721000", "151919.724000", "151919.726000", "151919.729000", "151919.731000", "151919.734000", "151919.736000", "151919.739000", "151919.741000", "151919.744000", "151919.746000", "151919.749000", "151919.751000", "151919.754000", "151919.756000", "151919.759000", "151919.761000", "151919.764000", "151939.721000", "151939.723000", "151939.726000", "151939.728000", "151939.731000", "151939.733000", "151939.736000", "151939.738000", "151939.741000", "151939.743000", "151939.746000", "151939.748000", "151939.751000", "151939.753000", "151939.756000", "151939.758000", "151939.761000", "151939.763000", "151939.766000", "151939.768000", "152000.131000", "152000.133000", "152000.136000", "152000.138000", "152000.141000", "152000.143000", "152000.146000", "152000.148000", "152000.151000", "152000.153000", "152000.156000", "152000.159000", "152000.161000", "152000.164000", "152000.166000", "152000.169000", "152000.171000", "152000.174000", "152000.176000", "152000.179000", "152039.780000", "152039.783000", "152039.785000", "152039.788000", "152039.790000", "152039.792000", "152039.795000", "152039.798000", "152039.800000", "152039.803000", "152039.805000", "152039.807000", "152039.810000", "152039.812000", "152039.815000", "152039.817000", "152039.820000", "152039.822000", "152039.825000", "152039.827000", "152039.830000", "152039.832000", "152039.835000", "152039.837000", "152039.840000", "152039.842000", "152039.845000", "152039.847000", "152039.849000", "152039.852000", "152039.854000", "152039.857000", "152039.859000", "152119.748000", "152119.750000", "152119.753000", "152119.755000", "152119.758000", "152119.760000", "152119.763000", "152119.765000", "152119.768000", "152119.770000", "152119.773000", "152119.775000", "152119.778000", "152119.780000", "152119.783000", "152119.785000", "152119.788000", "152119.790000", "152119.793000", "152119.795000", "152119.798000", "152119.800000", "152119.803000", "152119.805000", "152119.808000", "152119.810000", "152119.813000", "152159.754000", "152159.756000", "152159.759000", "152159.761000", "152159.764000", "152159.766000", "152159.769000", "152159.771000", "152159.774000", "152159.776000", "152159.779000", "152159.781000", "152159.784000", "152159.786000", "152159.789000", "152159.791000", "152159.794000", "152159.796000", "152159.799000", "152159.801000", "152159.804000", "152159.806000", "152159.808000", "152159.811000", "152159.813000", "152159.816000", "152159.818000", "152223.499000", "152223.502000", "152223.505000", "152223.507000", "152223.510000", "152223.512000", "152223.515000", "152223.518000", "152223.520000", "152223.523000", "152223.525000", "152223.528000", "152223.530000", "152223.533000", "152223.535000", "152223.538000"],
      "InstanceNumber": [1, 2, 3, 4, 5, 6, 7, 8, 9, 10, 11, 12, 13, 14, 15, 16, 17, 18, 19, 20, 21, 22, 23, 24, 25, 26, 27, 28, 29, 30, 31, 32, 33, 34, 35, 36, 37, 38, 39, 40, 41, 42, 43, 44, 45, 46, 47, 48, 49, 50, 51, 52, 53, 54, 55, 56, 57, 58, 59, 60, 61, 62, 63, 64, 65, 66, 67, 68, 69, 70, 71, 72, 73, 74, 75, 76, 77, 78, 79, 80, 81, 82, 83, 84, 85, 86, 87, 88, 89, 90, 91, 92, 93, 94, 95, 96, 97, 98, 99, 100, 101, 102, 103, 104, 105, 106, 107, 108, 109, 110, 111, 112, 113, 114, 115, 116, 117, 118, 119, 120, 121, 122, 123, 124, 125, 126, 127, 128, 129, 130, 131, 132, 133, 134, 135, 136, 137, 138, 139, 140, 141, 142, 143, 144, 145, 146, 147, 148, 149, 150, 151, 152, 153, 154, 155, 156, 157, 158, 159, 160, 161, 162, 163, 164, 165, 166, 167, 168, 169, 170, 171, 172, 173, 174, 175, 176, 177, 178, 179, 180, 181, 182, 183, 184, 185, 186, 187, 188, 189, 190],
      "WindowCenter": [4854.0, 4880.0, 4854.0, 4854.0, 4852.0, 4852.0, 4856.0, 4850.0, 4876.0, 4850.0, 4880.0, 4852.0, 4856.0, 4856.0, 4854.0, 4876.0, 4854.0, 4878.0, 4828.0, 4854.0, 4856.0, 4828.0, 4856.0, 4854.0, 4852.0, 4856.0, 4850.0, 4878.0, 4852.0, 4856.0, 4852.0, 4854.0, 4880.0, 4850.0, 4880.0, 4838.0, 4900.0, 4854.0, 4820.0, 4818.0, 4822.0, 4826.0, 4854.0, 4878.0, 4876.0, 4878.0, 4878.0, 4872.0, 4884.0, 4824.0, 4826.0, 4828.0, 4826.0, 4850.0, 4878.0, 4880.0, 4880.0, 4900.0, 4880.0, 4880.0, 4830.0, 4854.0, 4900.0, 4880.0, 4828.0, 4828.0, 4852.0, 4852.0, 4878.0, 4880.0, 4852.0, 4880.0, 4874.0, 4852.0, 4856.0, 4858.0, 4828.0, 4878.0, 4850.0, 4850.0, 4878.0, 4852.0, 4880.0, 4880.0, 4854.0, 4850.0, 4856.0, 4828.0, 4854.0, 4854.0, 4850.0, 4878.0, 4904.0, 4854.0, 4848.0, 4852.0, 4828.0, 4878.0, 4880.0, 4858.0, 4878.0, 4880.0, 4856.0, 4852.0, 4850.0, 4850.0, 4852.0, 4876.0, 4850.0, 4876.0, 4874.0, 4854.0, 4872.0, 4850.0, 4854.0, 4876.0, 4850.0, 4878.0, 4854.0, 4878.0, 4876.0, 4854.0, 4878.0, 4852.0, 4878.0, 4846.0, 4878.0, 4850.0, 4872.0, 4876.0, 4850.0, 4872.0, 4852.0, 4876.0, 4896.0, 4854.0, 4846.0, 4824.0, 4848.0, 4852.0, 4874.0, 4878.0, 4874.0, 4876.0, 4854.0, 4872.0, 4852.0, 4848.0, 4876.0, 4852.0, 4854.0, 4880.0, 4854.0, 4898.0, 4876.0, 4872.0, 4876.0, 4848.0, 4876.0, 4852.0, 4852.0, 4874.0, 4852.0, 4874.0, 4876.0, 4852.0, 4876.0, 4852.0, 4854.0, 4852.0, 4848.0, 4880.0, 4852.0, 4876.0, 4876.0, 4854.0, 4872.0, 4860.0, 4880.0, 4826.0, 4824.0, 4822.0, 4846.0, 4854.0, 4876.0, 4876.0, 4874.0, 4874.0, 4850.0, 4848.0],
      "WindowWidth": [18624.0, 18666.0, 18618.0, 18628.0, 18624.0, 18620.0, 18628.0, 18616.0, 18662.0, 18616.0, 18666.0, 18620.0, 18630.0, 18628.0, 18624.0, 18658.0, 18622.0, 18664.0, 18588.0, 18628.0, 18632.0, 18586.0, 18632.0, 18626.0, 18626.0, 18632.0, 18624.0, 18668.0, 18624.0, 18632.0, 18626.0, 18626.0, 18662.0, 18620.0, 18676.0, 18652.0, 18716.0, 18620.0, 18580.0, 18580.0, 18580.0, 18584.0, 18630.0, 18670.0, 18672.0, 18678.0, 18682.0, 18688.0, 18672.0, 18582.0, 18582.0, 18588.0, 18578.0, 18616.0, 18666.0, 18672.0, 18668.0, 18718.0, 18680.0, 18664.0, 18582.0, 18624.0, 18708.0, 18660.0, 18586.0, 18592.0, 18622.0, 18624.0, 18670.0, 18668.0, 18634.0, 18676.0, 18664.0, 18624.0, 18634.0, 18630.0, 18588.0, 18662.0, 18622.0, 18626.0, 18668.0, 18626.0, 18682.0, 18672.0, 18626.0, 18626.0, 18630.0, 18590.0, 18626.0, 18628.0, 18622.0, 18684.0, 18708.0, 18626.0, 18616.0, 18612.0, 18588.0, 18664.0, 18674.0, 18630.0, 18660.0, 18678.0, 18628.0, 18628.0, 18628.0, 18632.0, 18632.0, 18672.0, 18634.0, 18684.0, 18672.0, 18630.0, 18670.0, 18630.0, 18636.0, 18668.0, 18628.0, 18670.0, 18634.0, 18674.0, 18668.0, 18642.0, 18674.0, 18632.0, 18672.0, 18628.0, 18676.0, 18634.0, 18672.0, 18674.0, 18630.0, 18676.0, 18630.0, 18674.0, 18716.0, 18632.0, 18622.0, 18594.0, 18630.0, 18638.0, 18680.0, 18668.0, 18672.0, 18678.0, 18634.0, 18670.0, 18630.0, 18630.0, 18678.0, 18628.0, 18634.0, 18676.0, 18636.0, 18716.0, 18666.0, 18670.0, 18674.0, 18622.0, 18670.0, 18632.0, 18636.0, 18670.0, 18634.0, 18674.0, 18674.0, 18638.0, 18672.0, 18634.0, 18634.0, 18638.0, 18626.0, 18674.0, 18630.0, 18672.0, 18668.0, 18646.0, 18696.0, 18684.0, 18678.0, 18590.0, 18580.0, 18590.0, 18622.0, 18636.0, 18682.0, 18688.0, 18676.0, 18670.0, 18638.0, 18632.0]
    },
    "slices": {}
  }
}