{
  "AcquisitionMatrixPE": 104,
  "AcquisitionNumber": 1,
  "AcquisitionTime": "15:17:39.977500",
  "BandwidthPerPixelPhaseEncode": 17.17,
  "BaseResolution": 104,
  "BodyPartExamined": "BRAIN",
  "CoilString": "HC1-7;NC1_2",
  "ConsistencyInfo": "N4_VE11C_LATEST_20160120",
  "ConversionSoftware": "dcm2niix",
  "ConversionSoftwareVersion": "v1.0.20190902",
  "DerivedVendorReportedEchoSpacing": 0.000560011,
  "DeviceSerialNumber": "167006",
  "DwellTime": 2.1e-06,
  "EchoTime": 0.037,
  "EchoTrainLength": 104,
  "EffectiveEchoSpacing": 0.000560011,
  "FlipAngle": 52,
  "ImageComments": "Unaliased_MB4_PE3_LB",
  "ImageOrientationPatientDICOM": [0.999026, -0.0400557, 0.0185041, 0.0439678, 0.938905, -0.341356],
  "ImageType": [
    "ORIGINAL",
    "PRIMARY",
    "M",
    "MB",
    "ND",
    "MOSAIC"
],
  "ImagingFrequency": 123.259,
  "InPlanePhaseEncodingDirectionDICOM": "COL",
  "InstitutionAddress": "Chemin_Queen-Mary_4565_Montreal_District_CA_H3W_1W5",
  "InstitutionName": "IUGM",
  "InstitutionalDepartmentName": "Department",
  "MRAcquisitionType": "2D",
  "MagneticFieldStrength": 3,
  "Manufacturer": "Siemens",
  "ManufacturersModelName": "Prisma_fit",
  "Modality": "MR",
  "MultibandAccelerationFactor": 4,
  "PartialFourier": 1,
  "PatientPosition": "HFS",
  "PercentPhaseFOV": 100,
  "PhaseEncodingDirection": "j",
  "PhaseEncodingSteps": 104,
  "PhaseResolution": 1,
  "PixelBandwidth": 2290,
  "ProcedureStepDescription": "memory_things",
  "ProtocolName": "func_task-things_run-1",
  "PulseSequenceDetails": "%CustomerSeq%_cmrr_mbep2d_bold",
  "ReceiveCoilActiveElements": "HC1-7;NC1,2",
  "ReceiveCoilName": "HeadNeck_64",
  "ReconMatrixPE": 104,
  "RepetitionTime": 1.49,
  "SAR": 0.0411304,
  "ScanOptions": "FS",
  "ScanningSequence": "EP",
  "SequenceName": "epfid2d1_104",
  "SequenceVariant": "SK_SS",
  "SeriesDescription": "func_task-things_run-1",
  "SeriesNumber": 10,
  "ShimSetting": [625, -7248, -8821, 561, 6, -190, -52, -19],
  "SliceThickness": 2,
  "SliceTiming": [0, 0.785, 0.0975, 0.8825, 0.195, 0.98, 0.295, 1.0775, 0.3925, 1.175, 0.49, 1.275, 0.5875, 1.3725, 0.685, 0, 0.785, 0.0975, 0.8825, 0.195, 0.98, 0.295, 1.0775, 0.3925, 1.175, 0.49, 1.275, 0.5875, 1.3725, 0.685, 0, 0.785, 0.0975, 0.8825, 0.195, 0.98, 0.295, 1.0775, 0.3925, 1.175, 0.49, 1.275, 0.5875, 1.3725, 0.685, 0, 0.785, 0.0975, 0.8825, 0.195, 0.98, 0.295, 1.0775, 0.3925, 1.175, 0.49, 1.275, 0.5875, 1.3725, 0.685],
  "SoftwareVersions": "syngo_MR_E11",
  "SpacingBetweenSlices": 2,
  "StationName": "MRC35049",
  "TaskName": "things",
  "TotalReadoutTime": 0.0576811,
  "TxRefAmp": 242.368,
  "WipMemBlock": "2baa5917-ad88-4db0-b56d-c3aa049cea42||Sequence: R016 ve11c/master r/e634e98; Dec 19 2017 11:00:25 by eja",
  "dcmmeta_affine": [
    [-1.9980522394180298, 0.08793563395738602, 0.007400795351713896, 102.94126892089844],
    [0.08011139929294586, 1.8778107166290283, -0.6836733222007751, -68.13802337646484],
    [0.037008270621299744, 0.6827110648155212, 1.8795042037963867, -67.21177673339844],
    [0.0, 0.0, 0.0, 1.0]
],
  "dcmmeta_reorient_transform": [
    [0.0, -1.0, 0.0, 103.0],
    [1.0, 0.0, 0.0, 0.0],
    [0.0, 0.0, 1.0, 0.0],
    [0.0, 0.0, 0.0, 1.0]
],
  "dcmmeta_shape": [104, 104, 60, 190],
  "dcmmeta_slice_dim": 2,
  "dcmmeta_version": 0.6,
  "global": {
    "const": {
      "AcquisitionMatrix": [104, 0, 0, 104],
      "AngioFlag": "N",
      "BitsAllocated": 16,
      "BitsStored": 16,
      "BodyPartExamined": "BRAIN",
      "Columns": 832,
      "EchoNumbers": 1,
      "EchoTime": 37.0,
      "EchoTrainLength": 104,
      "FlipAngle": 52.0,
      "HighBit": 15,
      "ImageOrientationPatient": [0.9990260947641, -0.0400556983049, 0.01850413504314, 0.04396781820737, 0.93890534212711, -0.3413555177337],
      "ImagePositionPatient": [-871.29820972403, -779.63902144264, 238.14326279786],
      "ImageType": [
        "ORIGINAL",
        "PRIMARY",
        "M",
        "MB",
        "ND",
        "MOSAIC"
],
      "ImagedNucleus": "1H",
      "ImagingFrequency": 123.258871,
      "InPlanePhaseEncodingDirection": "COL",
      "MRAcquisitionType": "2D",
      "MagneticFieldStrength": 3.0,
      "Manufacturer": "SIEMENS",
      "ManufacturerModelName": "Prisma_fit",
      "Modality": "MR",
      "NumberOfAverages": 1.0,
      "NumberOfPhaseEncodingSteps": 104,
      "PercentPhaseFieldOfView": 100.0,
      "PercentSampling": 100.0,
      "PerformedProcedureStepStartTime": "150056.657000",
      "PhotometricInterpretation": "MONOCHROME2",
      "PixelBandwidth": 2290.0,
      "PixelRepresentation": 0,
      "PixelSpacing": [2.0, 2.0],
      "ProtocolName": "func_task-things_run-1",
      "RepetitionTime": 1490.0,
      "Rows": 832,
      "SAR": 0.04113042020062,
      "SamplesPerPixel": 1,
      "ScanOptions": "FS",
      "ScanningSequence": "EP",
      "SequenceName": "epfid2d1_104",
      "SequenceVariant": [
        "SK",
        "SS"
],
      "SeriesDescription": "func_task-things_run-1",
      "SeriesNumber": 10,
      "SeriesTime": "151859.650000",
      "SliceLocation": -39.489415294022,
      "SliceThickness": 2.0,
      "SmallestImagePixelValue": 0,
      "SoftwareVersions": "syngo MR E11",
      "SpacingBetweenSlices": 2.0000000195537,
      "SpecificCharacterSet": "ISO_IR 100",
      "StudyID": "1",
      "StudyTime": "150056.560000",
      "TransmitCoilName": "Body",
      "VariableFlipAngleFlag": "N",
      "WindowCenterWidthExplanation": "Algo1",
      "dBdt": 0.0},
    "slices": {}
  },
  "time": {
    "samples": {
      "AcquisitionNumber": [1, 2, 3, 4, 5, 6, 7, 8, 9, 10, 11, 12, 13, 14, 15, 16, 17, 18, 19, 20, 21, 22, 23, 24, 25, 26, 27, 28, 29, 30, 31, 32, 33, 34, 35, 36, 37, 38, 39, 40, 41, 42, 43, 44, 45, 46, 47, 48, 49, 50, 51, 52, 53, 54, 55, 56, 57, 58, 59, 60, 61, 62, 63, 64, 65, 66, 67, 68, 69, 70, 71, 72, 73, 74, 75, 76, 77, 78, 79, 80, 81, 82, 83, 84, 85, 86, 87, 88, 89, 90, 91, 92, 93, 94, 95, 96, 97, 98, 99, 100, 101, 102, 103, 104, 105, 106, 107, 108, 109, 110, 111, 112, 113, 114, 115, 116, 117, 118, 119, 120, 121, 122, 123, 124, 125, 126, 127, 128, 129, 130, 131, 132, 133, 134, 135, 136, 137, 138, 139, 140, 141, 142, 143, 144, 145, 146, 147, 148, 149, 150, 151, 152, 153, 154, 155, 156, 157, 158, 159, 160, 161, 162, 163, 164, 165, 166, 167, 168, 169, 170, 171, 172, 173, 174, 175, 176, 177, 178, 179, 180, 181, 182, 183, 184, 185, 186, 187, 188, 189, 190],
      "AcquisitionTime": ["151739.977500", "151741.467500", "151742.957500", "151744.447500", "151745.937500", "151747.427500", "151748.917500", "151750.407500", "151751.897500", "151753.387500", "151754.877500", "151756.367500", "151757.857500", "151759.347500", "151800.837500", "151802.327500", "151803.817500", "151805.307500", "151806.797500", "151808.287500", "151809.777500", "151811.267500", "151812.757500", "151814.247500", "151815.737500", "151817.227500", "151818.717500", "151820.207500", "151821.697500", "151823.187500", "151824.677500", "151826.167500", "151827.657500", "151829.147500", "151830.637500", "151832.127500", "151833.617500", "151835.107500", "151836.597500", "151838.087500", "151839.577500", "151841.067500", "151842.557500", "151844.047500", "151845.537500", "151847.027500", "151848.517500", "151850.007500", "151851.497500", "151852.987500", "151854.477500", "151855.967500", "151857.457500", "151858.947500", "151900.437500", "151901.927500", "151903.417500", "151904.907500", "151906.397500", "151907.887500", "151909.377500", "151910.867500", "151912.357500", "151913.847500", "151915.337500", "151916.827500", "151918.317500", "151919.807500", "151921.297500", "151922.787500", "151924.277500", "151925.767500", "151927.257500", "151928.747500", "151930.237500", "151931.727500", "151933.217500", "151934.707500", "151936.197500", "151937.687500", "151939.177500", "151940.667500", "151942.157500", "151943.647500", "151945.137500", "151946.627500", "151948.117500", "151949.607500", "151951.097500", "151952.587500", "151954.077500", "151955.567500", "151957.057500", "151958.547500", "152000.037500", "152001.527500", "152003.017500", "152004.507500", "152005.997500", "152007.487500", "152008.977500", "152010.467500", "152011.957500", "152013.447500", "152014.937500", "152016.427500", "152017.917500", "152019.407500", "152020.897500", "152022.387500", "152023.877500", "152025.367500", "152026.857500", "152028.347500", "152029.837500", "152031.327500", "152032.817500", "152034.307500", "152035.797500", "152037.287500", "152038.777500", "152040.267500", "152041.757500", "152043.247500", "152044.737500", "152046.227500", "152047.717500", "152049.207500", "152050.697500", "152052.187500", "152053.677500", "152055.167500", "152056.657500", "152058.147500", "152059.637500", "152101.127500", "152102.617500", "152104.107500", "152105.597500", "152107.087500", "152108.577500", "152110.067500", "152111.557500", "152113.047500", "152114.537500", "152116.027500", "152117.517500", "152119.007500", "152120.497500", "152121.987500", "152123.477500", "152124.967500", "152126.457500", "152127.947500", "152129.437500", "152130.927500", "152132.417500", "152133.907500", "152135.397500", "152136.887500", "152138.377500", "152139.867500", "152141.357500", "152142.847500", "152144.337500", "152145.827500", "152147.317500", "152148.807500", "152150.297500", "152151.787500", "152153.277500", "152154.767500", "152156.257500", "152157.747500", "152159.237500", "152200.727500", "152202.217500", "152203.707500", "152205.197500", "152206.687500", "152208.177500", "152209.667500", "152211.157500", "152212.647500", "152214.137500", "152215.627500", "152217.117500", "152218.607500", "152220.097500", "152221.587500"],
      "ContentTime": ["151859.654000", "151859.658000", "151859.661000", "151859.665000", "151859.668000", "151859.671000", "151859.675000", "151859.678000", "151859.681000", "151859.684000", "151859.688000", "151859.691000", "151859.694000", "151859.697000", "151859.701000", "151859.704000", "151859.707000", "151859.711000", "151859.714000", "151859.717000", "151859.721000", "151859.724000", "151859.727000", "151859.730000", "151859.734000", "151859.737000", "151859.743000", "151919.602000", "151919.606000", "151919.609000", "151919.612000", "151919.623000", "151919.626000", "151919.629000", "151919.633000", "151919.636000", "151919.639000", "151919.643000", "151919.646000", "151919.649000", "151919.652000", "151919.656000", "151919.659000", "151919.662000", "151919.665000", "151919.669000", "151919.672000", "151939.602000", "151939.606000", "151939.609000", "151939.612000", "151939.616000", "151939.619000", "151939.622000", "151939.626000", "151939.629000", "151939.632000", "151939.636000", "151939.639000", "151939.642000", "151939.657000", "151939.660000", "151939.663000", "151939.667000", "151939.670000", "151939.673000", "151939.677000", "151959.601000", "151959.605000", "151959.608000", "151959.611000", "151959.615000", "151959.618000", "151959.621000", "151959.625000", "151959.628000", "151959.631000", "151959.634000", "151959.638000", "151959.641000", "151959.644000", "151959.648000", "151959.651000", "151959.654000", "151959.658000", "151959.661000", "151959.664000", "152039.601000", "152039.605000", "152039.608000", "152039.611000", "152039.615000", "152039.618000", "152039.621000", "152039.625000", "152039.628000", "152039.631000", "152039.635000", "152039.638000", "152039.641000", "152039.644000", "152039.648000", "152039.651000", "152039.654000", "152039.658000", "152039.661000", "152039.664000", "152039.668000", "152039.686000", "152039.689000", "152039.693000", "152039.696000", "152039.699000", "152039.709000", "152039.712000", "152039.715000", "152039.718000", "152039.722000", "152039.725000", "152039.728000", "152119.602000", "152119.606000", "152119.609000", "152119.612000", "152119.616000", "152119.619000", "152119.622000", "152119.626000", "152119.629000", "152119.632000", "152119.636000", "152119.639000", "152119.642000", "152119.645000", "152119.649000", "152119.652000", "152119.655000", "152119.659000", "152119.662000", "152119.665000", "152119.668000", "152119.672000", "152119.675000", "152119.679000", "152119.682000", "152119.685000", "152119.688000", "152159.602000", "152159.617000", "152159.620000", "152159.623000", "152159.627000", "152159.630000", "152159.633000", "152159.637000", "152159.640000", "152159.643000", "152159.646000", "152159.650000", "152159.653000", "152159.656000", "152159.659000", "152159.663000", "152159.666000", "152159.669000", "152159.673000", "152159.676000", "152159.679000", "152159.683000", "152159.686000", "152159.689000", "152159.693000", "152159.696000", "152159.699000", "152223.400000", "152223.404000", "152223.407000", "152223.411000", "152223.414000", "152223.418000", "152223.422000", "152223.425000", "152223.428000", "152223.432000", "152223.435000", "152223.438000", "152223.442000", "152223.445000", "152223.449000", "152223.452000"],
      "InstanceCreationTime": ["151859.654000", "151859.658000", "151859.661000", "151859.665000", "151859.668000", "151859.671000", "151859.675000", "151859.678000", "151859.681000", "151859.684000", "151859.688000", "151859.691000", "151859.694000", "151859.697000", "151859.701000", "151859.704000", "151859.707000", "151859.711000", "151859.714000", "151859.717000", "151859.721000", "151859.724000", "151859.727000", "151859.730000", "151859.734000", "151859.737000", "151859.743000", "151919.602000", "151919.606000", "151919.609000", "151919.612000", "151919.623000", "151919.626000", "151919.629000", "151919.633000", "151919.636000", "151919.639000", "151919.643000", "151919.646000", "151919.649000", "151919.652000", "151919.656000", "151919.659000", "151919.662000", "151919.665000", "151919.669000", "151919.672000", "151939.602000", "151939.606000", "151939.609000", "151939.612000", "151939.616000", "151939.619000", "151939.622000", "151939.626000", "151939.629000", "151939.632000", "151939.636000", "151939.639000", "151939.642000", "151939.657000", "151939.660000", "151939.663000", "151939.667000", "151939.670000", "151939.673000", "151939.677000", "151959.601000", "151959.605000", "151959.608000", "151959.611000", "151959.615000", "151959.618000", "151959.621000", "151959.625000", "151959.628000", "151959.631000", "151959.634000", "151959.638000", "151959.641000", "151959.644000", "151959.648000", "151959.651000", "151959.654000", "151959.658000", "151959.661000", "151959.664000", "152039.601000", "152039.605000", "152039.608000", "152039.611000", "152039.615000", "152039.618000", "152039.621000", "152039.625000", "152039.628000", "152039.631000", "152039.635000", "152039.638000", "152039.641000", "152039.644000", "152039.648000", "152039.651000", "152039.654000", "152039.658000", "152039.661000", "152039.664000", "152039.668000", "152039.686000", "152039.689000", "152039.693000", "152039.696000", "152039.699000", "152039.709000", "152039.712000", "152039.715000", "152039.718000", "152039.722000", "152039.725000", "152039.728000", "152119.602000", "152119.606000", "152119.609000", "152119.612000", "152119.616000", "152119.619000", "152119.622000", "152119.626000", "152119.629000", "152119.632000", "152119.636000", "152119.639000", "152119.642000", "152119.645000", "152119.649000", "152119.652000", "152119.655000", "152119.659000", "152119.662000", "152119.665000", "152119.668000", "152119.672000", "152119.675000", "152119.679000", "152119.682000", "152119.685000", "152119.688000", "152159.602000", "152159.617000", "152159.620000", "152159.623000", "152159.627000", "152159.630000", "152159.633000", "152159.637000", "152159.640000", "152159.643000", "152159.646000", "152159.650000", "152159.653000", "152159.656000", "152159.659000", "152159.663000", "152159.666000", "152159.669000", "152159.673000", "152159.676000", "152159.679000", "152159.683000", "152159.686000", "152159.689000", "152159.693000", "152159.696000", "152159.699000", "152223.400000", "152223.404000", "152223.407000", "152223.411000", "152223.414000", "152223.418000", "152223.422000", "152223.425000", "152223.428000", "152223.432000", "152223.435000", "152223.438000", "152223.442000", "152223.445000", "152223.449000", "152223.452000"],
      "InstanceNumber": [1, 2, 3, 4, 5, 6, 7, 8, 9, 10, 11, 12, 13, 14, 15, 16, 17, 18, 19, 20, 21, 22, 23, 24, 25, 26, 27, 28, 29, 30, 31, 32, 33, 34, 35, 36, 37, 38, 39, 40, 41, 42, 43, 44, 45, 46, 47, 48, 49, 50, 51, 52, 53, 54, 55, 56, 57, 58, 59, 60, 61, 62, 63, 64, 65, 66, 67, 68, 69, 70, 71, 72, 73, 74, 75, 76, 77, 78, 79, 80, 81, 82, 83, 84, 85, 86, 87, 88, 89, 90, 91, 92, 93, 94, 95, 96, 97, 98, 99, 100, 101, 102, 103, 104, 105, 106, 107, 108, 109, 110, 111, 112, 113, 114, 115, 116, 117, 118, 119, 120, 121, 122, 123, 124, 125, 126, 127, 128, 129, 130, 131, 132, 133, 134, 135, 136, 137, 138, 139, 140, 141, 142, 143, 144, 145, 146, 147, 148, 149, 150, 151, 152, 153, 154, 155, 156, 157, 158, 159, 160, 161, 162, 163, 164, 165, 166, 167, 168, 169, 170, 171, 172, 173, 174, 175, 176, 177, 178, 179, 180, 181, 182, 183, 184, 185, 186, 187, 188, 189, 190],
      "LargestImagePixelValue": [46396, 44569, 43720, 43081, 42649, 43161, 42868, 42623, 42660, 42433, 43140, 42442, 43091, 43128, 43058, 42977, 42115, 42725, 43119, 43204, 42762, 43288, 42957, 42807, 42756, 43343, 42967, 42850, 42929, 42718, 42667, 43381, 42847, 43114, 42918, 43872, 42181, 41233, 42277, 42713, 42774, 42903, 42763, 42094, 41801, 41908, 42609, 42650, 41636, 41585, 42823, 42832, 42470, 42797, 42902, 42588, 43296, 42883, 42083, 42022, 41806, 42688, 43087, 41810, 42042, 42504, 42447, 42225, 42535, 42894, 42382, 42331, 41583, 41774, 42436, 41619, 41971, 42684, 41873, 42157, 42558, 41712, 42582, 42337, 41742, 42384, 42679, 41926, 42762, 42410, 42074, 42398, 41789, 41487, 42001, 42143, 42046, 42109, 42071, 42052, 42111, 42465, 42027, 42097, 42360, 42052, 42199, 42658, 41854, 42376, 42490, 41945, 42448, 42265, 41929, 42664, 41651, 42322, 42522, 42047, 42188, 42378, 42410, 42074, 42616, 41975, 42269, 42584, 42081, 42324, 42142, 42158, 41940, 42284, 42329, 41275, 41798, 41167, 42029, 41712, 42175, 41354, 42057, 41982, 41095, 41727, 41992, 41507, 41797, 41376, 41661, 42259, 41632, 41860, 41327, 41350, 41857, 40908, 41827, 40989, 41069, 42039, 40830, 41493, 41596, 41576, 41763, 40999, 41002, 41388, 41202, 41861, 41449, 41338, 41791, 41358, 41326, 41657, 39837, 40191, 40658, 40321, 40383, 40631, 40638, 40160, 40187, 40612, 40647, 39979],
      "WindowCenter": [10470.0, 10398.0, 10346.0, 10332.0, 10311.0, 10311.0, 10319.0, 10314.0, 10320.0, 10321.0, 10332.0, 10319.0, 10327.0, 10320.0, 10327.0, 10329.0, 10321.0, 10320.0, 10324.0, 10332.0, 10328.0, 10327.0, 10322.0, 10311.0, 10319.0, 10320.0, 10313.0, 10320.0, 10320.0, 10323.0, 10330.0, 10335.0, 10329.0, 10319.0, 10312.0, 10337.0, 10344.0, 10320.0, 10312.0, 10302.0, 10286.0, 10277.0, 10256.0, 10242.0, 10241.0, 10256.0, 10271.0, 10301.0, 10308.0, 10313.0, 10318.0, 10323.0, 10342.0, 10358.0, 10351.0, 10334.0, 10337.0, 10329.0, 10332.0, 10336.0, 10329.0, 10322.0, 10331.0, 10340.0, 10342.0, 10332.0, 10321.0, 10329.0, 10338.0, 10331.0, 10317.0, 10307.0, 10301.0, 10315.0, 10320.0, 10316.0, 10325.0, 10339.0, 10327.0, 10326.0, 10325.0, 10320.0, 10340.0, 10341.0, 10338.0, 10326.0, 10316.0, 10319.0, 10330.0, 10317.0, 10309.0, 10307.0, 10315.0, 10329.0, 10341.0, 10328.0, 10303.0, 10292.0, 10299.0, 10309.0, 10302.0, 10298.0, 10306.0, 10317.0, 10320.0, 10316.0, 10331.0, 10332.0, 10333.0, 10340.0, 10337.0, 10332.0, 10320.0, 10311.0, 10321.0, 10320.0, 10315.0, 10315.0, 10306.0, 10315.0, 10323.0, 10322.0, 10321.0, 10315.0, 10328.0, 10324.0, 10337.0, 10336.0, 10335.0, 10323.0, 10307.0, 10304.0, 10284.0, 10293.0, 10301.0, 10301.0, 10298.0, 10276.0, 10267.0, 10265.0, 10276.0, 10273.0, 10266.0, 10262.0, 10275.0, 10305.0, 10312.0, 10315.0, 10307.0, 10302.0, 10316.0, 10316.0, 10310.0, 10314.0, 10295.0, 10299.0, 10305.0, 10295.0, 10304.0, 10285.0, 10286.0, 10291.0, 10285.0, 10286.0, 10275.0, 10284.0, 10291.0, 10265.0, 10270.0, 10269.0, 10274.0, 10289.0, 10283.0, 10287.0, 10291.0, 10280.0, 10282.0, 10301.0, 10290.0, 10279.0, 10278.0, 10262.0, 10247.0, 10236.0, 10221.0, 10215.0, 10222.0, 10230.0, 10230.0, 10227.0],
      "WindowWidth": [22661.0, 22453.0, 22309.0, 22262.0, 22213.0, 22205.0, 22220.0, 22210.0, 22222.0, 22222.0, 22246.0, 22217.0, 22234.0, 22220.0, 22235.0, 22239.0, 22223.0, 22220.0, 22225.0, 22245.0, 22237.0, 22234.0, 22223.0, 22197.0, 22216.0, 22218.0, 22205.0, 22217.0, 22221.0, 22228.0, 22241.0, 22252.0, 22238.0, 22214.0, 22200.0, 22261.0, 22281.0, 22231.0, 22203.0, 22176.0, 22137.0, 22116.0, 22072.0, 22041.0, 22038.0, 22076.0, 22111.0, 22180.0, 22202.0, 22213.0, 22215.0, 22221.0, 22265.0, 22299.0, 22285.0, 22250.0, 22253.0, 22238.0, 22247.0, 22258.0, 22242.0, 22222.0, 22238.0, 22266.0, 22271.0, 22245.0, 22216.0, 22234.0, 22255.0, 22240.0, 22207.0, 22188.0, 22176.0, 22204.0, 22218.0, 22211.0, 22232.0, 22259.0, 22235.0, 22231.0, 22227.0, 22219.0, 22263.0, 22267.0, 22262.0, 22235.0, 22210.0, 22216.0, 22237.0, 22207.0, 22189.0, 22188.0, 22205.0, 22240.0, 22264.0, 22236.0, 22177.0, 22153.0, 22169.0, 22193.0, 22177.0, 22166.0, 22187.0, 22213.0, 22221.0, 22212.0, 22243.0, 22243.0, 22246.0, 22261.0, 22253.0, 22241.0, 22214.0, 22191.0, 22216.0, 22213.0, 22203.0, 22205.0, 22183.0, 22206.0, 22224.0, 22223.0, 22216.0, 22207.0, 22234.0, 22227.0, 22256.0, 22248.0, 22247.0, 22220.0, 22185.0, 22178.0, 22138.0, 22156.0, 22174.0, 22175.0, 22166.0, 22116.0, 22095.0, 22090.0, 22113.0, 22108.0, 22092.0, 22082.0, 22116.0, 22183.0, 22197.0, 22205.0, 22186.0, 22176.0, 22207.0, 22206.0, 22194.0, 22201.0, 22160.0, 22168.0, 22178.0, 22162.0, 22177.0, 22137.0, 22138.0, 22148.0, 22138.0, 22140.0, 22114.0, 22133.0, 22150.0, 22095.0, 22107.0, 22101.0, 22112.0, 22143.0, 22132.0, 22142.0, 22149.0, 22130.0, 22135.0, 22178.0, 22162.0, 22130.0, 22123.0, 22087.0, 22050.0, 22024.0, 21994.0, 21983.0, 21999.0, 22020.0, 22019.0, 22016.0]
    },
    "slices": {}
  }
}