{
  "AcquisitionMatrixPE": 104,
  "AcquisitionNumber": 1,
  "AcquisitionTime": "13:53:34.120000",
  "BandwidthPerPixelPhaseEncode": 17.17,
  "BaseResolution": 104,
  "BodyPartExamined": "BRAIN",
  "CoilString": "HC1-7;NC1_2",
  "ConsistencyInfo": "N4_VE11C_LATEST_20160120",
  "ConversionSoftware": "dcm2niix",
  "ConversionSoftwareVersion": "v1.0.20190902",
  "DerivedVendorReportedEchoSpacing": 0.000560011,
  "DeviceSerialNumber": "167006",
  "DwellTime": 2.1e-06,
  "EchoTime": 0.037,
  "EchoTrainLength": 104,
  "EffectiveEchoSpacing": 0.000560011,
  "FlipAngle": 52,
  "HeudiconvVersion": "0.10.0",
  "ImageComments": "Unaliased_MB4_PE3_LB",
  "ImageOrientationPatientDICOM": [0.999333, 0.00230262, 0.036444, 0.0071512, 0.966345, -0.25715],
  "ImageType": [
    "ORIGINAL",
    "PRIMARY",
    "P",
    "MB",
    "ND",
    "MOSAIC"
],
  "ImagingFrequency": 123.259,
  "InPlanePhaseEncodingDirectionDICOM": "COL",
  "InstitutionAddress": "Chemin_Queen-Mary_4565_Montreal_District_CA_H3W_1W5",
  "InstitutionName": "IUGM",
  "InstitutionalDepartmentName": "Department",
  "MRAcquisitionType": "2D",
  "MagneticFieldStrength": 3,
  "Manufacturer": "Siemens",
  "ManufacturersModelName": "Prisma_fit",
  "Modality": "MR",
  "MultibandAccelerationFactor": 4,
  "PartialFourier": 1,
  "PatientPosition": "HFS",
  "PercentPhaseFOV": 100,
  "PhaseEncodingDirection": "j",
  "PhaseEncodingSteps": 104,
  "PhaseResolution": 1,
  "PixelBandwidth": 2290,
  "ProcedureStepDescription": "memory_things",
  "ProtocolName": "func_task-things_run-6",
  "PulseSequenceDetails": "%CustomerSeq%_cmrr_mbep2d_bold",
  "ReceiveCoilActiveElements": "HC1-7;NC1,2",
  "ReceiveCoilName": "HeadNeck_64",
  "ReconMatrixPE": 104,
  "RepetitionTime": 1.49,
  "SAR": 0.0472721,
  "ScanOptions": "FS",
  "ScanningSequence": "EP",
  "SequenceName": "epfid2d1_104",
  "SequenceVariant": "SK_SS",
  "SeriesDescription": "func_task-things_run-6",
  "SeriesNumber": 26,
  "ShimSetting": [640, -7209, -8784, 705, 33, 14, 42, 0],
  "SliceThickness": 2,
  "SliceTiming": [0, 0.785, 0.0975, 0.8825, 0.195, 0.98, 0.295, 1.0775, 0.3925, 1.175, 0.49, 1.275, 0.5875, 1.3725, 0.685, 0, 0.785, 0.0975, 0.8825, 0.195, 0.98, 0.295, 1.0775, 0.3925, 1.175, 0.49, 1.275, 0.5875, 1.3725, 0.685, 0, 0.785, 0.0975, 0.8825, 0.195, 0.98, 0.295, 1.0775, 0.3925, 1.175, 0.49, 1.275, 0.5875, 1.3725, 0.685, 0, 0.785, 0.0975, 0.8825, 0.195, 0.98, 0.295, 1.0775, 0.3925, 1.175, 0.49, 1.275, 0.5875, 1.3725, 0.685],
  "SoftwareVersions": "syngo_MR_E11",
  "SpacingBetweenSlices": 2,
  "StationName": "MRC35049",
  "TaskName": "things",
  "TotalReadoutTime": 0.0576811,
  "TxRefAmp": 228.419,
  "WipMemBlock": "2c69cd81-546d-4908-bfec-eb819e6e8386||Sequence: R016 ve11c/master r/e634e98; Dec 19 2017 11:00:25 by eja",
  "dcmmeta_affine": [
    [-1.9986660480499268, 0.014302399940788746, 0.07161914557218552, 106.36782836914062],
    [-0.004605244379490614, 1.9326902627944946, -0.5144777297973633, -74.21762084960938],
    [0.07288794219493866, 0.5142995119094849, 1.931368350982666, -63.69380569458008],
    [0.0, 0.0, 0.0, 1.0]
],
  "dcmmeta_reorient_transform": [
    [0.0, -1.0, 0.0, 103.0],
    [1.0, 0.0, 0.0, 0.0],
    [0.0, 0.0, 1.0, 0.0],
    [0.0, 0.0, 0.0, 1.0]
],
  "dcmmeta_shape": [104, 104, 60, 190],
  "dcmmeta_slice_dim": 2,
  "dcmmeta_version": 0.6,
  "global": {
    "const": {
      "AcquisitionMatrix": [104, 0, 0, 104],
      "AngioFlag": "N",
      "BitsAllocated": 16,
      "BitsStored": 16,
      "BodyPartExamined": "BRAIN",
      "Columns": 832,
      "EchoNumbers": 1,
      "EchoTime": 37.0,
      "EchoTrainLength": 104,
      "FlipAngle": 52.0,
      "HighBit": 15,
      "ImageOrientationPatient": [0.99933304499375, 0.00230262223015, 0.03644397226398, 0.00715120006273, 0.96634510799862, -0.257149747394],
      "ImagePositionPatient": [-840.56150546579, -830.02502278691, 149.95284654025],
      "ImageType": [
        "ORIGINAL",
        "PRIMARY",
        "P",
        "MB",
        "ND",
        "MOSAIC"
],
      "ImagedNucleus": "1H",
      "ImagingFrequency": 123.258916,
      "InPlanePhaseEncodingDirection": "COL",
      "LargestImagePixelValue": 4095,
      "MRAcquisitionType": "2D",
      "MagneticFieldStrength": 3.0,
      "Manufacturer": "SIEMENS",
      "ManufacturerModelName": "Prisma_fit",
      "Modality": "MR",
      "NumberOfAverages": 1.0,
      "NumberOfPhaseEncodingSteps": 104,
      "PercentPhaseFieldOfView": 100.0,
      "PercentSampling": 100.0,
      "PerformedProcedureStepStartTime": "124646.759000",
      "PhotometricInterpretation": "MONOCHROME2",
      "PixelBandwidth": 2290.0,
      "PixelRepresentation": 0,
      "PixelSpacing": [2.0, 2.0],
      "ProtocolName": "func_task-things_run-6",
      "RepetitionTime": 1490.0,
      "RescaleIntercept": -4096.0,
      "RescaleSlope": 2.0,
      "RescaleType": "US",
      "Rows": 832,
      "SAR": 0.04727207977569,
      "SamplesPerPixel": 1,
      "ScanOptions": "FS",
      "ScanningSequence": "EP",
      "SequenceName": "epfid2d1_104",
      "SequenceVariant": [
        "SK",
        "SS"
],
      "SeriesDescription": "func_task-things_run-6",
      "SeriesNumber": 26,
      "SeriesTime": "135507.011000",
      "SliceLocation": -38.607455963213,
      "SliceThickness": 2.0,
      "SmallestImagePixelValue": 0,
      "SoftwareVersions": "syngo MR E11",
      "SpacingBetweenSlices": 2.0000000857397,
      "SpecificCharacterSet": "ISO_IR 100",
      "StudyID": "1",
      "StudyTime": "124646.636000",
      "TransmitCoilName": "Body",
      "VariableFlipAngleFlag": "N",
      "WindowCenterWidthExplanation": "Algo1",
      "dBdt": 0.0},
    "slices": {}
  },
  "time": {
    "samples": {
      "AcquisitionNumber": [1, 2, 3, 4, 5, 6, 7, 8, 9, 10, 11, 12, 13, 14, 15, 16, 17, 18, 19, 20, 21, 22, 23, 24, 25, 26, 27, 28, 29, 30, 31, 32, 33, 34, 35, 36, 37, 38, 39, 40, 41, 42, 43, 44, 45, 46, 47, 48, 49, 50, 51, 52, 53, 54, 55, 56, 57, 58, 59, 60, 61, 62, 63, 64, 65, 66, 67, 68, 69, 70, 71, 72, 73, 74, 75, 76, 77, 78, 79, 80, 81, 82, 83, 84, 85, 86, 87, 88, 89, 90, 91, 92, 93, 94, 95, 96, 97, 98, 99, 100, 101, 102, 103, 104, 105, 106, 107, 108, 109, 110, 111, 112, 113, 114, 115, 116, 117, 118, 119, 120, 121, 122, 123, 124, 125, 126, 127, 128, 129, 130, 131, 132, 133, 134, 135, 136, 137, 138, 139, 140, 141, 142, 143, 144, 145, 146, 147, 148, 149, 150, 151, 152, 153, 154, 155, 156, 157, 158, 159, 160, 161, 162, 163, 164, 165, 166, 167, 168, 169, 170, 171, 172, 173, 174, 175, 176, 177, 178, 179, 180, 181, 182, 183, 184, 185, 186, 187, 188, 189, 190],
      "AcquisitionTime": ["135334.120000", "135335.610000", "135337.100000", "135338.590000", "135340.080000", "135341.570000", "135343.060000", "135344.550000", "135346.040000", "135347.530000", "135349.020000", "135350.510000", "135352.000000", "135353.490000", "135354.980000", "135356.470000", "135357.960000", "135359.450000", "135400.940000", "135402.430000", "135403.920000", "135405.410000", "135406.900000", "135408.390000", "135409.880000", "135411.370000", "135412.860000", "135414.350000", "135415.840000", "135417.330000", "135418.820000", "135420.310000", "135421.800000", "135423.290000", "135424.780000", "135426.270000", "135427.760000", "135429.250000", "135430.740000", "135432.230000", "135433.720000", "135435.210000", "135436.700000", "135438.190000", "135439.680000", "135441.170000", "135442.660000", "135444.150000", "135445.640000", "135447.130000", "135448.620000", "135450.110000", "135451.600000", "135453.090000", "135454.580000", "135456.070000", "135457.560000", "135459.050000", "135500.540000", "135502.030000", "135503.520000", "135505.010000", "135506.500000", "135507.990000", "135509.480000", "135510.970000", "135512.460000", "135513.950000", "135515.440000", "135516.930000", "135518.420000", "135519.910000", "135521.400000", "135522.890000", "135524.380000", "135525.870000", "135527.360000", "135528.850000", "135530.340000", "135531.830000", "135533.320000", "135534.810000", "135536.300000", "135537.790000", "135539.280000", "135540.770000", "135542.260000", "135543.750000", "135545.240000", "135546.730000", "135548.220000", "135549.710000", "135551.200000", "135552.690000", "135554.180000", "135555.670000", "135557.160000", "135558.650000", "135600.140000", "135601.630000", "135603.120000", "135604.610000", "135606.100000", "135607.590000", "135609.080000", "135610.570000", "135612.060000", "135613.550000", "135615.040000", "135616.530000", "135618.020000", "135619.510000", "135621.000000", "135622.490000", "135623.980000", "135625.470000", "135626.960000", "135628.450000", "135629.940000", "135631.430000", "135632.920000", "135634.410000", "135635.900000", "135637.390000", "135638.880000", "135640.370000", "135641.860000", "135643.350000", "135644.840000", "135646.330000", "135647.820000", "135649.310000", "135650.800000", "135652.290000", "135653.780000", "135655.270000", "135656.760000", "135658.250000", "135659.740000", "135701.230000", "135702.720000", "135704.210000", "135705.700000", "135707.190000", "135708.680000", "135710.170000", "135711.660000", "135713.150000", "135714.640000", "135716.130000", "135717.620000", "135719.110000", "135720.600000", "135722.090000", "135723.580000", "135725.070000", "135726.560000", "135728.050000", "135729.540000", "135731.030000", "135732.520000", "135734.010000", "135735.500000", "135736.990000", "135738.480000", "135739.970000", "135741.460000", "135742.950000", "135744.440000", "135745.930000", "135747.420000", "135748.910000", "135750.400000", "135751.890000", "135753.380000", "135754.870000", "135756.360000", "135757.850000", "135759.340000", "135800.830000", "135802.320000", "135803.810000", "135805.300000", "135806.790000", "135808.280000", "135809.770000", "135811.260000", "135812.750000", "135814.240000", "135815.730000"],
      "ContentTime": ["135507.013000", "135507.015000", "135507.018000", "135507.021000", "135507.023000", "135507.026000", "135507.029000", "135507.031000", "135507.034000", "135507.036000", "135507.039000", "135507.042000", "135507.044000", "135507.047000", "135507.049000", "135507.052000", "135507.054000", "135507.057000", "135507.059000", "135507.062000", "135507.065000", "135507.067000", "135507.070000", "135507.072000", "135507.075000", "135507.077000", "135507.080000", "135507.083000", "135507.085000", "135507.088000", "135507.090000", "135507.093000", "135507.096000", "135507.098000", "135507.101000", "135507.103000", "135507.106000", "135507.108000", "135507.111000", "135526.884000", "135526.886000", "135526.893000", "135526.896000", "135526.898000", "135526.901000", "135526.904000", "135526.906000", "135526.909000", "135526.911000", "135526.914000", "135526.916000", "135526.919000", "135526.922000", "135526.924000", "135526.927000", "135526.929000", "135526.932000", "135526.934000", "135526.937000", "135526.939000", "135546.871000", "135546.874000", "135546.877000", "135546.879000", "135546.882000", "135546.884000", "135546.887000", "135546.889000", "135546.892000", "135546.895000", "135546.897000", "135546.900000", "135546.902000", "135546.905000", "135546.907000", "135546.910000", "135546.912000", "135546.915000", "135546.918000", "135546.920000", "135606.888000", "135606.891000", "135606.894000", "135606.896000", "135606.899000", "135606.901000", "135606.904000", "135606.907000", "135606.909000", "135606.912000", "135606.914000", "135606.917000", "135606.919000", "135606.922000", "135606.924000", "135606.927000", "135606.929000", "135606.932000", "135606.934000", "135606.937000", "135646.914000", "135646.916000", "135646.919000", "135646.921000", "135646.924000", "135646.927000", "135646.929000", "135646.932000", "135646.934000", "135646.937000", "135646.939000", "135646.942000", "135646.945000", "135646.947000", "135646.950000", "135646.952000", "135646.955000", "135646.957000", "135646.960000", "135646.963000", "135646.965000", "135646.968000", "135646.970000", "135646.973000", "135646.975000", "135646.978000", "135646.980000", "135646.983000", "135646.986000", "135726.921000", "135726.924000", "135726.927000", "135726.930000", "135726.933000", "135726.935000", "135726.938000", "135726.941000", "135726.943000", "135726.946000", "135726.948000", "135726.951000", "135726.953000", "135726.956000", "135726.958000", "135726.961000", "135726.963000", "135726.966000", "135726.968000", "135726.971000", "135726.974000", "135726.976000", "135726.979000", "135726.981000", "135726.984000", "135726.986000", "135807.214000", "135807.217000", "135807.219000", "135807.222000", "135807.224000", "135807.227000", "135807.229000", "135807.232000", "135807.234000", "135807.237000", "135807.240000", "135807.242000", "135807.245000", "135807.247000", "135807.250000", "135807.252000", "135807.255000", "135807.257000", "135807.260000", "135807.262000", "135807.265000", "135807.267000", "135807.270000", "135807.272000", "135807.275000", "135807.278000", "135807.280000", "135817.703000", "135817.706000", "135817.708000", "135817.711000", "135817.713000", "135817.716000", "135817.718000", "135817.721000"],
      "InstanceCreationTime": ["135507.013000", "135507.015000", "135507.018000", "135507.021000", "135507.023000", "135507.026000", "135507.029000", "135507.031000", "135507.034000", "135507.036000", "135507.039000", "135507.042000", "135507.044000", "135507.047000", "135507.049000", "135507.052000", "135507.054000", "135507.057000", "135507.059000", "135507.062000", "135507.065000", "135507.067000", "135507.070000", "135507.072000", "135507.075000", "135507.077000", "135507.080000", "135507.083000", "135507.085000", "135507.088000", "135507.090000", "135507.093000", "135507.096000", "135507.098000", "135507.101000", "135507.103000", "135507.106000", "135507.108000", "135507.111000", "135526.884000", "135526.886000", "135526.893000", "135526.896000", "135526.898000", "135526.901000", "135526.904000", "135526.906000", "135526.909000", "135526.911000", "135526.914000", "135526.916000", "135526.919000", "135526.922000", "135526.924000", "135526.927000", "135526.929000", "135526.932000", "135526.934000", "135526.937000", "135526.939000", "135546.871000", "135546.874000", "135546.877000", "135546.879000", "135546.882000", "135546.884000", "135546.887000", "135546.889000", "135546.892000", "135546.895000", "135546.897000", "135546.900000", "135546.902000", "135546.905000", "135546.907000", "135546.910000", "135546.912000", "135546.915000", "135546.918000", "135546.920000", "135606.888000", "135606.891000", "135606.894000", "135606.896000", "135606.899000", "135606.901000", "135606.904000", "135606.907000", "135606.909000", "135606.912000", "135606.914000", "135606.917000", "135606.919000", "135606.922000", "135606.924000", "135606.927000", "135606.929000", "135606.932000", "135606.934000", "135606.937000", "135646.914000", "135646.916000", "135646.919000", "135646.921000", "135646.924000", "135646.927000", "135646.929000", "135646.932000", "135646.934000", "135646.937000", "135646.939000", "135646.942000", "135646.945000", "135646.947000", "135646.950000", "135646.952000", "135646.955000", "135646.957000", "135646.960000", "135646.963000", "135646.965000", "135646.968000", "135646.970000", "135646.973000", "135646.975000", "135646.978000", "135646.980000", "135646.983000", "135646.986000", "135726.921000", "135726.924000", "135726.927000", "135726.930000", "135726.933000", "135726.935000", "135726.938000", "135726.941000", "135726.943000", "135726.946000", "135726.948000", "135726.951000", "135726.953000", "135726.956000", "135726.958000", "135726.961000", "135726.963000", "135726.966000", "135726.968000", "135726.971000", "135726.974000", "135726.976000", "135726.979000", "135726.981000", "135726.984000", "135726.986000", "135807.214000", "135807.217000", "135807.219000", "135807.222000", "135807.224000", "135807.227000", "135807.229000", "135807.232000", "135807.234000", "135807.237000", "135807.240000", "135807.242000", "135807.245000", "135807.247000", "135807.250000", "135807.252000", "135807.255000", "135807.257000", "135807.260000", "135807.262000", "135807.265000", "135807.267000", "135807.270000", "135807.272000", "135807.275000", "135807.278000", "135807.280000", "135817.703000", "135817.706000", "135817.708000", "135817.711000", "135817.713000", "135817.716000", "135817.718000", "135817.721000"],
      "InstanceNumber": [1, 2, 3, 4, 5, 6, 7, 8, 9, 10, 11, 12, 13, 14, 15, 16, 17, 18, 19, 20, 21, 22, 23, 24, 25, 26, 27, 28, 29, 30, 31, 32, 33, 34, 35, 36, 37, 38, 39, 40, 41, 42, 43, 44, 45, 46, 47, 48, 49, 50, 51, 52, 53, 54, 55, 56, 57, 58, 59, 60, 61, 62, 63, 64, 65, 66, 67, 68, 69, 70, 71, 72, 73, 74, 75, 76, 77, 78, 79, 80, 81, 82, 83, 84, 85, 86, 87, 88, 89, 90, 91, 92, 93, 94, 95, 96, 97, 98, 99, 100, 101, 102, 103, 104, 105, 106, 107, 108, 109, 110, 111, 112, 113, 114, 115, 116, 117, 118, 119, 120, 121, 122, 123, 124, 125, 126, 127, 128, 129, 130, 131, 132, 133, 134, 135, 136, 137, 138, 139, 140, 141, 142, 143, 144, 145, 146, 147, 148, 149, 150, 151, 152, 153, 154, 155, 156, 157, 158, 159, 160, 161, 162, 163, 164, 165, 166, 167, 168, 169, 170, 171, 172, 173, 174, 175, 176, 177, 178, 179, 180, 181, 182, 183, 184, 185, 186, 187, 188, 189, 190],
      "WindowCenter": [4768.0, 4798.0, 4792.0, 4794.0, 4790.0, 4792.0, 4794.0, 4790.0, 4792.0, 4768.0, 4792.0, 4766.0, 4792.0, 4790.0, 4792.0, 4768.0, 4792.0, 4768.0, 4792.0, 4770.0, 4792.0, 4768.0, 4790.0, 4790.0, 4792.0, 4770.0, 4792.0, 4794.0, 4768.0, 4768.0, 4792.0, 4768.0, 4792.0, 4766.0, 4792.0, 4766.0, 4792.0, 4790.0, 4792.0, 4792.0, 4790.0, 4770.0, 4792.0, 4768.0, 4792.0, 4790.0, 4794.0, 4792.0, 4792.0, 4792.0, 4768.0, 4790.0, 4794.0, 4796.0, 4792.0, 4794.0, 4792.0, 4792.0, 4768.0, 4766.0, 4764.0, 4768.0, 4794.0, 4790.0, 4790.0, 4768.0, 4768.0, 4790.0, 4768.0, 4770.0, 4790.0, 4770.0, 4788.0, 4788.0, 4768.0, 4792.0, 4770.0, 4766.0, 4794.0, 4792.0, 4768.0, 4766.0, 4792.0, 4766.0, 4768.0, 4790.0, 4792.0, 4768.0, 4794.0, 4762.0, 4766.0, 4764.0, 4792.0, 4768.0, 4766.0, 4766.0, 4766.0, 4766.0, 4790.0, 4766.0, 4768.0, 4770.0, 4790.0, 4768.0, 4766.0, 4792.0, 4768.0, 4792.0, 4790.0, 4790.0, 4770.0, 4766.0, 4766.0, 4790.0, 4768.0, 4768.0, 4790.0, 4792.0, 4790.0, 4766.0, 4794.0, 4768.0, 4768.0, 4766.0, 4768.0, 4768.0, 4770.0, 4788.0, 4766.0, 4766.0, 4792.0, 4792.0, 4794.0, 4768.0, 4792.0, 4764.0, 4770.0, 4768.0, 4790.0, 4790.0, 4766.0, 4766.0, 4794.0, 4792.0, 4790.0, 4766.0, 4766.0, 4770.0, 4790.0, 4790.0, 4766.0, 4770.0, 4790.0, 4766.0, 4792.0, 4766.0, 4788.0, 4768.0, 4768.0, 4766.0, 4762.0, 4788.0, 4768.0, 4792.0, 4792.0, 4770.0, 4766.0, 4768.0, 4768.0, 4772.0, 4764.0, 4790.0, 4766.0, 4792.0, 4766.0, 4792.0, 4768.0, 4792.0, 4766.0, 4792.0, 4768.0, 4792.0, 4766.0, 4792.0, 4768.0, 4792.0, 4792.0, 4766.0, 4792.0, 4770.0],
      "WindowWidth": [18584.0, 18618.0, 18614.0, 18616.0, 18612.0, 18612.0, 18614.0, 18608.0, 18618.0, 18580.0, 18616.0, 18576.0, 18616.0, 18620.0, 18616.0, 18584.0, 18612.0, 18586.0, 18616.0, 18580.0, 18616.0, 18578.0, 18612.0, 18616.0, 18616.0, 18580.0, 18616.0, 18616.0, 18582.0, 18584.0, 18612.0, 18578.0, 18614.0, 18582.0, 18610.0, 18586.0, 18614.0, 18612.0, 18614.0, 18610.0, 18612.0, 18578.0, 18610.0, 18582.0, 18614.0, 18608.0, 18618.0, 18618.0, 18614.0, 18610.0, 18580.0, 18616.0, 18616.0, 18616.0, 18616.0, 18616.0, 18616.0, 18610.0, 18582.0, 18580.0, 18576.0, 18586.0, 18620.0, 18614.0, 18618.0, 18582.0, 18580.0, 18616.0, 18582.0, 18584.0, 18612.0, 18578.0, 18610.0, 18614.0, 18584.0, 18612.0, 18584.0, 18580.0, 18614.0, 18616.0, 18582.0, 18582.0, 18612.0, 18578.0, 18582.0, 18610.0, 18612.0, 18580.0, 18616.0, 18578.0, 18584.0, 18580.0, 18614.0, 18578.0, 18582.0, 18580.0, 18584.0, 18584.0, 18610.0, 18580.0, 18580.0, 18586.0, 18612.0, 18580.0, 18584.0, 18614.0, 18584.0, 18610.0, 18614.0, 18612.0, 18582.0, 18578.0, 18578.0, 18610.0, 18582.0, 18580.0, 18614.0, 18610.0, 18614.0, 18580.0, 18612.0, 18576.0, 18584.0, 18582.0, 18584.0, 18576.0, 18580.0, 18614.0, 18578.0, 18578.0, 18612.0, 18610.0, 18614.0, 18584.0, 18612.0, 18574.0, 18584.0, 18578.0, 18610.0, 18612.0, 18580.0, 18582.0, 18614.0, 18610.0, 18610.0, 18580.0, 18582.0, 18582.0, 18614.0, 18614.0, 18576.0, 18584.0, 18612.0, 18580.0, 18616.0, 18578.0, 18616.0, 18578.0, 18580.0, 18576.0, 18576.0, 18610.0, 18582.0, 18616.0, 18614.0, 18584.0, 18574.0, 18580.0, 18580.0, 18582.0, 18576.0, 18610.0, 18578.0, 18614.0, 18580.0, 18610.0, 18580.0, 18614.0, 18578.0, 18612.0, 18580.0, 18612.0, 18580.0, 18610.0, 18580.0, 18612.0, 18616.0, 18584.0, 18612.0, 18580.0]
    },
    "slices": {}
  }
}