{
  "AcquisitionMatrixPE": 104,
  "AcquisitionNumber": 1,
  "AcquisitionTime": "13:22:53.002500",
  "BandwidthPerPixelPhaseEncode": 17.17,
  "BaseResolution": 104,
  "BodyPartExamined": "BRAIN",
  "CoilString": "HC1-7;NC1_2",
  "ConsistencyInfo": "N4_VE11C_LATEST_20160120",
  "ConversionSoftware": "dcm2niix",
  "ConversionSoftwareVersion": "v1.0.20190902",
  "DerivedVendorReportedEchoSpacing": 0.000560011,
  "DeviceSerialNumber": "167006",
  "DwellTime": 2.1e-06,
  "EchoTime": 0.037,
  "EchoTrainLength": 104,
  "EffectiveEchoSpacing": 0.000560011,
  "FlipAngle": 52,
  "HeudiconvVersion": "0.10.0",
  "ImageComments": "Unaliased_MB4_PE3_LB",
  "ImageOrientationPatientDICOM": [0.999333, 0.00230262, 0.036444, 0.0071512, 0.966345, -0.25715],
  "ImageType": [
    "ORIGINAL",
    "PRIMARY",
    "P",
    "MB",
    "ND",
    "MOSAIC"
],
  "ImagingFrequency": 123.259,
  "InPlanePhaseEncodingDirectionDICOM": "COL",
  "InstitutionAddress": "Chemin_Queen-Mary_4565_Montreal_District_CA_H3W_1W5",
  "InstitutionName": "IUGM",
  "InstitutionalDepartmentName": "Department",
  "MRAcquisitionType": "2D",
  "MagneticFieldStrength": 3,
  "Manufacturer": "Siemens",
  "ManufacturersModelName": "Prisma_fit",
  "Modality": "MR",
  "MultibandAccelerationFactor": 4,
  "PartialFourier": 1,
  "PatientPosition": "HFS",
  "PercentPhaseFOV": 100,
  "PhaseEncodingDirection": "j",
  "PhaseEncodingSteps": 104,
  "PhaseResolution": 1,
  "PixelBandwidth": 2290,
  "ProcedureStepDescription": "memory_things",
  "ProtocolName": "func_task-things_run-1",
  "PulseSequenceDetails": "%CustomerSeq%_cmrr_mbep2d_bold",
  "ReceiveCoilActiveElements": "HC1-7;NC1,2",
  "ReceiveCoilName": "HeadNeck_64",
  "ReconMatrixPE": 104,
  "RepetitionTime": 1.49,
  "SAR": 0.0472721,
  "ScanOptions": "FS",
  "ScanningSequence": "EP",
  "SequenceName": "epfid2d1_104",
  "SequenceVariant": "SK_SS",
  "SeriesDescription": "func_task-things_run-1",
  "SeriesNumber": 11,
  "ShimSetting": [640, -7209, -8784, 705, 33, 14, 42, 0],
  "SliceThickness": 2,
  "SliceTiming": [0, 0.7825, 0.0975, 0.88, 0.195, 0.98, 0.2925, 1.0775, 0.39, 1.175, 0.49, 1.2725, 0.5875, 1.37, 0.685, 0, 0.7825, 0.0975, 0.88, 0.195, 0.98, 0.2925, 1.0775, 0.39, 1.175, 0.49, 1.2725, 0.5875, 1.37, 0.685, 0, 0.7825, 0.0975, 0.88, 0.195, 0.98, 0.2925, 1.0775, 0.39, 1.175, 0.49, 1.2725, 0.5875, 1.37, 0.685, 0, 0.7825, 0.0975, 0.88, 0.195, 0.98, 0.2925, 1.0775, 0.39, 1.175, 0.49, 1.2725, 0.5875, 1.37, 0.685],
  "SoftwareVersions": "syngo_MR_E11",
  "SpacingBetweenSlices": 2,
  "StationName": "MRC35049",
  "TaskName": "things",
  "TotalReadoutTime": 0.0576811,
  "TxRefAmp": 228.419,
  "WipMemBlock": "4fd551d5-a9e6-4c39-8e84-4c8c36146fa4||Sequence: R016 ve11c/master r/e634e98; Dec 19 2017 11:00:25 by eja",
  "dcmmeta_affine": [
    [-1.9986660480499268, 0.014302399940788746, 0.07161914557218552, 106.36782836914062],
    [-0.004605244379490614, 1.9326902627944946, -0.5144777297973633, -74.21762084960938],
    [0.07288794219493866, 0.5142995119094849, 1.931368350982666, -63.69380569458008],
    [0.0, 0.0, 0.0, 1.0]
],
  "dcmmeta_reorient_transform": [
    [0.0, -1.0, 0.0, 103.0],
    [1.0, 0.0, 0.0, 0.0],
    [0.0, 0.0, 1.0, 0.0],
    [0.0, 0.0, 0.0, 1.0]
],
  "dcmmeta_shape": [104, 104, 60, 190],
  "dcmmeta_slice_dim": 2,
  "dcmmeta_version": 0.6,
  "global": {
    "const": {
      "AcquisitionMatrix": [104, 0, 0, 104],
      "AngioFlag": "N",
      "BitsAllocated": 16,
      "BitsStored": 16,
      "BodyPartExamined": "BRAIN",
      "Columns": 832,
      "EchoNumbers": 1,
      "EchoTime": 37.0,
      "EchoTrainLength": 104,
      "FlipAngle": 52.0,
      "HighBit": 15,
      "ImageOrientationPatient": [0.99933304499375, 0.00230262223015, 0.03644397226398, 0.00715120006273, 0.96634510799862, -0.257149747394],
      "ImagePositionPatient": [-840.56150546579, -830.02502278691, 149.95284654025],
      "ImageType": [
        "ORIGINAL",
        "PRIMARY",
        "P",
        "MB",
        "ND",
        "MOSAIC"
],
      "ImagedNucleus": "1H",
      "ImagingFrequency": 123.258899,
      "InPlanePhaseEncodingDirection": "COL",
      "LargestImagePixelValue": 4095,
      "MRAcquisitionType": "2D",
      "MagneticFieldStrength": 3.0,
      "Manufacturer": "SIEMENS",
      "ManufacturerModelName": "Prisma_fit",
      "Modality": "MR",
      "NumberOfAverages": 1.0,
      "NumberOfPhaseEncodingSteps": 104,
      "PercentPhaseFieldOfView": 100.0,
      "PercentSampling": 100.0,
      "PerformedProcedureStepStartTime": "124646.759000",
      "PhotometricInterpretation": "MONOCHROME2",
      "PixelBandwidth": 2290.0,
      "PixelRepresentation": 0,
      "PixelSpacing": [2.0, 2.0],
      "ProtocolName": "func_task-things_run-1",
      "RepetitionTime": 1490.0,
      "RescaleIntercept": -4096.0,
      "RescaleSlope": 2.0,
      "RescaleType": "US",
      "Rows": 832,
      "SAR": 0.04727207977569,
      "SamplesPerPixel": 1,
      "ScanOptions": "FS",
      "ScanningSequence": "EP",
      "SequenceName": "epfid2d1_104",
      "SequenceVariant": [
        "SK",
        "SS"
],
      "SeriesDescription": "func_task-things_run-1",
      "SeriesNumber": 11,
      "SeriesTime": "132418.000000",
      "SliceLocation": -38.607455963213,
      "SliceThickness": 2.0,
      "SmallestImagePixelValue": 0,
      "SoftwareVersions": "syngo MR E11",
      "SpacingBetweenSlices": 2.0000000857397,
      "SpecificCharacterSet": "ISO_IR 100",
      "StudyID": "1",
      "StudyTime": "124646.636000",
      "TransmitCoilName": "Body",
      "VariableFlipAngleFlag": "N",
      "WindowCenterWidthExplanation": "Algo1",
      "dBdt": 0.0},
    "slices": {}
  },
  "time": {
    "samples": {
      "AcquisitionNumber": [1, 2, 3, 4, 5, 6, 7, 8, 9, 10, 11, 12, 13, 14, 15, 16, 17, 18, 19, 20, 21, 22, 23, 24, 25, 26, 27, 28, 29, 30, 31, 32, 33, 34, 35, 36, 37, 38, 39, 40, 41, 42, 43, 44, 45, 46, 47, 48, 49, 50, 51, 52, 53, 54, 55, 56, 57, 58, 59, 60, 61, 62, 63, 64, 65, 66, 67, 68, 69, 70, 71, 72, 73, 74, 75, 76, 77, 78, 79, 80, 81, 82, 83, 84, 85, 86, 87, 88, 89, 90, 91, 92, 93, 94, 95, 96, 97, 98, 99, 100, 101, 102, 103, 104, 105, 106, 107, 108, 109, 110, 111, 112, 113, 114, 115, 116, 117, 118, 119, 120, 121, 122, 123, 124, 125, 126, 127, 128, 129, 130, 131, 132, 133, 134, 135, 136, 137, 138, 139, 140, 141, 142, 143, 144, 145, 146, 147, 148, 149, 150, 151, 152, 153, 154, 155, 156, 157, 158, 159, 160, 161, 162, 163, 164, 165, 166, 167, 168, 169, 170, 171, 172, 173, 174, 175, 176, 177, 178, 179, 180, 181, 182, 183, 184, 185, 186, 187, 188, 189, 190],
      "AcquisitionTime": ["132253.002500", "132254.492500", "132255.982500", "132257.472500", "132258.962500", "132300.452500", "132301.942500", "132303.432500", "132304.922500", "132306.412500", "132307.902500", "132309.392500", "132310.882500", "132312.372500", "132313.862500", "132315.352500", "132316.842500", "132318.332500", "132319.822500", "132321.312500", "132322.802500", "132324.292500", "132325.782500", "132327.272500", "132328.762500", "132330.252500", "132331.742500", "132333.232500", "132334.722500", "132336.212500", "132337.702500", "132339.192500", "132340.682500", "132342.172500", "132343.662500", "132345.152500", "132346.642500", "132348.132500", "132349.622500", "132351.112500", "132352.602500", "132354.092500", "132355.582500", "132357.072500", "132358.562500", "132400.052500", "132401.542500", "132403.032500", "132404.522500", "132406.012500", "132407.502500", "132408.992500", "132410.482500", "132411.972500", "132413.462500", "132414.952500", "132416.442500", "132417.932500", "132419.422500", "132420.912500", "132422.402500", "132423.892500", "132425.382500", "132426.872500", "132428.362500", "132429.852500", "132431.342500", "132432.832500", "132434.322500", "132435.812500", "132437.302500", "132438.792500", "132440.282500", "132441.772500", "132443.262500", "132444.752500", "132446.242500", "132447.732500", "132449.222500", "132450.712500", "132452.202500", "132453.692500", "132455.182500", "132456.672500", "132458.162500", "132459.652500", "132501.142500", "132502.632500", "132504.122500", "132505.612500", "132507.102500", "132508.592500", "132510.082500", "132511.572500", "132513.062500", "132514.552500", "132516.042500", "132517.532500", "132519.022500", "132520.512500", "132522.002500", "132523.492500", "132524.982500", "132526.472500", "132527.962500", "132529.452500", "132530.942500", "132532.432500", "132533.922500", "132535.412500", "132536.902500", "132538.392500", "132539.882500", "132541.372500", "132542.862500", "132544.352500", "132545.842500", "132547.332500", "132548.822500", "132550.312500", "132551.802500", "132553.292500", "132554.782500", "132556.272500", "132557.762500", "132559.252500", "132600.742500", "132602.232500", "132603.722500", "132605.212500", "132606.702500", "132608.192500", "132609.682500", "132611.172500", "132612.662500", "132614.152500", "132615.642500", "132617.132500", "132618.622500", "132620.112500", "132621.602500", "132623.092500", "132624.582500", "132626.072500", "132627.562500", "132629.052500", "132630.542500", "132632.032500", "132633.522500", "132635.012500", "132636.502500", "132637.992500", "132639.482500", "132640.972500", "132642.462500", "132643.952500", "132645.442500", "132646.932500", "132648.422500", "132649.912500", "132651.402500", "132652.892500", "132654.382500", "132655.872500", "132657.362500", "132658.852500", "132700.342500", "132701.832500", "132703.322500", "132704.812500", "132706.302500", "132707.792500", "132709.282500", "132710.772500", "132712.262500", "132713.752500", "132715.242500", "132716.732500", "132718.222500", "132719.712500", "132721.202500", "132722.692500", "132724.182500", "132725.672500", "132727.162500", "132728.652500", "132730.142500", "132731.632500", "132733.122500", "132734.612500"],
      "ContentTime": ["132418.002000", "132418.004000", "132418.007000", "132418.010000", "132418.012000", "132418.015000", "132418.017000", "132418.020000", "132418.027000", "132418.030000", "132418.032000", "132418.035000", "132418.037000", "132418.040000", "132418.042000", "132418.045000", "132418.047000", "132418.050000", "132418.052000", "132418.055000", "132418.058000", "132418.060000", "132418.063000", "132418.065000", "132418.068000", "132418.070000", "132418.073000", "132418.075000", "132418.078000", "132418.080000", "132418.083000", "132418.086000", "132437.890000", "132437.893000", "132437.896000", "132437.898000", "132437.901000", "132437.903000", "132437.906000", "132437.908000", "132437.911000", "132437.913000", "132437.916000", "132437.918000", "132437.921000", "132437.923000", "132437.926000", "132437.928000", "132437.931000", "132437.933000", "132437.936000", "132437.938000", "132457.906000", "132457.909000", "132457.911000", "132457.914000", "132457.916000", "132457.919000", "132457.921000", "132457.924000", "132457.927000", "132457.929000", "132457.932000", "132457.934000", "132457.937000", "132457.939000", "132457.942000", "132457.944000", "132457.947000", "132457.949000", "132457.952000", "132457.954000", "132517.906000", "132517.908000", "132517.911000", "132517.914000", "132517.916000", "132517.919000", "132517.922000", "132517.925000", "132517.927000", "132517.930000", "132517.932000", "132517.935000", "132517.938000", "132517.940000", "132517.943000", "132517.945000", "132517.948000", "132517.950000", "132517.953000", "132517.955000", "132517.958000", "132557.939000", "132557.941000", "132557.944000", "132557.946000", "132557.949000", "132557.952000", "132557.954000", "132557.957000", "132557.959000", "132557.962000", "132557.964000", "132557.967000", "132557.969000", "132557.972000", "132557.974000", "132557.977000", "132557.979000", "132557.982000", "132557.984000", "132557.987000", "132557.989000", "132557.992000", "132557.995000", "132557.997000", "132558.001000", "132558.003000", "132558.006000", "132558.008000", "132558.011000", "132558.013000", "132637.938000", "132637.941000", "132637.944000", "132637.947000", "132637.949000", "132637.952000", "132637.954000", "132637.957000", "132637.959000", "132637.962000", "132637.964000", "132637.967000", "132637.969000", "132637.972000", "132637.975000", "132637.977000", "132637.980000", "132637.982000", "132637.985000", "132637.987000", "132637.990000", "132637.992000", "132637.995000", "132637.997000", "132638.001000", "132638.003000", "132638.006000", "132657.873000", "132657.876000", "132657.879000", "132657.882000", "132657.885000", "132657.889000", "132657.893000", "132657.897000", "132657.900000", "132657.903000", "132657.905000", "132657.908000", "132657.911000", "132736.822000", "132736.825000", "132736.828000", "132736.831000", "132736.834000", "132736.837000", "132736.840000", "132736.843000", "132736.846000", "132736.849000", "132736.851000", "132736.854000", "132736.857000", "132736.860000", "132736.863000", "132736.865000", "132736.868000", "132736.871000", "132736.874000", "132736.877000", "132736.880000", "132736.883000", "132736.887000", "132736.890000", "132736.893000", "132736.896000", "132736.899000"],
      "InstanceCreationTime": ["132418.002000", "132418.004000", "132418.007000", "132418.010000", "132418.012000", "132418.015000", "132418.017000", "132418.020000", "132418.027000", "132418.030000", "132418.032000", "132418.035000", "132418.037000", "132418.040000", "132418.042000", "132418.045000", "132418.047000", "132418.050000", "132418.052000", "132418.055000", "132418.058000", "132418.060000", "132418.063000", "132418.065000", "132418.068000", "132418.070000", "132418.073000", "132418.075000", "132418.078000", "132418.080000", "132418.083000", "132418.086000", "132437.890000", "132437.893000", "132437.896000", "132437.898000", "132437.901000", "132437.903000", "132437.906000", "132437.908000", "132437.911000", "132437.913000", "132437.916000", "132437.918000", "132437.921000", "132437.923000", "132437.926000", "132437.928000", "132437.931000", "132437.933000", "132437.936000", "132437.938000", "132457.906000", "132457.909000", "132457.911000", "132457.914000", "132457.916000", "132457.919000", "132457.921000", "132457.924000", "132457.927000", "132457.929000", "132457.932000", "132457.934000", "132457.937000", "132457.939000", "132457.942000", "132457.944000", "132457.947000", "132457.949000", "132457.952000", "132457.954000", "132517.906000", "132517.908000", "132517.911000", "132517.914000", "132517.916000", "132517.919000", "132517.922000", "132517.925000", "132517.927000", "132517.930000", "132517.932000", "132517.935000", "132517.938000", "132517.940000", "132517.943000", "132517.945000", "132517.948000", "132517.950000", "132517.953000", "132517.955000", "132517.958000", "132557.939000", "132557.941000", "132557.944000", "132557.946000", "132557.949000", "132557.952000", "132557.954000", "132557.957000", "132557.959000", "132557.962000", "132557.964000", "132557.967000", "132557.969000", "132557.972000", "132557.974000", "132557.977000", "132557.979000", "132557.982000", "132557.984000", "132557.987000", "132557.989000", "132557.992000", "132557.995000", "132557.997000", "132558.001000", "132558.003000", "132558.006000", "132558.008000", "132558.011000", "132558.013000", "132637.938000", "132637.941000", "132637.944000", "132637.947000", "132637.949000", "132637.952000", "132637.954000", "132637.957000", "132637.959000", "132637.962000", "132637.964000", "132637.967000", "132637.969000", "132637.972000", "132637.975000", "132637.977000", "132637.980000", "132637.982000", "132637.985000", "132637.987000", "132637.990000", "132637.992000", "132637.995000", "132637.997000", "132638.001000", "132638.003000", "132638.006000", "132657.873000", "132657.876000", "132657.879000", "132657.882000", "132657.885000", "132657.889000", "132657.893000", "132657.897000", "132657.900000", "132657.903000", "132657.905000", "132657.908000", "132657.911000", "132736.822000", "132736.825000", "132736.828000", "132736.831000", "132736.834000", "132736.837000", "132736.840000", "132736.843000", "132736.846000", "132736.849000", "132736.851000", "132736.854000", "132736.857000", "132736.860000", "132736.863000", "132736.865000", "132736.868000", "132736.871000", "132736.874000", "132736.877000", "132736.880000", "132736.883000", "132736.887000", "132736.890000", "132736.893000", "132736.896000", "132736.899000"],
      "InstanceNumber": [1, 2, 3, 4, 5, 6, 7, 8, 9, 10, 11, 12, 13, 14, 15, 16, 17, 18, 19, 20, 21, 22, 23, 24, 25, 26, 27, 28, 29, 30, 31, 32, 33, 34, 35, 36, 37, 38, 39, 40, 41, 42, 43, 44, 45, 46, 47, 48, 49, 50, 51, 52, 53, 54, 55, 56, 57, 58, 59, 60, 61, 62, 63, 64, 65, 66, 67, 68, 69, 70, 71, 72, 73, 74, 75, 76, 77, 78, 79, 80, 81, 82, 83, 84, 85, 86, 87, 88, 89, 90, 91, 92, 93, 94, 95, 96, 97, 98, 99, 100, 101, 102, 103, 104, 105, 106, 107, 108, 109, 110, 111, 112, 113, 114, 115, 116, 117, 118, 119, 120, 121, 122, 123, 124, 125, 126, 127, 128, 129, 130, 131, 132, 133, 134, 135, 136, 137, 138, 139, 140, 141, 142, 143, 144, 145, 146, 147, 148, 149, 150, 151, 152, 153, 154, 155, 156, 157, 158, 159, 160, 161, 162, 163, 164, 165, 166, 167, 168, 169, 170, 171, 172, 173, 174, 175, 176, 177, 178, 179, 180, 181, 182, 183, 184, 185, 186, 187, 188, 189, 190],
      "WindowCenter": [4738.0, 4744.0, 4746.0, 4742.0, 4742.0, 4742.0, 4744.0, 4744.0, 4742.0, 4742.0, 4744.0, 4742.0, 4744.0, 4744.0, 4744.0, 4744.0, 4746.0, 4744.0, 4742.0, 4742.0, 4740.0, 4742.0, 4742.0, 4746.0, 4744.0, 4742.0, 4740.0, 4742.0, 4742.0, 4742.0, 4740.0, 4744.0, 4744.0, 4740.0, 4740.0, 4742.0, 4746.0, 4742.0, 4740.0, 4744.0, 4746.0, 4744.0, 4742.0, 4746.0, 4742.0, 4744.0, 4742.0, 4744.0, 4740.0, 4742.0, 4740.0, 4742.0, 4744.0, 4742.0, 4740.0, 4742.0, 4744.0, 4742.0, 4742.0, 4742.0, 4744.0, 4740.0, 4740.0, 4742.0, 4742.0, 4742.0, 4744.0, 4740.0, 4744.0, 4746.0, 4742.0, 4744.0, 4742.0, 4742.0, 4738.0, 4744.0, 4744.0, 4742.0, 4742.0, 4744.0, 4742.0, 4742.0, 4742.0, 4742.0, 4742.0, 4742.0, 4744.0, 4744.0, 4742.0, 4748.0, 4744.0, 4746.0, 4742.0, 4742.0, 4742.0, 4742.0, 4738.0, 4740.0, 4744.0, 4742.0, 4744.0, 4740.0, 4740.0, 4744.0, 4742.0, 4742.0, 4748.0, 4740.0, 4742.0, 4740.0, 4742.0, 4742.0, 4744.0, 4742.0, 4742.0, 4742.0, 4746.0, 4742.0, 4740.0, 4742.0, 4744.0, 4744.0, 4744.0, 4742.0, 4742.0, 4742.0, 4740.0, 4744.0, 4742.0, 4742.0, 4746.0, 4740.0, 4744.0, 4742.0, 4742.0, 4744.0, 4740.0, 4742.0, 4744.0, 4744.0, 4742.0, 4744.0, 4748.0, 4744.0, 4744.0, 4744.0, 4744.0, 4746.0, 4742.0, 4742.0, 4744.0, 4742.0, 4742.0, 4740.0, 4742.0, 4742.0, 4740.0, 4742.0, 4746.0, 4740.0, 4740.0, 4740.0, 4740.0, 4744.0, 4744.0, 4742.0, 4744.0, 4740.0, 4742.0, 4744.0, 4742.0, 4742.0, 4744.0, 4740.0, 4742.0, 4742.0, 4740.0, 4744.0, 4744.0, 4742.0, 4740.0, 4738.0, 4744.0, 4742.0, 4744.0, 4742.0, 4744.0, 4744.0, 4718.0, 4742.0],
      "WindowWidth": [18532.0, 18536.0, 18538.0, 18536.0, 18538.0, 18536.0, 18540.0, 18538.0, 18538.0, 18542.0, 18540.0, 18536.0, 18538.0, 18540.0, 18538.0, 18538.0, 18542.0, 18538.0, 18532.0, 18540.0, 18532.0, 18540.0, 18534.0, 18536.0, 18536.0, 18536.0, 18534.0, 18532.0, 18536.0, 18536.0, 18536.0, 18532.0, 18532.0, 18536.0, 18538.0, 18536.0, 18538.0, 18532.0, 18538.0, 18536.0, 18534.0, 18538.0, 18536.0, 18538.0, 18534.0, 18540.0, 18532.0, 18532.0, 18536.0, 18536.0, 18532.0, 18536.0, 18536.0, 18540.0, 18532.0, 18536.0, 18534.0, 18530.0, 18534.0, 18530.0, 18534.0, 18532.0, 18536.0, 18534.0, 18530.0, 18536.0, 18534.0, 18532.0, 18538.0, 18538.0, 18536.0, 18534.0, 18534.0, 18538.0, 18530.0, 18540.0, 18542.0, 18536.0, 18532.0, 18536.0, 18534.0, 18534.0, 18538.0, 18538.0, 18534.0, 18538.0, 18542.0, 18540.0, 18536.0, 18544.0, 18538.0, 18542.0, 18534.0, 18536.0, 18536.0, 18536.0, 18536.0, 18532.0, 18536.0, 18532.0, 18538.0, 18534.0, 18532.0, 18534.0, 18538.0, 18534.0, 18542.0, 18534.0, 18534.0, 18530.0, 18538.0, 18538.0, 18538.0, 18534.0, 18534.0, 18534.0, 18538.0, 18536.0, 18534.0, 18538.0, 18538.0, 18534.0, 18540.0, 18534.0, 18532.0, 18536.0, 18536.0, 18538.0, 18536.0, 18534.0, 18540.0, 18534.0, 18536.0, 18532.0, 18536.0, 18538.0, 18534.0, 18540.0, 18536.0, 18540.0, 18530.0, 18538.0, 18544.0, 18534.0, 18534.0, 18538.0, 18538.0, 18536.0, 18536.0, 18536.0, 18540.0, 18538.0, 18538.0, 18532.0, 18534.0, 18530.0, 18534.0, 18536.0, 18536.0, 18532.0, 18526.0, 18534.0, 18534.0, 18540.0, 18534.0, 18534.0, 18532.0, 18538.0, 18538.0, 18536.0, 18532.0, 18536.0, 18532.0, 18532.0, 18538.0, 18528.0, 18530.0, 18542.0, 18534.0, 18532.0, 18532.0, 18538.0, 18540.0, 18536.0, 18536.0, 18534.0, 18536.0, 18534.0, 18500.0, 18534.0]
    },
    "slices": {}
  }
}