{
  "AcquisitionMatrixPE": 104,
  "AcquisitionNumber": 1,
  "AcquisitionTime": "13:35:11.487500",
  "BandwidthPerPixelPhaseEncode": 17.17,
  "BaseResolution": 104,
  "BodyPartExamined": "BRAIN",
  "CoilString": "HC1-7;NC1_2",
  "ConsistencyInfo": "N4_VE11C_LATEST_20160120",
  "ConversionSoftware": "dcm2niix",
  "ConversionSoftwareVersion": "v1.0.20190902",
  "DerivedVendorReportedEchoSpacing": 0.000560011,
  "DeviceSerialNumber": "167006",
  "DwellTime": 2.1e-06,
  "EchoTime": 0.037,
  "EchoTrainLength": 104,
  "EffectiveEchoSpacing": 0.000560011,
  "FlipAngle": 52,
  "HeudiconvVersion": "0.10.0",
  "ImageComments": "Unaliased_MB4_PE3_LB",
  "ImageOrientationPatientDICOM": [0.999333, 0.00230262, 0.036444, 0.0071512, 0.966345, -0.25715],
  "ImageType": [
    "ORIGINAL",
    "PRIMARY",
    "P",
    "MB",
    "ND",
    "MOSAIC"
],
  "ImagingFrequency": 123.259,
  "InPlanePhaseEncodingDirectionDICOM": "COL",
  "InstitutionAddress": "Chemin_Queen-Mary_4565_Montreal_District_CA_H3W_1W5",
  "InstitutionName": "IUGM",
  "InstitutionalDepartmentName": "Department",
  "MRAcquisitionType": "2D",
  "MagneticFieldStrength": 3,
  "Manufacturer": "Siemens",
  "ManufacturersModelName": "Prisma_fit",
  "Modality": "MR",
  "MultibandAccelerationFactor": 4,
  "PartialFourier": 1,
  "PatientPosition": "HFS",
  "PercentPhaseFOV": 100,
  "PhaseEncodingDirection": "j",
  "PhaseEncodingSteps": 104,
  "PhaseResolution": 1,
  "PixelBandwidth": 2290,
  "ProcedureStepDescription": "memory_things",
  "ProtocolName": "func_task-things_run-3",
  "PulseSequenceDetails": "%CustomerSeq%_cmrr_mbep2d_bold",
  "ReceiveCoilActiveElements": "HC1-7;NC1,2",
  "ReceiveCoilName": "HeadNeck_64",
  "ReconMatrixPE": 104,
  "RepetitionTime": 1.49,
  "SAR": 0.0472721,
  "ScanOptions": "FS",
  "ScanningSequence": "EP",
  "SequenceName": "epfid2d1_104",
  "SequenceVariant": "SK_SS",
  "SeriesDescription": "func_task-things_run-3",
  "SeriesNumber": 17,
  "ShimSetting": [640, -7209, -8784, 705, 33, 14, 42, 0],
  "SliceThickness": 2,
  "SliceTiming": [0, 0.7825, 0.0975, 0.88, 0.195, 0.9775, 0.2925, 1.0775, 0.39, 1.175, 0.4875, 1.2725, 0.5875, 1.37, 0.685, 0, 0.7825, 0.0975, 0.88, 0.195, 0.9775, 0.2925, 1.0775, 0.39, 1.175, 0.4875, 1.2725, 0.5875, 1.37, 0.685, 0, 0.7825, 0.0975, 0.88, 0.195, 0.9775, 0.2925, 1.0775, 0.39, 1.175, 0.4875, 1.2725, 0.5875, 1.37, 0.685, 0, 0.7825, 0.0975, 0.88, 0.195, 0.9775, 0.2925, 1.0775, 0.39, 1.175, 0.4875, 1.2725, 0.5875, 1.37, 0.685],
  "SoftwareVersions": "syngo_MR_E11",
  "SpacingBetweenSlices": 2,
  "StationName": "MRC35049",
  "TaskName": "things",
  "TotalReadoutTime": 0.0576811,
  "TxRefAmp": 228.419,
  "WipMemBlock": "2f19a855-b52d-4c38-bb6a-98786d2bcbd0||Sequence: R016 ve11c/master r/e634e98; Dec 19 2017 11:00:25 by eja",
  "dcmmeta_affine": [
    [-1.9986660480499268, 0.014302399940788746, 0.07161914557218552, 106.36782836914062],
    [-0.004605244379490614, 1.9326902627944946, -0.5144777297973633, -74.21762084960938],
    [0.07288794219493866, 0.5142995119094849, 1.931368350982666, -63.69380569458008],
    [0.0, 0.0, 0.0, 1.0]
],
  "dcmmeta_reorient_transform": [
    [0.0, -1.0, 0.0, 103.0],
    [1.0, 0.0, 0.0, 0.0],
    [0.0, 0.0, 1.0, 0.0],
    [0.0, 0.0, 0.0, 1.0]
],
  "dcmmeta_shape": [104, 104, 60, 190],
  "dcmmeta_slice_dim": 2,
  "dcmmeta_version": 0.6,
  "global": {
    "const": {
      "AcquisitionMatrix": [104, 0, 0, 104],
      "AngioFlag": "N",
      "BitsAllocated": 16,
      "BitsStored": 16,
      "BodyPartExamined": "BRAIN",
      "Columns": 832,
      "EchoNumbers": 1,
      "EchoTime": 37.0,
      "EchoTrainLength": 104,
      "FlipAngle": 52.0,
      "HighBit": 15,
      "ImageOrientationPatient": [0.99933304499375, 0.00230262223015, 0.03644397226398, 0.00715120006273, 0.96634510799862, -0.257149747394],
      "ImagePositionPatient": [-840.56150546579, -830.02502278691, 149.95284654025],
      "ImageType": [
        "ORIGINAL",
        "PRIMARY",
        "P",
        "MB",
        "ND",
        "MOSAIC"
],
      "ImagedNucleus": "1H",
      "ImagingFrequency": 123.258908,
      "InPlanePhaseEncodingDirection": "COL",
      "LargestImagePixelValue": 4095,
      "MRAcquisitionType": "2D",
      "MagneticFieldStrength": 3.0,
      "Manufacturer": "SIEMENS",
      "ManufacturerModelName": "Prisma_fit",
      "Modality": "MR",
      "NumberOfAverages": 1.0,
      "NumberOfPhaseEncodingSteps": 104,
      "PercentPhaseFieldOfView": 100.0,
      "PercentSampling": 100.0,
      "PerformedProcedureStepStartTime": "124646.759000",
      "PhotometricInterpretation": "MONOCHROME2",
      "PixelBandwidth": 2290.0,
      "PixelRepresentation": 0,
      "PixelSpacing": [2.0, 2.0],
      "ProtocolName": "func_task-things_run-3",
      "RepetitionTime": 1490.0,
      "RescaleIntercept": -4096.0,
      "RescaleSlope": 2.0,
      "RescaleType": "US",
      "Rows": 832,
      "SAR": 0.04727207977569,
      "SamplesPerPixel": 1,
      "ScanOptions": "FS",
      "ScanningSequence": "EP",
      "SequenceName": "epfid2d1_104",
      "SequenceVariant": [
        "SK",
        "SS"
],
      "SeriesDescription": "func_task-things_run-3",
      "SeriesNumber": 17,
      "SeriesTime": "133626.931000",
      "SliceLocation": -38.607455963213,
      "SliceThickness": 2.0,
      "SmallestImagePixelValue": 0,
      "SoftwareVersions": "syngo MR E11",
      "SpacingBetweenSlices": 2.0000000857397,
      "SpecificCharacterSet": "ISO_IR 100",
      "StudyID": "1",
      "StudyTime": "124646.636000",
      "TransmitCoilName": "Body",
      "VariableFlipAngleFlag": "N",
      "WindowCenterWidthExplanation": "Algo1",
      "dBdt": 0.0},
    "slices": {}
  },
  "time": {
    "samples": {
      "AcquisitionNumber": [1, 2, 3, 4, 5, 6, 7, 8, 9, 10, 11, 12, 13, 14, 15, 16, 17, 18, 19, 20, 21, 22, 23, 24, 25, 26, 27, 28, 29, 30, 31, 32, 33, 34, 35, 36, 37, 38, 39, 40, 41, 42, 43, 44, 45, 46, 47, 48, 49, 50, 51, 52, 53, 54, 55, 56, 57, 58, 59, 60, 61, 62, 63, 64, 65, 66, 67, 68, 69, 70, 71, 72, 73, 74, 75, 76, 77, 78, 79, 80, 81, 82, 83, 84, 85, 86, 87, 88, 89, 90, 91, 92, 93, 94, 95, 96, 97, 98, 99, 100, 101, 102, 103, 104, 105, 106, 107, 108, 109, 110, 111, 112, 113, 114, 115, 116, 117, 118, 119, 120, 121, 122, 123, 124, 125, 126, 127, 128, 129, 130, 131, 132, 133, 134, 135, 136, 137, 138, 139, 140, 141, 142, 143, 144, 145, 146, 147, 148, 149, 150, 151, 152, 153, 154, 155, 156, 157, 158, 159, 160, 161, 162, 163, 164, 165, 166, 167, 168, 169, 170, 171, 172, 173, 174, 175, 176, 177, 178, 179, 180, 181, 182, 183, 184, 185, 186, 187, 188, 189, 190],
      "AcquisitionTime": ["133511.487500", "133512.977500", "133514.467500", "133515.957500", "133517.447500", "133518.937500", "133520.427500", "133521.917500", "133523.407500", "133524.897500", "133526.387500", "133527.877500", "133529.367500", "133530.857500", "133532.347500", "133533.837500", "133535.327500", "133536.817500", "133538.307500", "133539.797500", "133541.287500", "133542.777500", "133544.267500", "133545.757500", "133547.247500", "133548.737500", "133550.227500", "133551.717500", "133553.207500", "133554.697500", "133556.187500", "133557.677500", "133559.167500", "133600.657500", "133602.147500", "133603.637500", "133605.127500", "133606.617500", "133608.107500", "133609.597500", "133611.087500", "133612.577500", "133614.067500", "133615.557500", "133617.047500", "133618.537500", "133620.027500", "133621.517500", "133623.007500", "133624.497500", "133625.987500", "133627.477500", "133628.967500", "133630.457500", "133631.947500", "133633.437500", "133634.927500", "133636.417500", "133637.907500", "133639.397500", "133640.887500", "133642.377500", "133643.867500", "133645.357500", "133646.847500", "133648.337500", "133649.827500", "133651.317500", "133652.807500", "133654.297500", "133655.787500", "133657.277500", "133658.767500", "133700.257500", "133701.747500", "133703.237500", "133704.727500", "133706.217500", "133707.707500", "133709.197500", "133710.687500", "133712.177500", "133713.667500", "133715.157500", "133716.647500", "133718.137500", "133719.627500", "133721.117500", "133722.607500", "133724.097500", "133725.587500", "133727.077500", "133728.567500", "133730.057500", "133731.547500", "133733.037500", "133734.527500", "133736.017500", "133737.507500", "133738.997500", "133740.487500", "133741.977500", "133743.467500", "133744.957500", "133746.447500", "133747.937500", "133749.427500", "133750.917500", "133752.407500", "133753.897500", "133755.387500", "133756.877500", "133758.367500", "133759.857500", "133801.347500", "133802.837500", "133804.327500", "133805.817500", "133807.307500", "133808.797500", "133810.287500", "133811.777500", "133813.267500", "133814.757500", "133816.247500", "133817.737500", "133819.227500", "133820.717500", "133822.207500", "133823.697500", "133825.187500", "133826.677500", "133828.167500", "133829.657500", "133831.147500", "133832.637500", "133834.127500", "133835.617500", "133837.107500", "133838.597500", "133840.087500", "133841.577500", "133843.067500", "133844.557500", "133846.047500", "133847.537500", "133849.027500", "133850.517500", "133852.007500", "133853.497500", "133854.987500", "133856.477500", "133857.967500", "133859.457500", "133900.947500", "133902.437500", "133903.927500", "133905.417500", "133906.907500", "133908.397500", "133909.887500", "133911.377500", "133912.867500", "133914.357500", "133915.847500", "133917.337500", "133918.827500", "133920.317500", "133921.807500", "133923.297500", "133924.787500", "133926.277500", "133927.767500", "133929.257500", "133930.747500", "133932.237500", "133933.727500", "133935.217500", "133936.707500", "133938.197500", "133939.687500", "133941.177500", "133942.667500", "133944.157500", "133945.647500", "133947.137500", "133948.627500", "133950.117500", "133951.607500", "133953.097500"],
      "ContentTime": ["133626.933000", "133626.936000", "133626.939000", "133626.941000", "133626.944000", "133626.946000", "133626.949000", "133626.951000", "133626.954000", "133626.957000", "133626.959000", "133626.961000", "133626.964000", "133626.966000", "133626.969000", "133626.971000", "133626.974000", "133626.976000", "133626.979000", "133626.981000", "133626.984000", "133646.884000", "133646.886000", "133646.889000", "133646.891000", "133646.894000", "133646.897000", "133646.899000", "133646.902000", "133646.904000", "133646.907000", "133646.909000", "133646.911000", "133646.914000", "133646.916000", "133646.919000", "133646.921000", "133646.924000", "133646.926000", "133646.929000", "133646.932000", "133706.883000", "133706.885000", "133706.888000", "133706.890000", "133706.893000", "133706.896000", "133706.898000", "133706.901000", "133706.903000", "133706.906000", "133706.908000", "133706.911000", "133706.913000", "133706.916000", "133706.918000", "133706.921000", "133706.923000", "133706.926000", "133706.928000", "133706.932000", "133726.882000", "133726.884000", "133726.887000", "133726.890000", "133726.892000", "133726.895000", "133726.897000", "133726.900000", "133726.902000", "133726.905000", "133726.907000", "133726.910000", "133726.912000", "133726.915000", "133726.917000", "133726.920000", "133726.922000", "133726.925000", "133726.927000", "133726.930000", "133726.932000", "133746.881000", "133746.884000", "133746.886000", "133746.889000", "133746.892000", "133746.894000", "133746.897000", "133746.899000", "133746.902000", "133746.904000", "133746.907000", "133746.909000", "133746.912000", "133746.914000", "133746.917000", "133746.919000", "133746.922000", "133746.925000", "133746.927000", "133746.930000", "133826.912000", "133826.915000", "133826.920000", "133826.923000", "133826.926000", "133826.928000", "133826.931000", "133826.933000", "133826.936000", "133826.938000", "133826.941000", "133826.944000", "133826.946000", "133826.949000", "133826.951000", "133826.954000", "133826.957000", "133826.959000", "133826.962000", "133826.965000", "133826.995000", "133826.998000", "133827.001000", "133827.004000", "133827.007000", "133827.009000", "133827.012000", "133827.014000", "133906.908000", "133906.911000", "133906.914000", "133906.916000", "133906.919000", "133906.921000", "133906.924000", "133906.927000", "133906.929000", "133906.932000", "133906.934000", "133906.937000", "133906.940000", "133906.943000", "133906.945000", "133906.948000", "133906.950000", "133906.953000", "133906.955000", "133906.958000", "133906.961000", "133906.963000", "133906.966000", "133906.968000", "133906.971000", "133906.973000", "133906.976000", "133946.910000", "133946.913000", "133946.916000", "133946.918000", "133946.921000", "133946.924000", "133946.926000", "133946.929000", "133946.931000", "133946.934000", "133946.937000", "133946.939000", "133946.942000", "133946.944000", "133946.950000", "133946.953000", "133946.955000", "133946.958000", "133946.961000", "133946.963000", "133946.966000", "133946.968000", "133946.971000", "133946.973000", "133946.976000", "133946.979000", "133946.981000", "133955.560000", "133955.563000", "133955.566000", "133955.568000", "133955.571000", "133955.574000"],
      "InstanceCreationTime": ["133626.933000", "133626.936000", "133626.939000", "133626.941000", "133626.944000", "133626.946000", "133626.949000", "133626.951000", "133626.954000", "133626.957000", "133626.959000", "133626.961000", "133626.964000", "133626.966000", "133626.969000", "133626.971000", "133626.974000", "133626.976000", "133626.979000", "133626.981000", "133626.984000", "133646.884000", "133646.886000", "133646.889000", "133646.891000", "133646.894000", "133646.897000", "133646.899000", "133646.902000", "133646.904000", "133646.907000", "133646.909000", "133646.911000", "133646.914000", "133646.916000", "133646.919000", "133646.921000", "133646.924000", "133646.926000", "133646.929000", "133646.932000", "133706.883000", "133706.885000", "133706.888000", "133706.890000", "133706.893000", "133706.896000", "133706.898000", "133706.901000", "133706.903000", "133706.906000", "133706.908000", "133706.911000", "133706.913000", "133706.916000", "133706.918000", "133706.921000", "133706.923000", "133706.926000", "133706.928000", "133706.932000", "133726.882000", "133726.884000", "133726.887000", "133726.890000", "133726.892000", "133726.895000", "133726.897000", "133726.900000", "133726.902000", "133726.905000", "133726.907000", "133726.910000", "133726.912000", "133726.915000", "133726.917000", "133726.920000", "133726.922000", "133726.925000", "133726.927000", "133726.930000", "133726.932000", "133746.881000", "133746.884000", "133746.886000", "133746.889000", "133746.892000", "133746.894000", "133746.897000", "133746.899000", "133746.902000", "133746.904000", "133746.907000", "133746.909000", "133746.912000", "133746.914000", "133746.917000", "133746.919000", "133746.922000", "133746.925000", "133746.927000", "133746.930000", "133826.912000", "133826.915000", "133826.920000", "133826.923000", "133826.926000", "133826.928000", "133826.931000", "133826.933000", "133826.936000", "133826.938000", "133826.941000", "133826.944000", "133826.946000", "133826.949000", "133826.951000", "133826.954000", "133826.957000", "133826.959000", "133826.962000", "133826.965000", "133826.995000", "133826.998000", "133827.001000", "133827.004000", "133827.007000", "133827.009000", "133827.012000", "133827.014000", "133906.908000", "133906.911000", "133906.914000", "133906.916000", "133906.919000", "133906.921000", "133906.924000", "133906.927000", "133906.929000", "133906.932000", "133906.934000", "133906.937000", "133906.940000", "133906.943000", "133906.945000", "133906.948000", "133906.950000", "133906.953000", "133906.955000", "133906.958000", "133906.961000", "133906.963000", "133906.966000", "133906.968000", "133906.971000", "133906.973000", "133906.976000", "133946.910000", "133946.913000", "133946.916000", "133946.918000", "133946.921000", "133946.924000", "133946.926000", "133946.929000", "133946.931000", "133946.934000", "133946.937000", "133946.939000", "133946.942000", "133946.944000", "133946.950000", "133946.953000", "133946.955000", "133946.958000", "133946.961000", "133946.963000", "133946.966000", "133946.968000", "133946.971000", "133946.973000", "133946.976000", "133946.979000", "133946.981000", "133955.560000", "133955.563000", "133955.566000", "133955.568000", "133955.571000", "133955.574000"],
      "InstanceNumber": [1, 2, 3, 4, 5, 6, 7, 8, 9, 10, 11, 12, 13, 14, 15, 16, 17, 18, 19, 20, 21, 22, 23, 24, 25, 26, 27, 28, 29, 30, 31, 32, 33, 34, 35, 36, 37, 38, 39, 40, 41, 42, 43, 44, 45, 46, 47, 48, 49, 50, 51, 52, 53, 54, 55, 56, 57, 58, 59, 60, 61, 62, 63, 64, 65, 66, 67, 68, 69, 70, 71, 72, 73, 74, 75, 76, 77, 78, 79, 80, 81, 82, 83, 84, 85, 86, 87, 88, 89, 90, 91, 92, 93, 94, 95, 96, 97, 98, 99, 100, 101, 102, 103, 104, 105, 106, 107, 108, 109, 110, 111, 112, 113, 114, 115, 116, 117, 118, 119, 120, 121, 122, 123, 124, 125, 126, 127, 128, 129, 130, 131, 132, 133, 134, 135, 136, 137, 138, 139, 140, 141, 142, 143, 144, 145, 146, 147, 148, 149, 150, 151, 152, 153, 154, 155, 156, 157, 158, 159, 160, 161, 162, 163, 164, 165, 166, 167, 168, 169, 170, 171, 172, 173, 174, 175, 176, 177, 178, 179, 180, 181, 182, 183, 184, 185, 186, 187, 188, 189, 190],
      "WindowCenter": [4794.0, 4792.0, 4768.0, 4766.0, 4768.0, 4766.0, 4790.0, 4770.0, 4770.0, 4766.0, 4792.0, 4766.0, 4768.0, 4768.0, 4770.0, 4770.0, 4768.0, 4770.0, 4768.0, 4768.0, 4768.0, 4768.0, 4764.0, 4768.0, 4762.0, 4766.0, 4766.0, 4766.0, 4766.0, 4764.0, 4766.0, 4764.0, 4770.0, 4768.0, 4768.0, 4764.0, 4768.0, 4770.0, 4768.0, 4764.0, 4770.0, 4766.0, 4766.0, 4766.0, 4770.0, 4764.0, 4768.0, 4766.0, 4770.0, 4766.0, 4772.0, 4766.0, 4766.0, 4766.0, 4770.0, 4764.0, 4766.0, 4768.0, 4768.0, 4764.0, 4766.0, 4764.0, 4766.0, 4764.0, 4792.0, 4762.0, 4764.0, 4766.0, 4768.0, 4770.0, 4768.0, 4768.0, 4766.0, 4766.0, 4766.0, 4770.0, 4766.0, 4766.0, 4766.0, 4762.0, 4766.0, 4764.0, 4766.0, 4768.0, 4766.0, 4764.0, 4768.0, 4768.0, 4768.0, 4764.0, 4766.0, 4762.0, 4766.0, 4770.0, 4770.0, 4768.0, 4762.0, 4766.0, 4764.0, 4766.0, 4766.0, 4768.0, 4770.0, 4764.0, 4764.0, 4762.0, 4764.0, 4764.0, 4768.0, 4766.0, 4768.0, 4766.0, 4766.0, 4766.0, 4766.0, 4764.0, 4768.0, 4766.0, 4768.0, 4766.0, 4768.0, 4768.0, 4766.0, 4766.0, 4766.0, 4764.0, 4766.0, 4766.0, 4764.0, 4766.0, 4768.0, 4764.0, 4768.0, 4768.0, 4764.0, 4766.0, 4764.0, 4766.0, 4764.0, 4792.0, 4768.0, 4768.0, 4768.0, 4766.0, 4766.0, 4768.0, 4766.0, 4766.0, 4770.0, 4766.0, 4766.0, 4770.0, 4768.0, 4768.0, 4766.0, 4770.0, 4774.0, 4764.0, 4766.0, 4766.0, 4762.0, 4766.0, 4766.0, 4770.0, 4764.0, 4768.0, 4764.0, 4770.0, 4768.0, 4766.0, 4760.0, 4770.0, 4764.0, 4770.0, 4766.0, 4768.0, 4766.0, 4768.0, 4768.0, 4766.0, 4768.0, 4770.0, 4766.0, 4770.0, 4764.0, 4768.0, 4766.0, 4766.0, 4766.0, 4766.0],
      "WindowWidth": [18618.0, 18614.0, 18586.0, 18584.0, 18580.0, 18580.0, 18612.0, 18584.0, 18582.0, 18578.0, 18618.0, 18578.0, 18584.0, 18580.0, 18586.0, 18586.0, 18580.0, 18582.0, 18586.0, 18584.0, 18584.0, 18582.0, 18580.0, 18582.0, 18578.0, 18582.0, 18576.0, 18580.0, 18578.0, 18580.0, 18580.0, 18578.0, 18584.0, 18580.0, 18580.0, 18576.0, 18584.0, 18582.0, 18580.0, 18576.0, 18582.0, 18578.0, 18580.0, 18580.0, 18586.0, 18580.0, 18582.0, 18578.0, 18582.0, 18580.0, 18584.0, 18584.0, 18580.0, 18584.0, 18582.0, 18578.0, 18578.0, 18584.0, 18582.0, 18578.0, 18580.0, 18580.0, 18580.0, 18574.0, 18612.0, 18578.0, 18574.0, 18582.0, 18582.0, 18582.0, 18580.0, 18578.0, 18584.0, 18578.0, 18580.0, 18586.0, 18584.0, 18582.0, 18580.0, 18576.0, 18582.0, 18578.0, 18582.0, 18580.0, 18578.0, 18574.0, 18582.0, 18582.0, 18584.0, 18580.0, 18582.0, 18576.0, 18584.0, 18582.0, 18586.0, 18578.0, 18578.0, 18578.0, 18580.0, 18574.0, 18578.0, 18578.0, 18586.0, 18576.0, 18580.0, 18572.0, 18580.0, 18574.0, 18582.0, 18582.0, 18582.0, 18582.0, 18580.0, 18578.0, 18580.0, 18574.0, 18580.0, 18584.0, 18580.0, 18580.0, 18578.0, 18580.0, 18580.0, 18578.0, 18576.0, 18574.0, 18576.0, 18580.0, 18578.0, 18584.0, 18582.0, 18580.0, 18578.0, 18574.0, 18576.0, 18576.0, 18574.0, 18580.0, 18580.0, 18612.0, 18580.0, 18582.0, 18582.0, 18580.0, 18580.0, 18578.0, 18576.0, 18574.0, 18580.0, 18578.0, 18578.0, 18582.0, 18582.0, 18576.0, 18576.0, 18586.0, 18586.0, 18574.0, 18578.0, 18578.0, 18574.0, 18576.0, 18580.0, 18584.0, 18578.0, 18584.0, 18574.0, 18580.0, 18576.0, 18576.0, 18576.0, 18580.0, 18578.0, 18584.0, 18578.0, 18582.0, 18578.0, 18576.0, 18578.0, 18576.0, 18580.0, 18584.0, 18580.0, 18582.0, 18576.0, 18582.0, 18580.0, 18578.0, 18578.0, 18580.0]
    },
    "slices": {}
  }
}