{
  "AcquisitionMatrixPE": 104,
  "AcquisitionNumber": 1,
  "AcquisitionTime": "18:01:57.320000",
  "BandwidthPerPixelPhaseEncode": 17.17,
  "BaseResolution": 104,
  "BodyPartExamined": "BRAIN",
  "CoilString": "HC1-7;NC1_2",
  "ConsistencyInfo": "N4_VE11C_LATEST_20160120",
  "ConversionSoftware": "dcm2niix",
  "ConversionSoftwareVersion": "v1.0.20190902",
  "DerivedVendorReportedEchoSpacing": 0.000560011,
  "DeviceSerialNumber": "167006",
  "DwellTime": 2.1e-06,
  "EchoTime": 0.037,
  "EchoTrainLength": 104,
  "EffectiveEchoSpacing": 0.000560011,
  "FlipAngle": 52,
  "ImageComments": "Unaliased_MB4_PE3_LB",
  "ImageOrientationPatientDICOM": [0.99832, 0.0333539, 0.0473729, -0.0121974, 0.920336, -0.390939],
  "ImageType": [
    "ORIGINAL",
    "PRIMARY",
    "M",
    "MB",
    "ND",
    "MOSAIC"
],
  "ImagingFrequency": 123.259,
  "InPlanePhaseEncodingDirectionDICOM": "COL",
  "InstitutionAddress": "Chemin_Queen-Mary_4565_Montreal_District_CA_H3W_1W5",
  "InstitutionName": "IUGM",
  "InstitutionalDepartmentName": "Department",
  "MRAcquisitionType": "2D",
  "MagneticFieldStrength": 3,
  "Manufacturer": "Siemens",
  "ManufacturersModelName": "Prisma_fit",
  "Modality": "MR",
  "MultibandAccelerationFactor": 4,
  "PartialFourier": 1,
  "PatientPosition": "HFS",
  "PercentPhaseFOV": 100,
  "PhaseEncodingDirection": "j",
  "PhaseEncodingSteps": 104,
  "PhaseResolution": 1,
  "PixelBandwidth": 2290,
  "ProcedureStepDescription": "memory_things",
  "ProtocolName": "func_task-things_run-5",
  "PulseSequenceDetails": "%CustomerSeq%_cmrr_mbep2d_bold",
  "ReceiveCoilActiveElements": "HC1-7;NC1,2",
  "ReceiveCoilName": "HeadNeck_64",
  "ReconMatrixPE": 104,
  "RepetitionTime": 1.49,
  "SAR": 0.0355983,
  "ScanOptions": "FS",
  "ScanningSequence": "EP",
  "SequenceName": "epfid2d1_104",
  "SequenceVariant": "SK_SS",
  "SeriesDescription": "func_task-things_run-5",
  "SeriesNumber": 22,
  "ShimSetting": [637, -7173, -8815, 623, 86, 51, -90, -4],
  "SliceThickness": 2,
  "SliceTiming": [0, 0.785, 0.1, 0.8825, 0.1975, 0.98, 0.295, 1.08, 0.3925, 1.1775, 0.49, 1.275, 0.59, 1.3725, 0.6875, 0, 0.785, 0.1, 0.8825, 0.1975, 0.98, 0.295, 1.08, 0.3925, 1.1775, 0.49, 1.275, 0.59, 1.3725, 0.6875, 0, 0.785, 0.1, 0.8825, 0.1975, 0.98, 0.295, 1.08, 0.3925, 1.1775, 0.49, 1.275, 0.59, 1.3725, 0.6875, 0, 0.785, 0.1, 0.8825, 0.1975, 0.98, 0.295, 1.08, 0.3925, 1.1775, 0.49, 1.275, 0.59, 1.3725, 0.6875],
  "SoftwareVersions": "syngo_MR_E11",
  "SpacingBetweenSlices": 2,
  "StationName": "MRC35049",
  "TaskName": "things",
  "TotalReadoutTime": 0.0576811,
  "TxRefAmp": 244.136,
  "WipMemBlock": "f7c2f320-dc3e-4128-925e-8df972c29b06||Sequence: R016 ve11c/master r/e634e98; Dec 19 2017 11:00:25 by eja",
  "dcmmeta_affine": [
    [-1.9966404438018799, -0.024394836276769638, 0.1132766455411911, 105.96519470214844],
    [-0.06670785695314407, 1.8406718969345093, -0.7794080376625061, -54.1959228515625],
    [0.09474579989910126, 0.7818770408630371, 1.8383936882019043, -64.98463439941406],
    [0.0, 0.0, 0.0, 1.0]
],
  "dcmmeta_reorient_transform": [
    [0.0, -1.0, 0.0, 103.0],
    [1.0, 0.0, 0.0, 0.0],
    [0.0, 0.0, 1.0, 0.0],
    [0.0, 0.0, 0.0, 1.0]
],
  "dcmmeta_shape": [104, 104, 60, 190],
  "dcmmeta_slice_dim": 2,
  "dcmmeta_version": 0.6,
  "global": {
    "const": {
      "AcquisitionMatrix": [104, 0, 0, 104],
      "AngioFlag": "N",
      "BitsAllocated": 16,
      "BitsStored": 16,
      "BodyPartExamined": "BRAIN",
      "Columns": 832,
      "EchoNumbers": 1,
      "EchoTime": 37.0,
      "EchoTrainLength": 104,
      "FlipAngle": 52.0,
      "HighBit": 15,
      "ImageOrientationPatient": [0.99832025101678, 0.03335393010167, 0.04737290107827, -0.0121974185704, 0.9203359708534, -0.3909385165644],
      "ImagePositionPatient": [-821.34994586627, -829.67953510072, 265.66446508552],
      "ImageType": [
        "ORIGINAL",
        "PRIMARY",
        "M",
        "MB",
        "ND",
        "MOSAIC"
],
      "ImagedNucleus": "1H",
      "ImagingFrequency": 123.25898,
      "InPlanePhaseEncodingDirection": "COL",
      "MRAcquisitionType": "2D",
      "MagneticFieldStrength": 3.0,
      "Manufacturer": "SIEMENS",
      "ManufacturerModelName": "Prisma_fit",
      "Modality": "MR",
      "NumberOfAverages": 1.0,
      "NumberOfPhaseEncodingSteps": 104,
      "PercentPhaseFieldOfView": 100.0,
      "PercentSampling": 100.0,
      "PerformedProcedureStepStartTime": "172825.299000",
      "PhotometricInterpretation": "MONOCHROME2",
      "PixelBandwidth": 2290.0,
      "PixelRepresentation": 0,
      "PixelSpacing": [2.0, 2.0],
      "ProtocolName": "func_task-things_run-5",
      "RepetitionTime": 1490.0,
      "Rows": 832,
      "SAR": 0.03559827507165,
      "SamplesPerPixel": 1,
      "ScanOptions": "FS",
      "ScanningSequence": "EP",
      "SequenceName": "epfid2d1_104",
      "SequenceVariant": [
        "SK",
        "SS"
],
      "SeriesDescription": "func_task-things_run-5",
      "SeriesNumber": 22,
      "SeriesTime": "180315.028000",
      "SliceLocation": -32.611616216787,
      "SliceThickness": 2.0,
      "SmallestImagePixelValue": 0,
      "SoftwareVersions": "syngo MR E11",
      "SpacingBetweenSlices": 2.0000000092525,
      "SpecificCharacterSet": "ISO_IR 100",
      "StudyID": "1",
      "StudyTime": "172825.190000",
      "TransmitCoilName": "Body",
      "VariableFlipAngleFlag": "N",
      "WindowCenterWidthExplanation": "Algo1",
      "dBdt": 0.0},
    "slices": {}
  },
  "time": {
    "samples": {
      "AcquisitionNumber": [1, 2, 3, 4, 5, 6, 7, 8, 9, 10, 11, 12, 13, 14, 15, 16, 17, 18, 19, 20, 21, 22, 23, 24, 25, 26, 27, 28, 29, 30, 31, 32, 33, 34, 35, 36, 37, 38, 39, 40, 41, 42, 43, 44, 45, 46, 47, 48, 49, 50, 51, 52, 53, 54, 55, 56, 57, 58, 59, 60, 61, 62, 63, 64, 65, 66, 67, 68, 69, 70, 71, 72, 73, 74, 75, 76, 77, 78, 79, 80, 81, 82, 83, 84, 85, 86, 87, 88, 89, 90, 91, 92, 93, 94, 95, 96, 97, 98, 99, 100, 101, 102, 103, 104, 105, 106, 107, 108, 109, 110, 111, 112, 113, 114, 115, 116, 117, 118, 119, 120, 121, 122, 123, 124, 125, 126, 127, 128, 129, 130, 131, 132, 133, 134, 135, 136, 137, 138, 139, 140, 141, 142, 143, 144, 145, 146, 147, 148, 149, 150, 151, 152, 153, 154, 155, 156, 157, 158, 159, 160, 161, 162, 163, 164, 165, 166, 167, 168, 169, 170, 171, 172, 173, 174, 175, 176, 177, 178, 179, 180, 181, 182, 183, 184, 185, 186, 187, 188, 189, 190],
      "AcquisitionTime": ["180157.320000", "180158.810000", "180200.300000", "180201.790000", "180203.280000", "180204.770000", "180206.260000", "180207.750000", "180209.240000", "180210.730000", "180212.220000", "180213.710000", "180215.200000", "180216.690000", "180218.180000", "180219.670000", "180221.160000", "180222.650000", "180224.140000", "180225.630000", "180227.120000", "180228.610000", "180230.100000", "180231.590000", "180233.080000", "180234.570000", "180236.060000", "180237.550000", "180239.040000", "180240.530000", "180242.020000", "180243.510000", "180245.000000", "180246.490000", "180247.980000", "180249.470000", "180250.960000", "180252.450000", "180253.940000", "180255.430000", "180256.920000", "180258.410000", "180259.900000", "180301.390000", "180302.880000", "180304.370000", "180305.860000", "180307.350000", "180308.840000", "180310.330000", "180311.820000", "180313.310000", "180314.800000", "180316.290000", "180317.780000", "180319.270000", "180320.760000", "180322.250000", "180323.740000", "180325.230000", "180326.720000", "180328.210000", "180329.700000", "180331.190000", "180332.680000", "180334.170000", "180335.660000", "180337.150000", "180338.640000", "180340.130000", "180341.620000", "180343.110000", "180344.600000", "180346.090000", "180347.580000", "180349.070000", "180350.560000", "180352.050000", "180353.540000", "180355.030000", "180356.520000", "180358.010000", "180359.500000", "180400.990000", "180402.480000", "180403.970000", "180405.460000", "180406.950000", "180408.440000", "180409.930000", "180411.420000", "180412.910000", "180414.400000", "180415.890000", "180417.380000", "180418.870000", "180420.360000", "180421.850000", "180423.340000", "180424.830000", "180426.320000", "180427.810000", "180429.300000", "180430.790000", "180432.280000", "180433.770000", "180435.260000", "180436.750000", "180438.240000", "180439.730000", "180441.220000", "180442.710000", "180444.200000", "180445.690000", "180447.180000", "180448.670000", "180450.160000", "180451.650000", "180453.140000", "180454.630000", "180456.120000", "180457.610000", "180459.100000", "180500.590000", "180502.080000", "180503.570000", "180505.060000", "180506.550000", "180508.040000", "180509.530000", "180511.020000", "180512.510000", "180514.000000", "180515.490000", "180516.980000", "180518.470000", "180519.960000", "180521.450000", "180522.940000", "180524.430000", "180525.920000", "180527.410000", "180528.900000", "180530.390000", "180531.880000", "180533.370000", "180534.860000", "180536.350000", "180537.840000", "180539.330000", "180540.820000", "180542.310000", "180543.800000", "180545.290000", "180546.780000", "180548.270000", "180549.760000", "180551.250000", "180552.740000", "180554.230000", "180555.720000", "180557.210000", "180558.700000", "180600.190000", "180601.680000", "180603.170000", "180604.660000", "180606.150000", "180607.640000", "180609.130000", "180610.620000", "180612.110000", "180613.600000", "180615.090000", "180616.580000", "180618.070000", "180619.560000", "180621.050000", "180622.540000", "180624.030000", "180625.520000", "180627.010000", "180628.500000", "180629.990000", "180631.480000", "180632.970000", "180634.460000", "180635.950000", "180637.440000", "180638.930000"],
      "ContentTime": ["180315.032000", "180315.035000", "180315.039000", "180315.042000", "180315.053000", "180315.056000", "180315.059000", "180315.063000", "180315.066000", "180315.069000", "180315.073000", "180315.076000", "180315.079000", "180315.083000", "180315.086000", "180315.089000", "180315.093000", "180315.096000", "180315.100000", "180315.103000", "180315.112000", "180315.115000", "180315.118000", "180315.122000", "180315.125000", "180334.992000", "180334.996000", "180335.000000", "180335.004000", "180335.007000", "180335.011000", "180335.014000", "180335.017000", "180335.024000", "180335.027000", "180335.031000", "180335.034000", "180335.037000", "180335.041000", "180335.044000", "180335.059000", "180335.063000", "180335.066000", "180335.069000", "180335.073000", "180335.076000", "180354.992000", "180354.996000", "180355.001000", "180355.004000", "180355.008000", "180355.011000", "180355.015000", "180355.018000", "180355.022000", "180355.025000", "180355.028000", "180355.032000", "180355.035000", "180355.038000", "180355.055000", "180355.058000", "180355.062000", "180355.065000", "180355.069000", "180355.072000", "180414.992000", "180414.996000", "180415.000000", "180415.004000", "180415.007000", "180415.010000", "180415.014000", "180415.017000", "180415.020000", "180415.024000", "180415.027000", "180415.030000", "180415.034000", "180415.037000", "180415.041000", "180415.044000", "180415.047000", "180415.051000", "180415.054000", "180415.057000", "180454.991000", "180454.995000", "180454.998000", "180455.003000", "180455.006000", "180455.009000", "180455.013000", "180455.016000", "180455.020000", "180455.023000", "180455.027000", "180455.030000", "180455.033000", "180455.037000", "180455.040000", "180455.043000", "180455.047000", "180455.050000", "180455.054000", "180455.057000", "180455.060000", "180455.064000", "180455.067000", "180455.070000", "180455.074000", "180455.077000", "180455.080000", "180455.084000", "180455.087000", "180455.091000", "180455.094000", "180455.097000", "180455.101000", "180534.992000", "180534.996000", "180534.999000", "180535.003000", "180535.006000", "180535.010000", "180535.013000", "180535.016000", "180535.020000", "180535.023000", "180535.027000", "180535.030000", "180535.033000", "180535.037000", "180535.040000", "180535.044000", "180535.047000", "180535.051000", "180535.054000", "180535.057000", "180535.061000", "180535.064000", "180535.078000", "180535.082000", "180535.085000", "180535.088000", "180614.992000", "180614.996000", "180615.000000", "180615.004000", "180615.007000", "180615.011000", "180615.014000", "180615.017000", "180615.021000", "180615.024000", "180615.027000", "180615.043000", "180615.046000", "180615.050000", "180615.053000", "180615.056000", "180615.060000", "180615.063000", "180615.066000", "180615.070000", "180615.073000", "180615.077000", "180615.080000", "180615.083000", "180615.087000", "180615.090000", "180615.093000", "180634.992000", "180634.996000", "180635.000000", "180635.004000", "180635.007000", "180635.011000", "180635.014000", "180635.017000", "180635.021000", "180635.024000", "180635.028000", "180635.031000", "180635.034000", "180635.038000", "180640.730000", "180640.734000", "180640.738000", "180640.741000"],
      "InstanceCreationTime": ["180315.032000", "180315.035000", "180315.039000", "180315.042000", "180315.053000", "180315.056000", "180315.059000", "180315.063000", "180315.066000", "180315.069000", "180315.073000", "180315.076000", "180315.079000", "180315.083000", "180315.086000", "180315.089000", "180315.093000", "180315.096000", "180315.100000", "180315.103000", "180315.112000", "180315.115000", "180315.118000", "180315.122000", "180315.125000", "180334.992000", "180334.996000", "180335.000000", "180335.004000", "180335.007000", "180335.011000", "180335.014000", "180335.017000", "180335.024000", "180335.027000", "180335.031000", "180335.034000", "180335.037000", "180335.041000", "180335.044000", "180335.059000", "180335.063000", "180335.066000", "180335.069000", "180335.073000", "180335.076000", "180354.992000", "180354.996000", "180355.001000", "180355.004000", "180355.008000", "180355.011000", "180355.015000", "180355.018000", "180355.022000", "180355.025000", "180355.028000", "180355.032000", "180355.035000", "180355.038000", "180355.055000", "180355.058000", "180355.062000", "180355.065000", "180355.069000", "180355.072000", "180414.992000", "180414.996000", "180415.000000", "180415.004000", "180415.007000", "180415.010000", "180415.014000", "180415.017000", "180415.020000", "180415.024000", "180415.027000", "180415.030000", "180415.034000", "180415.037000", "180415.041000", "180415.044000", "180415.047000", "180415.051000", "180415.054000", "180415.057000", "180454.991000", "180454.995000", "180454.998000", "180455.003000", "180455.006000", "180455.009000", "180455.013000", "180455.016000", "180455.020000", "180455.023000", "180455.027000", "180455.030000", "180455.033000", "180455.037000", "180455.040000", "180455.043000", "180455.047000", "180455.050000", "180455.054000", "180455.057000", "180455.060000", "180455.064000", "180455.067000", "180455.070000", "180455.074000", "180455.077000", "180455.080000", "180455.084000", "180455.087000", "180455.091000", "180455.094000", "180455.097000", "180455.101000", "180534.992000", "180534.996000", "180534.999000", "180535.003000", "180535.006000", "180535.010000", "180535.013000", "180535.016000", "180535.020000", "180535.023000", "180535.027000", "180535.030000", "180535.033000", "180535.037000", "180535.040000", "180535.044000", "180535.047000", "180535.051000", "180535.054000", "180535.057000", "180535.061000", "180535.064000", "180535.078000", "180535.082000", "180535.085000", "180535.088000", "180614.992000", "180614.996000", "180615.000000", "180615.004000", "180615.007000", "180615.011000", "180615.014000", "180615.017000", "180615.021000", "180615.024000", "180615.027000", "180615.043000", "180615.046000", "180615.050000", "180615.053000", "180615.056000", "180615.060000", "180615.063000", "180615.066000", "180615.070000", "180615.073000", "180615.077000", "180615.080000", "180615.083000", "180615.087000", "180615.090000", "180615.093000", "180634.992000", "180634.996000", "180635.000000", "180635.004000", "180635.007000", "180635.011000", "180635.014000", "180635.017000", "180635.021000", "180635.024000", "180635.028000", "180635.031000", "180635.034000", "180635.038000", "180640.730000", "180640.734000", "180640.738000", "180640.741000"],
      "InstanceNumber": [1, 2, 3, 4, 5, 6, 7, 8, 9, 10, 11, 12, 13, 14, 15, 16, 17, 18, 19, 20, 21, 22, 23, 24, 25, 26, 27, 28, 29, 30, 31, 32, 33, 34, 35, 36, 37, 38, 39, 40, 41, 42, 43, 44, 45, 46, 47, 48, 49, 50, 51, 52, 53, 54, 55, 56, 57, 58, 59, 60, 61, 62, 63, 64, 65, 66, 67, 68, 69, 70, 71, 72, 73, 74, 75, 76, 77, 78, 79, 80, 81, 82, 83, 84, 85, 86, 87, 88, 89, 90, 91, 92, 93, 94, 95, 96, 97, 98, 99, 100, 101, 102, 103, 104, 105, 106, 107, 108, 109, 110, 111, 112, 113, 114, 115, 116, 117, 118, 119, 120, 121, 122, 123, 124, 125, 126, 127, 128, 129, 130, 131, 132, 133, 134, 135, 136, 137, 138, 139, 140, 141, 142, 143, 144, 145, 146, 147, 148, 149, 150, 151, 152, 153, 154, 155, 156, 157, 158, 159, 160, 161, 162, 163, 164, 165, 166, 167, 168, 169, 170, 171, 172, 173, 174, 175, 176, 177, 178, 179, 180, 181, 182, 183, 184, 185, 186, 187, 188, 189, 190],
      "LargestImagePixelValue": [41598, 39867, 42150, 42463, 41828, 42907, 39352, 38820, 38766, 38767, 38549, 38320, 38119, 39256, 40533, 40210, 37407, 37422, 38246, 38056, 38400, 37868, 38004, 37502, 37826, 37833, 37573, 37793, 37793, 38372, 37639, 37491, 37821, 38346, 37991, 37823, 37333, 37277, 37506, 37803, 37603, 37765, 37617, 37386, 37325, 38294, 37916, 38667, 38328, 37245, 37212, 37481, 37430, 37542, 37724, 37603, 37266, 37288, 36977, 37134, 37775, 37546, 37858, 38126, 37708, 37155, 37997, 38296, 38969, 38274, 37614, 37616, 36952, 37279, 37554, 37914, 39281, 38138, 37912, 37456, 36842, 37672, 37835, 39012, 37900, 37084, 38113, 37780, 39319, 38972, 37970, 37615, 36996, 39009, 39916, 38599, 37763, 37595, 38521, 39737, 39742, 39280, 39361, 38615, 38717, 40641, 39428, 38882, 38669, 38391, 39405, 39222, 39075, 38307, 38298, 39760, 39959, 39425, 38756, 39389, 39789, 39898, 39917, 38385, 40343, 40668, 40018, 38683, 39606, 39302, 39253, 38506, 39246, 39626, 38657, 40239, 40222, 40052, 40334, 39819, 39099, 37980, 39964, 39872, 39161, 39585, 38876, 38062, 39189, 40578, 40374, 39700, 39993, 39066, 40405, 41647, 41396, 41720, 40331, 40284, 40773, 40251, 39496, 40662, 40365, 40004, 40820, 40776, 40603, 39784, 40358, 39634, 40942, 42805, 40324, 40431, 39831, 39940, 40384, 39904, 41147, 40972, 41144, 40964, 41207, 40903, 40372, 39724, 39744, 40002],
      "WindowCenter": [10326.0, 10295.0, 10322.0, 10350.0, 10349.0, 10355.0, 10293.0, 10272.0, 10261.0, 10244.0, 10241.0, 10243.0, 10252.0, 10288.0, 10325.0, 10313.0, 10274.0, 10275.0, 10288.0, 10288.0, 10288.0, 10293.0, 10290.0, 10278.0, 10279.0, 10279.0, 10280.0, 10281.0, 10278.0, 10293.0, 10290.0, 10275.0, 10281.0, 10287.0, 10280.0, 10279.0, 10290.0, 10276.0, 10265.0, 10261.0, 10256.0, 10268.0, 10290.0, 10280.0, 10264.0, 10267.0, 10269.0, 10298.0, 10305.0, 10276.0, 10257.0, 10247.0, 10252.0, 10255.0, 10256.0, 10257.0, 10264.0, 10271.0, 10263.0, 10261.0, 10269.0, 10279.0, 10284.0, 10302.0, 10288.0, 10274.0, 10285.0, 10297.0, 10328.0, 10337.0, 10315.0, 10280.0, 10260.0, 10258.0, 10262.0, 10257.0, 10282.0, 10280.0, 10268.0, 10258.0, 10256.0, 10269.0, 10269.0, 10299.0, 10291.0, 10280.0, 10275.0, 10270.0, 10300.0, 10310.0, 10286.0, 10267.0, 10255.0, 10275.0, 10301.0, 10286.0, 10265.0, 10253.0, 10267.0, 10304.0, 10314.0, 10293.0, 10276.0, 10270.0, 10270.0, 10292.0, 10289.0, 10273.0, 10277.0, 10269.0, 10286.0, 10297.0, 10291.0, 10280.0, 10280.0, 10296.0, 10317.0, 10321.0, 10304.0, 10293.0, 10281.0, 10295.0, 10304.0, 10296.0, 10304.0, 10315.0, 10304.0, 10276.0, 10287.0, 10296.0, 10309.0, 10296.0, 10293.0, 10273.0, 10266.0, 10290.0, 10309.0, 10314.0, 10305.0, 10280.0, 10281.0, 10271.0, 10294.0, 10327.0, 10313.0, 10307.0, 10293.0, 10272.0, 10278.0, 10303.0, 10310.0, 10298.0, 10285.0, 10275.0, 10300.0, 10333.0, 10339.0, 10317.0, 10283.0, 10282.0, 10278.0, 10278.0, 10270.0, 10284.0, 10270.0, 10266.0, 10274.0, 10278.0, 10286.0, 10268.0, 10269.0, 10249.0, 10265.0, 10298.0, 10287.0, 10288.0, 10268.0, 10269.0, 10277.0, 10262.0, 10277.0, 10272.0, 10289.0, 10293.0, 10289.0, 10285.0, 10261.0, 10242.0, 10267.0, 10293.0],
      "WindowWidth": [21903.0, 21828.0, 21868.0, 21927.0, 21923.0, 21929.0, 21803.0, 21758.0, 21728.0, 21689.0, 21681.0, 21690.0, 21713.0, 21790.0, 21874.0, 21851.0, 21771.0, 21773.0, 21801.0, 21799.0, 21797.0, 21816.0, 21805.0, 21781.0, 21779.0, 21783.0, 21783.0, 21788.0, 21777.0, 21814.0, 21811.0, 21776.0, 21784.0, 21797.0, 21783.0, 21780.0, 21805.0, 21776.0, 21748.0, 21735.0, 21728.0, 21755.0, 21810.0, 21784.0, 21746.0, 21748.0, 21753.0, 21823.0, 21845.0, 21781.0, 21732.0, 21709.0, 21721.0, 21729.0, 21732.0, 21731.0, 21754.0, 21768.0, 21749.0, 21744.0, 21764.0, 21785.0, 21795.0, 21838.0, 21805.0, 21775.0, 21796.0, 21821.0, 21889.0, 21916.0, 21867.0, 21784.0, 21745.0, 21738.0, 21743.0, 21730.0, 21780.0, 21780.0, 21755.0, 21733.0, 21734.0, 21760.0, 21762.0, 21820.0, 21810.0, 21785.0, 21768.0, 21759.0, 21821.0, 21846.0, 21798.0, 21752.0, 21731.0, 21766.0, 21819.0, 21791.0, 21748.0, 21725.0, 21749.0, 21832.0, 21856.0, 21807.0, 21766.0, 21754.0, 21757.0, 21803.0, 21794.0, 21759.0, 21773.0, 21754.0, 21788.0, 21816.0, 21801.0, 21780.0, 21779.0, 21809.0, 21859.0, 21878.0, 21831.0, 21802.0, 21776.0, 21811.0, 21829.0, 21818.0, 21826.0, 21847.0, 21829.0, 21766.0, 21787.0, 21810.0, 21843.0, 21815.0, 21804.0, 21757.0, 21742.0, 21792.0, 21841.0, 21855.0, 21837.0, 21774.0, 21777.0, 21758.0, 21802.0, 21876.0, 21850.0, 21833.0, 21802.0, 21756.0, 21764.0, 21817.0, 21838.0, 21821.0, 21780.0, 21765.0, 21815.0, 21885.0, 21902.0, 21859.0, 21774.0, 21772.0, 21760.0, 21760.0, 21748.0, 21773.0, 21743.0, 21743.0, 21748.0, 21758.0, 21776.0, 21740.0, 21735.0, 21697.0, 21727.0, 21811.0, 21785.0, 21787.0, 21739.0, 21736.0, 21755.0, 21724.0, 21752.0, 21744.0, 21784.0, 21798.0, 21783.0, 21779.0, 21719.0, 21678.0, 21736.0, 21801.0]
    },
    "slices": {}
  }
}