{
  "AcquisitionMatrixPE": 104,
  "AcquisitionNumber": 1,
  "AcquisitionTime": "18:08:17.045000",
  "BandwidthPerPixelPhaseEncode": 17.17,
  "BaseResolution": 104,
  "BodyPartExamined": "BRAIN",
  "CoilString": "HC1-7;NC1_2",
  "ConsistencyInfo": "N4_VE11C_LATEST_20160120",
  "ConversionSoftware": "dcm2niix",
  "ConversionSoftwareVersion": "v1.0.20190902",
  "DerivedVendorReportedEchoSpacing": 0.000560011,
  "DeviceSerialNumber": "167006",
  "DwellTime": 2.1e-06,
  "EchoTime": 0.037,
  "EchoTrainLength": 104,
  "EffectiveEchoSpacing": 0.000560011,
  "FlipAngle": 52,
  "ImageComments": "Unaliased_MB4_PE3_LB",
  "ImageOrientationPatientDICOM": [0.99832, 0.0333539, 0.0473729, -0.0121974, 0.920336, -0.390939],
  "ImageType": [
    "ORIGINAL",
    "PRIMARY",
    "M",
    "MB",
    "ND",
    "MOSAIC"
],
  "ImagingFrequency": 123.259,
  "InPlanePhaseEncodingDirectionDICOM": "COL",
  "InstitutionAddress": "Chemin_Queen-Mary_4565_Montreal_District_CA_H3W_1W5",
  "InstitutionName": "IUGM",
  "InstitutionalDepartmentName": "Department",
  "MRAcquisitionType": "2D",
  "MagneticFieldStrength": 3,
  "Manufacturer": "Siemens",
  "ManufacturersModelName": "Prisma_fit",
  "Modality": "MR",
  "MultibandAccelerationFactor": 4,
  "PartialFourier": 1,
  "PatientPosition": "HFS",
  "PercentPhaseFOV": 100,
  "PhaseEncodingDirection": "j",
  "PhaseEncodingSteps": 104,
  "PhaseResolution": 1,
  "PixelBandwidth": 2290,
  "ProcedureStepDescription": "memory_things",
  "ProtocolName": "func_task-things_run-6",
  "PulseSequenceDetails": "%CustomerSeq%_cmrr_mbep2d_bold",
  "ReceiveCoilActiveElements": "HC1-7;NC1,2",
  "ReceiveCoilName": "HeadNeck_64",
  "ReconMatrixPE": 104,
  "RepetitionTime": 1.49,
  "SAR": 0.0355983,
  "ScanOptions": "FS",
  "ScanningSequence": "EP",
  "SequenceName": "epfid2d1_104",
  "SequenceVariant": "SK_SS",
  "SeriesDescription": "func_task-things_run-6",
  "SeriesNumber": 25,
  "ShimSetting": [637, -7173, -8815, 623, 86, 51, -90, -4],
  "SliceThickness": 2,
  "SliceTiming": [0, 0.785, 0.1, 0.8825, 0.1975, 0.98, 0.295, 1.08, 0.3925, 1.1775, 0.49, 1.275, 0.59, 1.3725, 0.6875, 0, 0.785, 0.1, 0.8825, 0.1975, 0.98, 0.295, 1.08, 0.3925, 1.1775, 0.49, 1.275, 0.59, 1.3725, 0.6875, 0, 0.785, 0.1, 0.8825, 0.1975, 0.98, 0.295, 1.08, 0.3925, 1.1775, 0.49, 1.275, 0.59, 1.3725, 0.6875, 0, 0.785, 0.1, 0.8825, 0.1975, 0.98, 0.295, 1.08, 0.3925, 1.1775, 0.49, 1.275, 0.59, 1.3725, 0.6875],
  "SoftwareVersions": "syngo_MR_E11",
  "SpacingBetweenSlices": 2,
  "StationName": "MRC35049",
  "TaskName": "things",
  "TotalReadoutTime": 0.0576811,
  "TxRefAmp": 244.136,
  "WipMemBlock": "042d80f6-7eea-44ef-96f5-e3c08dce880c||Sequence: R016 ve11c/master r/e634e98; Dec 19 2017 11:00:25 by eja",
  "dcmmeta_affine": [
    [-1.9966404438018799, -0.024394836276769638, 0.1132766455411911, 105.96519470214844],
    [-0.06670785695314407, 1.8406718969345093, -0.7794080376625061, -54.1959228515625],
    [0.09474579989910126, 0.7818770408630371, 1.8383936882019043, -64.98463439941406],
    [0.0, 0.0, 0.0, 1.0]
],
  "dcmmeta_reorient_transform": [
    [0.0, -1.0, 0.0, 103.0],
    [1.0, 0.0, 0.0, 0.0],
    [0.0, 0.0, 1.0, 0.0],
    [0.0, 0.0, 0.0, 1.0]
],
  "dcmmeta_shape": [104, 104, 60, 190],
  "dcmmeta_slice_dim": 2,
  "dcmmeta_version": 0.6,
  "global": {
    "const": {
      "AcquisitionMatrix": [104, 0, 0, 104],
      "AngioFlag": "N",
      "BitsAllocated": 16,
      "BitsStored": 16,
      "BodyPartExamined": "BRAIN",
      "Columns": 832,
      "EchoNumbers": 1,
      "EchoTime": 37.0,
      "EchoTrainLength": 104,
      "FlipAngle": 52.0,
      "HighBit": 15,
      "ImageOrientationPatient": [0.99832025101678, 0.03335393010167, 0.04737290107827, -0.0121974185704, 0.9203359708534, -0.3909385165644],
      "ImagePositionPatient": [-821.34994586627, -829.67953510072, 265.66446508552],
      "ImageType": [
        "ORIGINAL",
        "PRIMARY",
        "M",
        "MB",
        "ND",
        "MOSAIC"
],
      "ImagedNucleus": "1H",
      "ImagingFrequency": 123.258978,
      "InPlanePhaseEncodingDirection": "COL",
      "MRAcquisitionType": "2D",
      "MagneticFieldStrength": 3.0,
      "Manufacturer": "SIEMENS",
      "ManufacturerModelName": "Prisma_fit",
      "Modality": "MR",
      "NumberOfAverages": 1.0,
      "NumberOfPhaseEncodingSteps": 104,
      "PercentPhaseFieldOfView": 100.0,
      "PercentSampling": 100.0,
      "PerformedProcedureStepStartTime": "172825.299000",
      "PhotometricInterpretation": "MONOCHROME2",
      "PixelBandwidth": 2290.0,
      "PixelRepresentation": 0,
      "PixelSpacing": [2.0, 2.0],
      "ProtocolName": "func_task-things_run-6",
      "RepetitionTime": 1490.0,
      "Rows": 832,
      "SAR": 0.03559827507165,
      "SamplesPerPixel": 1,
      "ScanOptions": "FS",
      "ScanningSequence": "EP",
      "SequenceName": "epfid2d1_104",
      "SequenceVariant": [
        "SK",
        "SS"
],
      "SeriesDescription": "func_task-things_run-6",
      "SeriesNumber": 25,
      "SeriesTime": "180934.946000",
      "SliceLocation": -32.611616216787,
      "SliceThickness": 2.0,
      "SmallestImagePixelValue": 0,
      "SoftwareVersions": "syngo MR E11",
      "SpacingBetweenSlices": 2.0000000092525,
      "SpecificCharacterSet": "ISO_IR 100",
      "StudyID": "1",
      "StudyTime": "172825.190000",
      "TransmitCoilName": "Body",
      "VariableFlipAngleFlag": "N",
      "WindowCenterWidthExplanation": "Algo1",
      "dBdt": 0.0},
    "slices": {}
  },
  "time": {
    "samples": {
      "AcquisitionNumber": [1, 2, 3, 4, 5, 6, 7, 8, 9, 10, 11, 12, 13, 14, 15, 16, 17, 18, 19, 20, 21, 22, 23, 24, 25, 26, 27, 28, 29, 30, 31, 32, 33, 34, 35, 36, 37, 38, 39, 40, 41, 42, 43, 44, 45, 46, 47, 48, 49, 50, 51, 52, 53, 54, 55, 56, 57, 58, 59, 60, 61, 62, 63, 64, 65, 66, 67, 68, 69, 70, 71, 72, 73, 74, 75, 76, 77, 78, 79, 80, 81, 82, 83, 84, 85, 86, 87, 88, 89, 90, 91, 92, 93, 94, 95, 96, 97, 98, 99, 100, 101, 102, 103, 104, 105, 106, 107, 108, 109, 110, 111, 112, 113, 114, 115, 116, 117, 118, 119, 120, 121, 122, 123, 124, 125, 126, 127, 128, 129, 130, 131, 132, 133, 134, 135, 136, 137, 138, 139, 140, 141, 142, 143, 144, 145, 146, 147, 148, 149, 150, 151, 152, 153, 154, 155, 156, 157, 158, 159, 160, 161, 162, 163, 164, 165, 166, 167, 168, 169, 170, 171, 172, 173, 174, 175, 176, 177, 178, 179, 180, 181, 182, 183, 184, 185, 186, 187, 188, 189, 190],
      "AcquisitionTime": ["180817.045000", "180818.535000", "180820.025000", "180821.515000", "180823.005000", "180824.495000", "180825.985000", "180827.475000", "180828.965000", "180830.455000", "180831.945000", "180833.435000", "180834.925000", "180836.415000", "180837.905000", "180839.395000", "180840.885000", "180842.375000", "180843.865000", "180845.355000", "180846.845000", "180848.335000", "180849.825000", "180851.315000", "180852.805000", "180854.295000", "180855.785000", "180857.275000", "180858.765000", "180900.255000", "180901.745000", "180903.235000", "180904.725000", "180906.215000", "180907.705000", "180909.195000", "180910.685000", "180912.175000", "180913.665000", "180915.155000", "180916.645000", "180918.135000", "180919.625000", "180921.115000", "180922.605000", "180924.095000", "180925.585000", "180927.075000", "180928.565000", "180930.055000", "180931.545000", "180933.035000", "180934.525000", "180936.015000", "180937.505000", "180938.995000", "180940.485000", "180941.975000", "180943.465000", "180944.955000", "180946.445000", "180947.935000", "180949.425000", "180950.915000", "180952.405000", "180953.895000", "180955.385000", "180956.875000", "180958.365000", "180959.855000", "181001.345000", "181002.835000", "181004.325000", "181005.815000", "181007.305000", "181008.795000", "181010.285000", "181011.775000", "181013.265000", "181014.755000", "181016.245000", "181017.735000", "181019.225000", "181020.715000", "181022.205000", "181023.695000", "181025.185000", "181026.675000", "181028.165000", "181029.655000", "181031.145000", "181032.635000", "181034.125000", "181035.615000", "181037.105000", "181038.595000", "181040.085000", "181041.575000", "181043.065000", "181044.555000", "181046.045000", "181047.535000", "181049.025000", "181050.515000", "181052.005000", "181053.495000", "181054.985000", "181056.475000", "181057.965000", "181059.455000", "181100.945000", "181102.435000", "181103.925000", "181105.415000", "181106.905000", "181108.395000", "181109.885000", "181111.375000", "181112.865000", "181114.355000", "181115.845000", "181117.335000", "181118.825000", "181120.315000", "181121.805000", "181123.295000", "181124.785000", "181126.275000", "181127.765000", "181129.255000", "181130.745000", "181132.235000", "181133.725000", "181135.215000", "181136.705000", "181138.195000", "181139.685000", "181141.175000", "181142.665000", "181144.155000", "181145.645000", "181147.135000", "181148.625000", "181150.115000", "181151.605000", "181153.095000", "181154.585000", "181156.075000", "181157.565000", "181159.055000", "181200.545000", "181202.035000", "181203.525000", "181205.015000", "181206.505000", "181207.995000", "181209.485000", "181210.975000", "181212.465000", "181213.955000", "181215.445000", "181216.935000", "181218.425000", "181219.915000", "181221.405000", "181222.895000", "181224.385000", "181225.875000", "181227.365000", "181228.855000", "181230.345000", "181231.835000", "181233.325000", "181234.815000", "181236.305000", "181237.795000", "181239.285000", "181240.775000", "181242.265000", "181243.755000", "181245.245000", "181246.735000", "181248.225000", "181249.715000", "181251.205000", "181252.695000", "181254.185000", "181255.675000", "181257.165000", "181258.655000"],
      "ContentTime": ["180934.950000", "180934.953000", "180934.957000", "180934.960000", "180934.964000", "180934.967000", "180934.970000", "180934.974000", "180934.977000", "180934.981000", "180934.984000", "180934.987000", "180934.990000", "180934.994000", "180934.997000", "180935.002000", "180935.005000", "180935.008000", "180935.012000", "180935.015000", "180935.018000", "180935.022000", "180935.025000", "180935.028000", "180935.031000", "180954.906000", "180954.910000", "180954.914000", "180954.917000", "180954.920000", "180954.924000", "180954.927000", "180954.930000", "180954.934000", "180954.937000", "180954.941000", "180954.944000", "180954.947000", "180954.951000", "180954.954000", "180954.971000", "180954.975000", "180954.978000", "180954.982000", "180954.985000", "181014.907000", "181014.911000", "181014.914000", "181014.918000", "181014.921000", "181014.924000", "181014.929000", "181014.932000", "181014.935000", "181014.939000", "181014.942000", "181014.945000", "181014.949000", "181014.952000", "181014.956000", "181014.959000", "181014.962000", "181014.966000", "181014.969000", "181014.972000", "181034.907000", "181034.911000", "181034.914000", "181034.917000", "181034.921000", "181034.924000", "181034.927000", "181034.931000", "181034.934000", "181034.937000", "181034.941000", "181034.944000", "181034.947000", "181034.951000", "181034.954000", "181034.957000", "181034.961000", "181034.964000", "181034.967000", "181034.971000", "181034.974000", "181114.907000", "181114.911000", "181114.914000", "181114.918000", "181114.921000", "181114.924000", "181114.928000", "181114.931000", "181114.935000", "181114.938000", "181114.941000", "181114.945000", "181114.948000", "181114.951000", "181114.955000", "181114.958000", "181114.961000", "181114.965000", "181114.968000", "181114.971000", "181114.975000", "181114.978000", "181114.982000", "181114.985000", "181114.988000", "181114.992000", "181114.995000", "181114.998000", "181115.003000", "181115.006000", "181115.010000", "181115.013000", "181154.906000", "181154.910000", "181154.913000", "181154.917000", "181154.920000", "181154.924000", "181154.927000", "181154.930000", "181154.934000", "181154.937000", "181154.940000", "181154.944000", "181154.947000", "181154.950000", "181154.954000", "181154.957000", "181154.960000", "181154.964000", "181154.967000", "181154.970000", "181154.974000", "181154.977000", "181154.980000", "181154.996000", "181155.000000", "181155.003000", "181155.007000", "181234.907000", "181234.917000", "181234.921000", "181234.924000", "181234.928000", "181234.931000", "181234.935000", "181234.938000", "181234.942000", "181234.945000", "181234.949000", "181234.952000", "181234.955000", "181234.959000", "181234.962000", "181234.965000", "181234.969000", "181234.972000", "181234.976000", "181234.979000", "181234.983000", "181234.986000", "181234.990000", "181234.993000", "181234.996000", "181235.000000", "181235.003000", "181301.287000", "181301.291000", "181301.294000", "181301.298000", "181301.301000", "181301.305000", "181301.308000", "181301.311000", "181301.315000", "181301.318000", "181301.321000", "181301.325000", "181301.328000", "181301.332000", "181301.335000", "181301.339000", "181301.342000", "181301.346000"],
      "InstanceCreationTime": ["180934.950000", "180934.953000", "180934.957000", "180934.960000", "180934.964000", "180934.967000", "180934.970000", "180934.974000", "180934.977000", "180934.981000", "180934.984000", "180934.987000", "180934.990000", "180934.994000", "180934.997000", "180935.002000", "180935.005000", "180935.008000", "180935.012000", "180935.015000", "180935.018000", "180935.022000", "180935.025000", "180935.028000", "180935.031000", "180954.906000", "180954.910000", "180954.914000", "180954.917000", "180954.920000", "180954.924000", "180954.927000", "180954.930000", "180954.934000", "180954.937000", "180954.941000", "180954.944000", "180954.947000", "180954.951000", "180954.954000", "180954.971000", "180954.975000", "180954.978000", "180954.982000", "180954.985000", "181014.907000", "181014.911000", "181014.914000", "181014.918000", "181014.921000", "181014.924000", "181014.929000", "181014.932000", "181014.935000", "181014.939000", "181014.942000", "181014.945000", "181014.949000", "181014.952000", "181014.956000", "181014.959000", "181014.962000", "181014.966000", "181014.969000", "181014.972000", "181034.907000", "181034.911000", "181034.914000", "181034.917000", "181034.921000", "181034.924000", "181034.927000", "181034.931000", "181034.934000", "181034.937000", "181034.941000", "181034.944000", "181034.947000", "181034.951000", "181034.954000", "181034.957000", "181034.961000", "181034.964000", "181034.967000", "181034.971000", "181034.974000", "181114.907000", "181114.911000", "181114.914000", "181114.918000", "181114.921000", "181114.924000", "181114.928000", "181114.931000", "181114.935000", "181114.938000", "181114.941000", "181114.945000", "181114.948000", "181114.951000", "181114.955000", "181114.958000", "181114.961000", "181114.965000", "181114.968000", "181114.971000", "181114.975000", "181114.978000", "181114.982000", "181114.985000", "181114.988000", "181114.992000", "181114.995000", "181114.998000", "181115.003000", "181115.006000", "181115.010000", "181115.013000", "181154.906000", "181154.910000", "181154.913000", "181154.917000", "181154.920000", "181154.924000", "181154.927000", "181154.930000", "181154.934000", "181154.937000", "181154.940000", "181154.944000", "181154.947000", "181154.950000", "181154.954000", "181154.957000", "181154.960000", "181154.964000", "181154.967000", "181154.970000", "181154.974000", "181154.977000", "181154.980000", "181154.996000", "181155.000000", "181155.003000", "181155.007000", "181234.907000", "181234.917000", "181234.921000", "181234.924000", "181234.928000", "181234.931000", "181234.935000", "181234.938000", "181234.942000", "181234.945000", "181234.949000", "181234.952000", "181234.955000", "181234.959000", "181234.962000", "181234.965000", "181234.969000", "181234.972000", "181234.976000", "181234.979000", "181234.983000", "181234.986000", "181234.990000", "181234.993000", "181234.996000", "181235.000000", "181235.003000", "181301.287000", "181301.291000", "181301.294000", "181301.298000", "181301.301000", "181301.305000", "181301.308000", "181301.311000", "181301.315000", "181301.318000", "181301.321000", "181301.325000", "181301.328000", "181301.332000", "181301.335000", "181301.339000", "181301.342000", "181301.346000"],
      "InstanceNumber": [1, 2, 3, 4, 5, 6, 7, 8, 9, 10, 11, 12, 13, 14, 15, 16, 17, 18, 19, 20, 21, 22, 23, 24, 25, 26, 27, 28, 29, 30, 31, 32, 33, 34, 35, 36, 37, 38, 39, 40, 41, 42, 43, 44, 45, 46, 47, 48, 49, 50, 51, 52, 53, 54, 55, 56, 57, 58, 59, 60, 61, 62, 63, 64, 65, 66, 67, 68, 69, 70, 71, 72, 73, 74, 75, 76, 77, 78, 79, 80, 81, 82, 83, 84, 85, 86, 87, 88, 89, 90, 91, 92, 93, 94, 95, 96, 97, 98, 99, 100, 101, 102, 103, 104, 105, 106, 107, 108, 109, 110, 111, 112, 113, 114, 115, 116, 117, 118, 119, 120, 121, 122, 123, 124, 125, 126, 127, 128, 129, 130, 131, 132, 133, 134, 135, 136, 137, 138, 139, 140, 141, 142, 143, 144, 145, 146, 147, 148, 149, 150, 151, 152, 153, 154, 155, 156, 157, 158, 159, 160, 161, 162, 163, 164, 165, 166, 167, 168, 169, 170, 171, 172, 173, 174, 175, 176, 177, 178, 179, 180, 181, 182, 183, 184, 185, 186, 187, 188, 189, 190],
      "LargestImagePixelValue": [40273, 39475, 38824, 38504, 38352, 38789, 39080, 39828, 39076, 38123, 38518, 37956, 38393, 38378, 38693, 40146, 38005, 38626, 37780, 39584, 38848, 38326, 37850, 38056, 37940, 38337, 38941, 38787, 38654, 37915, 38530, 37776, 38398, 38072, 38177, 38249, 38939, 38164, 38645, 37915, 38604, 38278, 38546, 37963, 38089, 38544, 38214, 38486, 38347, 38630, 37921, 38196, 37247, 38343, 37725, 38303, 36520, 38632, 38572, 38501, 38072, 37159, 38415, 37194, 38312, 37976, 38499, 37867, 38387, 37761, 38335, 38701, 37690, 39652, 40758, 42708, 41239, 38431, 38124, 38589, 40265, 39599, 38616, 38419, 37900, 37776, 38247, 38629, 38316, 37884, 38587, 38408, 38701, 38977, 41054, 39129, 37674, 38182, 38487, 38084, 38340, 38168, 37693, 37697, 37732, 38485, 38231, 39249, 41749, 38333, 37790, 39050, 39464, 38278, 38033, 37914, 38339, 37867, 38148, 37339, 38399, 39988, 41415, 42554, 40614, 38588, 38035, 38671, 38916, 38286, 38189, 39906, 40798, 39634, 39622, 38870, 37411, 37997, 37813, 37826, 37434, 37729, 38262, 39736, 42155, 40697, 39210, 38706, 38047, 37710, 38525, 41078, 40481, 39989, 39312, 39152, 38860, 40714, 39439, 40019, 37692, 37870, 38068, 40646, 39445, 39332, 38606, 37438, 37683, 38280, 40610, 41894, 37557, 39697, 42772, 41730, 39797, 37939, 37859, 38241, 37559, 39476, 41166, 41840, 39501, 39364, 39067, 39541, 39408, 39775],
      "WindowCenter": [10311.0, 10277.0, 10295.0, 10291.0, 10280.0, 10269.0, 10273.0, 10286.0, 10273.0, 10272.0, 10280.0, 10272.0, 10250.0, 10241.0, 10247.0, 10263.0, 10241.0, 10243.0, 10244.0, 10257.0, 10247.0, 10238.0, 10244.0, 10252.0, 10249.0, 10238.0, 10240.0, 10236.0, 10234.0, 10233.0, 10250.0, 10235.0, 10229.0, 10223.0, 10228.0, 10257.0, 10264.0, 10240.0, 10234.0, 10242.0, 10271.0, 10252.0, 10232.0, 10223.0, 10238.0, 10253.0, 10232.0, 10229.0, 10228.0, 10233.0, 10220.0, 10219.0, 10218.0, 10234.0, 10209.0, 10223.0, 10220.0, 10252.0, 10252.0, 10231.0, 10215.0, 10208.0, 10243.0, 10227.0, 10211.0, 10210.0, 10210.0, 10213.0, 10226.0, 10206.0, 10208.0, 10205.0, 10206.0, 10250.0, 10271.0, 10286.0, 10269.0, 10235.0, 10217.0, 10202.0, 10210.0, 10193.0, 10200.0, 10228.0, 10218.0, 10200.0, 10202.0, 10199.0, 10202.0, 10214.0, 10223.0, 10201.0, 10201.0, 10217.0, 10246.0, 10221.0, 10196.0, 10190.0, 10189.0, 10190.0, 10198.0, 10209.0, 10190.0, 10177.0, 10176.0, 10183.0, 10182.0, 10225.0, 10258.0, 10217.0, 10205.0, 10219.0, 10226.0, 10221.0, 10194.0, 10182.0, 10180.0, 10177.0, 10180.0, 10179.0, 10201.0, 10226.0, 10247.0, 10258.0, 10229.0, 10200.0, 10192.0, 10199.0, 10214.0, 10212.0, 10225.0, 10254.0, 10242.0, 10218.0, 10217.0, 10218.0, 10205.0, 10209.0, 10214.0, 10206.0, 10197.0, 10186.0, 10191.0, 10217.0, 10276.0, 10257.0, 10223.0, 10208.0, 10195.0, 10188.0, 10202.0, 10236.0, 10228.0, 10208.0, 10200.0, 10187.0, 10186.0, 10227.0, 10227.0, 10216.0, 10186.0, 10192.0, 10195.0, 10213.0, 10203.0, 10201.0, 10186.0, 10169.0, 10183.0, 10221.0, 10257.0, 10260.0, 10205.0, 10236.0, 10277.0, 10253.0, 10212.0, 10168.0, 10165.0, 10172.0, 10177.0, 10225.0, 10253.0, 10245.0, 10195.0, 10191.0, 10185.0, 10197.0, 10209.0, 10209.0],
      "WindowWidth": [21877.0, 21785.0, 21820.0, 21810.0, 21778.0, 21746.0, 21755.0, 21784.0, 21756.0, 21760.0, 21777.0, 21759.0, 21703.0, 21685.0, 21695.0, 21727.0, 21685.0, 21684.0, 21695.0, 21713.0, 21693.0, 21675.0, 21697.0, 21715.0, 21707.0, 21677.0, 21675.0, 21672.0, 21665.0, 21671.0, 21712.0, 21677.0, 21657.0, 21645.0, 21656.0, 21727.0, 21744.0, 21682.0, 21663.0, 21692.0, 21755.0, 21713.0, 21664.0, 21645.0, 21682.0, 21714.0, 21670.0, 21658.0, 21658.0, 21665.0, 21638.0, 21636.0, 21641.0, 21666.0, 21616.0, 21642.0, 21649.0, 21711.0, 21711.0, 21666.0, 21628.0, 21613.0, 21685.0, 21657.0, 21614.0, 21612.0, 21615.0, 21626.0, 21649.0, 21607.0, 21605.0, 21600.0, 21608.0, 21697.0, 21743.0, 21771.0, 21735.0, 21669.0, 21631.0, 21589.0, 21599.0, 21561.0, 21585.0, 21651.0, 21636.0, 21591.0, 21592.0, 21584.0, 21593.0, 21625.0, 21638.0, 21588.0, 21585.0, 21623.0, 21682.0, 21636.0, 21584.0, 21565.0, 21560.0, 21562.0, 21582.0, 21610.0, 21569.0, 21536.0, 21534.0, 21553.0, 21547.0, 21635.0, 21706.0, 21627.0, 21604.0, 21627.0, 21645.0, 21639.0, 21575.0, 21548.0, 21542.0, 21540.0, 21544.0, 21542.0, 21589.0, 21637.0, 21683.0, 21700.0, 21639.0, 21588.0, 21570.0, 21583.0, 21611.0, 21609.0, 21641.0, 21699.0, 21669.0, 21616.0, 21617.0, 21635.0, 21600.0, 21603.0, 21617.0, 21601.0, 21577.0, 21552.0, 21562.0, 21616.0, 21754.0, 21705.0, 21632.0, 21601.0, 21575.0, 21560.0, 21591.0, 21655.0, 21637.0, 21594.0, 21578.0, 21552.0, 21551.0, 21635.0, 21639.0, 21613.0, 21554.0, 21567.0, 21578.0, 21605.0, 21590.0, 21585.0, 21551.0, 21522.0, 21550.0, 21631.0, 21706.0, 21706.0, 21600.0, 21666.0, 21743.0, 21691.0, 21603.0, 21510.0, 21501.0, 21518.0, 21536.0, 21633.0, 21691.0, 21671.0, 21567.0, 21556.0, 21545.0, 21569.0, 21600.0, 21599.0]
    },
    "slices": {}
  }
}