{
  "AcquisitionMatrixPE": 104,
  "AcquisitionNumber": 1,
  "AcquisitionTime": "18:08:17.045000",
  "BandwidthPerPixelPhaseEncode": 17.17,
  "BaseResolution": 104,
  "BodyPartExamined": "BRAIN",
  "CoilString": "HC1-7;NC1_2",
  "ConsistencyInfo": "N4_VE11C_LATEST_20160120",
  "ConversionSoftware": "dcm2niix",
  "ConversionSoftwareVersion": "v1.0.20190902",
  "DerivedVendorReportedEchoSpacing": 0.000560011,
  "DeviceSerialNumber": "167006",
  "DwellTime": 2.1e-06,
  "EchoTime": 0.037,
  "EchoTrainLength": 104,
  "EffectiveEchoSpacing": 0.000560011,
  "FlipAngle": 52,
  "ImageComments": "Unaliased_MB4_PE3_LB",
  "ImageOrientationPatientDICOM": [0.99832, 0.0333539, 0.0473729, -0.0121974, 0.920336, -0.390939],
  "ImageType": [
    "ORIGINAL",
    "PRIMARY",
    "P",
    "MB",
    "ND",
    "MOSAIC"
],
  "ImagingFrequency": 123.259,
  "InPlanePhaseEncodingDirectionDICOM": "COL",
  "InstitutionAddress": "Chemin_Queen-Mary_4565_Montreal_District_CA_H3W_1W5",
  "InstitutionName": "IUGM",
  "InstitutionalDepartmentName": "Department",
  "MRAcquisitionType": "2D",
  "MagneticFieldStrength": 3,
  "Manufacturer": "Siemens",
  "ManufacturersModelName": "Prisma_fit",
  "Modality": "MR",
  "MultibandAccelerationFactor": 4,
  "PartialFourier": 1,
  "PatientPosition": "HFS",
  "PercentPhaseFOV": 100,
  "PhaseEncodingDirection": "j",
  "PhaseEncodingSteps": 104,
  "PhaseResolution": 1,
  "PixelBandwidth": 2290,
  "ProcedureStepDescription": "memory_things",
  "ProtocolName": "func_task-things_run-6",
  "PulseSequenceDetails": "%CustomerSeq%_cmrr_mbep2d_bold",
  "ReceiveCoilActiveElements": "HC1-7;NC1,2",
  "ReceiveCoilName": "HeadNeck_64",
  "ReconMatrixPE": 104,
  "RepetitionTime": 1.49,
  "SAR": 0.0355983,
  "ScanOptions": "FS",
  "ScanningSequence": "EP",
  "SequenceName": "epfid2d1_104",
  "SequenceVariant": "SK_SS",
  "SeriesDescription": "func_task-things_run-6",
  "SeriesNumber": 26,
  "ShimSetting": [637, -7173, -8815, 623, 86, 51, -90, -4],
  "SliceThickness": 2,
  "SliceTiming": [0, 0.785, 0.1, 0.8825, 0.1975, 0.98, 0.295, 1.08, 0.3925, 1.1775, 0.49, 1.275, 0.59, 1.3725, 0.6875, 0, 0.785, 0.1, 0.8825, 0.1975, 0.98, 0.295, 1.08, 0.3925, 1.1775, 0.49, 1.275, 0.59, 1.3725, 0.6875, 0, 0.785, 0.1, 0.8825, 0.1975, 0.98, 0.295, 1.08, 0.3925, 1.1775, 0.49, 1.275, 0.59, 1.3725, 0.6875, 0, 0.785, 0.1, 0.8825, 0.1975, 0.98, 0.295, 1.08, 0.3925, 1.1775, 0.49, 1.275, 0.59, 1.3725, 0.6875],
  "SoftwareVersions": "syngo_MR_E11",
  "SpacingBetweenSlices": 2,
  "StationName": "MRC35049",
  "TaskName": "things",
  "TotalReadoutTime": 0.0576811,
  "TxRefAmp": 244.136,
  "WipMemBlock": "042d80f6-7eea-44ef-96f5-e3c08dce880c||Sequence: R016 ve11c/master r/e634e98; Dec 19 2017 11:00:25 by eja",
  "dcmmeta_affine": [
    [-1.9966404438018799, -0.024394836276769638, 0.1132766455411911, 105.96519470214844],
    [-0.06670785695314407, 1.8406718969345093, -0.7794080376625061, -54.1959228515625],
    [0.09474579989910126, 0.7818770408630371, 1.8383936882019043, -64.98463439941406],
    [0.0, 0.0, 0.0, 1.0]
],
  "dcmmeta_reorient_transform": [
    [0.0, -1.0, 0.0, 103.0],
    [1.0, 0.0, 0.0, 0.0],
    [0.0, 0.0, 1.0, 0.0],
    [0.0, 0.0, 0.0, 1.0]
],
  "dcmmeta_shape": [104, 104, 60, 190],
  "dcmmeta_slice_dim": 2,
  "dcmmeta_version": 0.6,
  "global": {
    "const": {
      "AcquisitionMatrix": [104, 0, 0, 104],
      "AngioFlag": "N",
      "BitsAllocated": 16,
      "BitsStored": 16,
      "BodyPartExamined": "BRAIN",
      "Columns": 832,
      "EchoNumbers": 1,
      "EchoTime": 37.0,
      "EchoTrainLength": 104,
      "FlipAngle": 52.0,
      "HighBit": 15,
      "ImageOrientationPatient": [0.99832025101678, 0.03335393010167, 0.04737290107827, -0.0121974185704, 0.9203359708534, -0.3909385165644],
      "ImagePositionPatient": [-821.34994586627, -829.67953510072, 265.66446508552],
      "ImageType": [
        "ORIGINAL",
        "PRIMARY",
        "P",
        "MB",
        "ND",
        "MOSAIC"
],
      "ImagedNucleus": "1H",
      "ImagingFrequency": 123.258978,
      "InPlanePhaseEncodingDirection": "COL",
      "LargestImagePixelValue": 4095,
      "MRAcquisitionType": "2D",
      "MagneticFieldStrength": 3.0,
      "Manufacturer": "SIEMENS",
      "ManufacturerModelName": "Prisma_fit",
      "Modality": "MR",
      "NumberOfAverages": 1.0,
      "NumberOfPhaseEncodingSteps": 104,
      "PercentPhaseFieldOfView": 100.0,
      "PercentSampling": 100.0,
      "PerformedProcedureStepStartTime": "172825.299000",
      "PhotometricInterpretation": "MONOCHROME2",
      "PixelBandwidth": 2290.0,
      "PixelRepresentation": 0,
      "PixelSpacing": [2.0, 2.0],
      "ProtocolName": "func_task-things_run-6",
      "RepetitionTime": 1490.0,
      "RescaleIntercept": -4096.0,
      "RescaleSlope": 2.0,
      "RescaleType": "US",
      "Rows": 832,
      "SAR": 0.03559827507165,
      "SamplesPerPixel": 1,
      "ScanOptions": "FS",
      "ScanningSequence": "EP",
      "SequenceName": "epfid2d1_104",
      "SequenceVariant": [
        "SK",
        "SS"
],
      "SeriesDescription": "func_task-things_run-6",
      "SeriesNumber": 26,
      "SeriesTime": "180935.087000",
      "SliceLocation": -32.611616216787,
      "SliceThickness": 2.0,
      "SmallestImagePixelValue": 0,
      "SoftwareVersions": "syngo MR E11",
      "SpacingBetweenSlices": 2.0000000092525,
      "SpecificCharacterSet": "ISO_IR 100",
      "StudyID": "1",
      "StudyTime": "172825.190000",
      "TransmitCoilName": "Body",
      "VariableFlipAngleFlag": "N",
      "WindowCenterWidthExplanation": "Algo1",
      "dBdt": 0.0},
    "slices": {}
  },
  "time": {
    "samples": {
      "AcquisitionNumber": [1, 2, 3, 4, 5, 6, 7, 8, 9, 10, 11, 12, 13, 14, 15, 16, 17, 18, 19, 20, 21, 22, 23, 24, 25, 26, 27, 28, 29, 30, 31, 32, 33, 34, 35, 36, 37, 38, 39, 40, 41, 42, 43, 44, 45, 46, 47, 48, 49, 50, 51, 52, 53, 54, 55, 56, 57, 58, 59, 60, 61, 62, 63, 64, 65, 66, 67, 68, 69, 70, 71, 72, 73, 74, 75, 76, 77, 78, 79, 80, 81, 82, 83, 84, 85, 86, 87, 88, 89, 90, 91, 92, 93, 94, 95, 96, 97, 98, 99, 100, 101, 102, 103, 104, 105, 106, 107, 108, 109, 110, 111, 112, 113, 114, 115, 116, 117, 118, 119, 120, 121, 122, 123, 124, 125, 126, 127, 128, 129, 130, 131, 132, 133, 134, 135, 136, 137, 138, 139, 140, 141, 142, 143, 144, 145, 146, 147, 148, 149, 150, 151, 152, 153, 154, 155, 156, 157, 158, 159, 160, 161, 162, 163, 164, 165, 166, 167, 168, 169, 170, 171, 172, 173, 174, 175, 176, 177, 178, 179, 180, 181, 182, 183, 184, 185, 186, 187, 188, 189, 190],
      "AcquisitionTime": ["180817.045000", "180818.535000", "180820.025000", "180821.515000", "180823.005000", "180824.495000", "180825.985000", "180827.475000", "180828.965000", "180830.455000", "180831.945000", "180833.435000", "180834.925000", "180836.415000", "180837.905000", "180839.395000", "180840.885000", "180842.375000", "180843.865000", "180845.355000", "180846.845000", "180848.335000", "180849.825000", "180851.315000", "180852.805000", "180854.295000", "180855.785000", "180857.275000", "180858.765000", "180900.255000", "180901.745000", "180903.235000", "180904.725000", "180906.215000", "180907.705000", "180909.195000", "180910.685000", "180912.175000", "180913.665000", "180915.155000", "180916.645000", "180918.135000", "180919.625000", "180921.115000", "180922.605000", "180924.095000", "180925.585000", "180927.075000", "180928.565000", "180930.055000", "180931.545000", "180933.035000", "180934.525000", "180936.015000", "180937.505000", "180938.995000", "180940.485000", "180941.975000", "180943.465000", "180944.955000", "180946.445000", "180947.935000", "180949.425000", "180950.915000", "180952.405000", "180953.895000", "180955.385000", "180956.875000", "180958.365000", "180959.855000", "181001.345000", "181002.835000", "181004.325000", "181005.815000", "181007.305000", "181008.795000", "181010.285000", "181011.775000", "181013.265000", "181014.755000", "181016.245000", "181017.735000", "181019.225000", "181020.715000", "181022.205000", "181023.695000", "181025.185000", "181026.675000", "181028.165000", "181029.655000", "181031.145000", "181032.635000", "181034.125000", "181035.615000", "181037.105000", "181038.595000", "181040.085000", "181041.575000", "181043.065000", "181044.555000", "181046.045000", "181047.535000", "181049.025000", "181050.515000", "181052.005000", "181053.495000", "181054.985000", "181056.475000", "181057.965000", "181059.455000", "181100.945000", "181102.435000", "181103.925000", "181105.415000", "181106.905000", "181108.395000", "181109.885000", "181111.375000", "181112.865000", "181114.355000", "181115.845000", "181117.335000", "181118.825000", "181120.315000", "181121.805000", "181123.295000", "181124.785000", "181126.275000", "181127.765000", "181129.255000", "181130.745000", "181132.235000", "181133.725000", "181135.215000", "181136.705000", "181138.195000", "181139.685000", "181141.175000", "181142.665000", "181144.155000", "181145.645000", "181147.135000", "181148.625000", "181150.115000", "181151.605000", "181153.095000", "181154.585000", "181156.075000", "181157.565000", "181159.055000", "181200.545000", "181202.035000", "181203.525000", "181205.015000", "181206.505000", "181207.995000", "181209.485000", "181210.975000", "181212.465000", "181213.955000", "181215.445000", "181216.935000", "181218.425000", "181219.915000", "181221.405000", "181222.895000", "181224.385000", "181225.875000", "181227.365000", "181228.855000", "181230.345000", "181231.835000", "181233.325000", "181234.815000", "181236.305000", "181237.795000", "181239.285000", "181240.775000", "181242.265000", "181243.755000", "181245.245000", "181246.735000", "181248.225000", "181249.715000", "181251.205000", "181252.695000", "181254.185000", "181255.675000", "181257.165000", "181258.655000"],
      "ContentTime": ["180935.089000", "180935.092000", "180935.094000", "180935.097000", "180935.099000", "180935.102000", "180935.104000", "180935.107000", "180935.109000", "180935.112000", "180935.114000", "180935.117000", "180935.119000", "180935.122000", "180935.124000", "180935.127000", "180935.129000", "180935.132000", "180935.134000", "180935.145000", "180935.148000", "180935.150000", "180935.153000", "180935.155000", "180935.158000", "180955.046000", "180955.049000", "180955.051000", "180955.054000", "180955.056000", "180955.059000", "180955.061000", "180955.064000", "180955.066000", "180955.069000", "180955.072000", "180955.074000", "180955.077000", "180955.079000", "180955.082000", "180955.084000", "180955.093000", "180955.095000", "180955.098000", "180955.100000", "181015.023000", "181015.026000", "181015.028000", "181015.036000", "181015.039000", "181015.041000", "181015.044000", "181015.046000", "181015.049000", "181015.051000", "181015.054000", "181015.056000", "181015.059000", "181015.061000", "181015.064000", "181015.067000", "181015.069000", "181015.072000", "181015.074000", "181015.077000", "181035.028000", "181035.031000", "181035.033000", "181035.036000", "181035.038000", "181035.041000", "181035.043000", "181035.046000", "181035.048000", "181035.051000", "181035.053000", "181035.056000", "181035.058000", "181035.061000", "181035.063000", "181035.071000", "181035.073000", "181035.076000", "181035.078000", "181035.081000", "181035.084000", "181115.065000", "181115.067000", "181115.070000", "181115.073000", "181115.075000", "181115.078000", "181115.080000", "181115.083000", "181115.085000", "181115.088000", "181115.090000", "181115.093000", "181115.095000", "181115.098000", "181115.100000", "181115.103000", "181115.106000", "181115.108000", "181115.111000", "181115.113000", "181115.116000", "181115.118000", "181115.121000", "181115.123000", "181115.126000", "181115.128000", "181115.131000", "181115.133000", "181115.136000", "181115.138000", "181115.141000", "181115.143000", "181155.060000", "181155.063000", "181155.066000", "181155.068000", "181155.071000", "181155.073000", "181155.076000", "181155.078000", "181155.081000", "181155.083000", "181155.086000", "181155.088000", "181155.091000", "181155.094000", "181155.096000", "181155.099000", "181155.101000", "181155.104000", "181155.107000", "181155.110000", "181155.112000", "181155.115000", "181155.117000", "181155.120000", "181155.122000", "181155.125000", "181155.127000", "181235.069000", "181235.072000", "181235.074000", "181235.077000", "181235.080000", "181235.092000", "181235.095000", "181235.098000", "181235.100000", "181235.103000", "181235.105000", "181235.108000", "181235.110000", "181235.113000", "181235.115000", "181235.118000", "181235.120000", "181235.123000", "181235.125000", "181235.128000", "181235.130000", "181235.133000", "181235.135000", "181235.138000", "181235.141000", "181235.143000", "181235.146000", "181301.398000", "181301.401000", "181301.403000", "181301.406000", "181301.408000", "181301.411000", "181301.413000", "181301.416000", "181301.419000", "181301.421000", "181301.424000", "181301.426000", "181301.429000", "181301.431000", "181301.434000", "181301.436000", "181301.439000", "181301.441000"],
      "InstanceCreationTime": ["180935.089000", "180935.092000", "180935.094000", "180935.097000", "180935.099000", "180935.102000", "180935.104000", "180935.107000", "180935.109000", "180935.112000", "180935.114000", "180935.117000", "180935.119000", "180935.122000", "180935.124000", "180935.127000", "180935.129000", "180935.132000", "180935.134000", "180935.145000", "180935.148000", "180935.150000", "180935.153000", "180935.155000", "180935.158000", "180955.046000", "180955.049000", "180955.051000", "180955.054000", "180955.056000", "180955.059000", "180955.061000", "180955.064000", "180955.066000", "180955.069000", "180955.072000", "180955.074000", "180955.077000", "180955.079000", "180955.082000", "180955.084000", "180955.093000", "180955.095000", "180955.098000", "180955.100000", "181015.023000", "181015.026000", "181015.028000", "181015.036000", "181015.039000", "181015.041000", "181015.044000", "181015.046000", "181015.049000", "181015.051000", "181015.054000", "181015.056000", "181015.059000", "181015.061000", "181015.064000", "181015.067000", "181015.069000", "181015.072000", "181015.074000", "181015.077000", "181035.028000", "181035.031000", "181035.033000", "181035.036000", "181035.038000", "181035.041000", "181035.043000", "181035.046000", "181035.048000", "181035.051000", "181035.053000", "181035.056000", "181035.058000", "181035.061000", "181035.063000", "181035.071000", "181035.073000", "181035.076000", "181035.078000", "181035.081000", "181035.084000", "181115.065000", "181115.067000", "181115.070000", "181115.073000", "181115.075000", "181115.078000", "181115.080000", "181115.083000", "181115.085000", "181115.088000", "181115.090000", "181115.093000", "181115.095000", "181115.098000", "181115.100000", "181115.103000", "181115.106000", "181115.108000", "181115.111000", "181115.113000", "181115.116000", "181115.118000", "181115.121000", "181115.123000", "181115.126000", "181115.128000", "181115.131000", "181115.133000", "181115.136000", "181115.138000", "181115.141000", "181115.143000", "181155.060000", "181155.063000", "181155.066000", "181155.068000", "181155.071000", "181155.073000", "181155.076000", "181155.078000", "181155.081000", "181155.083000", "181155.086000", "181155.088000", "181155.091000", "181155.094000", "181155.096000", "181155.099000", "181155.101000", "181155.104000", "181155.107000", "181155.110000", "181155.112000", "181155.115000", "181155.117000", "181155.120000", "181155.122000", "181155.125000", "181155.127000", "181235.069000", "181235.072000", "181235.074000", "181235.077000", "181235.080000", "181235.092000", "181235.095000", "181235.098000", "181235.100000", "181235.103000", "181235.105000", "181235.108000", "181235.110000", "181235.113000", "181235.115000", "181235.118000", "181235.120000", "181235.123000", "181235.125000", "181235.128000", "181235.130000", "181235.133000", "181235.135000", "181235.138000", "181235.141000", "181235.143000", "181235.146000", "181301.398000", "181301.401000", "181301.403000", "181301.406000", "181301.408000", "181301.411000", "181301.413000", "181301.416000", "181301.419000", "181301.421000", "181301.424000", "181301.426000", "181301.429000", "181301.431000", "181301.434000", "181301.436000", "181301.439000", "181301.441000"],
      "InstanceNumber": [1, 2, 3, 4, 5, 6, 7, 8, 9, 10, 11, 12, 13, 14, 15, 16, 17, 18, 19, 20, 21, 22, 23, 24, 25, 26, 27, 28, 29, 30, 31, 32, 33, 34, 35, 36, 37, 38, 39, 40, 41, 42, 43, 44, 45, 46, 47, 48, 49, 50, 51, 52, 53, 54, 55, 56, 57, 58, 59, 60, 61, 62, 63, 64, 65, 66, 67, 68, 69, 70, 71, 72, 73, 74, 75, 76, 77, 78, 79, 80, 81, 82, 83, 84, 85, 86, 87, 88, 89, 90, 91, 92, 93, 94, 95, 96, 97, 98, 99, 100, 101, 102, 103, 104, 105, 106, 107, 108, 109, 110, 111, 112, 113, 114, 115, 116, 117, 118, 119, 120, 121, 122, 123, 124, 125, 126, 127, 128, 129, 130, 131, 132, 133, 134, 135, 136, 137, 138, 139, 140, 141, 142, 143, 144, 145, 146, 147, 148, 149, 150, 151, 152, 153, 154, 155, 156, 157, 158, 159, 160, 161, 162, 163, 164, 165, 166, 167, 168, 169, 170, 171, 172, 173, 174, 175, 176, 177, 178, 179, 180, 181, 182, 183, 184, 185, 186, 187, 188, 189, 190],
      "WindowCenter": [4834.0, 4836.0, 4834.0, 4836.0, 4834.0, 4836.0, 4836.0, 4834.0, 4836.0, 4832.0, 4834.0, 4834.0, 4838.0, 4834.0, 4838.0, 4834.0, 4812.0, 4834.0, 4834.0, 4836.0, 4836.0, 4812.0, 4834.0, 4834.0, 4836.0, 4838.0, 4834.0, 4830.0, 4834.0, 4834.0, 4832.0, 4834.0, 4834.0, 4834.0, 4834.0, 4838.0, 4834.0, 4832.0, 4810.0, 4810.0, 4834.0, 4810.0, 4814.0, 4808.0, 4808.0, 4836.0, 4838.0, 4836.0, 4832.0, 4834.0, 4834.0, 4836.0, 4834.0, 4836.0, 4810.0, 4812.0, 4844.0, 4840.0, 4836.0, 4832.0, 4814.0, 4836.0, 4834.0, 4832.0, 4836.0, 4810.0, 4810.0, 4810.0, 4836.0, 4834.0, 4834.0, 4810.0, 4816.0, 4820.0, 4814.0, 4808.0, 4838.0, 4848.0, 4850.0, 4848.0, 4812.0, 4836.0, 4836.0, 4836.0, 4834.0, 4836.0, 4832.0, 4806.0, 4810.0, 4836.0, 4838.0, 4810.0, 4814.0, 4812.0, 4832.0, 4834.0, 4838.0, 4836.0, 4832.0, 4812.0, 4836.0, 4830.0, 4834.0, 4834.0, 4834.0, 4832.0, 4836.0, 4834.0, 4836.0, 4846.0, 4808.0, 4834.0, 4836.0, 4832.0, 4810.0, 4832.0, 4836.0, 4834.0, 4810.0, 4836.0, 4840.0, 4812.0, 4808.0, 4838.0, 4844.0, 4870.0, 4842.0, 4834.0, 4812.0, 4816.0, 4836.0, 4812.0, 4838.0, 4832.0, 4838.0, 4812.0, 4812.0, 4812.0, 4832.0, 4834.0, 4834.0, 4834.0, 4812.0, 4836.0, 4810.0, 4810.0, 4838.0, 4834.0, 4810.0, 4808.0, 4812.0, 4810.0, 4834.0, 4812.0, 4834.0, 4808.0, 4810.0, 4808.0, 4834.0, 4834.0, 4834.0, 4810.0, 4812.0, 4832.0, 4832.0, 4832.0, 4810.0, 4812.0, 4810.0, 4834.0, 4806.0, 4808.0, 4808.0, 4810.0, 4810.0, 4842.0, 4842.0, 4842.0, 4808.0, 4836.0, 4814.0, 4812.0, 4836.0, 4836.0, 4812.0, 4810.0, 4810.0, 4808.0, 4808.0, 4808.0],
      "WindowWidth": [18632.0, 18634.0, 18636.0, 18630.0, 18630.0, 18632.0, 18636.0, 18636.0, 18644.0, 18642.0, 18636.0, 18630.0, 18632.0, 18630.0, 18632.0, 18632.0, 18610.0, 18634.0, 18632.0, 18642.0, 18644.0, 18616.0, 18638.0, 18632.0, 18630.0, 18630.0, 18632.0, 18636.0, 18640.0, 18642.0, 18636.0, 18634.0, 18640.0, 18640.0, 18636.0, 18634.0, 18638.0, 18632.0, 18608.0, 18606.0, 18640.0, 18606.0, 18610.0, 18602.0, 18598.0, 18630.0, 18634.0, 18630.0, 18632.0, 18640.0, 18640.0, 18640.0, 18638.0, 18646.0, 18606.0, 18602.0, 18632.0, 18632.0, 18626.0, 18636.0, 18614.0, 18648.0, 18644.0, 18638.0, 18634.0, 18606.0, 18600.0, 18598.0, 18630.0, 18632.0, 18626.0, 18606.0, 18618.0, 18616.0, 18612.0, 18604.0, 18638.0, 18632.0, 18632.0, 18632.0, 18604.0, 18644.0, 18646.0, 18650.0, 18652.0, 18648.0, 18640.0, 18600.0, 18604.0, 18630.0, 18634.0, 18602.0, 18612.0, 18612.0, 18634.0, 18630.0, 18634.0, 18630.0, 18632.0, 18610.0, 18640.0, 18636.0, 18636.0, 18636.0, 18638.0, 18640.0, 18642.0, 18638.0, 18636.0, 18636.0, 18602.0, 18644.0, 18650.0, 18636.0, 18600.0, 18638.0, 18634.0, 18636.0, 18614.0, 18648.0, 18648.0, 18606.0, 18604.0, 18636.0, 18638.0, 18666.0, 18636.0, 18632.0, 18610.0, 18620.0, 18652.0, 18618.0, 18642.0, 18634.0, 18636.0, 18600.0, 18606.0, 18608.0, 18630.0, 18640.0, 18640.0, 18644.0, 18612.0, 18646.0, 18608.0, 18604.0, 18636.0, 18632.0, 18600.0, 18606.0, 18612.0, 18610.0, 18636.0, 18604.0, 18632.0, 18604.0, 18604.0, 18606.0, 18638.0, 18626.0, 18628.0, 18606.0, 18612.0, 18648.0, 18636.0, 18638.0, 18606.0, 18610.0, 18612.0, 18642.0, 18606.0, 18604.0, 18604.0, 18600.0, 18602.0, 18638.0, 18634.0, 18634.0, 18600.0, 18642.0, 18618.0, 18614.0, 18646.0, 18634.0, 18600.0, 18608.0, 18604.0, 18606.0, 18608.0, 18604.0]
    },
    "slices": {}
  }
}