{
  "AcquisitionMatrixPE": 104,
  "AcquisitionNumber": 1,
  "AcquisitionTime": "17:32:48.452500",
  "BandwidthPerPixelPhaseEncode": 17.17,
  "BaseResolution": 104,
  "BodyPartExamined": "BRAIN",
  "CoilString": "HC1-7;NC1_2",
  "ConsistencyInfo": "N4_VE11C_LATEST_20160120",
  "ConversionSoftware": "dcm2niix",
  "ConversionSoftwareVersion": "v1.0.20190902",
  "DerivedVendorReportedEchoSpacing": 0.000560011,
  "DeviceSerialNumber": "167006",
  "DwellTime": 2.1e-06,
  "EchoTime": 0.037,
  "EchoTrainLength": 104,
  "EffectiveEchoSpacing": 0.000560011,
  "FlipAngle": 52,
  "ImageComments": "Unaliased_MB4_PE3_LB",
  "ImageOrientationPatientDICOM": [0.99832, 0.0333539, 0.0473729, -0.0121974, 0.920336, -0.390939],
  "ImageType": [
    "ORIGINAL",
    "PRIMARY",
    "M",
    "MB",
    "ND",
    "MOSAIC"
],
  "ImagingFrequency": 123.259,
  "InPlanePhaseEncodingDirectionDICOM": "COL",
  "InstitutionAddress": "Chemin_Queen-Mary_4565_Montreal_District_CA_H3W_1W5",
  "InstitutionName": "IUGM",
  "InstitutionalDepartmentName": "Department",
  "MRAcquisitionType": "2D",
  "MagneticFieldStrength": 3,
  "Manufacturer": "Siemens",
  "ManufacturersModelName": "Prisma_fit",
  "Modality": "MR",
  "MultibandAccelerationFactor": 4,
  "PartialFourier": 1,
  "PatientPosition": "HFS",
  "PercentPhaseFOV": 100,
  "PhaseEncodingDirection": "j",
  "PhaseEncodingSteps": 104,
  "PhaseResolution": 1,
  "PixelBandwidth": 2290,
  "ProcedureStepDescription": "memory_things",
  "ProtocolName": "func_task-things_run-1",
  "PulseSequenceDetails": "%CustomerSeq%_cmrr_mbep2d_bold",
  "ReceiveCoilActiveElements": "HC1-7;NC1,2",
  "ReceiveCoilName": "HeadNeck_64",
  "ReconMatrixPE": 104,
  "RepetitionTime": 1.49,
  "SAR": 0.0355983,
  "ScanOptions": "FS",
  "ScanningSequence": "EP",
  "SequenceName": "epfid2d1_104",
  "SequenceVariant": "SK_SS",
  "SeriesDescription": "func_task-things_run-1",
  "SeriesNumber": 10,
  "ShimSetting": [637, -7173, -8815, 623, 86, 51, -90, -4],
  "SliceThickness": 2,
  "SliceTiming": [0, 0.785, 0.0975, 0.8825, 0.1975, 0.98, 0.295, 1.0775, 0.3925, 1.1775, 0.49, 1.275, 0.5875, 1.3725, 0.6875, 0, 0.785, 0.0975, 0.8825, 0.1975, 0.98, 0.295, 1.0775, 0.3925, 1.1775, 0.49, 1.275, 0.5875, 1.3725, 0.6875, 0, 0.785, 0.0975, 0.8825, 0.1975, 0.98, 0.295, 1.0775, 0.3925, 1.1775, 0.49, 1.275, 0.5875, 1.3725, 0.6875, 0, 0.785, 0.0975, 0.8825, 0.1975, 0.98, 0.295, 1.0775, 0.3925, 1.1775, 0.49, 1.275, 0.5875, 1.3725, 0.6875],
  "SoftwareVersions": "syngo_MR_E11",
  "SpacingBetweenSlices": 2,
  "StationName": "MRC35049",
  "TaskName": "things",
  "TotalReadoutTime": 0.0576811,
  "TxRefAmp": 244.136,
  "WipMemBlock": "8d53e0da-d669-499f-893f-976ee4db84d3||Sequence: R016 ve11c/master r/e634e98; Dec 19 2017 11:00:25 by eja",
  "dcmmeta_affine": [
    [-1.9966404438018799, -0.024394836276769638, 0.1132766455411911, 105.96519470214844],
    [-0.06670785695314407, 1.8406718969345093, -0.7794080376625061, -54.1959228515625],
    [0.09474579989910126, 0.7818770408630371, 1.8383936882019043, -64.98463439941406],
    [0.0, 0.0, 0.0, 1.0]
],
  "dcmmeta_reorient_transform": [
    [0.0, -1.0, 0.0, 103.0],
    [1.0, 0.0, 0.0, 0.0],
    [0.0, 0.0, 1.0, 0.0],
    [0.0, 0.0, 0.0, 1.0]
],
  "dcmmeta_shape": [104, 104, 60, 190],
  "dcmmeta_slice_dim": 2,
  "dcmmeta_version": 0.6,
  "global": {
    "const": {
      "AcquisitionMatrix": [104, 0, 0, 104],
      "AngioFlag": "N",
      "BitsAllocated": 16,
      "BitsStored": 16,
      "BodyPartExamined": "BRAIN",
      "Columns": 832,
      "EchoNumbers": 1,
      "EchoTime": 37.0,
      "EchoTrainLength": 104,
      "FlipAngle": 52.0,
      "HighBit": 15,
      "ImageOrientationPatient": [0.99832025101678, 0.03335393010167, 0.04737290107827, -0.0121974185704, 0.9203359708534, -0.3909385165644],
      "ImagePositionPatient": [-821.34994586627, -829.67953510072, 265.66446508552],
      "ImageType": [
        "ORIGINAL",
        "PRIMARY",
        "M",
        "MB",
        "ND",
        "MOSAIC"
],
      "ImagedNucleus": "1H",
      "ImagingFrequency": 123.258965,
      "InPlanePhaseEncodingDirection": "COL",
      "MRAcquisitionType": "2D",
      "MagneticFieldStrength": 3.0,
      "Manufacturer": "SIEMENS",
      "ManufacturerModelName": "Prisma_fit",
      "Modality": "MR",
      "NumberOfAverages": 1.0,
      "NumberOfPhaseEncodingSteps": 104,
      "PercentPhaseFieldOfView": 100.0,
      "PercentSampling": 100.0,
      "PerformedProcedureStepStartTime": "172825.299000",
      "PhotometricInterpretation": "MONOCHROME2",
      "PixelBandwidth": 2290.0,
      "PixelRepresentation": 0,
      "PixelSpacing": [2.0, 2.0],
      "ProtocolName": "func_task-things_run-1",
      "RepetitionTime": 1490.0,
      "Rows": 832,
      "SAR": 0.03559827507165,
      "SamplesPerPixel": 1,
      "ScanOptions": "FS",
      "ScanningSequence": "EP",
      "SequenceName": "epfid2d1_104",
      "SequenceVariant": [
        "SK",
        "SS"
],
      "SeriesDescription": "func_task-things_run-1",
      "SeriesNumber": 10,
      "SeriesTime": "173404.124000",
      "SliceLocation": -32.611616216787,
      "SliceThickness": 2.0,
      "SmallestImagePixelValue": 0,
      "SoftwareVersions": "syngo MR E11",
      "SpacingBetweenSlices": 2.0000000092525,
      "SpecificCharacterSet": "ISO_IR 100",
      "StudyID": "1",
      "StudyTime": "172825.190000",
      "TransmitCoilName": "Body",
      "VariableFlipAngleFlag": "N",
      "WindowCenterWidthExplanation": "Algo1",
      "dBdt": 0.0},
    "slices": {}
  },
  "time": {
    "samples": {
      "AcquisitionNumber": [1, 2, 3, 4, 5, 6, 7, 8, 9, 10, 11, 12, 13, 14, 15, 16, 17, 18, 19, 20, 21, 22, 23, 24, 25, 26, 27, 28, 29, 30, 31, 32, 33, 34, 35, 36, 37, 38, 39, 40, 41, 42, 43, 44, 45, 46, 47, 48, 49, 50, 51, 52, 53, 54, 55, 56, 57, 58, 59, 60, 61, 62, 63, 64, 65, 66, 67, 68, 69, 70, 71, 72, 73, 74, 75, 76, 77, 78, 79, 80, 81, 82, 83, 84, 85, 86, 87, 88, 89, 90, 91, 92, 93, 94, 95, 96, 97, 98, 99, 100, 101, 102, 103, 104, 105, 106, 107, 108, 109, 110, 111, 112, 113, 114, 115, 116, 117, 118, 119, 120, 121, 122, 123, 124, 125, 126, 127, 128, 129, 130, 131, 132, 133, 134, 135, 136, 137, 138, 139, 140, 141, 142, 143, 144, 145, 146, 147, 148, 149, 150, 151, 152, 153, 154, 155, 156, 157, 158, 159, 160, 161, 162, 163, 164, 165, 166, 167, 168, 169, 170, 171, 172, 173, 174, 175, 176, 177, 178, 179, 180, 181, 182, 183, 184, 185, 186, 187, 188, 189, 190],
      "AcquisitionTime": ["173248.452500", "173249.942500", "173251.432500", "173252.922500", "173254.412500", "173255.902500", "173257.392500", "173258.882500", "173300.372500", "173301.862500", "173303.352500", "173304.842500", "173306.332500", "173307.822500", "173309.312500", "173310.802500", "173312.292500", "173313.782500", "173315.272500", "173316.762500", "173318.252500", "173319.742500", "173321.232500", "173322.722500", "173324.212500", "173325.702500", "173327.192500", "173328.682500", "173330.172500", "173331.662500", "173333.152500", "173334.642500", "173336.132500", "173337.622500", "173339.112500", "173340.602500", "173342.092500", "173343.582500", "173345.072500", "173346.562500", "173348.052500", "173349.542500", "173351.032500", "173352.522500", "173354.012500", "173355.502500", "173356.992500", "173358.482500", "173359.972500", "173401.462500", "173402.952500", "173404.442500", "173405.932500", "173407.422500", "173408.912500", "173410.402500", "173411.892500", "173413.382500", "173414.872500", "173416.362500", "173417.852500", "173419.342500", "173420.832500", "173422.322500", "173423.812500", "173425.302500", "173426.792500", "173428.282500", "173429.772500", "173431.262500", "173432.752500", "173434.242500", "173435.732500", "173437.222500", "173438.712500", "173440.202500", "173441.692500", "173443.182500", "173444.672500", "173446.162500", "173447.652500", "173449.142500", "173450.632500", "173452.122500", "173453.612500", "173455.102500", "173456.592500", "173458.082500", "173459.572500", "173501.062500", "173502.552500", "173504.042500", "173505.532500", "173507.022500", "173508.512500", "173510.002500", "173511.492500", "173512.982500", "173514.472500", "173515.962500", "173517.452500", "173518.942500", "173520.432500", "173521.922500", "173523.412500", "173524.902500", "173526.392500", "173527.882500", "173529.372500", "173530.862500", "173532.352500", "173533.842500", "173535.332500", "173536.822500", "173538.312500", "173539.802500", "173541.292500", "173542.782500", "173544.272500", "173545.762500", "173547.252500", "173548.742500", "173550.232500", "173551.722500", "173553.212500", "173554.702500", "173556.192500", "173557.682500", "173559.172500", "173600.662500", "173602.152500", "173603.642500", "173605.132500", "173606.622500", "173608.112500", "173609.602500", "173611.092500", "173612.582500", "173614.072500", "173615.562500", "173617.052500", "173618.542500", "173620.032500", "173621.522500", "173623.012500", "173624.502500", "173625.992500", "173627.482500", "173628.972500", "173630.462500", "173631.952500", "173633.442500", "173634.932500", "173636.422500", "173637.912500", "173639.402500", "173640.892500", "173642.382500", "173643.872500", "173645.362500", "173646.852500", "173648.342500", "173649.832500", "173651.322500", "173652.812500", "173654.302500", "173655.792500", "173657.282500", "173658.772500", "173700.262500", "173701.752500", "173703.242500", "173704.732500", "173706.222500", "173707.712500", "173709.202500", "173710.692500", "173712.182500", "173713.672500", "173715.162500", "173716.652500", "173718.142500", "173719.632500", "173721.122500", "173722.612500", "173724.102500", "173725.592500", "173727.082500", "173728.572500", "173730.062500"],
      "ContentTime": ["173404.128000", "173404.143000", "173404.147000", "173404.150000", "173404.153000", "173404.157000", "173404.167000", "173404.171000", "173404.174000", "173404.177000", "173404.181000", "173404.186000", "173404.189000", "173404.193000", "173404.196000", "173404.199000", "173404.203000", "173404.206000", "173404.209000", "173404.213000", "173404.216000", "173404.219000", "173424.090000", "173424.094000", "173424.097000", "173424.100000", "173424.104000", "173424.107000", "173424.111000", "173424.114000", "173424.117000", "173424.121000", "173424.124000", "173424.128000", "173424.131000", "173424.134000", "173424.138000", "173424.141000", "173424.144000", "173424.148000", "173424.151000", "173424.154000", "173444.090000", "173444.094000", "173444.097000", "173444.100000", "173444.104000", "173444.107000", "173444.110000", "173444.114000", "173444.117000", "173444.121000", "173444.124000", "173444.127000", "173444.131000", "173444.134000", "173444.137000", "173444.141000", "173444.144000", "173444.147000", "173444.151000", "173444.154000", "173504.090000", "173504.094000", "173504.097000", "173504.100000", "173504.104000", "173504.107000", "173504.111000", "173504.114000", "173504.117000", "173504.121000", "173504.124000", "173504.127000", "173504.131000", "173504.134000", "173504.137000", "173504.141000", "173504.144000", "173504.147000", "173504.151000", "173504.154000", "173504.158000", "173524.090000", "173524.094000", "173524.097000", "173524.101000", "173524.104000", "173524.107000", "173524.111000", "173524.114000", "173524.118000", "173524.121000", "173524.124000", "173524.128000", "173524.131000", "173524.135000", "173524.138000", "173524.141000", "173524.145000", "173524.148000", "173524.152000", "173524.155000", "173604.090000", "173604.094000", "173604.097000", "173604.101000", "173604.108000", "173604.112000", "173604.115000", "173604.119000", "173604.122000", "173604.126000", "173604.148000", "173604.151000", "173604.155000", "173604.158000", "173604.161000", "173604.165000", "173604.170000", "173604.174000", "173604.178000", "173604.181000", "173604.184000", "173604.188000", "173604.192000", "173604.196000", "173604.200000", "173604.203000", "173604.206000", "173644.090000", "173644.094000", "173644.097000", "173644.101000", "173644.104000", "173644.107000", "173644.111000", "173644.114000", "173644.118000", "173644.121000", "173644.124000", "173644.128000", "173644.131000", "173644.135000", "173644.138000", "173644.141000", "173644.145000", "173644.148000", "173644.160000", "173644.163000", "173644.167000", "173644.170000", "173644.177000", "173644.180000", "173644.184000", "173644.187000", "173644.191000", "173724.090000", "173724.094000", "173724.097000", "173724.101000", "173724.104000", "173724.108000", "173724.111000", "173724.114000", "173724.118000", "173724.121000", "173724.125000", "173724.128000", "173724.132000", "173724.135000", "173724.138000", "173724.142000", "173724.145000", "173724.149000", "173724.152000", "173724.155000", "173724.159000", "173724.162000", "173724.165000", "173724.169000", "173724.172000", "173724.176000", "173724.179000", "173732.212000", "173732.216000", "173732.220000", "173732.223000", "173732.227000", "173732.230000"],
      "InstanceCreationTime": ["173404.128000", "173404.143000", "173404.147000", "173404.150000", "173404.153000", "173404.157000", "173404.167000", "173404.171000", "173404.174000", "173404.177000", "173404.181000", "173404.186000", "173404.189000", "173404.193000", "173404.196000", "173404.199000", "173404.203000", "173404.206000", "173404.209000", "173404.213000", "173404.216000", "173404.219000", "173424.090000", "173424.094000", "173424.097000", "173424.100000", "173424.104000", "173424.107000", "173424.111000", "173424.114000", "173424.117000", "173424.121000", "173424.124000", "173424.128000", "173424.131000", "173424.134000", "173424.138000", "173424.141000", "173424.144000", "173424.148000", "173424.151000", "173424.154000", "173444.090000", "173444.094000", "173444.097000", "173444.100000", "173444.104000", "173444.107000", "173444.110000", "173444.114000", "173444.117000", "173444.121000", "173444.124000", "173444.127000", "173444.131000", "173444.134000", "173444.137000", "173444.141000", "173444.144000", "173444.147000", "173444.151000", "173444.154000", "173504.090000", "173504.094000", "173504.097000", "173504.100000", "173504.104000", "173504.107000", "173504.111000", "173504.114000", "173504.117000", "173504.121000", "173504.124000", "173504.127000", "173504.131000", "173504.134000", "173504.137000", "173504.141000", "173504.144000", "173504.147000", "173504.151000", "173504.154000", "173504.158000", "173524.090000", "173524.094000", "173524.097000", "173524.101000", "173524.104000", "173524.107000", "173524.111000", "173524.114000", "173524.118000", "173524.121000", "173524.124000", "173524.128000", "173524.131000", "173524.135000", "173524.138000", "173524.141000", "173524.145000", "173524.148000", "173524.152000", "173524.155000", "173604.090000", "173604.094000", "173604.097000", "173604.101000", "173604.108000", "173604.112000", "173604.115000", "173604.119000", "173604.122000", "173604.126000", "173604.148000", "173604.151000", "173604.155000", "173604.158000", "173604.161000", "173604.165000", "173604.170000", "173604.174000", "173604.178000", "173604.181000", "173604.184000", "173604.188000", "173604.192000", "173604.196000", "173604.200000", "173604.203000", "173604.206000", "173644.090000", "173644.094000", "173644.097000", "173644.101000", "173644.104000", "173644.107000", "173644.111000", "173644.114000", "173644.118000", "173644.121000", "173644.124000", "173644.128000", "173644.131000", "173644.135000", "173644.138000", "173644.141000", "173644.145000", "173644.148000", "173644.160000", "173644.163000", "173644.167000", "173644.170000", "173644.177000", "173644.180000", "173644.184000", "173644.187000", "173644.191000", "173724.090000", "173724.094000", "173724.097000", "173724.101000", "173724.104000", "173724.108000", "173724.111000", "173724.114000", "173724.118000", "173724.121000", "173724.125000", "173724.128000", "173724.132000", "173724.135000", "173724.138000", "173724.142000", "173724.145000", "173724.149000", "173724.152000", "173724.155000", "173724.159000", "173724.162000", "173724.165000", "173724.169000", "173724.172000", "173724.176000", "173724.179000", "173732.212000", "173732.216000", "173732.220000", "173732.223000", "173732.227000", "173732.230000"],
      "InstanceNumber": [1, 2, 3, 4, 5, 6, 7, 8, 9, 10, 11, 12, 13, 14, 15, 16, 17, 18, 19, 20, 21, 22, 23, 24, 25, 26, 27, 28, 29, 30, 31, 32, 33, 34, 35, 36, 37, 38, 39, 40, 41, 42, 43, 44, 45, 46, 47, 48, 49, 50, 51, 52, 53, 54, 55, 56, 57, 58, 59, 60, 61, 62, 63, 64, 65, 66, 67, 68, 69, 70, 71, 72, 73, 74, 75, 76, 77, 78, 79, 80, 81, 82, 83, 84, 85, 86, 87, 88, 89, 90, 91, 92, 93, 94, 95, 96, 97, 98, 99, 100, 101, 102, 103, 104, 105, 106, 107, 108, 109, 110, 111, 112, 113, 114, 115, 116, 117, 118, 119, 120, 121, 122, 123, 124, 125, 126, 127, 128, 129, 130, 131, 132, 133, 134, 135, 136, 137, 138, 139, 140, 141, 142, 143, 144, 145, 146, 147, 148, 149, 150, 151, 152, 153, 154, 155, 156, 157, 158, 159, 160, 161, 162, 163, 164, 165, 166, 167, 168, 169, 170, 171, 172, 173, 174, 175, 176, 177, 178, 179, 180, 181, 182, 183, 184, 185, 186, 187, 188, 189, 190],
      "LargestImagePixelValue": [43673, 42325, 42141, 41724, 43836, 44255, 43436, 43080, 41974, 41759, 43224, 42824, 42257, 41983, 41895, 41783, 41986, 43522, 41635, 41478, 42044, 40827, 42499, 41418, 41420, 42189, 41144, 41807, 41162, 41049, 41934, 40997, 41339, 41482, 41128, 40744, 40987, 41032, 41072, 40090, 41228, 40310, 41606, 41148, 39782, 40713, 40913, 40059, 40113, 40751, 39574, 40059, 40783, 39642, 40109, 40315, 40359, 42114, 40848, 40663, 43638, 41038, 41059, 40410, 39699, 39342, 40249, 39737, 39435, 39161, 39442, 39477, 39086, 38586, 39791, 38487, 39271, 39157, 39491, 39943, 40861, 38508, 39495, 39275, 39734, 40453, 39966, 39828, 39299, 39093, 39525, 39882, 45828, 38890, 39051, 38331, 38446, 39493, 39750, 37858, 38479, 39728, 39130, 39340, 41049, 41226, 41159, 41361, 40821, 39497, 41577, 41449, 40825, 40979, 41588, 41240, 40229, 40129, 41840, 41366, 40160, 39978, 37788, 40498, 40805, 39116, 38590, 39257, 39375, 38820, 37911, 39347, 39637, 40470, 39468, 38846, 38549, 38111, 41024, 42987, 40009, 39413, 39449, 39151, 41989, 42489, 40126, 39173, 38902, 38939, 39513, 39249, 38641, 38286, 43404, 38938, 38874, 38352, 38055, 37447, 38665, 41543, 39274, 40863, 40603, 40221, 40323, 41074, 41611, 41932, 42027, 42979, 42513, 41421, 41083, 40631, 40216, 40446, 43914, 39970, 39562, 39523, 42312, 39205, 38813, 39114, 38771, 39371, 39286, 42928],
      "WindowCenter": [10565.0, 10520.0, 10490.0, 10463.0, 10465.0, 10469.0, 10471.0, 10458.0, 10445.0, 10440.0, 10457.0, 10475.0, 10480.0, 10476.0, 10473.0, 10449.0, 10445.0, 10487.0, 10484.0, 10478.0, 10463.0, 10441.0, 10450.0, 10447.0, 10441.0, 10452.0, 10459.0, 10481.0, 10478.0, 10464.0, 10473.0, 10455.0, 10451.0, 10447.0, 10451.0, 10465.0, 10476.0, 10478.0, 10472.0, 10467.0, 10479.0, 10469.0, 10502.0, 10500.0, 10469.0, 10482.0, 10472.0, 10445.0, 10450.0, 10448.0, 10420.0, 10406.0, 10417.0, 10424.0, 10438.0, 10430.0, 10428.0, 10458.0, 10441.0, 10434.0, 10444.0, 10423.0, 10433.0, 10429.0, 10427.0, 10424.0, 10439.0, 10441.0, 10450.0, 10446.0, 10446.0, 10455.0, 10451.0, 10443.0, 10454.0, 10435.0, 10454.0, 10456.0, 10491.0, 10466.0, 10510.0, 10470.0, 10474.0, 10457.0, 10465.0, 10480.0, 10469.0, 10462.0, 10457.0, 10450.0, 10461.0, 10431.0, 10506.0, 10459.0, 10466.0, 10464.0, 10473.0, 10472.0, 10458.0, 10417.0, 10428.0, 10455.0, 10467.0, 10468.0, 10482.0, 10478.0, 10485.0, 10496.0, 10491.0, 10466.0, 10476.0, 10468.0, 10470.0, 10462.0, 10468.0, 10470.0, 10456.0, 10459.0, 10457.0, 10458.0, 10429.0, 10433.0, 10413.0, 10433.0, 10441.0, 10417.0, 10440.0, 10448.0, 10433.0, 10425.0, 10409.0, 10431.0, 10440.0, 10436.0, 10442.0, 10456.0, 10472.0, 10456.0, 10470.0, 10462.0, 10439.0, 10431.0, 10447.0, 10463.0, 10479.0, 10468.0, 10426.0, 10424.0, 10450.0, 10462.0, 10460.0, 10446.0, 10424.0, 10404.0, 10452.0, 10417.0, 10428.0, 10424.0, 10433.0, 10414.0, 10429.0, 10466.0, 10449.0, 10448.0, 10426.0, 10444.0, 10460.0, 10461.0, 10473.0, 10482.0, 10472.0, 10466.0, 10436.0, 10391.0, 10363.0, 10369.0, 10377.0, 10379.0, 10420.0, 10400.0, 10410.0, 10420.0, 10444.0, 10408.0, 10405.0, 10401.0, 10414.0, 10421.0, 10428.0, 10455.0],
      "WindowWidth": [22482.0, 22359.0, 22276.0, 22209.0, 22199.0, 22209.0, 22214.0, 22185.0, 22158.0, 22152.0, 22184.0, 22228.0, 22244.0, 22234.0, 22226.0, 22171.0, 22161.0, 22255.0, 22254.0, 22246.0, 22203.0, 22154.0, 22171.0, 22169.0, 22156.0, 22180.0, 22202.0, 22249.0, 22246.0, 22214.0, 22229.0, 22198.0, 22182.0, 22168.0, 22183.0, 22220.0, 22238.0, 22245.0, 22231.0, 22221.0, 22243.0, 22224.0, 22294.0, 22297.0, 22229.0, 22251.0, 22225.0, 22167.0, 22179.0, 22173.0, 22111.0, 22074.0, 22099.0, 22123.0, 22153.0, 22134.0, 22128.0, 22186.0, 22152.0, 22137.0, 22156.0, 22108.0, 22139.0, 22132.0, 22131.0, 22120.0, 22158.0, 22162.0, 22181.0, 22176.0, 22177.0, 22197.0, 22191.0, 22175.0, 22196.0, 22155.0, 22194.0, 22203.0, 22292.0, 22234.0, 22322.0, 22235.0, 22245.0, 22200.0, 22220.0, 22259.0, 22224.0, 22210.0, 22202.0, 22186.0, 22208.0, 22137.0, 22303.0, 22209.0, 22223.0, 22220.0, 22244.0, 22245.0, 22205.0, 22115.0, 22139.0, 22198.0, 22227.0, 22230.0, 22254.0, 22238.0, 22255.0, 22281.0, 22280.0, 22226.0, 22229.0, 22212.0, 22219.0, 22199.0, 22218.0, 22221.0, 22189.0, 22205.0, 22183.0, 22196.0, 22138.0, 22138.0, 22105.0, 22133.0, 22151.0, 22113.0, 22160.0, 22183.0, 22137.0, 22121.0, 22091.0, 22141.0, 22164.0, 22140.0, 22159.0, 22197.0, 22235.0, 22203.0, 22225.0, 22199.0, 22157.0, 22138.0, 22172.0, 22213.0, 22241.0, 22208.0, 22111.0, 22114.0, 22177.0, 22204.0, 22197.0, 22168.0, 22125.0, 22072.0, 22173.0, 22104.0, 22138.0, 22124.0, 22151.0, 22101.0, 22137.0, 22201.0, 22173.0, 22164.0, 22110.0, 22150.0, 22196.0, 22192.0, 22219.0, 22239.0, 22216.0, 22194.0, 22127.0, 22028.0, 21962.0, 21980.0, 22000.0, 22005.0, 22098.0, 22060.0, 22084.0, 22106.0, 22159.0, 22079.0, 22079.0, 22066.0, 22097.0, 22112.0, 22130.0, 22182.0]
    },
    "slices": {}
  }
}