{
  "AcquisitionMatrixPE": 104,
  "AcquisitionNumber": 1,
  "AcquisitionTime": "17:49:33.620000",
  "BandwidthPerPixelPhaseEncode": 17.17,
  "BaseResolution": 104,
  "BodyPartExamined": "BRAIN",
  "CoilString": "HC1-7;NC1_2",
  "ConsistencyInfo": "N4_VE11C_LATEST_20160120",
  "ConversionSoftware": "dcm2niix",
  "ConversionSoftwareVersion": "v1.0.20190902",
  "DerivedVendorReportedEchoSpacing": 0.000560011,
  "DeviceSerialNumber": "167006",
  "DwellTime": 2.1e-06,
  "EchoTime": 0.037,
  "EchoTrainLength": 104,
  "EffectiveEchoSpacing": 0.000560011,
  "FlipAngle": 52,
  "ImageComments": "Unaliased_MB4_PE3_LB",
  "ImageOrientationPatientDICOM": [0.99832, 0.0333539, 0.0473729, -0.0121974, 0.920336, -0.390939],
  "ImageType": [
    "ORIGINAL",
    "PRIMARY",
    "P",
    "MB",
    "ND",
    "MOSAIC"
],
  "ImagingFrequency": 123.259,
  "InPlanePhaseEncodingDirectionDICOM": "COL",
  "InstitutionAddress": "Chemin_Queen-Mary_4565_Montreal_District_CA_H3W_1W5",
  "InstitutionName": "IUGM",
  "InstitutionalDepartmentName": "Department",
  "MRAcquisitionType": "2D",
  "MagneticFieldStrength": 3,
  "Manufacturer": "Siemens",
  "ManufacturersModelName": "Prisma_fit",
  "Modality": "MR",
  "MultibandAccelerationFactor": 4,
  "PartialFourier": 1,
  "PatientPosition": "HFS",
  "PercentPhaseFOV": 100,
  "PhaseEncodingDirection": "j",
  "PhaseEncodingSteps": 104,
  "PhaseResolution": 1,
  "PixelBandwidth": 2290,
  "ProcedureStepDescription": "memory_things",
  "ProtocolName": "func_task-things_run-3",
  "PulseSequenceDetails": "%CustomerSeq%_cmrr_mbep2d_bold",
  "ReceiveCoilActiveElements": "HC1-7;NC1,2",
  "ReceiveCoilName": "HeadNeck_64",
  "ReconMatrixPE": 104,
  "RepetitionTime": 1.49,
  "SAR": 0.0355983,
  "ScanOptions": "FS",
  "ScanningSequence": "EP",
  "SequenceName": "epfid2d1_104",
  "SequenceVariant": "SK_SS",
  "SeriesDescription": "func_task-things_run-3",
  "SeriesNumber": 17,
  "ShimSetting": [637, -7173, -8815, 623, 86, 51, -90, -4],
  "SliceThickness": 2,
  "SliceTiming": [0, 0.785, 0.1, 0.8825, 0.1975, 0.98, 0.295, 1.08, 0.3925, 1.1775, 0.49, 1.275, 0.59, 1.3725, 0.6875, 0, 0.785, 0.1, 0.8825, 0.1975, 0.98, 0.295, 1.08, 0.3925, 1.1775, 0.49, 1.275, 0.59, 1.3725, 0.6875, 0, 0.785, 0.1, 0.8825, 0.1975, 0.98, 0.295, 1.08, 0.3925, 1.1775, 0.49, 1.275, 0.59, 1.3725, 0.6875, 0, 0.785, 0.1, 0.8825, 0.1975, 0.98, 0.295, 1.08, 0.3925, 1.1775, 0.49, 1.275, 0.59, 1.3725, 0.6875],
  "SoftwareVersions": "syngo_MR_E11",
  "SpacingBetweenSlices": 2,
  "StationName": "MRC35049",
  "TaskName": "things",
  "TotalReadoutTime": 0.0576811,
  "TxRefAmp": 244.136,
  "WipMemBlock": "42534632-7a1c-495a-b4e3-631d4b34e659||Sequence: R016 ve11c/master r/e634e98; Dec 19 2017 11:00:25 by eja",
  "dcmmeta_affine": [
    [-1.9966404438018799, -0.024394836276769638, 0.1132766455411911, 105.96519470214844],
    [-0.06670785695314407, 1.8406718969345093, -0.7794080376625061, -54.1959228515625],
    [0.09474579989910126, 0.7818770408630371, 1.8383936882019043, -64.98463439941406],
    [0.0, 0.0, 0.0, 1.0]
],
  "dcmmeta_reorient_transform": [
    [0.0, -1.0, 0.0, 103.0],
    [1.0, 0.0, 0.0, 0.0],
    [0.0, 0.0, 1.0, 0.0],
    [0.0, 0.0, 0.0, 1.0]
],
  "dcmmeta_shape": [104, 104, 60, 190],
  "dcmmeta_slice_dim": 2,
  "dcmmeta_version": 0.6,
  "global": {
    "const": {
      "AcquisitionMatrix": [104, 0, 0, 104],
      "AngioFlag": "N",
      "BitsAllocated": 16,
      "BitsStored": 16,
      "BodyPartExamined": "BRAIN",
      "Columns": 832,
      "EchoNumbers": 1,
      "EchoTime": 37.0,
      "EchoTrainLength": 104,
      "FlipAngle": 52.0,
      "HighBit": 15,
      "ImageOrientationPatient": [0.99832025101678, 0.03335393010167, 0.04737290107827, -0.0121974185704, 0.9203359708534, -0.3909385165644],
      "ImagePositionPatient": [-821.34994586627, -829.67953510072, 265.66446508552],
      "ImageType": [
        "ORIGINAL",
        "PRIMARY",
        "P",
        "MB",
        "ND",
        "MOSAIC"
],
      "ImagedNucleus": "1H",
      "ImagingFrequency": 123.258974,
      "InPlanePhaseEncodingDirection": "COL",
      "LargestImagePixelValue": 4095,
      "MRAcquisitionType": "2D",
      "MagneticFieldStrength": 3.0,
      "Manufacturer": "SIEMENS",
      "ManufacturerModelName": "Prisma_fit",
      "Modality": "MR",
      "NumberOfAverages": 1.0,
      "NumberOfPhaseEncodingSteps": 104,
      "PercentPhaseFieldOfView": 100.0,
      "PercentSampling": 100.0,
      "PerformedProcedureStepStartTime": "172825.299000",
      "PhotometricInterpretation": "MONOCHROME2",
      "PixelBandwidth": 2290.0,
      "PixelRepresentation": 0,
      "PixelSpacing": [2.0, 2.0],
      "ProtocolName": "func_task-things_run-3",
      "RepetitionTime": 1490.0,
      "RescaleIntercept": -4096.0,
      "RescaleSlope": 2.0,
      "RescaleType": "US",
      "Rows": 832,
      "SAR": 0.03559827507165,
      "SamplesPerPixel": 1,
      "ScanOptions": "FS",
      "ScanningSequence": "EP",
      "SequenceName": "epfid2d1_104",
      "SequenceVariant": [
        "SK",
        "SS"
],
      "SeriesDescription": "func_task-things_run-3",
      "SeriesNumber": 17,
      "SeriesTime": "175055.081000",
      "SliceLocation": -32.611616216787,
      "SliceThickness": 2.0,
      "SmallestImagePixelValue": 0,
      "SoftwareVersions": "syngo MR E11",
      "SpacingBetweenSlices": 2.0000000092525,
      "SpecificCharacterSet": "ISO_IR 100",
      "StudyID": "1",
      "StudyTime": "172825.190000",
      "TransmitCoilName": "Body",
      "VariableFlipAngleFlag": "N",
      "WindowCenterWidthExplanation": "Algo1",
      "dBdt": 0.0},
    "slices": {}
  },
  "time": {
    "samples": {
      "AcquisitionNumber": [1, 2, 3, 4, 5, 6, 7, 8, 9, 10, 11, 12, 13, 14, 15, 16, 17, 18, 19, 20, 21, 22, 23, 24, 25, 26, 27, 28, 29, 30, 31, 32, 33, 34, 35, 36, 37, 38, 39, 40, 41, 42, 43, 44, 45, 46, 47, 48, 49, 50, 51, 52, 53, 54, 55, 56, 57, 58, 59, 60, 61, 62, 63, 64, 65, 66, 67, 68, 69, 70, 71, 72, 73, 74, 75, 76, 77, 78, 79, 80, 81, 82, 83, 84, 85, 86, 87, 88, 89, 90, 91, 92, 93, 94, 95, 96, 97, 98, 99, 100, 101, 102, 103, 104, 105, 106, 107, 108, 109, 110, 111, 112, 113, 114, 115, 116, 117, 118, 119, 120, 121, 122, 123, 124, 125, 126, 127, 128, 129, 130, 131, 132, 133, 134, 135, 136, 137, 138, 139, 140, 141, 142, 143, 144, 145, 146, 147, 148, 149, 150, 151, 152, 153, 154, 155, 156, 157, 158, 159, 160, 161, 162, 163, 164, 165, 166, 167, 168, 169, 170, 171, 172, 173, 174, 175, 176, 177, 178, 179, 180, 181, 182, 183, 184, 185, 186, 187, 188, 189, 190],
      "AcquisitionTime": ["174933.620000", "174935.110000", "174936.600000", "174938.090000", "174939.580000", "174941.070000", "174942.560000", "174944.050000", "174945.540000", "174947.030000", "174948.520000", "174950.010000", "174951.500000", "174952.990000", "174954.480000", "174955.970000", "174957.460000", "174958.950000", "175000.440000", "175001.930000", "175003.420000", "175004.910000", "175006.400000", "175007.890000", "175009.380000", "175010.870000", "175012.360000", "175013.850000", "175015.340000", "175016.830000", "175018.320000", "175019.810000", "175021.300000", "175022.790000", "175024.280000", "175025.770000", "175027.260000", "175028.750000", "175030.240000", "175031.730000", "175033.220000", "175034.710000", "175036.200000", "175037.690000", "175039.180000", "175040.670000", "175042.160000", "175043.650000", "175045.140000", "175046.630000", "175048.120000", "175049.610000", "175051.100000", "175052.590000", "175054.080000", "175055.570000", "175057.060000", "175058.550000", "175100.040000", "175101.530000", "175103.020000", "175104.510000", "175106.000000", "175107.490000", "175108.980000", "175110.470000", "175111.960000", "175113.450000", "175114.940000", "175116.430000", "175117.920000", "175119.410000", "175120.900000", "175122.390000", "175123.880000", "175125.370000", "175126.860000", "175128.350000", "175129.840000", "175131.330000", "175132.820000", "175134.310000", "175135.800000", "175137.290000", "175138.780000", "175140.270000", "175141.760000", "175143.250000", "175144.740000", "175146.230000", "175147.720000", "175149.210000", "175150.700000", "175152.190000", "175153.680000", "175155.170000", "175156.660000", "175158.150000", "175159.640000", "175201.130000", "175202.620000", "175204.110000", "175205.600000", "175207.090000", "175208.580000", "175210.070000", "175211.560000", "175213.050000", "175214.540000", "175216.030000", "175217.520000", "175219.010000", "175220.500000", "175221.990000", "175223.480000", "175224.970000", "175226.460000", "175227.950000", "175229.440000", "175230.930000", "175232.420000", "175233.910000", "175235.400000", "175236.890000", "175238.380000", "175239.870000", "175241.360000", "175242.850000", "175244.340000", "175245.830000", "175247.320000", "175248.810000", "175250.300000", "175251.790000", "175253.280000", "175254.770000", "175256.260000", "175257.750000", "175259.240000", "175300.730000", "175302.220000", "175303.710000", "175305.200000", "175306.690000", "175308.180000", "175309.670000", "175311.160000", "175312.650000", "175314.140000", "175315.630000", "175317.120000", "175318.610000", "175320.100000", "175321.590000", "175323.080000", "175324.570000", "175326.060000", "175327.550000", "175329.040000", "175330.530000", "175332.020000", "175333.510000", "175335.000000", "175336.490000", "175337.980000", "175339.470000", "175340.960000", "175342.450000", "175343.940000", "175345.430000", "175346.920000", "175348.410000", "175349.900000", "175351.390000", "175352.880000", "175354.370000", "175355.860000", "175357.350000", "175358.840000", "175400.330000", "175401.820000", "175403.310000", "175404.800000", "175406.290000", "175407.780000", "175409.270000", "175410.760000", "175412.250000", "175413.740000", "175415.230000"],
      "ContentTime": ["175055.083000", "175055.086000", "175055.089000", "175055.091000", "175055.094000", "175055.096000", "175055.099000", "175055.101000", "175055.104000", "175055.107000", "175055.109000", "175055.112000", "175055.130000", "175055.133000", "175055.135000", "175055.138000", "175055.140000", "175055.143000", "175055.145000", "175055.148000", "175055.150000", "175055.153000", "175055.170000", "175055.173000", "175055.175000", "175055.178000", "175115.017000", "175115.020000", "175115.030000", "175115.032000", "175115.035000", "175115.037000", "175115.040000", "175115.043000", "175115.045000", "175115.048000", "175115.050000", "175115.053000", "175115.055000", "175115.058000", "175115.061000", "175115.063000", "175115.066000", "175115.068000", "175115.071000", "175115.074000", "175135.032000", "175135.035000", "175135.038000", "175135.040000", "175135.043000", "175135.045000", "175135.048000", "175135.051000", "175135.053000", "175135.056000", "175135.058000", "175135.061000", "175135.063000", "175135.066000", "175135.077000", "175135.080000", "175135.082000", "175135.085000", "175135.087000", "175135.090000", "175135.093000", "175155.009000", "175155.012000", "175155.015000", "175155.017000", "175155.020000", "175155.022000", "175155.025000", "175155.027000", "175155.034000", "175155.037000", "175155.040000", "175155.042000", "175155.045000", "175155.053000", "175155.055000", "175155.058000", "175155.060000", "175155.063000", "175155.065000", "175155.068000", "175215.014000", "175215.017000", "175215.019000", "175215.022000", "175215.024000", "175215.027000", "175215.029000", "175215.032000", "175215.034000", "175215.037000", "175215.040000", "175215.042000", "175215.045000", "175215.047000", "175215.050000", "175215.052000", "175215.055000", "175215.057000", "175215.060000", "175215.073000", "175255.073000", "175255.076000", "175255.079000", "175255.081000", "175255.084000", "175255.086000", "175255.089000", "175255.091000", "175255.094000", "175255.096000", "175255.099000", "175255.102000", "175255.104000", "175255.107000", "175255.109000", "175255.120000", "175255.138000", "175255.140000", "175255.143000", "175255.145000", "175255.148000", "175255.151000", "175255.153000", "175255.156000", "175255.158000", "175255.161000", "175255.163000", "175335.052000", "175335.055000", "175335.057000", "175335.060000", "175335.063000", "175335.065000", "175335.068000", "175335.070000", "175335.073000", "175335.075000", "175335.078000", "175335.081000", "175335.083000", "175335.086000", "175335.088000", "175335.091000", "175335.094000", "175335.096000", "175335.099000", "175335.101000", "175335.104000", "175335.106000", "175335.109000", "175335.111000", "175335.114000", "175335.116000", "175335.119000", "175415.078000", "175415.080000", "175415.083000", "175415.085000", "175415.088000", "175415.091000", "175415.093000", "175415.096000", "175415.099000", "175415.101000", "175415.104000", "175415.106000", "175415.109000", "175415.112000", "175415.114000", "175415.117000", "175415.119000", "175415.122000", "175415.125000", "175415.127000", "175415.130000", "175415.132000", "175415.135000", "175415.137000", "175415.140000", "175415.143000", "175415.145000", "175417.148000", "175417.150000"],
      "InstanceCreationTime": ["175055.083000", "175055.086000", "175055.089000", "175055.091000", "175055.094000", "175055.096000", "175055.099000", "175055.101000", "175055.104000", "175055.107000", "175055.109000", "175055.112000", "175055.130000", "175055.133000", "175055.135000", "175055.138000", "175055.140000", "175055.143000", "175055.145000", "175055.148000", "175055.150000", "175055.153000", "175055.170000", "175055.173000", "175055.175000", "175055.178000", "175115.017000", "175115.020000", "175115.030000", "175115.032000", "175115.035000", "175115.037000", "175115.040000", "175115.043000", "175115.045000", "175115.048000", "175115.050000", "175115.053000", "175115.055000", "175115.058000", "175115.061000", "175115.063000", "175115.066000", "175115.068000", "175115.071000", "175115.074000", "175135.032000", "175135.035000", "175135.038000", "175135.040000", "175135.043000", "175135.045000", "175135.048000", "175135.051000", "175135.053000", "175135.056000", "175135.058000", "175135.061000", "175135.063000", "175135.066000", "175135.077000", "175135.080000", "175135.082000", "175135.085000", "175135.087000", "175135.090000", "175135.093000", "175155.009000", "175155.012000", "175155.015000", "175155.017000", "175155.020000", "175155.022000", "175155.025000", "175155.027000", "175155.034000", "175155.037000", "175155.040000", "175155.042000", "175155.045000", "175155.053000", "175155.055000", "175155.058000", "175155.060000", "175155.063000", "175155.065000", "175155.068000", "175215.014000", "175215.017000", "175215.019000", "175215.022000", "175215.024000", "175215.027000", "175215.029000", "175215.032000", "175215.034000", "175215.037000", "175215.040000", "175215.042000", "175215.045000", "175215.047000", "175215.050000", "175215.052000", "175215.055000", "175215.057000", "175215.060000", "175215.073000", "175255.073000", "175255.076000", "175255.079000", "175255.081000", "175255.084000", "175255.086000", "175255.089000", "175255.091000", "175255.094000", "175255.096000", "175255.099000", "175255.102000", "175255.104000", "175255.107000", "175255.109000", "175255.120000", "175255.138000", "175255.140000", "175255.143000", "175255.145000", "175255.148000", "175255.151000", "175255.153000", "175255.156000", "175255.158000", "175255.161000", "175255.163000", "175335.052000", "175335.055000", "175335.057000", "175335.060000", "175335.063000", "175335.065000", "175335.068000", "175335.070000", "175335.073000", "175335.075000", "175335.078000", "175335.081000", "175335.083000", "175335.086000", "175335.088000", "175335.091000", "175335.094000", "175335.096000", "175335.099000", "175335.101000", "175335.104000", "175335.106000", "175335.109000", "175335.111000", "175335.114000", "175335.116000", "175335.119000", "175415.078000", "175415.080000", "175415.083000", "175415.085000", "175415.088000", "175415.091000", "175415.093000", "175415.096000", "175415.099000", "175415.101000", "175415.104000", "175415.106000", "175415.109000", "175415.112000", "175415.114000", "175415.117000", "175415.119000", "175415.122000", "175415.125000", "175415.127000", "175415.130000", "175415.132000", "175415.135000", "175415.137000", "175415.140000", "175415.143000", "175415.145000", "175417.148000", "175417.150000"],
      "InstanceNumber": [1, 2, 3, 4, 5, 6, 7, 8, 9, 10, 11, 12, 13, 14, 15, 16, 17, 18, 19, 20, 21, 22, 23, 24, 25, 26, 27, 28, 29, 30, 31, 32, 33, 34, 35, 36, 37, 38, 39, 40, 41, 42, 43, 44, 45, 46, 47, 48, 49, 50, 51, 52, 53, 54, 55, 56, 57, 58, 59, 60, 61, 62, 63, 64, 65, 66, 67, 68, 69, 70, 71, 72, 73, 74, 75, 76, 77, 78, 79, 80, 81, 82, 83, 84, 85, 86, 87, 88, 89, 90, 91, 92, 93, 94, 95, 96, 97, 98, 99, 100, 101, 102, 103, 104, 105, 106, 107, 108, 109, 110, 111, 112, 113, 114, 115, 116, 117, 118, 119, 120, 121, 122, 123, 124, 125, 126, 127, 128, 129, 130, 131, 132, 133, 134, 135, 136, 137, 138, 139, 140, 141, 142, 143, 144, 145, 146, 147, 148, 149, 150, 151, 152, 153, 154, 155, 156, 157, 158, 159, 160, 161, 162, 163, 164, 165, 166, 167, 168, 169, 170, 171, 172, 173, 174, 175, 176, 177, 178, 179, 180, 181, 182, 183, 184, 185, 186, 187, 188, 189, 190],
      "WindowCenter": [4812.0, 4842.0, 4846.0, 4844.0, 4840.0, 4834.0, 4810.0, 4832.0, 4834.0, 4842.0, 4838.0, 4808.0, 4832.0, 4836.0, 4870.0, 4876.0, 4876.0, 4870.0, 4844.0, 4836.0, 4830.0, 4810.0, 4832.0, 4836.0, 4838.0, 4836.0, 4834.0, 4870.0, 4878.0, 4870.0, 4840.0, 4808.0, 4808.0, 4836.0, 4834.0, 4836.0, 4832.0, 4832.0, 4840.0, 4842.0, 4840.0, 4842.0, 4840.0, 4838.0, 4836.0, 4806.0, 4804.0, 4806.0, 4842.0, 4874.0, 4876.0, 4848.0, 4838.0, 4810.0, 4808.0, 4806.0, 4810.0, 4838.0, 4844.0, 4848.0, 4870.0, 4842.0, 4808.0, 4800.0, 4806.0, 4832.0, 4842.0, 4872.0, 4870.0, 4842.0, 4808.0, 4806.0, 4806.0, 4834.0, 4848.0, 4870.0, 4872.0, 4868.0, 4836.0, 4808.0, 4806.0, 4834.0, 4838.0, 4846.0, 4850.0, 4872.0, 4842.0, 4832.0, 4812.0, 4838.0, 4834.0, 4840.0, 4806.0, 4808.0, 4808.0, 4808.0, 4840.0, 4876.0, 4880.0, 4874.0, 4872.0, 4832.0, 4808.0, 4808.0, 4832.0, 4832.0, 4844.0, 4848.0, 4846.0, 4838.0, 4842.0, 4840.0, 4840.0, 4834.0, 4832.0, 4832.0, 4838.0, 4840.0, 4840.0, 4846.0, 4846.0, 4844.0, 4838.0, 4836.0, 4834.0, 4806.0, 4810.0, 4834.0, 4838.0, 4846.0, 4870.0, 4840.0, 4810.0, 4808.0, 4832.0, 4840.0, 4840.0, 4836.0, 4834.0, 4836.0, 4840.0, 4838.0, 4840.0, 4836.0, 4832.0, 4812.0, 4834.0, 4834.0, 4836.0, 4838.0, 4840.0, 4840.0, 4838.0, 4832.0, 4834.0, 4832.0, 4834.0, 4834.0, 4836.0, 4836.0, 4828.0, 4810.0, 4806.0, 4808.0, 4836.0, 4838.0, 4840.0, 4832.0, 4834.0, 4836.0, 4808.0, 4806.0, 4830.0, 4838.0, 4840.0, 4842.0, 4838.0, 4840.0, 4806.0, 4808.0, 4834.0, 4842.0, 4810.0, 4804.0, 4804.0, 4808.0, 4808.0, 4840.0, 4848.0, 4846.0],
      "WindowWidth": [18598.0, 18636.0, 18640.0, 18636.0, 18636.0, 18626.0, 18598.0, 18624.0, 18622.0, 18632.0, 18636.0, 18604.0, 18634.0, 18634.0, 18674.0, 18670.0, 18674.0, 18668.0, 18638.0, 18628.0, 18630.0, 18604.0, 18630.0, 18628.0, 18632.0, 18642.0, 18634.0, 18670.0, 18672.0, 18666.0, 18632.0, 18600.0, 18592.0, 18628.0, 18628.0, 18634.0, 18626.0, 18632.0, 18636.0, 18636.0, 18632.0, 18634.0, 18632.0, 18632.0, 18630.0, 18594.0, 18600.0, 18598.0, 18640.0, 18668.0, 18678.0, 18642.0, 18632.0, 18596.0, 18600.0, 18598.0, 18596.0, 18630.0, 18640.0, 18642.0, 18668.0, 18634.0, 18598.0, 18590.0, 18598.0, 18630.0, 18636.0, 18672.0, 18672.0, 18638.0, 18594.0, 18600.0, 18600.0, 18630.0, 18642.0, 18670.0, 18666.0, 18666.0, 18632.0, 18596.0, 18598.0, 18630.0, 18626.0, 18646.0, 18638.0, 18664.0, 18638.0, 18628.0, 18598.0, 18632.0, 18630.0, 18636.0, 18598.0, 18600.0, 18600.0, 18604.0, 18634.0, 18670.0, 18670.0, 18668.0, 18668.0, 18634.0, 18606.0, 18604.0, 18630.0, 18626.0, 18636.0, 18640.0, 18638.0, 18636.0, 18636.0, 18634.0, 18632.0, 18634.0, 18632.0, 18634.0, 18636.0, 18630.0, 18632.0, 18640.0, 18644.0, 18636.0, 18632.0, 18630.0, 18630.0, 18598.0, 18604.0, 18632.0, 18632.0, 18638.0, 18668.0, 18630.0, 18596.0, 18608.0, 18626.0, 18630.0, 18638.0, 18632.0, 18626.0, 18632.0, 18632.0, 18632.0, 18636.0, 18632.0, 18630.0, 18600.0, 18630.0, 18636.0, 18634.0, 18632.0, 18630.0, 18634.0, 18628.0, 18630.0, 18632.0, 18632.0, 18628.0, 18626.0, 18630.0, 18632.0, 18630.0, 18594.0, 18598.0, 18600.0, 18634.0, 18638.0, 18636.0, 18630.0, 18634.0, 18634.0, 18598.0, 18604.0, 18630.0, 18638.0, 18638.0, 18638.0, 18634.0, 18638.0, 18598.0, 18600.0, 18634.0, 18642.0, 18602.0, 18594.0, 18598.0, 18600.0, 18596.0, 18634.0, 18640.0, 18642.0]
    },
    "slices": {}
  }
}