{
  "AcquisitionMatrixPE": 104,
  "AcquisitionNumber": 1,
  "AcquisitionTime": "17:42:41.597500",
  "BandwidthPerPixelPhaseEncode": 17.17,
  "BaseResolution": 104,
  "BodyPartExamined": "BRAIN",
  "CoilString": "HC1-7;NC1_2",
  "ConsistencyInfo": "N4_VE11C_LATEST_20160120",
  "ConversionSoftware": "dcm2niix",
  "ConversionSoftwareVersion": "v1.0.20190902",
  "DerivedVendorReportedEchoSpacing": 0.000560011,
  "DeviceSerialNumber": "167006",
  "DwellTime": 2.1e-06,
  "EchoTime": 0.037,
  "EchoTrainLength": 104,
  "EffectiveEchoSpacing": 0.000560011,
  "FlipAngle": 52,
  "ImageComments": "Unaliased_MB4_PE3_LB",
  "ImageOrientationPatientDICOM": [0.99832, 0.0333539, 0.0473729, -0.0121974, 0.920336, -0.390939],
  "ImageType": [
    "ORIGINAL",
    "PRIMARY",
    "M",
    "MB",
    "ND",
    "MOSAIC"
],
  "ImagingFrequency": 123.259,
  "InPlanePhaseEncodingDirectionDICOM": "COL",
  "InstitutionAddress": "Chemin_Queen-Mary_4565_Montreal_District_CA_H3W_1W5",
  "InstitutionName": "IUGM",
  "InstitutionalDepartmentName": "Department",
  "MRAcquisitionType": "2D",
  "MagneticFieldStrength": 3,
  "Manufacturer": "Siemens",
  "ManufacturersModelName": "Prisma_fit",
  "Modality": "MR",
  "MultibandAccelerationFactor": 4,
  "PartialFourier": 1,
  "PatientPosition": "HFS",
  "PercentPhaseFOV": 100,
  "PhaseEncodingDirection": "j",
  "PhaseEncodingSteps": 104,
  "PhaseResolution": 1,
  "PixelBandwidth": 2290,
  "ProcedureStepDescription": "memory_things",
  "ProtocolName": "func_task-things_run-2",
  "PulseSequenceDetails": "%CustomerSeq%_cmrr_mbep2d_bold",
  "ReceiveCoilActiveElements": "HC1-7;NC1,2",
  "ReceiveCoilName": "HeadNeck_64",
  "ReconMatrixPE": 104,
  "RepetitionTime": 1.49,
  "SAR": 0.0355983,
  "ScanOptions": "FS",
  "ScanningSequence": "EP",
  "SequenceName": "epfid2d1_104",
  "SequenceVariant": "SK_SS",
  "SeriesDescription": "func_task-things_run-2",
  "SeriesNumber": 13,
  "ShimSetting": [637, -7173, -8815, 623, 86, 51, -90, -4],
  "SliceThickness": 2,
  "SliceTiming": [0, 0.7825, 0.0975, 0.88, 0.195, 0.98, 0.2925, 1.0775, 0.3925, 1.175, 0.49, 1.2725, 0.5875, 1.37, 0.685, 0, 0.7825, 0.0975, 0.88, 0.195, 0.98, 0.2925, 1.0775, 0.3925, 1.175, 0.49, 1.2725, 0.5875, 1.37, 0.685, 0, 0.7825, 0.0975, 0.88, 0.195, 0.98, 0.2925, 1.0775, 0.3925, 1.175, 0.49, 1.2725, 0.5875, 1.37, 0.685, 0, 0.7825, 0.0975, 0.88, 0.195, 0.98, 0.2925, 1.0775, 0.3925, 1.175, 0.49, 1.2725, 0.5875, 1.37, 0.685],
  "SoftwareVersions": "syngo_MR_E11",
  "SpacingBetweenSlices": 2,
  "StationName": "MRC35049",
  "TaskName": "things",
  "TotalReadoutTime": 0.0576811,
  "TxRefAmp": 244.136,
  "WipMemBlock": "4c02ff1b-dca9-465f-8440-2cd3ef77d9f3||Sequence: R016 ve11c/master r/e634e98; Dec 19 2017 11:00:25 by eja",
  "dcmmeta_affine": [
    [-1.9966404438018799, -0.024394836276769638, 0.1132766455411911, 105.96519470214844],
    [-0.06670785695314407, 1.8406718969345093, -0.7794080376625061, -54.1959228515625],
    [0.09474579989910126, 0.7818770408630371, 1.8383936882019043, -64.98463439941406],
    [0.0, 0.0, 0.0, 1.0]
],
  "dcmmeta_reorient_transform": [
    [0.0, -1.0, 0.0, 103.0],
    [1.0, 0.0, 0.0, 0.0],
    [0.0, 0.0, 1.0, 0.0],
    [0.0, 0.0, 0.0, 1.0]
],
  "dcmmeta_shape": [104, 104, 60, 190],
  "dcmmeta_slice_dim": 2,
  "dcmmeta_version": 0.6,
  "global": {
    "const": {
      "AcquisitionMatrix": [104, 0, 0, 104],
      "AngioFlag": "N",
      "BitsAllocated": 16,
      "BitsStored": 16,
      "BodyPartExamined": "BRAIN",
      "Columns": 832,
      "EchoNumbers": 1,
      "EchoTime": 37.0,
      "EchoTrainLength": 104,
      "FlipAngle": 52.0,
      "HighBit": 15,
      "ImageOrientationPatient": [0.99832025101678, 0.03335393010167, 0.04737290107827, -0.0121974185704, 0.9203359708534, -0.3909385165644],
      "ImagePositionPatient": [-821.34994586627, -829.67953510072, 265.66446508552],
      "ImageType": [
        "ORIGINAL",
        "PRIMARY",
        "M",
        "MB",
        "ND",
        "MOSAIC"
],
      "ImagedNucleus": "1H",
      "ImagingFrequency": 123.258971,
      "InPlanePhaseEncodingDirection": "COL",
      "MRAcquisitionType": "2D",
      "MagneticFieldStrength": 3.0,
      "Manufacturer": "SIEMENS",
      "ManufacturerModelName": "Prisma_fit",
      "Modality": "MR",
      "NumberOfAverages": 1.0,
      "NumberOfPhaseEncodingSteps": 104,
      "PercentPhaseFieldOfView": 100.0,
      "PercentSampling": 100.0,
      "PerformedProcedureStepStartTime": "172825.299000",
      "PhotometricInterpretation": "MONOCHROME2",
      "PixelBandwidth": 2290.0,
      "PixelRepresentation": 0,
      "PixelSpacing": [2.0, 2.0],
      "ProtocolName": "func_task-things_run-2",
      "RepetitionTime": 1490.0,
      "Rows": 832,
      "SAR": 0.03559827507165,
      "SamplesPerPixel": 1,
      "ScanOptions": "FS",
      "ScanningSequence": "EP",
      "SequenceName": "epfid2d1_104",
      "SequenceVariant": [
        "SK",
        "SS"
],
      "SeriesDescription": "func_task-things_run-2",
      "SeriesNumber": 13,
      "SeriesTime": "174355.046000",
      "SliceLocation": -32.611616216787,
      "SliceThickness": 2.0,
      "SmallestImagePixelValue": 0,
      "SoftwareVersions": "syngo MR E11",
      "SpacingBetweenSlices": 2.0000000092525,
      "SpecificCharacterSet": "ISO_IR 100",
      "StudyID": "1",
      "StudyTime": "172825.190000",
      "TransmitCoilName": "Body",
      "VariableFlipAngleFlag": "N",
      "WindowCenterWidthExplanation": "Algo1",
      "dBdt": 0.0},
    "slices": {}
  },
  "time": {
    "samples": {
      "AcquisitionNumber": [1, 2, 3, 4, 5, 6, 7, 8, 9, 10, 11, 12, 13, 14, 15, 16, 17, 18, 19, 20, 21, 22, 23, 24, 25, 26, 27, 28, 29, 30, 31, 32, 33, 34, 35, 36, 37, 38, 39, 40, 41, 42, 43, 44, 45, 46, 47, 48, 49, 50, 51, 52, 53, 54, 55, 56, 57, 58, 59, 60, 61, 62, 63, 64, 65, 66, 67, 68, 69, 70, 71, 72, 73, 74, 75, 76, 77, 78, 79, 80, 81, 82, 83, 84, 85, 86, 87, 88, 89, 90, 91, 92, 93, 94, 95, 96, 97, 98, 99, 100, 101, 102, 103, 104, 105, 106, 107, 108, 109, 110, 111, 112, 113, 114, 115, 116, 117, 118, 119, 120, 121, 122, 123, 124, 125, 126, 127, 128, 129, 130, 131, 132, 133, 134, 135, 136, 137, 138, 139, 140, 141, 142, 143, 144, 145, 146, 147, 148, 149, 150, 151, 152, 153, 154, 155, 156, 157, 158, 159, 160, 161, 162, 163, 164, 165, 166, 167, 168, 169, 170, 171, 172, 173, 174, 175, 176, 177, 178, 179, 180, 181, 182, 183, 184, 185, 186, 187, 188, 189, 190],
      "AcquisitionTime": ["174241.597500", "174243.087500", "174244.577500", "174246.067500", "174247.557500", "174249.047500", "174250.537500", "174252.027500", "174253.517500", "174255.007500", "174256.497500", "174257.987500", "174259.477500", "174300.967500", "174302.457500", "174303.947500", "174305.437500", "174306.927500", "174308.417500", "174309.907500", "174311.397500", "174312.887500", "174314.377500", "174315.867500", "174317.357500", "174318.847500", "174320.337500", "174321.827500", "174323.317500", "174324.807500", "174326.297500", "174327.787500", "174329.277500", "174330.767500", "174332.257500", "174333.747500", "174335.237500", "174336.727500", "174338.217500", "174339.707500", "174341.197500", "174342.687500", "174344.177500", "174345.667500", "174347.157500", "174348.647500", "174350.137500", "174351.627500", "174353.117500", "174354.607500", "174356.097500", "174357.587500", "174359.077500", "174400.567500", "174402.057500", "174403.547500", "174405.037500", "174406.527500", "174408.017500", "174409.507500", "174410.997500", "174412.487500", "174413.977500", "174415.467500", "174416.957500", "174418.447500", "174419.937500", "174421.427500", "174422.917500", "174424.407500", "174425.897500", "174427.387500", "174428.877500", "174430.367500", "174431.857500", "174433.347500", "174434.837500", "174436.327500", "174437.817500", "174439.307500", "174440.797500", "174442.287500", "174443.777500", "174445.267500", "174446.757500", "174448.247500", "174449.737500", "174451.227500", "174452.717500", "174454.207500", "174455.697500", "174457.187500", "174458.677500", "174500.167500", "174501.657500", "174503.147500", "174504.637500", "174506.127500", "174507.617500", "174509.107500", "174510.597500", "174512.087500", "174513.577500", "174515.067500", "174516.557500", "174518.047500", "174519.537500", "174521.027500", "174522.517500", "174524.007500", "174525.497500", "174526.987500", "174528.477500", "174529.967500", "174531.457500", "174532.947500", "174534.437500", "174535.927500", "174537.417500", "174538.907500", "174540.397500", "174541.887500", "174543.377500", "174544.867500", "174546.357500", "174547.847500", "174549.337500", "174550.827500", "174552.317500", "174553.807500", "174555.297500", "174556.787500", "174558.277500", "174559.767500", "174601.257500", "174602.747500", "174604.237500", "174605.727500", "174607.217500", "174608.707500", "174610.197500", "174611.687500", "174613.177500", "174614.667500", "174616.157500", "174617.647500", "174619.137500", "174620.627500", "174622.117500", "174623.607500", "174625.097500", "174626.587500", "174628.077500", "174629.567500", "174631.057500", "174632.547500", "174634.037500", "174635.527500", "174637.017500", "174638.507500", "174639.997500", "174641.487500", "174642.977500", "174644.467500", "174645.957500", "174647.447500", "174648.937500", "174650.427500", "174651.917500", "174653.407500", "174654.897500", "174656.387500", "174657.877500", "174659.367500", "174700.857500", "174702.347500", "174703.837500", "174705.327500", "174706.817500", "174708.307500", "174709.797500", "174711.287500", "174712.777500", "174714.267500", "174715.757500", "174717.247500", "174718.737500", "174720.227500", "174721.717500", "174723.207500"],
      "ContentTime": ["174355.049000", "174355.053000", "174355.057000", "174355.060000", "174355.063000", "174355.067000", "174355.070000", "174355.073000", "174355.077000", "174355.080000", "174355.083000", "174355.087000", "174355.090000", "174355.094000", "174355.110000", "174355.113000", "174355.125000", "174355.128000", "174355.132000", "174355.135000", "174414.991000", "174414.995000", "174414.998000", "174415.002000", "174415.012000", "174415.016000", "174415.019000", "174415.022000", "174415.026000", "174415.029000", "174415.033000", "174415.036000", "174415.039000", "174415.043000", "174415.046000", "174415.049000", "174415.053000", "174415.056000", "174415.060000", "174415.063000", "174434.991000", "174434.995000", "174434.998000", "174435.002000", "174435.006000", "174435.009000", "174435.012000", "174435.016000", "174435.019000", "174435.023000", "174435.026000", "174435.029000", "174435.033000", "174435.036000", "174435.039000", "174435.043000", "174435.046000", "174435.049000", "174435.053000", "174435.056000", "174435.059000", "174454.992000", "174454.996000", "174455.000000", "174455.004000", "174455.007000", "174455.010000", "174455.014000", "174455.017000", "174455.021000", "174455.024000", "174455.028000", "174455.031000", "174455.034000", "174455.038000", "174455.041000", "174455.045000", "174455.048000", "174455.051000", "174455.055000", "174455.058000", "174514.992000", "174514.996000", "174515.000000", "174515.004000", "174515.007000", "174515.011000", "174515.014000", "174515.018000", "174515.021000", "174515.024000", "174515.028000", "174515.031000", "174515.034000", "174515.038000", "174515.041000", "174515.045000", "174515.048000", "174515.052000", "174515.055000", "174515.058000", "174554.992000", "174554.996000", "174555.000000", "174555.004000", "174555.007000", "174555.011000", "174555.014000", "174555.018000", "174555.021000", "174555.024000", "174555.028000", "174555.031000", "174555.035000", "174555.038000", "174555.042000", "174555.045000", "174555.048000", "174555.052000", "174555.055000", "174555.059000", "174555.075000", "174555.078000", "174555.082000", "174555.085000", "174555.088000", "174555.092000", "174555.095000", "174555.099000", "174634.991000", "174634.995000", "174635.000000", "174635.003000", "174635.006000", "174635.010000", "174635.013000", "174635.017000", "174635.020000", "174635.024000", "174635.027000", "174635.030000", "174635.034000", "174635.037000", "174635.041000", "174635.044000", "174635.048000", "174635.051000", "174635.054000", "174635.058000", "174635.061000", "174635.065000", "174635.068000", "174635.072000", "174635.075000", "174635.078000", "174635.082000", "174714.992000", "174714.996000", "174715.000000", "174715.004000", "174715.008000", "174715.011000", "174715.014000", "174715.018000", "174715.021000", "174715.025000", "174715.028000", "174715.031000", "174715.035000", "174715.038000", "174715.042000", "174715.045000", "174715.049000", "174715.058000", "174715.061000", "174715.065000", "174715.068000", "174715.072000", "174715.075000", "174715.078000", "174715.082000", "174715.085000", "174715.089000", "174725.158000", "174725.162000", "174725.165000", "174725.169000", "174725.172000", "174725.176000", "174725.179000"],
      "InstanceCreationTime": ["174355.049000", "174355.053000", "174355.057000", "174355.060000", "174355.063000", "174355.067000", "174355.070000", "174355.073000", "174355.077000", "174355.080000", "174355.083000", "174355.087000", "174355.090000", "174355.094000", "174355.110000", "174355.113000", "174355.125000", "174355.128000", "174355.132000", "174355.135000", "174414.991000", "174414.995000", "174414.998000", "174415.002000", "174415.012000", "174415.016000", "174415.019000", "174415.022000", "174415.026000", "174415.029000", "174415.033000", "174415.036000", "174415.039000", "174415.043000", "174415.046000", "174415.049000", "174415.053000", "174415.056000", "174415.060000", "174415.063000", "174434.991000", "174434.995000", "174434.998000", "174435.002000", "174435.006000", "174435.009000", "174435.012000", "174435.016000", "174435.019000", "174435.023000", "174435.026000", "174435.029000", "174435.033000", "174435.036000", "174435.039000", "174435.043000", "174435.046000", "174435.049000", "174435.053000", "174435.056000", "174435.059000", "174454.992000", "174454.996000", "174455.000000", "174455.004000", "174455.007000", "174455.010000", "174455.014000", "174455.017000", "174455.021000", "174455.024000", "174455.028000", "174455.031000", "174455.034000", "174455.038000", "174455.041000", "174455.045000", "174455.048000", "174455.051000", "174455.055000", "174455.058000", "174514.992000", "174514.996000", "174515.000000", "174515.004000", "174515.007000", "174515.011000", "174515.014000", "174515.018000", "174515.021000", "174515.024000", "174515.028000", "174515.031000", "174515.034000", "174515.038000", "174515.041000", "174515.045000", "174515.048000", "174515.052000", "174515.055000", "174515.058000", "174554.992000", "174554.996000", "174555.000000", "174555.004000", "174555.007000", "174555.011000", "174555.014000", "174555.018000", "174555.021000", "174555.024000", "174555.028000", "174555.031000", "174555.035000", "174555.038000", "174555.042000", "174555.045000", "174555.048000", "174555.052000", "174555.055000", "174555.059000", "174555.075000", "174555.078000", "174555.082000", "174555.085000", "174555.088000", "174555.092000", "174555.095000", "174555.099000", "174634.991000", "174634.995000", "174635.000000", "174635.003000", "174635.006000", "174635.010000", "174635.013000", "174635.017000", "174635.020000", "174635.024000", "174635.027000", "174635.030000", "174635.034000", "174635.037000", "174635.041000", "174635.044000", "174635.048000", "174635.051000", "174635.054000", "174635.058000", "174635.061000", "174635.065000", "174635.068000", "174635.072000", "174635.075000", "174635.078000", "174635.082000", "174714.992000", "174714.996000", "174715.000000", "174715.004000", "174715.008000", "174715.011000", "174715.014000", "174715.018000", "174715.021000", "174715.025000", "174715.028000", "174715.031000", "174715.035000", "174715.038000", "174715.042000", "174715.045000", "174715.049000", "174715.058000", "174715.061000", "174715.065000", "174715.068000", "174715.072000", "174715.075000", "174715.078000", "174715.082000", "174715.085000", "174715.089000", "174725.158000", "174725.162000", "174725.165000", "174725.169000", "174725.172000", "174725.176000", "174725.179000"],
      "InstanceNumber": [1, 2, 3, 4, 5, 6, 7, 8, 9, 10, 11, 12, 13, 14, 15, 16, 17, 18, 19, 20, 21, 22, 23, 24, 25, 26, 27, 28, 29, 30, 31, 32, 33, 34, 35, 36, 37, 38, 39, 40, 41, 42, 43, 44, 45, 46, 47, 48, 49, 50, 51, 52, 53, 54, 55, 56, 57, 58, 59, 60, 61, 62, 63, 64, 65, 66, 67, 68, 69, 70, 71, 72, 73, 74, 75, 76, 77, 78, 79, 80, 81, 82, 83, 84, 85, 86, 87, 88, 89, 90, 91, 92, 93, 94, 95, 96, 97, 98, 99, 100, 101, 102, 103, 104, 105, 106, 107, 108, 109, 110, 111, 112, 113, 114, 115, 116, 117, 118, 119, 120, 121, 122, 123, 124, 125, 126, 127, 128, 129, 130, 131, 132, 133, 134, 135, 136, 137, 138, 139, 140, 141, 142, 143, 144, 145, 146, 147, 148, 149, 150, 151, 152, 153, 154, 155, 156, 157, 158, 159, 160, 161, 162, 163, 164, 165, 166, 167, 168, 169, 170, 171, 172, 173, 174, 175, 176, 177, 178, 179, 180, 181, 182, 183, 184, 185, 186, 187, 188, 189, 190],
      "LargestImagePixelValue": [41391, 39430, 40169, 39639, 39143, 38163, 38572, 38414, 38446, 38562, 37814, 38199, 39185, 38846, 38664, 38881, 39589, 39768, 39423, 38664, 39069, 39222, 39591, 39702, 40600, 40372, 39127, 39604, 39171, 40473, 40450, 40318, 40167, 40427, 40385, 40705, 40981, 40515, 40934, 41140, 39827, 40692, 40428, 40354, 40958, 41366, 40229, 39379, 40232, 40341, 40702, 39715, 40359, 39744, 39760, 39488, 38693, 38876, 39424, 39179, 40029, 39841, 40099, 39171, 40431, 39883, 40282, 41169, 40735, 39565, 39196, 39483, 39775, 40093, 39658, 39248, 39729, 40066, 39960, 39426, 38909, 38948, 39281, 39707, 39340, 39830, 40017, 39292, 39148, 38538, 39703, 38684, 39430, 39674, 38359, 38137, 39018, 39843, 39053, 40662, 39910, 39284, 39876, 39132, 39571, 45427, 38775, 39230, 39316, 38842, 39484, 39522, 38582, 38187, 38327, 38953, 39487, 39746, 39400, 38090, 38206, 37811, 38383, 38090, 40416, 39003, 39767, 38559, 39720, 38618, 38199, 38703, 45773, 38139, 38783, 38560, 38892, 38599, 40283, 38865, 39405, 38813, 38456, 38764, 38654, 38459, 38733, 38643, 38020, 38281, 42943, 37414, 38383, 38072, 37706, 38283, 38618, 37895, 38473, 41628, 38541, 38881, 38066, 38518, 41431, 38507, 43709, 37683, 38194, 37937, 38400, 40290, 38524, 38312, 38249, 38572, 36535, 38691, 37882, 39268, 37118, 38044, 39872, 39345, 39389, 38543, 37851, 37484, 43828, 38241],
      "WindowCenter": [10350.0, 10291.0, 10295.0, 10281.0, 10261.0, 10265.0, 10288.0, 10279.0, 10268.0, 10279.0, 10286.0, 10314.0, 10328.0, 10301.0, 10290.0, 10286.0, 10285.0, 10283.0, 10297.0, 10307.0, 10308.0, 10296.0, 10299.0, 10307.0, 10322.0, 10318.0, 10316.0, 10323.0, 10308.0, 10316.0, 10309.0, 10311.0, 10335.0, 10328.0, 10313.0, 10300.0, 10295.0, 10296.0, 10303.0, 10303.0, 10300.0, 10307.0, 10299.0, 10297.0, 10313.0, 10331.0, 10334.0, 10325.0, 10328.0, 10317.0, 10306.0, 10298.0, 10315.0, 10313.0, 10300.0, 10295.0, 10304.0, 10317.0, 10312.0, 10297.0, 10300.0, 10307.0, 10306.0, 10320.0, 10326.0, 10318.0, 10313.0, 10319.0, 10303.0, 10290.0, 10301.0, 10311.0, 10309.0, 10305.0, 10309.0, 10312.0, 10328.0, 10324.0, 10318.0, 10299.0, 10291.0, 10290.0, 10289.0, 10298.0, 10308.0, 10335.0, 10344.0, 10322.0, 10304.0, 10289.0, 10299.0, 10297.0, 10319.0, 10316.0, 10307.0, 10319.0, 10343.0, 10328.0, 10306.0, 10313.0, 10300.0, 10291.0, 10296.0, 10284.0, 10279.0, 10342.0, 10275.0, 10290.0, 10309.0, 10316.0, 10324.0, 10310.0, 10290.0, 10292.0, 10300.0, 10305.0, 10295.0, 10291.0, 10290.0, 10292.0, 10304.0, 10298.0, 10292.0, 10274.0, 10293.0, 10283.0, 10288.0, 10288.0, 10304.0, 10296.0, 10274.0, 10260.0, 10322.0, 10254.0, 10280.0, 10292.0, 10316.0, 10304.0, 10307.0, 10273.0, 10280.0, 10285.0, 10288.0, 10285.0, 10286.0, 10286.0, 10295.0, 10315.0, 10311.0, 10293.0, 10326.0, 10269.0, 10287.0, 10298.0, 10322.0, 10328.0, 10317.0, 10294.0, 10290.0, 10331.0, 10298.0, 10294.0, 10293.0, 10316.0, 10362.0, 10347.0, 10401.0, 10329.0, 10315.0, 10304.0, 10304.0, 10334.0, 10333.0, 10328.0, 10319.0, 10301.0, 10268.0, 10297.0, 10291.0, 10321.0, 10311.0, 10296.0, 10326.0, 10316.0, 10333.0, 10319.0, 10281.0, 10258.0, 10316.0, 10268.0],
      "WindowWidth": [21969.0, 21823.0, 21813.0, 21779.0, 21732.0, 21748.0, 21797.0, 21776.0, 21752.0, 21774.0, 21796.0, 21861.0, 21886.0, 21823.0, 21795.0, 21787.0, 21782.0, 21778.0, 21816.0, 21841.0, 21841.0, 21809.0, 21814.0, 21834.0, 21867.0, 21858.0, 21859.0, 21877.0, 21844.0, 21854.0, 21837.0, 21842.0, 21896.0, 21882.0, 21847.0, 21812.0, 21797.0, 21802.0, 21819.0, 21818.0, 21820.0, 21832.0, 21812.0, 21805.0, 21840.0, 21880.0, 21890.0, 21877.0, 21887.0, 21854.0, 21826.0, 21812.0, 21852.0, 21859.0, 21818.0, 21808.0, 21835.0, 21868.0, 21850.0, 21817.0, 21821.0, 21834.0, 21831.0, 21870.0, 21878.0, 21857.0, 21844.0, 21860.0, 21823.0, 21799.0, 21832.0, 21850.0, 21845.0, 21836.0, 21845.0, 21856.0, 21891.0, 21874.0, 21859.0, 21818.0, 21803.0, 21800.0, 21799.0, 21816.0, 21841.0, 21904.0, 21920.0, 21870.0, 21828.0, 21798.0, 21817.0, 21820.0, 21874.0, 21856.0, 21841.0, 21876.0, 21931.0, 21887.0, 21837.0, 21846.0, 21818.0, 21800.0, 21806.0, 21782.0, 21768.0, 21901.0, 21767.0, 21800.0, 21841.0, 21863.0, 21877.0, 21841.0, 21805.0, 21811.0, 21832.0, 21838.0, 21819.0, 21797.0, 21794.0, 21817.0, 21843.0, 21826.0, 21810.0, 21766.0, 21805.0, 21782.0, 21790.0, 21800.0, 21826.0, 21816.0, 21764.0, 21734.0, 21856.0, 21732.0, 21777.0, 21808.0, 21861.0, 21832.0, 21840.0, 21763.0, 21774.0, 21794.0, 21798.0, 21797.0, 21793.0, 21799.0, 21815.0, 21865.0, 21858.0, 21810.0, 21874.0, 21765.0, 21795.0, 21827.0, 21887.0, 21892.0, 21864.0, 21813.0, 21801.0, 21891.0, 21824.0, 21810.0, 21817.0, 21865.0, 21969.0, 21939.0, 22045.0, 21902.0, 21862.0, 21833.0, 21829.0, 21903.0, 21903.0, 21889.0, 21866.0, 21833.0, 21765.0, 21815.0, 21806.0, 21881.0, 21866.0, 21820.0, 21870.0, 21850.0, 21893.0, 21870.0, 21786.0, 21741.0, 21841.0, 21751.0]
    },
    "slices": {}
  }
}