{
  "AcquisitionMatrixPE": 104,
  "AcquisitionNumber": 1,
  "AcquisitionTime": "10:48:26.142500",
  "BandwidthPerPixelPhaseEncode": 17.17,
  "BaseResolution": 104,
  "BodyPartExamined": "BRAIN",
  "CoilString": "HC1-7;NC1_2",
  "ConsistencyInfo": "N4_VE11C_LATEST_20160120",
  "ConversionSoftware": "dcm2niix",
  "ConversionSoftwareVersion": "v1.0.20190902",
  "DerivedVendorReportedEchoSpacing": 0.000560011,
  "DeviceSerialNumber": "167006",
  "DwellTime": 2.1e-06,
  "EchoTime": 0.037,
  "EchoTrainLength": 104,
  "EffectiveEchoSpacing": 0.000560011,
  "FlipAngle": 52,
  "ImageComments": "Unaliased_MB4_PE3_LB",
  "ImageOrientationPatientDICOM": [0.999647, 0.0116653, 0.0238493, 0.00157024, 0.87075, -0.491724],
  "ImageType": [
    "ORIGINAL",
    "PRIMARY",
    "M",
    "MB",
    "ND",
    "MOSAIC"
],
  "ImagingFrequency": 123.259,
  "InPlanePhaseEncodingDirectionDICOM": "COL",
  "InstitutionAddress": "Chemin_Queen-Mary_4565_Montreal_District_CA_H3W_1W5",
  "InstitutionName": "IUGM",
  "InstitutionalDepartmentName": "Department",
  "MRAcquisitionType": "2D",
  "MagneticFieldStrength": 3,
  "Manufacturer": "Siemens",
  "ManufacturersModelName": "Prisma_fit",
  "Modality": "MR",
  "MultibandAccelerationFactor": 4,
  "PartialFourier": 1,
  "PatientPosition": "HFS",
  "PercentPhaseFOV": 100,
  "PhaseEncodingDirection": "j",
  "PhaseEncodingSteps": 104,
  "PhaseResolution": 1,
  "PixelBandwidth": 2290,
  "ProcedureStepDescription": "memory_things",
  "ProtocolName": "func_task-things_run-2",
  "PulseSequenceDetails": "%CustomerSeq%_cmrr_mbep2d_bold",
  "ReceiveCoilActiveElements": "HC1-7;NC1,2",
  "ReceiveCoilName": "HeadNeck_64",
  "ReconMatrixPE": 104,
  "RepetitionTime": 1.49,
  "SAR": 0.0475121,
  "ScanOptions": "FS",
  "ScanningSequence": "EP",
  "SequenceName": "epfid2d1_104",
  "SequenceVariant": "SK_SS",
  "SeriesDescription": "func_task-things_run-2",
  "SeriesNumber": 13,
  "ShimSetting": [618, -7189, -8854, 313, -6, -137, -26, 7],
  "SliceThickness": 2,
  "SliceTiming": [0, 0.7825, 0.0975, 0.88, 0.195, 0.9775, 0.2925, 1.0775, 0.39, 1.175, 0.4875, 1.2725, 0.5875, 1.37, 0.685, 0, 0.7825, 0.0975, 0.88, 0.195, 0.9775, 0.2925, 1.0775, 0.39, 1.175, 0.4875, 1.2725, 0.5875, 1.37, 0.685, 0, 0.7825, 0.0975, 0.88, 0.195, 0.9775, 0.2925, 1.0775, 0.39, 1.175, 0.4875, 1.2725, 0.5875, 1.37, 0.685, 0, 0.7825, 0.0975, 0.88, 0.195, 0.9775, 0.2925, 1.0775, 0.39, 1.175, 0.4875, 1.2725, 0.5875, 1.37, 0.685],
  "SoftwareVersions": "syngo_MR_E11",
  "SpacingBetweenSlices": 2,
  "StationName": "MRC35049",
  "TaskName": "things",
  "TotalReadoutTime": 0.0576811,
  "TxRefAmp": 264.876,
  "WipMemBlock": "31f232b7-ff83-4248-89c4-444036385974||Sequence: R016 ve11c/master r/e634e98; Dec 19 2017 11:00:25 by eja",
  "dcmmeta_affine": [
    [-1.9992949962615967, 0.0031404842156916857, 0.053005754947662354, 105.60369110107422],
    [-0.02333063632249832, 1.741499662399292, -0.9831758141517639, -51.777801513671875],
    [0.047698576003313065, 0.9834475517272949, 1.7408491373062134, -87.2465591430664],
    [0.0, 0.0, 0.0, 1.0]
],
  "dcmmeta_reorient_transform": [
    [0.0, -1.0, 0.0, 103.0],
    [1.0, 0.0, 0.0, 0.0],
    [0.0, 0.0, 1.0, 0.0],
    [0.0, 0.0, 0.0, 1.0]
],
  "dcmmeta_shape": [104, 104, 60, 190],
  "dcmmeta_slice_dim": 2,
  "dcmmeta_version": 0.6,
  "global": {
    "const": {
      "AcquisitionMatrix": [104, 0, 0, 104],
      "AngioFlag": "N",
      "BitsAllocated": 16,
      "BitsStored": 16,
      "BodyPartExamined": "BRAIN",
      "Columns": 832,
      "EchoNumbers": 1,
      "EchoTime": 37.0,
      "EchoTrainLength": 104,
      "FlipAngle": 52.0,
      "HighBit": 15,
      "ImageOrientationPatient": [0.99964750379055, 0.01166531773379, 0.02384928777736, 0.00157024210444, 0.87074982462712, -0.4917237814582],
      "ImagePositionPatient": [-834.8136836934, -769.99488748847, 354.66117377421],
      "ImageType": [
        "ORIGINAL",
        "PRIMARY",
        "M",
        "MB",
        "ND",
        "MOSAIC"
],
      "ImagedNucleus": "1H",
      "ImagingFrequency": 123.258945,
      "InPlanePhaseEncodingDirection": "COL",
      "MRAcquisitionType": "2D",
      "MagneticFieldStrength": 3.0,
      "Manufacturer": "SIEMENS",
      "ManufacturerModelName": "Prisma_fit",
      "Modality": "MR",
      "NumberOfAverages": 1.0,
      "NumberOfPhaseEncodingSteps": 104,
      "PercentPhaseFieldOfView": 100.0,
      "PercentSampling": 100.0,
      "PerformedProcedureStepStartTime": "103056.055000",
      "PhotometricInterpretation": "MONOCHROME2",
      "PixelBandwidth": 2290.0,
      "PixelRepresentation": 0,
      "PixelSpacing": [2.0, 2.0],
      "ProtocolName": "func_task-things_run-2",
      "RepetitionTime": 1490.0,
      "Rows": 832,
      "SAR": 0.0475121193463,
      "SamplesPerPixel": 1,
      "ScanOptions": "FS",
      "ScanningSequence": "EP",
      "SequenceName": "epfid2d1_104",
      "SequenceVariant": [
        "SK",
        "SS"
],
      "SeriesDescription": "func_task-things_run-2",
      "SeriesNumber": 13,
      "SeriesTime": "104955.603000",
      "SliceLocation": -47.689404888135,
      "SliceThickness": 2.0,
      "SmallestImagePixelValue": 0,
      "SoftwareVersions": "syngo MR E11",
      "SpacingBetweenSlices": 1.999999980732,
      "SpecificCharacterSet": "ISO_IR 100",
      "StudyID": "1",
      "StudyTime": "103055.988000",
      "TransmitCoilName": "Body",
      "VariableFlipAngleFlag": "N",
      "WindowCenterWidthExplanation": "Algo1",
      "dBdt": 0.0},
    "slices": {}
  },
  "time": {
    "samples": {
      "AcquisitionNumber": [1, 2, 3, 4, 5, 6, 7, 8, 9, 10, 11, 12, 13, 14, 15, 16, 17, 18, 19, 20, 21, 22, 23, 24, 25, 26, 27, 28, 29, 30, 31, 32, 33, 34, 35, 36, 37, 38, 39, 40, 41, 42, 43, 44, 45, 46, 47, 48, 49, 50, 51, 52, 53, 54, 55, 56, 57, 58, 59, 60, 61, 62, 63, 64, 65, 66, 67, 68, 69, 70, 71, 72, 73, 74, 75, 76, 77, 78, 79, 80, 81, 82, 83, 84, 85, 86, 87, 88, 89, 90, 91, 92, 93, 94, 95, 96, 97, 98, 99, 100, 101, 102, 103, 104, 105, 106, 107, 108, 109, 110, 111, 112, 113, 114, 115, 116, 117, 118, 119, 120, 121, 122, 123, 124, 125, 126, 127, 128, 129, 130, 131, 132, 133, 134, 135, 136, 137, 138, 139, 140, 141, 142, 143, 144, 145, 146, 147, 148, 149, 150, 151, 152, 153, 154, 155, 156, 157, 158, 159, 160, 161, 162, 163, 164, 165, 166, 167, 168, 169, 170, 171, 172, 173, 174, 175, 176, 177, 178, 179, 180, 181, 182, 183, 184, 185, 186, 187, 188, 189, 190],
      "AcquisitionTime": ["104826.142500", "104827.632500", "104829.122500", "104830.612500", "104832.102500", "104833.592500", "104835.082500", "104836.572500", "104838.062500", "104839.552500", "104841.042500", "104842.532500", "104844.022500", "104845.512500", "104847.002500", "104848.492500", "104849.982500", "104851.472500", "104852.962500", "104854.452500", "104855.942500", "104857.432500", "104858.922500", "104900.412500", "104901.902500", "104903.392500", "104904.882500", "104906.372500", "104907.862500", "104909.352500", "104910.842500", "104912.332500", "104913.822500", "104915.312500", "104916.802500", "104918.292500", "104919.782500", "104921.272500", "104922.762500", "104924.252500", "104925.742500", "104927.232500", "104928.722500", "104930.212500", "104931.702500", "104933.192500", "104934.682500", "104936.172500", "104937.662500", "104939.152500", "104940.642500", "104942.132500", "104943.622500", "104945.112500", "104946.602500", "104948.092500", "104949.582500", "104951.072500", "104952.562500", "104954.052500", "104955.542500", "104957.032500", "104958.522500", "105000.012500", "105001.502500", "105002.992500", "105004.482500", "105005.972500", "105007.462500", "105008.952500", "105010.442500", "105011.932500", "105013.422500", "105014.912500", "105016.402500", "105017.892500", "105019.382500", "105020.872500", "105022.362500", "105023.852500", "105025.342500", "105026.832500", "105028.322500", "105029.812500", "105031.302500", "105032.792500", "105034.282500", "105035.772500", "105037.262500", "105038.752500", "105040.242500", "105041.732500", "105043.222500", "105044.712500", "105046.202500", "105047.692500", "105049.182500", "105050.672500", "105052.162500", "105053.652500", "105055.142500", "105056.632500", "105058.122500", "105059.612500", "105101.102500", "105102.592500", "105104.082500", "105105.572500", "105107.062500", "105108.552500", "105110.042500", "105111.532500", "105113.022500", "105114.512500", "105116.002500", "105117.492500", "105118.982500", "105120.472500", "105121.962500", "105123.452500", "105124.942500", "105126.432500", "105127.922500", "105129.412500", "105130.902500", "105132.392500", "105133.882500", "105135.372500", "105136.862500", "105138.352500", "105139.842500", "105141.332500", "105142.822500", "105144.312500", "105145.802500", "105147.292500", "105148.782500", "105150.272500", "105151.762500", "105153.252500", "105154.742500", "105156.232500", "105157.722500", "105159.212500", "105200.702500", "105202.192500", "105203.682500", "105205.172500", "105206.662500", "105208.152500", "105209.642500", "105211.132500", "105212.622500", "105214.112500", "105215.602500", "105217.092500", "105218.582500", "105220.072500", "105221.562500", "105223.052500", "105224.542500", "105226.032500", "105227.522500", "105229.012500", "105230.502500", "105231.992500", "105233.482500", "105234.972500", "105236.462500", "105237.952500", "105239.442500", "105240.932500", "105242.422500", "105243.912500", "105245.402500", "105246.892500", "105248.382500", "105249.872500", "105251.362500", "105252.852500", "105254.342500", "105255.832500", "105257.322500", "105258.812500", "105300.302500", "105301.792500", "105303.282500", "105304.772500", "105306.262500", "105307.752500"],
      "ContentTime": ["104955.607000", "104955.610000", "104955.614000", "104955.622000", "104955.625000", "104955.629000", "104955.632000", "104955.635000", "104955.639000", "104955.642000", "104955.645000", "104955.649000", "104955.652000", "104955.655000", "104955.659000", "104955.662000", "104955.665000", "104955.669000", "104955.672000", "104955.675000", "104955.679000", "104955.682000", "104955.685000", "104955.689000", "104955.692000", "104955.695000", "104955.699000", "104955.702000", "104955.705000", "104955.709000", "104955.712000", "104955.715000", "104955.719000", "104955.722000", "104955.725000", "104955.729000", "105015.573000", "105015.577000", "105015.580000", "105015.583000", "105015.587000", "105015.590000", "105015.594000", "105015.597000", "105015.600000", "105015.604000", "105015.607000", "105015.610000", "105015.614000", "105015.617000", "105015.620000", "105015.624000", "105015.627000", "105015.630000", "105015.648000", "105015.651000", "105035.573000", "105035.577000", "105035.580000", "105035.583000", "105035.587000", "105035.590000", "105035.594000", "105035.597000", "105035.600000", "105035.603000", "105035.607000", "105035.610000", "105035.614000", "105035.617000", "105035.620000", "105035.624000", "105035.627000", "105035.630000", "105035.634000", "105035.637000", "105055.573000", "105055.577000", "105055.580000", "105055.583000", "105055.587000", "105055.590000", "105055.594000", "105055.597000", "105055.600000", "105055.604000", "105055.607000", "105055.610000", "105055.614000", "105055.617000", "105055.620000", "105055.624000", "105055.627000", "105055.631000", "105055.634000", "105055.638000", "105135.573000", "105135.577000", "105135.580000", "105135.584000", "105135.587000", "105135.590000", "105135.594000", "105135.597000", "105135.600000", "105135.604000", "105135.607000", "105135.611000", "105135.614000", "105135.617000", "105135.621000", "105135.624000", "105135.627000", "105135.631000", "105135.634000", "105135.637000", "105135.641000", "105135.644000", "105135.648000", "105135.651000", "105135.654000", "105135.658000", "105135.661000", "105135.664000", "105135.668000", "105135.671000", "105215.573000", "105215.577000", "105215.580000", "105215.584000", "105215.587000", "105215.590000", "105215.594000", "105215.597000", "105215.600000", "105215.604000", "105215.607000", "105215.610000", "105215.614000", "105215.617000", "105215.620000", "105215.624000", "105215.627000", "105215.631000", "105215.634000", "105215.637000", "105215.641000", "105215.644000", "105215.655000", "105215.658000", "105215.662000", "105215.665000", "105215.668000", "105255.573000", "105255.577000", "105255.580000", "105255.583000", "105255.587000", "105255.590000", "105255.594000", "105255.597000", "105255.600000", "105255.604000", "105255.607000", "105255.611000", "105255.614000", "105255.617000", "105255.621000", "105255.624000", "105255.627000", "105255.631000", "105255.634000", "105255.637000", "105255.641000", "105255.644000", "105255.648000", "105255.651000", "105255.654000", "105255.658000", "105255.661000", "105310.367000", "105310.371000", "105310.375000", "105310.378000", "105310.381000", "105310.385000", "105310.388000", "105310.392000", "105310.395000", "105310.398000"],
      "InstanceCreationTime": ["104955.607000", "104955.610000", "104955.614000", "104955.622000", "104955.625000", "104955.629000", "104955.632000", "104955.635000", "104955.639000", "104955.642000", "104955.645000", "104955.649000", "104955.652000", "104955.655000", "104955.659000", "104955.662000", "104955.665000", "104955.669000", "104955.672000", "104955.675000", "104955.679000", "104955.682000", "104955.685000", "104955.689000", "104955.692000", "104955.695000", "104955.699000", "104955.702000", "104955.705000", "104955.709000", "104955.712000", "104955.715000", "104955.719000", "104955.722000", "104955.725000", "104955.729000", "105015.573000", "105015.577000", "105015.580000", "105015.583000", "105015.587000", "105015.590000", "105015.594000", "105015.597000", "105015.600000", "105015.604000", "105015.607000", "105015.610000", "105015.614000", "105015.617000", "105015.620000", "105015.624000", "105015.627000", "105015.630000", "105015.648000", "105015.651000", "105035.573000", "105035.577000", "105035.580000", "105035.583000", "105035.587000", "105035.590000", "105035.594000", "105035.597000", "105035.600000", "105035.603000", "105035.607000", "105035.610000", "105035.614000", "105035.617000", "105035.620000", "105035.624000", "105035.627000", "105035.630000", "105035.634000", "105035.637000", "105055.573000", "105055.577000", "105055.580000", "105055.583000", "105055.587000", "105055.590000", "105055.594000", "105055.597000", "105055.600000", "105055.604000", "105055.607000", "105055.610000", "105055.614000", "105055.617000", "105055.620000", "105055.624000", "105055.627000", "105055.631000", "105055.634000", "105055.638000", "105135.573000", "105135.577000", "105135.580000", "105135.584000", "105135.587000", "105135.590000", "105135.594000", "105135.597000", "105135.600000", "105135.604000", "105135.607000", "105135.611000", "105135.614000", "105135.617000", "105135.621000", "105135.624000", "105135.627000", "105135.631000", "105135.634000", "105135.637000", "105135.641000", "105135.644000", "105135.648000", "105135.651000", "105135.654000", "105135.658000", "105135.661000", "105135.664000", "105135.668000", "105135.671000", "105215.573000", "105215.577000", "105215.580000", "105215.584000", "105215.587000", "105215.590000", "105215.594000", "105215.597000", "105215.600000", "105215.604000", "105215.607000", "105215.610000", "105215.614000", "105215.617000", "105215.620000", "105215.624000", "105215.627000", "105215.631000", "105215.634000", "105215.637000", "105215.641000", "105215.644000", "105215.655000", "105215.658000", "105215.662000", "105215.665000", "105215.668000", "105255.573000", "105255.577000", "105255.580000", "105255.583000", "105255.587000", "105255.590000", "105255.594000", "105255.597000", "105255.600000", "105255.604000", "105255.607000", "105255.611000", "105255.614000", "105255.617000", "105255.621000", "105255.624000", "105255.627000", "105255.631000", "105255.634000", "105255.637000", "105255.641000", "105255.644000", "105255.648000", "105255.651000", "105255.654000", "105255.658000", "105255.661000", "105310.367000", "105310.371000", "105310.375000", "105310.378000", "105310.381000", "105310.385000", "105310.388000", "105310.392000", "105310.395000", "105310.398000"],
      "InstanceNumber": [1, 2, 3, 4, 5, 6, 7, 8, 9, 10, 11, 12, 13, 14, 15, 16, 17, 18, 19, 20, 21, 22, 23, 24, 25, 26, 27, 28, 29, 30, 31, 32, 33, 34, 35, 36, 37, 38, 39, 40, 41, 42, 43, 44, 45, 46, 47, 48, 49, 50, 51, 52, 53, 54, 55, 56, 57, 58, 59, 60, 61, 62, 63, 64, 65, 66, 67, 68, 69, 70, 71, 72, 73, 74, 75, 76, 77, 78, 79, 80, 81, 82, 83, 84, 85, 86, 87, 88, 89, 90, 91, 92, 93, 94, 95, 96, 97, 98, 99, 100, 101, 102, 103, 104, 105, 106, 107, 108, 109, 110, 111, 112, 113, 114, 115, 116, 117, 118, 119, 120, 121, 122, 123, 124, 125, 126, 127, 128, 129, 130, 131, 132, 133, 134, 135, 136, 137, 138, 139, 140, 141, 142, 143, 144, 145, 146, 147, 148, 149, 150, 151, 152, 153, 154, 155, 156, 157, 158, 159, 160, 161, 162, 163, 164, 165, 166, 167, 168, 169, 170, 171, 172, 173, 174, 175, 176, 177, 178, 179, 180, 181, 182, 183, 184, 185, 186, 187, 188, 189, 190],
      "LargestImagePixelValue": [48653, 46789, 46283, 44509, 45515, 44506, 44422, 45369, 44480, 45834, 44656, 44178, 44250, 44124, 43895, 45591, 44693, 45468, 44188, 45417, 44450, 43739, 43392, 43145, 43747, 43766, 43328, 43455, 44871, 43539, 44365, 43141, 43771, 42607, 43380, 43365, 44106, 43542, 42891, 42691, 43425, 42891, 43246, 42734, 42510, 42703, 42551, 42606, 42481, 43050, 42417, 43092, 42968, 43094, 43093, 42944, 43185, 42749, 43188, 43350, 42460, 42859, 43233, 43579, 43623, 43931, 43118, 44126, 43558, 42681, 42625, 42558, 43090, 43152, 43330, 43688, 43189, 43105, 42852, 42705, 43181, 42692, 43486, 42989, 43095, 43437, 43067, 43325, 43707, 43327, 43207, 43666, 43160, 43131, 43296, 42678, 43406, 43445, 43122, 43102, 43628, 43306, 42727, 43122, 42646, 43300, 43476, 43643, 42714, 43818, 43103, 43939, 42962, 42887, 42855, 42858, 42965, 43474, 43825, 43943, 43558, 42792, 42490, 43487, 42703, 42751, 42308, 43126, 42504, 42962, 42837, 42832, 43115, 43384, 43163, 42408, 42797, 42978, 42809, 42773, 42909, 42847, 43927, 42721, 42748, 42738, 41804, 42291, 42621, 42084, 42555, 42070, 42570, 42558, 42371, 42122, 42274, 42203, 42298, 42149, 42228, 42346, 42671, 42709, 43488, 43320, 42963, 42939, 42208, 42759, 42717, 42308, 42270, 42689, 42529, 42518, 43592, 43027, 43370, 43268, 43133, 43378, 44247, 43699, 43241, 42456, 43654, 43459, 43362, 43276],
      "WindowCenter": [11019.0, 11004.0, 11020.0, 11014.0, 11004.0, 10983.0, 10973.0, 10972.0, 10968.0, 10994.0, 10994.0, 10992.0, 10991.0, 10971.0, 10971.0, 11004.0, 11014.0, 11012.0, 10961.0, 10958.0, 10959.0, 10946.0, 10950.0, 10984.0, 10990.0, 11009.0, 10992.0, 10979.0, 10958.0, 10940.0, 10938.0, 10927.0, 10940.0, 10944.0, 10936.0, 10934.0, 10918.0, 10922.0, 10936.0, 10933.0, 10935.0, 10921.0, 10928.0, 10900.0, 10929.0, 10940.0, 10943.0, 10949.0, 10926.0, 10910.0, 10892.0, 10915.0, 10945.0, 10962.0, 10940.0, 10924.0, 10916.0, 10936.0, 10952.0, 10961.0, 10951.0, 10929.0, 10906.0, 10913.0, 10920.0, 10935.0, 10935.0, 10929.0, 10916.0, 10903.0, 10894.0, 10903.0, 10913.0, 10922.0, 10935.0, 10940.0, 10952.0, 10953.0, 10955.0, 10941.0, 10953.0, 10945.0, 10950.0, 10949.0, 10954.0, 10933.0, 10951.0, 10963.0, 10948.0, 10951.0, 10944.0, 10933.0, 10935.0, 10925.0, 10925.0, 10912.0, 10921.0, 10923.0, 10917.0, 10923.0, 10912.0, 10907.0, 10909.0, 10936.0, 10940.0, 10942.0, 10924.0, 10923.0, 10959.0, 10990.0, 10970.0, 10933.0, 10902.0, 10913.0, 10942.0, 10951.0, 10961.0, 10987.0, 10960.0, 10915.0, 10892.0, 10896.0, 10928.0, 10928.0, 10916.0, 10927.0, 10915.0, 10907.0, 10901.0, 10908.0, 10932.0, 10964.0, 10956.0, 10906.0, 10897.0, 10890.0, 10885.0, 10894.0, 10904.0, 10913.0, 10920.0, 10906.0, 10908.0, 10904.0, 10906.0, 10898.0, 10884.0, 10892.0, 10908.0, 10910.0, 10910.0, 10877.0, 10889.0, 10896.0, 10903.0, 10893.0, 10911.0, 10917.0, 10947.0, 10940.0, 10924.0, 10923.0, 10936.0, 10945.0, 10963.0, 10949.0, 10907.0, 10905.0, 10909.0, 10921.0, 10908.0, 10899.0, 10883.0, 10899.0, 10925.0, 10941.0, 10946.0, 10928.0, 10928.0, 10939.0, 10948.0, 10982.0, 10997.0, 10955.0, 10926.0, 10926.0, 10946.0, 10949.0, 10939.0, 10932.0],
      "WindowWidth": [23734.0, 23672.0, 23689.0, 23670.0, 23635.0, 23584.0, 23560.0, 23550.0, 23545.0, 23602.0, 23605.0, 23604.0, 23601.0, 23557.0, 23553.0, 23621.0, 23646.0, 23641.0, 23532.0, 23517.0, 23526.0, 23502.0, 23506.0, 23588.0, 23600.0, 23644.0, 23609.0, 23571.0, 23519.0, 23485.0, 23473.0, 23456.0, 23481.0, 23497.0, 23474.0, 23470.0, 23431.0, 23440.0, 23475.0, 23471.0, 23474.0, 23442.0, 23460.0, 23397.0, 23461.0, 23490.0, 23499.0, 23511.0, 23460.0, 23421.0, 23378.0, 23428.0, 23500.0, 23536.0, 23489.0, 23457.0, 23433.0, 23477.0, 23514.0, 23533.0, 23516.0, 23463.0, 23409.0, 23422.0, 23436.0, 23467.0, 23471.0, 23454.0, 23428.0, 23403.0, 23382.0, 23404.0, 23424.0, 23443.0, 23475.0, 23483.0, 23512.0, 23516.0, 23520.0, 23490.0, 23513.0, 23502.0, 23509.0, 23510.0, 23521.0, 23472.0, 23512.0, 23545.0, 23503.0, 23510.0, 23495.0, 23465.0, 23472.0, 23446.0, 23449.0, 23422.0, 23439.0, 23444.0, 23430.0, 23444.0, 23418.0, 23407.0, 23413.0, 23473.0, 23488.0, 23492.0, 23452.0, 23447.0, 23534.0, 23602.0, 23557.0, 23470.0, 23404.0, 23425.0, 23496.0, 23516.0, 23538.0, 23601.0, 23533.0, 23433.0, 23376.0, 23385.0, 23464.0, 23459.0, 23432.0, 23460.0, 23437.0, 23413.0, 23401.0, 23417.0, 23469.0, 23542.0, 23523.0, 23409.0, 23388.0, 23379.0, 23362.0, 23385.0, 23408.0, 23427.0, 23444.0, 23410.0, 23410.0, 23406.0, 23413.0, 23395.0, 23365.0, 23382.0, 23416.0, 23419.0, 23418.0, 23347.0, 23368.0, 23383.0, 23407.0, 23386.0, 23426.0, 23440.0, 23508.0, 23500.0, 23461.0, 23457.0, 23486.0, 23505.0, 23542.0, 23511.0, 23417.0, 23411.0, 23422.0, 23444.0, 23416.0, 23397.0, 23360.0, 23396.0, 23458.0, 23495.0, 23503.0, 23467.0, 23461.0, 23488.0, 23510.0, 23585.0, 23618.0, 23524.0, 23461.0, 23459.0, 23500.0, 23509.0, 23485.0, 23469.0]
    },
    "slices": {}
  }
}