{
  "AcquisitionMatrixPE": 104,
  "AcquisitionNumber": 1,
  "AcquisitionTime": "11:15:2.787500",
  "BandwidthPerPixelPhaseEncode": 17.17,
  "BaseResolution": 104,
  "BodyPartExamined": "BRAIN",
  "CoilString": "HC1-7;NC1_2",
  "ConsistencyInfo": "N4_VE11C_LATEST_20160120",
  "ConversionSoftware": "dcm2niix",
  "ConversionSoftwareVersion": "v1.0.20190902",
  "DerivedVendorReportedEchoSpacing": 0.000560011,
  "DeviceSerialNumber": "167006",
  "DwellTime": 2.1e-06,
  "EchoTime": 0.037,
  "EchoTrainLength": 104,
  "EffectiveEchoSpacing": 0.000560011,
  "FlipAngle": 52,
  "ImageComments": "Unaliased_MB4_PE3_LB",
  "ImageOrientationPatientDICOM": [0.999647, 0.0116653, 0.0238493, 0.00157024, 0.87075, -0.491724],
  "ImageType": [
    "ORIGINAL",
    "PRIMARY",
    "P",
    "MB",
    "ND",
    "MOSAIC"
],
  "ImagingFrequency": 123.259,
  "InPlanePhaseEncodingDirectionDICOM": "COL",
  "InstitutionAddress": "Chemin_Queen-Mary_4565_Montreal_District_CA_H3W_1W5",
  "InstitutionName": "IUGM",
  "InstitutionalDepartmentName": "Department",
  "MRAcquisitionType": "2D",
  "MagneticFieldStrength": 3,
  "Manufacturer": "Siemens",
  "ManufacturersModelName": "Prisma_fit",
  "Modality": "MR",
  "MultibandAccelerationFactor": 4,
  "PartialFourier": 1,
  "PatientPosition": "HFS",
  "PercentPhaseFOV": 100,
  "PhaseEncodingDirection": "j",
  "PhaseEncodingSteps": 104,
  "PhaseResolution": 1,
  "PixelBandwidth": 2290,
  "ProcedureStepDescription": "memory_things",
  "ProtocolName": "func_task-things_run-6",
  "PulseSequenceDetails": "%CustomerSeq%_cmrr_mbep2d_bold",
  "ReceiveCoilActiveElements": "HC1-7;NC1,2",
  "ReceiveCoilName": "HeadNeck_64",
  "ReconMatrixPE": 104,
  "RepetitionTime": 1.49,
  "SAR": 0.0475121,
  "ScanOptions": "FS",
  "ScanningSequence": "EP",
  "SequenceName": "epfid2d1_104",
  "SequenceVariant": "SK_SS",
  "SeriesDescription": "func_task-things_run-6",
  "SeriesNumber": 26,
  "ShimSetting": [618, -7189, -8854, 313, -6, -137, -26, 7],
  "SliceThickness": 2,
  "SliceTiming": [0, 0.785, 0.0975, 0.8825, 0.1975, 0.98, 0.295, 1.0775, 0.3925, 1.1775, 0.49, 1.275, 0.5875, 1.3725, 0.6875, 0, 0.785, 0.0975, 0.8825, 0.1975, 0.98, 0.295, 1.0775, 0.3925, 1.1775, 0.49, 1.275, 0.5875, 1.3725, 0.6875, 0, 0.785, 0.0975, 0.8825, 0.1975, 0.98, 0.295, 1.0775, 0.3925, 1.1775, 0.49, 1.275, 0.5875, 1.3725, 0.6875, 0, 0.785, 0.0975, 0.8825, 0.1975, 0.98, 0.295, 1.0775, 0.3925, 1.1775, 0.49, 1.275, 0.5875, 1.3725, 0.6875],
  "SoftwareVersions": "syngo_MR_E11",
  "SpacingBetweenSlices": 2,
  "StationName": "MRC35049",
  "TaskName": "things",
  "TotalReadoutTime": 0.0576811,
  "TxRefAmp": 264.876,
  "WipMemBlock": "5dadf46a-1b09-4e9d-9f92-4be5a96f06fc||Sequence: R016 ve11c/master r/e634e98; Dec 19 2017 11:00:25 by eja",
  "dcmmeta_affine": [
    [-1.9992949962615967, 0.0031404842156916857, 0.053005754947662354, 105.60369110107422],
    [-0.02333063632249832, 1.741499662399292, -0.9831758141517639, -51.777801513671875],
    [0.047698576003313065, 0.9834475517272949, 1.7408491373062134, -87.2465591430664],
    [0.0, 0.0, 0.0, 1.0]
],
  "dcmmeta_reorient_transform": [
    [0.0, -1.0, 0.0, 103.0],
    [1.0, 0.0, 0.0, 0.0],
    [0.0, 0.0, 1.0, 0.0],
    [0.0, 0.0, 0.0, 1.0]
],
  "dcmmeta_shape": [104, 104, 60, 190],
  "dcmmeta_slice_dim": 2,
  "dcmmeta_version": 0.6,
  "global": {
    "const": {
      "AcquisitionMatrix": [104, 0, 0, 104],
      "AngioFlag": "N",
      "BitsAllocated": 16,
      "BitsStored": 16,
      "BodyPartExamined": "BRAIN",
      "Columns": 832,
      "EchoNumbers": 1,
      "EchoTime": 37.0,
      "EchoTrainLength": 104,
      "FlipAngle": 52.0,
      "HighBit": 15,
      "ImageOrientationPatient": [0.99964750379055, 0.01166531773379, 0.02384928777736, 0.00157024210444, 0.87074982462712, -0.4917237814582],
      "ImagePositionPatient": [-834.8136836934, -769.99488748847, 354.66117377421],
      "ImageType": [
        "ORIGINAL",
        "PRIMARY",
        "P",
        "MB",
        "ND",
        "MOSAIC"
],
      "ImagedNucleus": "1H",
      "ImagingFrequency": 123.258951,
      "InPlanePhaseEncodingDirection": "COL",
      "LargestImagePixelValue": 4095,
      "MRAcquisitionType": "2D",
      "MagneticFieldStrength": 3.0,
      "Manufacturer": "SIEMENS",
      "ManufacturerModelName": "Prisma_fit",
      "Modality": "MR",
      "NumberOfAverages": 1.0,
      "NumberOfPhaseEncodingSteps": 104,
      "PercentPhaseFieldOfView": 100.0,
      "PercentSampling": 100.0,
      "PerformedProcedureStepStartTime": "103056.055000",
      "PhotometricInterpretation": "MONOCHROME2",
      "PixelBandwidth": 2290.0,
      "PixelRepresentation": 0,
      "PixelSpacing": [2.0, 2.0],
      "ProtocolName": "func_task-things_run-6",
      "RepetitionTime": 1490.0,
      "RescaleIntercept": -4096.0,
      "RescaleSlope": 2.0,
      "RescaleType": "US",
      "Rows": 832,
      "SAR": 0.0475121193463,
      "SamplesPerPixel": 1,
      "ScanOptions": "FS",
      "ScanningSequence": "EP",
      "SequenceName": "epfid2d1_104",
      "SequenceVariant": [
        "SK",
        "SS"
],
      "SeriesDescription": "func_task-things_run-6",
      "SeriesNumber": 26,
      "SeriesTime": "111626.251000",
      "SliceLocation": -47.689404888135,
      "SliceThickness": 2.0,
      "SmallestImagePixelValue": 0,
      "SoftwareVersions": "syngo MR E11",
      "SpacingBetweenSlices": 1.999999980732,
      "SpecificCharacterSet": "ISO_IR 100",
      "StudyID": "1",
      "StudyTime": "103055.988000",
      "TransmitCoilName": "Body",
      "VariableFlipAngleFlag": "N",
      "WindowCenterWidthExplanation": "Algo1",
      "dBdt": 0.0},
    "slices": {}
  },
  "time": {
    "samples": {
      "AcquisitionNumber": [1, 2, 3, 4, 5, 6, 7, 8, 9, 10, 11, 12, 13, 14, 15, 16, 17, 18, 19, 20, 21, 22, 23, 24, 25, 26, 27, 28, 29, 30, 31, 32, 33, 34, 35, 36, 37, 38, 39, 40, 41, 42, 43, 44, 45, 46, 47, 48, 49, 50, 51, 52, 53, 54, 55, 56, 57, 58, 59, 60, 61, 62, 63, 64, 65, 66, 67, 68, 69, 70, 71, 72, 73, 74, 75, 76, 77, 78, 79, 80, 81, 82, 83, 84, 85, 86, 87, 88, 89, 90, 91, 92, 93, 94, 95, 96, 97, 98, 99, 100, 101, 102, 103, 104, 105, 106, 107, 108, 109, 110, 111, 112, 113, 114, 115, 116, 117, 118, 119, 120, 121, 122, 123, 124, 125, 126, 127, 128, 129, 130, 131, 132, 133, 134, 135, 136, 137, 138, 139, 140, 141, 142, 143, 144, 145, 146, 147, 148, 149, 150, 151, 152, 153, 154, 155, 156, 157, 158, 159, 160, 161, 162, 163, 164, 165, 166, 167, 168, 169, 170, 171, 172, 173, 174, 175, 176, 177, 178, 179, 180, 181, 182, 183, 184, 185, 186, 187, 188, 189, 190],
      "AcquisitionTime": ["111502.787500", "111504.277500", "111505.767500", "111507.257500", "111508.747500", "111510.237500", "111511.727500", "111513.217500", "111514.707500", "111516.197500", "111517.687500", "111519.177500", "111520.667500", "111522.157500", "111523.647500", "111525.137500", "111526.627500", "111528.117500", "111529.607500", "111531.097500", "111532.587500", "111534.077500", "111535.567500", "111537.057500", "111538.547500", "111540.037500", "111541.527500", "111543.017500", "111544.507500", "111545.997500", "111547.487500", "111548.977500", "111550.467500", "111551.957500", "111553.447500", "111554.937500", "111556.427500", "111557.917500", "111559.407500", "111600.897500", "111602.387500", "111603.877500", "111605.367500", "111606.857500", "111608.347500", "111609.837500", "111611.327500", "111612.817500", "111614.307500", "111615.797500", "111617.287500", "111618.777500", "111620.267500", "111621.757500", "111623.247500", "111624.737500", "111626.227500", "111627.717500", "111629.207500", "111630.697500", "111632.187500", "111633.677500", "111635.167500", "111636.657500", "111638.147500", "111639.637500", "111641.127500", "111642.617500", "111644.107500", "111645.597500", "111647.087500", "111648.577500", "111650.067500", "111651.557500", "111653.047500", "111654.537500", "111656.027500", "111657.517500", "111659.007500", "111700.497500", "111701.987500", "111703.477500", "111704.967500", "111706.457500", "111707.947500", "111709.437500", "111710.927500", "111712.417500", "111713.907500", "111715.397500", "111716.887500", "111718.377500", "111719.867500", "111721.357500", "111722.847500", "111724.337500", "111725.827500", "111727.317500", "111728.807500", "111730.297500", "111731.787500", "111733.277500", "111734.767500", "111736.257500", "111737.747500", "111739.237500", "111740.727500", "111742.217500", "111743.707500", "111745.197500", "111746.687500", "111748.177500", "111749.667500", "111751.157500", "111752.647500", "111754.137500", "111755.627500", "111757.117500", "111758.607500", "111800.097500", "111801.587500", "111803.077500", "111804.567500", "111806.057500", "111807.547500", "111809.037500", "111810.527500", "111812.017500", "111813.507500", "111814.997500", "111816.487500", "111817.977500", "111819.467500", "111820.957500", "111822.447500", "111823.937500", "111825.427500", "111826.917500", "111828.407500", "111829.897500", "111831.387500", "111832.877500", "111834.367500", "111835.857500", "111837.347500", "111838.837500", "111840.327500", "111841.817500", "111843.307500", "111844.797500", "111846.287500", "111847.777500", "111849.267500", "111850.757500", "111852.247500", "111853.737500", "111855.227500", "111856.717500", "111858.207500", "111859.697500", "111901.187500", "111902.677500", "111904.167500", "111905.657500", "111907.147500", "111908.637500", "111910.127500", "111911.617500", "111913.107500", "111914.597500", "111916.087500", "111917.577500", "111919.067500", "111920.557500", "111922.047500", "111923.537500", "111925.027500", "111926.517500", "111928.007500", "111929.497500", "111930.987500", "111932.477500", "111933.967500", "111935.457500", "111936.947500", "111938.437500", "111939.927500", "111941.417500", "111942.907500", "111944.397500"],
      "ContentTime": ["111626.253000", "111626.256000", "111626.259000", "111626.261000", "111626.264000", "111626.266000", "111626.269000", "111626.271000", "111626.274000", "111626.276000", "111626.279000", "111626.281000", "111626.284000", "111626.286000", "111626.289000", "111626.291000", "111626.294000", "111626.296000", "111626.299000", "111626.301000", "111626.304000", "111626.312000", "111626.315000", "111626.317000", "111626.320000", "111626.322000", "111626.325000", "111626.327000", "111626.330000", "111646.182000", "111646.185000", "111646.187000", "111646.190000", "111646.192000", "111646.195000", "111646.197000", "111646.200000", "111646.202000", "111646.205000", "111646.207000", "111646.210000", "111646.212000", "111646.215000", "111646.217000", "111646.220000", "111646.222000", "111646.225000", "111646.227000", "111646.230000", "111706.185000", "111706.188000", "111706.191000", "111706.193000", "111706.196000", "111706.198000", "111706.201000", "111706.204000", "111706.206000", "111706.209000", "111706.211000", "111706.214000", "111706.216000", "111706.219000", "111706.221000", "111706.224000", "111706.226000", "111706.229000", "111706.231000", "111706.234000", "111726.201000", "111726.204000", "111726.210000", "111726.213000", "111726.215000", "111726.218000", "111726.221000", "111726.223000", "111726.226000", "111726.228000", "111726.231000", "111726.233000", "111726.236000", "111726.238000", "111726.241000", "111726.244000", "111726.246000", "111726.249000", "111726.251000", "111726.254000", "111746.200000", "111746.203000", "111746.205000", "111746.208000", "111746.211000", "111746.213000", "111746.216000", "111746.218000", "111746.221000", "111746.223000", "111746.226000", "111746.228000", "111746.231000", "111746.234000", "111746.236000", "111746.239000", "111746.241000", "111746.252000", "111746.255000", "111746.257000", "111826.232000", "111826.235000", "111826.237000", "111826.240000", "111826.242000", "111826.245000", "111826.248000", "111826.250000", "111826.253000", "111826.255000", "111826.258000", "111826.260000", "111826.263000", "111826.265000", "111826.268000", "111826.270000", "111826.273000", "111826.275000", "111826.278000", "111826.280000", "111826.283000", "111826.286000", "111826.288000", "111826.291000", "111826.293000", "111826.296000", "111906.741000", "111906.744000", "111906.746000", "111906.749000", "111906.751000", "111906.754000", "111906.757000", "111906.759000", "111906.762000", "111906.764000", "111906.767000", "111906.769000", "111906.772000", "111906.774000", "111906.777000", "111906.779000", "111906.782000", "111906.784000", "111906.787000", "111906.789000", "111906.792000", "111906.794000", "111906.797000", "111906.799000", "111906.802000", "111906.805000", "111906.807000", "111946.223000", "111946.226000", "111946.229000", "111946.231000", "111946.234000", "111946.236000", "111946.239000", "111946.241000", "111946.244000", "111946.246000", "111946.249000", "111946.251000", "111946.254000", "111946.257000", "111946.259000", "111946.262000", "111946.264000", "111946.267000", "111946.269000", "111946.272000", "111946.274000", "111946.277000", "111946.279000", "111946.282000", "111946.284000", "111946.287000", "111946.290000", "111946.743000"],
      "InstanceCreationTime": ["111626.253000", "111626.256000", "111626.259000", "111626.261000", "111626.264000", "111626.266000", "111626.269000", "111626.271000", "111626.274000", "111626.276000", "111626.279000", "111626.281000", "111626.284000", "111626.286000", "111626.289000", "111626.291000", "111626.294000", "111626.296000", "111626.299000", "111626.301000", "111626.304000", "111626.312000", "111626.315000", "111626.317000", "111626.320000", "111626.322000", "111626.325000", "111626.327000", "111626.330000", "111646.182000", "111646.185000", "111646.187000", "111646.190000", "111646.192000", "111646.195000", "111646.197000", "111646.200000", "111646.202000", "111646.205000", "111646.207000", "111646.210000", "111646.212000", "111646.215000", "111646.217000", "111646.220000", "111646.222000", "111646.225000", "111646.227000", "111646.230000", "111706.185000", "111706.188000", "111706.191000", "111706.193000", "111706.196000", "111706.198000", "111706.201000", "111706.204000", "111706.206000", "111706.209000", "111706.211000", "111706.214000", "111706.216000", "111706.219000", "111706.221000", "111706.224000", "111706.226000", "111706.229000", "111706.231000", "111706.234000", "111726.201000", "111726.204000", "111726.210000", "111726.213000", "111726.215000", "111726.218000", "111726.221000", "111726.223000", "111726.226000", "111726.228000", "111726.231000", "111726.233000", "111726.236000", "111726.238000", "111726.241000", "111726.244000", "111726.246000", "111726.249000", "111726.251000", "111726.254000", "111746.200000", "111746.203000", "111746.205000", "111746.208000", "111746.211000", "111746.213000", "111746.216000", "111746.218000", "111746.221000", "111746.223000", "111746.226000", "111746.228000", "111746.231000", "111746.234000", "111746.236000", "111746.239000", "111746.241000", "111746.252000", "111746.255000", "111746.257000", "111826.232000", "111826.235000", "111826.237000", "111826.240000", "111826.242000", "111826.245000", "111826.248000", "111826.250000", "111826.253000", "111826.255000", "111826.258000", "111826.260000", "111826.263000", "111826.265000", "111826.268000", "111826.270000", "111826.273000", "111826.275000", "111826.278000", "111826.280000", "111826.283000", "111826.286000", "111826.288000", "111826.291000", "111826.293000", "111826.296000", "111906.741000", "111906.744000", "111906.746000", "111906.749000", "111906.751000", "111906.754000", "111906.757000", "111906.759000", "111906.762000", "111906.764000", "111906.767000", "111906.769000", "111906.772000", "111906.774000", "111906.777000", "111906.779000", "111906.782000", "111906.784000", "111906.787000", "111906.789000", "111906.792000", "111906.794000", "111906.797000", "111906.799000", "111906.802000", "111906.805000", "111906.807000", "111946.223000", "111946.226000", "111946.229000", "111946.231000", "111946.234000", "111946.236000", "111946.239000", "111946.241000", "111946.244000", "111946.246000", "111946.249000", "111946.251000", "111946.254000", "111946.257000", "111946.259000", "111946.262000", "111946.264000", "111946.267000", "111946.269000", "111946.272000", "111946.274000", "111946.277000", "111946.279000", "111946.282000", "111946.284000", "111946.287000", "111946.290000", "111946.743000"],
      "InstanceNumber": [1, 2, 3, 4, 5, 6, 7, 8, 9, 10, 11, 12, 13, 14, 15, 16, 17, 18, 19, 20, 21, 22, 23, 24, 25, 26, 27, 28, 29, 30, 31, 32, 33, 34, 35, 36, 37, 38, 39, 40, 41, 42, 43, 44, 45, 46, 47, 48, 49, 50, 51, 52, 53, 54, 55, 56, 57, 58, 59, 60, 61, 62, 63, 64, 65, 66, 67, 68, 69, 70, 71, 72, 73, 74, 75, 76, 77, 78, 79, 80, 81, 82, 83, 84, 85, 86, 87, 88, 89, 90, 91, 92, 93, 94, 95, 96, 97, 98, 99, 100, 101, 102, 103, 104, 105, 106, 107, 108, 109, 110, 111, 112, 113, 114, 115, 116, 117, 118, 119, 120, 121, 122, 123, 124, 125, 126, 127, 128, 129, 130, 131, 132, 133, 134, 135, 136, 137, 138, 139, 140, 141, 142, 143, 144, 145, 146, 147, 148, 149, 150, 151, 152, 153, 154, 155, 156, 157, 158, 159, 160, 161, 162, 163, 164, 165, 166, 167, 168, 169, 170, 171, 172, 173, 174, 175, 176, 177, 178, 179, 180, 181, 182, 183, 184, 185, 186, 187, 188, 189, 190],
      "WindowCenter": [4758.0, 4756.0, 4756.0, 4756.0, 4762.0, 4828.0, 4796.0, 4760.0, 4754.0, 4774.0, 4752.0, 4754.0, 4754.0, 4760.0, 4790.0, 4790.0, 4760.0, 4758.0, 4756.0, 4754.0, 4762.0, 4760.0, 4764.0, 4792.0, 4758.0, 4794.0, 4764.0, 4750.0, 4756.0, 4754.0, 4752.0, 4764.0, 4758.0, 4760.0, 4764.0, 4762.0, 4758.0, 4754.0, 4750.0, 4752.0, 4766.0, 4826.0, 4764.0, 4758.0, 4762.0, 4754.0, 4758.0, 4752.0, 4754.0, 4762.0, 4756.0, 4762.0, 4764.0, 4764.0, 4764.0, 4790.0, 4802.0, 4760.0, 4764.0, 4756.0, 4780.0, 4754.0, 4752.0, 4756.0, 4758.0, 4760.0, 4788.0, 4788.0, 4762.0, 4790.0, 4790.0, 4758.0, 4764.0, 4754.0, 4762.0, 4752.0, 4764.0, 4800.0, 4790.0, 4756.0, 4758.0, 4750.0, 4754.0, 4760.0, 4754.0, 4762.0, 4764.0, 4762.0, 4768.0, 4766.0, 4760.0, 4756.0, 4760.0, 4758.0, 4752.0, 4760.0, 4756.0, 4760.0, 4768.0, 4764.0, 4788.0, 4826.0, 4798.0, 4762.0, 4776.0, 4782.0, 4776.0, 4750.0, 4760.0, 4790.0, 4806.0, 4806.0, 4798.0, 4758.0, 4752.0, 4756.0, 4750.0, 4750.0, 4756.0, 4760.0, 4758.0, 4770.0, 4768.0, 4764.0, 4792.0, 4766.0, 4756.0, 4750.0, 4758.0, 4752.0, 4762.0, 4794.0, 4762.0, 4760.0, 4766.0, 4754.0, 4758.0, 4760.0, 4754.0, 4762.0, 4766.0, 4758.0, 4792.0, 4802.0, 4762.0, 4752.0, 4754.0, 4754.0, 4754.0, 4752.0, 4762.0, 4794.0, 4790.0, 4766.0, 4768.0, 4756.0, 4766.0, 4824.0, 4790.0, 4758.0, 4778.0, 4780.0, 4776.0, 4752.0, 4762.0, 4790.0, 4798.0, 4800.0, 4768.0, 4764.0, 4760.0, 4750.0, 4758.0, 4792.0, 4788.0, 4756.0, 4752.0, 4752.0, 4752.0, 4760.0, 4762.0, 4768.0, 4798.0, 4766.0, 4758.0, 4794.0, 4826.0, 4830.0, 4790.0, 4790.0],
      "WindowWidth": [18522.0, 18518.0, 18520.0, 18526.0, 18520.0, 18576.0, 18538.0, 18514.0, 18534.0, 18578.0, 18524.0, 18522.0, 18524.0, 18530.0, 18548.0, 18552.0, 18520.0, 18526.0, 18526.0, 18528.0, 18520.0, 18524.0, 18520.0, 18550.0, 18524.0, 18542.0, 18512.0, 18530.0, 18518.0, 18526.0, 18524.0, 18514.0, 18522.0, 18520.0, 18518.0, 18524.0, 18520.0, 18526.0, 18524.0, 18528.0, 18518.0, 18572.0, 18518.0, 18524.0, 18526.0, 18534.0, 18518.0, 18528.0, 18530.0, 18524.0, 18526.0, 18522.0, 18532.0, 18524.0, 18526.0, 18548.0, 18546.0, 18522.0, 18518.0, 18522.0, 18570.0, 18526.0, 18536.0, 18522.0, 18522.0, 18518.0, 18554.0, 18554.0, 18522.0, 18552.0, 18548.0, 18522.0, 18514.0, 18524.0, 18520.0, 18522.0, 18520.0, 18540.0, 18544.0, 18528.0, 18522.0, 18528.0, 18526.0, 18516.0, 18522.0, 18518.0, 18520.0, 18524.0, 18518.0, 18514.0, 18522.0, 18522.0, 18522.0, 18526.0, 18526.0, 18522.0, 18522.0, 18522.0, 18514.0, 18526.0, 18554.0, 18570.0, 18538.0, 18518.0, 18578.0, 18582.0, 18580.0, 18542.0, 18522.0, 18548.0, 18542.0, 18548.0, 18552.0, 18518.0, 18524.0, 18526.0, 18530.0, 18536.0, 18520.0, 18524.0, 18524.0, 18518.0, 18516.0, 18524.0, 18544.0, 18510.0, 18520.0, 18528.0, 18526.0, 18532.0, 18524.0, 18544.0, 18520.0, 18522.0, 18516.0, 18518.0, 18522.0, 18520.0, 18528.0, 18522.0, 18518.0, 18528.0, 18550.0, 18546.0, 18520.0, 18530.0, 18520.0, 18532.0, 18532.0, 18522.0, 18522.0, 18544.0, 18548.0, 18518.0, 18516.0, 18522.0, 18512.0, 18572.0, 18532.0, 18526.0, 18590.0, 18596.0, 18586.0, 18528.0, 18518.0, 18552.0, 18546.0, 18552.0, 18518.0, 18528.0, 18524.0, 18530.0, 18522.0, 18536.0, 18542.0, 18530.0, 18522.0, 18532.0, 18526.0, 18522.0, 18526.0, 18516.0, 18544.0, 18518.0, 18524.0, 18548.0, 18568.0, 18570.0, 18536.0, 18592.0]
    },
    "slices": {}
  }
}