{
  "AcquisitionMatrixPE": 104,
  "AcquisitionNumber": 1,
  "AcquisitionTime": "10:42:25.687500",
  "BandwidthPerPixelPhaseEncode": 17.17,
  "BaseResolution": 104,
  "BodyPartExamined": "BRAIN",
  "CoilString": "HC1-7;NC1_2",
  "ConsistencyInfo": "N4_VE11C_LATEST_20160120",
  "ConversionSoftware": "dcm2niix",
  "ConversionSoftwareVersion": "v1.0.20190902",
  "DerivedVendorReportedEchoSpacing": 0.000560011,
  "DeviceSerialNumber": "167006",
  "DwellTime": 2.1e-06,
  "EchoTime": 0.037,
  "EchoTrainLength": 104,
  "EffectiveEchoSpacing": 0.000560011,
  "FlipAngle": 52,
  "ImageComments": "Unaliased_MB4_PE3_LB",
  "ImageOrientationPatientDICOM": [0.999647, 0.0116653, 0.0238493, 0.00157024, 0.87075, -0.491724],
  "ImageType": [
    "ORIGINAL",
    "PRIMARY",
    "M",
    "MB",
    "ND",
    "MOSAIC"
],
  "ImagingFrequency": 123.259,
  "InPlanePhaseEncodingDirectionDICOM": "COL",
  "InstitutionAddress": "Chemin_Queen-Mary_4565_Montreal_District_CA_H3W_1W5",
  "InstitutionName": "IUGM",
  "InstitutionalDepartmentName": "Department",
  "MRAcquisitionType": "2D",
  "MagneticFieldStrength": 3,
  "Manufacturer": "Siemens",
  "ManufacturersModelName": "Prisma_fit",
  "Modality": "MR",
  "MultibandAccelerationFactor": 4,
  "PartialFourier": 1,
  "PatientPosition": "HFS",
  "PercentPhaseFOV": 100,
  "PhaseEncodingDirection": "j",
  "PhaseEncodingSteps": 104,
  "PhaseResolution": 1,
  "PixelBandwidth": 2290,
  "ProcedureStepDescription": "memory_things",
  "ProtocolName": "func_task-things_run-1",
  "PulseSequenceDetails": "%CustomerSeq%_cmrr_mbep2d_bold",
  "ReceiveCoilActiveElements": "HC1-7;NC1,2",
  "ReceiveCoilName": "HeadNeck_64",
  "ReconMatrixPE": 104,
  "RepetitionTime": 1.49,
  "SAR": 0.0475121,
  "ScanOptions": "FS",
  "ScanningSequence": "EP",
  "SequenceName": "epfid2d1_104",
  "SequenceVariant": "SK_SS",
  "SeriesDescription": "func_task-things_run-1",
  "SeriesNumber": 10,
  "ShimSetting": [618, -7189, -8854, 313, -6, -137, -26, 7],
  "SliceThickness": 2,
  "SliceTiming": [0, 0.7825, 0.0975, 0.8825, 0.195, 0.98, 0.2925, 1.0775, 0.3925, 1.175, 0.49, 1.2725, 0.5875, 1.3725, 0.685, 0, 0.7825, 0.0975, 0.8825, 0.195, 0.98, 0.2925, 1.0775, 0.3925, 1.175, 0.49, 1.2725, 0.5875, 1.3725, 0.685, 0, 0.7825, 0.0975, 0.8825, 0.195, 0.98, 0.2925, 1.0775, 0.3925, 1.175, 0.49, 1.2725, 0.5875, 1.3725, 0.685, 0, 0.7825, 0.0975, 0.8825, 0.195, 0.98, 0.2925, 1.0775, 0.3925, 1.175, 0.49, 1.2725, 0.5875, 1.3725, 0.685],
  "SoftwareVersions": "syngo_MR_E11",
  "SpacingBetweenSlices": 2,
  "StationName": "MRC35049",
  "TaskName": "things",
  "TotalReadoutTime": 0.0576811,
  "TxRefAmp": 264.876,
  "WipMemBlock": "1331756f-b0f6-4e58-8c1c-12c55bdf2371||Sequence: R016 ve11c/master r/e634e98; Dec 19 2017 11:00:25 by eja",
  "dcmmeta_affine": [
    [-1.9992949962615967, 0.0031404842156916857, 0.053005754947662354, 105.60369110107422],
    [-0.02333063632249832, 1.741499662399292, -0.9831758141517639, -51.777801513671875],
    [0.047698576003313065, 0.9834475517272949, 1.7408491373062134, -87.2465591430664],
    [0.0, 0.0, 0.0, 1.0]
],
  "dcmmeta_reorient_transform": [
    [0.0, -1.0, 0.0, 103.0],
    [1.0, 0.0, 0.0, 0.0],
    [0.0, 0.0, 1.0, 0.0],
    [0.0, 0.0, 0.0, 1.0]
],
  "dcmmeta_shape": [104, 104, 60, 190],
  "dcmmeta_slice_dim": 2,
  "dcmmeta_version": 0.6,
  "global": {
    "const": {
      "AcquisitionMatrix": [104, 0, 0, 104],
      "AngioFlag": "N",
      "BitsAllocated": 16,
      "BitsStored": 16,
      "BodyPartExamined": "BRAIN",
      "Columns": 832,
      "EchoNumbers": 1,
      "EchoTime": 37.0,
      "EchoTrainLength": 104,
      "FlipAngle": 52.0,
      "HighBit": 15,
      "ImageOrientationPatient": [0.99964750379055, 0.01166531773379, 0.02384928777736, 0.00157024210444, 0.87074982462712, -0.4917237814582],
      "ImagePositionPatient": [-834.8136836934, -769.99488748847, 354.66117377421],
      "ImageType": [
        "ORIGINAL",
        "PRIMARY",
        "M",
        "MB",
        "ND",
        "MOSAIC"
],
      "ImagedNucleus": "1H",
      "ImagingFrequency": 123.258938,
      "InPlanePhaseEncodingDirection": "COL",
      "MRAcquisitionType": "2D",
      "MagneticFieldStrength": 3.0,
      "Manufacturer": "SIEMENS",
      "ManufacturerModelName": "Prisma_fit",
      "Modality": "MR",
      "NumberOfAverages": 1.0,
      "NumberOfPhaseEncodingSteps": 104,
      "PercentPhaseFieldOfView": 100.0,
      "PercentSampling": 100.0,
      "PerformedProcedureStepStartTime": "103056.055000",
      "PhotometricInterpretation": "MONOCHROME2",
      "PixelBandwidth": 2290.0,
      "PixelRepresentation": 0,
      "PixelSpacing": [2.0, 2.0],
      "ProtocolName": "func_task-things_run-1",
      "RepetitionTime": 1490.0,
      "Rows": 832,
      "SAR": 0.0475121193463,
      "SamplesPerPixel": 1,
      "ScanOptions": "FS",
      "ScanningSequence": "EP",
      "SequenceName": "epfid2d1_104",
      "SequenceVariant": [
        "SK",
        "SS"
],
      "SeriesDescription": "func_task-things_run-1",
      "SeriesNumber": 10,
      "SeriesTime": "104352.294000",
      "SliceLocation": -47.689404888135,
      "SliceThickness": 2.0,
      "SmallestImagePixelValue": 0,
      "SoftwareVersions": "syngo MR E11",
      "SpacingBetweenSlices": 1.999999980732,
      "SpecificCharacterSet": "ISO_IR 100",
      "StudyID": "1",
      "StudyTime": "103055.988000",
      "TransmitCoilName": "Body",
      "VariableFlipAngleFlag": "N",
      "WindowCenterWidthExplanation": "Algo1",
      "dBdt": 0.0},
    "slices": {}
  },
  "time": {
    "samples": {
      "AcquisitionNumber": [1, 2, 3, 4, 5, 6, 7, 8, 9, 10, 11, 12, 13, 14, 15, 16, 17, 18, 19, 20, 21, 22, 23, 24, 25, 26, 27, 28, 29, 30, 31, 32, 33, 34, 35, 36, 37, 38, 39, 40, 41, 42, 43, 44, 45, 46, 47, 48, 49, 50, 51, 52, 53, 54, 55, 56, 57, 58, 59, 60, 61, 62, 63, 64, 65, 66, 67, 68, 69, 70, 71, 72, 73, 74, 75, 76, 77, 78, 79, 80, 81, 82, 83, 84, 85, 86, 87, 88, 89, 90, 91, 92, 93, 94, 95, 96, 97, 98, 99, 100, 101, 102, 103, 104, 105, 106, 107, 108, 109, 110, 111, 112, 113, 114, 115, 116, 117, 118, 119, 120, 121, 122, 123, 124, 125, 126, 127, 128, 129, 130, 131, 132, 133, 134, 135, 136, 137, 138, 139, 140, 141, 142, 143, 144, 145, 146, 147, 148, 149, 150, 151, 152, 153, 154, 155, 156, 157, 158, 159, 160, 161, 162, 163, 164, 165, 166, 167, 168, 169, 170, 171, 172, 173, 174, 175, 176, 177, 178, 179, 180, 181, 182, 183, 184, 185, 186, 187, 188, 189, 190],
      "AcquisitionTime": ["104225.687500", "104227.177500", "104228.667500", "104230.157500", "104231.647500", "104233.137500", "104234.627500", "104236.117500", "104237.607500", "104239.097500", "104240.587500", "104242.077500", "104243.567500", "104245.057500", "104246.547500", "104248.037500", "104249.527500", "104251.017500", "104252.507500", "104253.997500", "104255.487500", "104256.977500", "104258.467500", "104259.957500", "104301.447500", "104302.937500", "104304.427500", "104305.917500", "104307.407500", "104308.897500", "104310.387500", "104311.877500", "104313.367500", "104314.857500", "104316.347500", "104317.837500", "104319.327500", "104320.817500", "104322.307500", "104323.797500", "104325.287500", "104326.777500", "104328.267500", "104329.757500", "104331.247500", "104332.737500", "104334.227500", "104335.717500", "104337.207500", "104338.697500", "104340.187500", "104341.677500", "104343.167500", "104344.657500", "104346.147500", "104347.637500", "104349.127500", "104350.617500", "104352.107500", "104353.597500", "104355.087500", "104356.577500", "104358.067500", "104359.557500", "104401.047500", "104402.537500", "104404.027500", "104405.517500", "104407.007500", "104408.497500", "104409.987500", "104411.477500", "104412.967500", "104414.457500", "104415.947500", "104417.437500", "104418.927500", "104420.417500", "104421.907500", "104423.397500", "104424.887500", "104426.377500", "104427.867500", "104429.357500", "104430.847500", "104432.337500", "104433.827500", "104435.317500", "104436.807500", "104438.297500", "104439.787500", "104441.277500", "104442.767500", "104444.257500", "104445.747500", "104447.237500", "104448.727500", "104450.217500", "104451.707500", "104453.197500", "104454.687500", "104456.177500", "104457.667500", "104459.157500", "104500.647500", "104502.137500", "104503.627500", "104505.117500", "104506.607500", "104508.097500", "104509.587500", "104511.077500", "104512.567500", "104514.057500", "104515.547500", "104517.037500", "104518.527500", "104520.017500", "104521.507500", "104522.997500", "104524.487500", "104525.977500", "104527.467500", "104528.957500", "104530.447500", "104531.937500", "104533.427500", "104534.917500", "104536.407500", "104537.897500", "104539.387500", "104540.877500", "104542.367500", "104543.857500", "104545.347500", "104546.837500", "104548.327500", "104549.817500", "104551.307500", "104552.797500", "104554.287500", "104555.777500", "104557.267500", "104558.757500", "104600.247500", "104601.737500", "104603.227500", "104604.717500", "104606.207500", "104607.697500", "104609.187500", "104610.677500", "104612.167500", "104613.657500", "104615.147500", "104616.637500", "104618.127500", "104619.617500", "104621.107500", "104622.597500", "104624.087500", "104625.577500", "104627.067500", "104628.557500", "104630.047500", "104631.537500", "104633.027500", "104634.517500", "104636.007500", "104637.497500", "104638.987500", "104640.477500", "104641.967500", "104643.457500", "104644.947500", "104646.437500", "104647.927500", "104649.417500", "104650.907500", "104652.397500", "104653.887500", "104655.377500", "104656.867500", "104658.357500", "104659.847500", "104701.337500", "104702.827500", "104704.317500", "104705.807500", "104707.297500"],
      "ContentTime": ["104352.297000", "104352.301000", "104352.305000", "104352.308000", "104352.311000", "104352.315000", "104352.318000", "104352.321000", "104352.325000", "104352.328000", "104352.331000", "104352.335000", "104352.338000", "104352.341000", "104352.345000", "104352.348000", "104352.352000", "104352.355000", "104352.358000", "104352.361000", "104352.365000", "104352.368000", "104352.372000", "104352.375000", "104352.378000", "104352.382000", "104352.385000", "104412.262000", "104412.270000", "104412.273000", "104412.276000", "104412.280000", "104412.283000", "104412.286000", "104412.290000", "104412.293000", "104412.296000", "104412.300000", "104412.303000", "104412.307000", "104412.311000", "104412.314000", "104412.318000", "104412.321000", "104412.324000", "104412.328000", "104412.331000", "104432.262000", "104432.266000", "104432.269000", "104432.273000", "104432.276000", "104432.279000", "104432.283000", "104432.286000", "104432.289000", "104432.293000", "104432.296000", "104432.299000", "104432.303000", "104432.306000", "104432.309000", "104432.313000", "104432.316000", "104432.319000", "104432.323000", "104432.326000", "104452.262000", "104452.266000", "104452.269000", "104452.273000", "104452.276000", "104452.279000", "104452.283000", "104452.286000", "104452.289000", "104452.293000", "104452.296000", "104452.299000", "104452.303000", "104452.306000", "104452.309000", "104452.313000", "104452.316000", "104452.319000", "104452.323000", "104452.326000", "104512.262000", "104512.266000", "104512.269000", "104512.273000", "104512.276000", "104512.279000", "104512.283000", "104512.286000", "104512.289000", "104512.293000", "104512.296000", "104512.299000", "104512.303000", "104512.306000", "104512.309000", "104512.313000", "104512.316000", "104512.319000", "104512.323000", "104512.326000", "104552.263000", "104552.267000", "104552.270000", "104552.274000", "104552.278000", "104552.281000", "104552.285000", "104552.288000", "104552.291000", "104552.295000", "104552.298000", "104552.301000", "104552.305000", "104552.308000", "104552.311000", "104552.315000", "104552.318000", "104552.321000", "104552.325000", "104552.328000", "104552.331000", "104552.335000", "104552.338000", "104552.342000", "104552.345000", "104552.348000", "104552.351000", "104552.355000", "104552.358000", "104552.362000", "104632.262000", "104632.266000", "104632.269000", "104632.273000", "104632.276000", "104632.280000", "104632.283000", "104632.286000", "104632.290000", "104632.301000", "104632.304000", "104632.308000", "104632.311000", "104632.314000", "104632.318000", "104632.321000", "104632.324000", "104632.328000", "104632.331000", "104632.334000", "104632.338000", "104632.341000", "104632.345000", "104632.348000", "104632.351000", "104632.355000", "104632.358000", "104709.808000", "104709.812000", "104709.816000", "104709.819000", "104709.823000", "104709.826000", "104709.830000", "104709.834000", "104709.837000", "104709.840000", "104709.844000", "104709.847000", "104709.851000", "104709.854000", "104709.857000", "104709.861000", "104709.864000", "104709.868000", "104709.871000", "104709.874000", "104709.878000", "104709.881000", "104709.884000", "104709.888000", "104709.891000", "104709.895000"],
      "InstanceCreationTime": ["104352.297000", "104352.301000", "104352.305000", "104352.308000", "104352.311000", "104352.315000", "104352.318000", "104352.321000", "104352.325000", "104352.328000", "104352.331000", "104352.335000", "104352.338000", "104352.341000", "104352.345000", "104352.348000", "104352.352000", "104352.355000", "104352.358000", "104352.361000", "104352.365000", "104352.368000", "104352.372000", "104352.375000", "104352.378000", "104352.382000", "104352.385000", "104412.262000", "104412.270000", "104412.273000", "104412.276000", "104412.280000", "104412.283000", "104412.286000", "104412.290000", "104412.293000", "104412.296000", "104412.300000", "104412.303000", "104412.307000", "104412.311000", "104412.314000", "104412.318000", "104412.321000", "104412.324000", "104412.328000", "104412.331000", "104432.262000", "104432.266000", "104432.269000", "104432.273000", "104432.276000", "104432.279000", "104432.283000", "104432.286000", "104432.289000", "104432.293000", "104432.296000", "104432.299000", "104432.303000", "104432.306000", "104432.309000", "104432.313000", "104432.316000", "104432.319000", "104432.323000", "104432.326000", "104452.262000", "104452.266000", "104452.269000", "104452.273000", "104452.276000", "104452.279000", "104452.283000", "104452.286000", "104452.289000", "104452.293000", "104452.296000", "104452.299000", "104452.303000", "104452.306000", "104452.309000", "104452.313000", "104452.316000", "104452.319000", "104452.323000", "104452.326000", "104512.262000", "104512.266000", "104512.269000", "104512.273000", "104512.276000", "104512.279000", "104512.283000", "104512.286000", "104512.289000", "104512.293000", "104512.296000", "104512.299000", "104512.303000", "104512.306000", "104512.309000", "104512.313000", "104512.316000", "104512.319000", "104512.323000", "104512.326000", "104552.263000", "104552.267000", "104552.270000", "104552.274000", "104552.278000", "104552.281000", "104552.285000", "104552.288000", "104552.291000", "104552.295000", "104552.298000", "104552.301000", "104552.305000", "104552.308000", "104552.311000", "104552.315000", "104552.318000", "104552.321000", "104552.325000", "104552.328000", "104552.331000", "104552.335000", "104552.338000", "104552.342000", "104552.345000", "104552.348000", "104552.351000", "104552.355000", "104552.358000", "104552.362000", "104632.262000", "104632.266000", "104632.269000", "104632.273000", "104632.276000", "104632.280000", "104632.283000", "104632.286000", "104632.290000", "104632.301000", "104632.304000", "104632.308000", "104632.311000", "104632.314000", "104632.318000", "104632.321000", "104632.324000", "104632.328000", "104632.331000", "104632.334000", "104632.338000", "104632.341000", "104632.345000", "104632.348000", "104632.351000", "104632.355000", "104632.358000", "104709.808000", "104709.812000", "104709.816000", "104709.819000", "104709.823000", "104709.826000", "104709.830000", "104709.834000", "104709.837000", "104709.840000", "104709.844000", "104709.847000", "104709.851000", "104709.854000", "104709.857000", "104709.861000", "104709.864000", "104709.868000", "104709.871000", "104709.874000", "104709.878000", "104709.881000", "104709.884000", "104709.888000", "104709.891000", "104709.895000"],
      "InstanceNumber": [1, 2, 3, 4, 5, 6, 7, 8, 9, 10, 11, 12, 13, 14, 15, 16, 17, 18, 19, 20, 21, 22, 23, 24, 25, 26, 27, 28, 29, 30, 31, 32, 33, 34, 35, 36, 37, 38, 39, 40, 41, 42, 43, 44, 45, 46, 47, 48, 49, 50, 51, 52, 53, 54, 55, 56, 57, 58, 59, 60, 61, 62, 63, 64, 65, 66, 67, 68, 69, 70, 71, 72, 73, 74, 75, 76, 77, 78, 79, 80, 81, 82, 83, 84, 85, 86, 87, 88, 89, 90, 91, 92, 93, 94, 95, 96, 97, 98, 99, 100, 101, 102, 103, 104, 105, 106, 107, 108, 109, 110, 111, 112, 113, 114, 115, 116, 117, 118, 119, 120, 121, 122, 123, 124, 125, 126, 127, 128, 129, 130, 131, 132, 133, 134, 135, 136, 137, 138, 139, 140, 141, 142, 143, 144, 145, 146, 147, 148, 149, 150, 151, 152, 153, 154, 155, 156, 157, 158, 159, 160, 161, 162, 163, 164, 165, 166, 167, 168, 169, 170, 171, 172, 173, 174, 175, 176, 177, 178, 179, 180, 181, 182, 183, 184, 185, 186, 187, 188, 189, 190],
      "LargestImagePixelValue": [48997, 48978, 48536, 48218, 46851, 46458, 47405, 46044, 46909, 48238, 46655, 47275, 47136, 47494, 46319, 46652, 45135, 47503, 47696, 48693, 47239, 46908, 45494, 45885, 46853, 47371, 47378, 46995, 46894, 46565, 46839, 47200, 47282, 47254, 45610, 47363, 47026, 47600, 47620, 46991, 45076, 46468, 46698, 47339, 46602, 47706, 45579, 46893, 45806, 46417, 46537, 46472, 45727, 46617, 46003, 47632, 46767, 47834, 45623, 46782, 47555, 47360, 47395, 46634, 47629, 46007, 48041, 46063, 47310, 46911, 47557, 47039, 47289, 47484, 47135, 46998, 46803, 47540, 46371, 47801, 47350, 47547, 47179, 47443, 47442, 46604, 46969, 46682, 46975, 47341, 47031, 46048, 46974, 46951, 47384, 47385, 47196, 46539, 47167, 46656, 47433, 46279, 46807, 46536, 47188, 47643, 46963, 46268, 46913, 46619, 47316, 47101, 47504, 46547, 47301, 46162, 47243, 46255, 46629, 46879, 46699, 46997, 46887, 46433, 47197, 46874, 46842, 46353, 47706, 46939, 46508, 47423, 46300, 47545, 47312, 47888, 46438, 47392, 46536, 47241, 47274, 47556, 46919, 46809, 46986, 46142, 47445, 46652, 47821, 47421, 47716, 46409, 47281, 47001, 46720, 47195, 47380, 46796, 47388, 47340, 46297, 47738, 45911, 46651, 47210, 48102, 46205, 47314, 47306, 46169, 47551, 46100, 46650, 46943, 47084, 46516, 47127, 47331, 46567, 47579, 46514, 47235, 46556, 47398, 46271, 46344, 47815, 46687, 46843, 47588],
      "WindowCenter": [11111.0, 11110.0, 11109.0, 11088.0, 11068.0, 11087.0, 11111.0, 11080.0, 11062.0, 11062.0, 11000.0, 10988.0, 11012.0, 11076.0, 11077.0, 11094.0, 11095.0, 11113.0, 11083.0, 11059.0, 11031.0, 11086.0, 11099.0, 11127.0, 11133.0, 11088.0, 11058.0, 11020.0, 11042.0, 11046.0, 11039.0, 11033.0, 11033.0, 11043.0, 11035.0, 11051.0, 11063.0, 11070.0, 11051.0, 11039.0, 11020.0, 11061.0, 11123.0, 11122.0, 11074.0, 11069.0, 11023.0, 11035.0, 11008.0, 11002.0, 11002.0, 11014.0, 11016.0, 11038.0, 11027.0, 11049.0, 11038.0, 11043.0, 11029.0, 11040.0, 11061.0, 11052.0, 11041.0, 11026.0, 11046.0, 11033.0, 11055.0, 11027.0, 11034.0, 11033.0, 11040.0, 11035.0, 11033.0, 11041.0, 11034.0, 11037.0, 11021.0, 11030.0, 11019.0, 11050.0, 11048.0, 11054.0, 11043.0, 11043.0, 11029.0, 11027.0, 11056.0, 11052.0, 11038.0, 11015.0, 11015.0, 11023.0, 11080.0, 11102.0, 11057.0, 11038.0, 11028.0, 10988.0, 10997.0, 11024.0, 11053.0, 11033.0, 11064.0, 11070.0, 11064.0, 11043.0, 11026.0, 11004.0, 11016.0, 11028.0, 11051.0, 11016.0, 11017.0, 10993.0, 11004.0, 11004.0, 11066.0, 11055.0, 11023.0, 11001.0, 11003.0, 11008.0, 11000.0, 10984.0, 11005.0, 11033.0, 11054.0, 11034.0, 11033.0, 11025.0, 11014.0, 11042.0, 11024.0, 11030.0, 11008.0, 11010.0, 10986.0, 11013.0, 11013.0, 11025.0, 11034.0, 11044.0, 11047.0, 11040.0, 11054.0, 11030.0, 11048.0, 11032.0, 11036.0, 11034.0, 11042.0, 11027.0, 11044.0, 11040.0, 11032.0, 11023.0, 11017.0, 11010.0, 11014.0, 11024.0, 11015.0, 11032.0, 11011.0, 11031.0, 11045.0, 11050.0, 11008.0, 11023.0, 11037.0, 11014.0, 11018.0, 10983.0, 11014.0, 11057.0, 11060.0, 11046.0, 11027.0, 11015.0, 10972.0, 10979.0, 10987.0, 11015.0, 11050.0, 11050.0, 11006.0, 10976.0, 11013.0, 11015.0, 11023.0, 11071.0],
      "WindowWidth": [23952.0, 23917.0, 23888.0, 23832.0, 23785.0, 23822.0, 23870.0, 23805.0, 23755.0, 23753.0, 23618.0, 23582.0, 23637.0, 23785.0, 23791.0, 23830.0, 23846.0, 23874.0, 23803.0, 23746.0, 23681.0, 23807.0, 23844.0, 23907.0, 23919.0, 23817.0, 23743.0, 23657.0, 23706.0, 23717.0, 23700.0, 23685.0, 23683.0, 23707.0, 23697.0, 23726.0, 23757.0, 23775.0, 23728.0, 23704.0, 23662.0, 23754.0, 23896.0, 23895.0, 23786.0, 23767.0, 23672.0, 23689.0, 23633.0, 23616.0, 23614.0, 23645.0, 23649.0, 23697.0, 23680.0, 23721.0, 23699.0, 23708.0, 23684.0, 23704.0, 23748.0, 23731.0, 23702.0, 23670.0, 23712.0, 23689.0, 23733.0, 23678.0, 23686.0, 23686.0, 23699.0, 23691.0, 23687.0, 23706.0, 23687.0, 23693.0, 23661.0, 23675.0, 23655.0, 23721.0, 23721.0, 23732.0, 23708.0, 23702.0, 23674.0, 23669.0, 23735.0, 23728.0, 23694.0, 23639.0, 23638.0, 23663.0, 23790.0, 23841.0, 23740.0, 23694.0, 23672.0, 23583.0, 23599.0, 23661.0, 23732.0, 23687.0, 23755.0, 23772.0, 23752.0, 23705.0, 23665.0, 23616.0, 23641.0, 23671.0, 23721.0, 23645.0, 23646.0, 23592.0, 23613.0, 23619.0, 23758.0, 23742.0, 23666.0, 23611.0, 23617.0, 23628.0, 23611.0, 23576.0, 23618.0, 23684.0, 23736.0, 23689.0, 23681.0, 23665.0, 23639.0, 23700.0, 23665.0, 23673.0, 23623.0, 23623.0, 23579.0, 23633.0, 23639.0, 23663.0, 23682.0, 23708.0, 23714.0, 23698.0, 23732.0, 23681.0, 23717.0, 23684.0, 23688.0, 23685.0, 23703.0, 23673.0, 23704.0, 23703.0, 23681.0, 23661.0, 23645.0, 23629.0, 23635.0, 23657.0, 23644.0, 23675.0, 23639.0, 23677.0, 23707.0, 23716.0, 23629.0, 23657.0, 23688.0, 23641.0, 23643.0, 23570.0, 23635.0, 23734.0, 23742.0, 23713.0, 23666.0, 23636.0, 23542.0, 23551.0, 23574.0, 23634.0, 23717.0, 23717.0, 23624.0, 23552.0, 23627.0, 23640.0, 23660.0, 23766.0]
    },
    "slices": {}
  }
}