{
  "AcquisitionMatrixPE": 104,
  "AcquisitionNumber": 1,
  "AcquisitionTime": "10:48:26.142500",
  "BandwidthPerPixelPhaseEncode": 17.17,
  "BaseResolution": 104,
  "BodyPartExamined": "BRAIN",
  "CoilString": "HC1-7;NC1_2",
  "ConsistencyInfo": "N4_VE11C_LATEST_20160120",
  "ConversionSoftware": "dcm2niix",
  "ConversionSoftwareVersion": "v1.0.20190902",
  "DerivedVendorReportedEchoSpacing": 0.000560011,
  "DeviceSerialNumber": "167006",
  "DwellTime": 2.1e-06,
  "EchoTime": 0.037,
  "EchoTrainLength": 104,
  "EffectiveEchoSpacing": 0.000560011,
  "FlipAngle": 52,
  "ImageComments": "Unaliased_MB4_PE3_LB",
  "ImageOrientationPatientDICOM": [0.999647, 0.0116653, 0.0238493, 0.00157024, 0.87075, -0.491724],
  "ImageType": [
    "ORIGINAL",
    "PRIMARY",
    "P",
    "MB",
    "ND",
    "MOSAIC"
],
  "ImagingFrequency": 123.259,
  "InPlanePhaseEncodingDirectionDICOM": "COL",
  "InstitutionAddress": "Chemin_Queen-Mary_4565_Montreal_District_CA_H3W_1W5",
  "InstitutionName": "IUGM",
  "InstitutionalDepartmentName": "Department",
  "MRAcquisitionType": "2D",
  "MagneticFieldStrength": 3,
  "Manufacturer": "Siemens",
  "ManufacturersModelName": "Prisma_fit",
  "Modality": "MR",
  "MultibandAccelerationFactor": 4,
  "PartialFourier": 1,
  "PatientPosition": "HFS",
  "PercentPhaseFOV": 100,
  "PhaseEncodingDirection": "j",
  "PhaseEncodingSteps": 104,
  "PhaseResolution": 1,
  "PixelBandwidth": 2290,
  "ProcedureStepDescription": "memory_things",
  "ProtocolName": "func_task-things_run-2",
  "PulseSequenceDetails": "%CustomerSeq%_cmrr_mbep2d_bold",
  "ReceiveCoilActiveElements": "HC1-7;NC1,2",
  "ReceiveCoilName": "HeadNeck_64",
  "ReconMatrixPE": 104,
  "RepetitionTime": 1.49,
  "SAR": 0.0475121,
  "ScanOptions": "FS",
  "ScanningSequence": "EP",
  "SequenceName": "epfid2d1_104",
  "SequenceVariant": "SK_SS",
  "SeriesDescription": "func_task-things_run-2",
  "SeriesNumber": 14,
  "ShimSetting": [618, -7189, -8854, 313, -6, -137, -26, 7],
  "SliceThickness": 2,
  "SliceTiming": [0, 0.7825, 0.0975, 0.88, 0.195, 0.9775, 0.2925, 1.0775, 0.39, 1.175, 0.4875, 1.2725, 0.5875, 1.37, 0.685, 0, 0.7825, 0.0975, 0.88, 0.195, 0.9775, 0.2925, 1.0775, 0.39, 1.175, 0.4875, 1.2725, 0.5875, 1.37, 0.685, 0, 0.7825, 0.0975, 0.88, 0.195, 0.9775, 0.2925, 1.0775, 0.39, 1.175, 0.4875, 1.2725, 0.5875, 1.37, 0.685, 0, 0.7825, 0.0975, 0.88, 0.195, 0.9775, 0.2925, 1.0775, 0.39, 1.175, 0.4875, 1.2725, 0.5875, 1.37, 0.685],
  "SoftwareVersions": "syngo_MR_E11",
  "SpacingBetweenSlices": 2,
  "StationName": "MRC35049",
  "TaskName": "things",
  "TotalReadoutTime": 0.0576811,
  "TxRefAmp": 264.876,
  "WipMemBlock": "31f232b7-ff83-4248-89c4-444036385974||Sequence: R016 ve11c/master r/e634e98; Dec 19 2017 11:00:25 by eja",
  "dcmmeta_affine": [
    [-1.9992949962615967, 0.0031404842156916857, 0.053005754947662354, 105.60369110107422],
    [-0.02333063632249832, 1.741499662399292, -0.9831758141517639, -51.777801513671875],
    [0.047698576003313065, 0.9834475517272949, 1.7408491373062134, -87.2465591430664],
    [0.0, 0.0, 0.0, 1.0]
],
  "dcmmeta_reorient_transform": [
    [0.0, -1.0, 0.0, 103.0],
    [1.0, 0.0, 0.0, 0.0],
    [0.0, 0.0, 1.0, 0.0],
    [0.0, 0.0, 0.0, 1.0]
],
  "dcmmeta_shape": [104, 104, 60, 190],
  "dcmmeta_slice_dim": 2,
  "dcmmeta_version": 0.6,
  "global": {
    "const": {
      "AcquisitionMatrix": [104, 0, 0, 104],
      "AngioFlag": "N",
      "BitsAllocated": 16,
      "BitsStored": 16,
      "BodyPartExamined": "BRAIN",
      "Columns": 832,
      "EchoNumbers": 1,
      "EchoTime": 37.0,
      "EchoTrainLength": 104,
      "FlipAngle": 52.0,
      "HighBit": 15,
      "ImageOrientationPatient": [0.99964750379055, 0.01166531773379, 0.02384928777736, 0.00157024210444, 0.87074982462712, -0.4917237814582],
      "ImagePositionPatient": [-834.8136836934, -769.99488748847, 354.66117377421],
      "ImageType": [
        "ORIGINAL",
        "PRIMARY",
        "P",
        "MB",
        "ND",
        "MOSAIC"
],
      "ImagedNucleus": "1H",
      "ImagingFrequency": 123.258945,
      "InPlanePhaseEncodingDirection": "COL",
      "LargestImagePixelValue": 4095,
      "MRAcquisitionType": "2D",
      "MagneticFieldStrength": 3.0,
      "Manufacturer": "SIEMENS",
      "ManufacturerModelName": "Prisma_fit",
      "Modality": "MR",
      "NumberOfAverages": 1.0,
      "NumberOfPhaseEncodingSteps": 104,
      "PercentPhaseFieldOfView": 100.0,
      "PercentSampling": 100.0,
      "PerformedProcedureStepStartTime": "103056.055000",
      "PhotometricInterpretation": "MONOCHROME2",
      "PixelBandwidth": 2290.0,
      "PixelRepresentation": 0,
      "PixelSpacing": [2.0, 2.0],
      "ProtocolName": "func_task-things_run-2",
      "RepetitionTime": 1490.0,
      "RescaleIntercept": -4096.0,
      "RescaleSlope": 2.0,
      "RescaleType": "US",
      "Rows": 832,
      "SAR": 0.0475121193463,
      "SamplesPerPixel": 1,
      "ScanOptions": "FS",
      "ScanningSequence": "EP",
      "SequenceName": "epfid2d1_104",
      "SequenceVariant": [
        "SK",
        "SS"
],
      "SeriesDescription": "func_task-things_run-2",
      "SeriesNumber": 14,
      "SeriesTime": "104955.774000",
      "SliceLocation": -47.689404888135,
      "SliceThickness": 2.0,
      "SmallestImagePixelValue": 0,
      "SoftwareVersions": "syngo MR E11",
      "SpacingBetweenSlices": 1.999999980732,
      "SpecificCharacterSet": "ISO_IR 100",
      "StudyID": "1",
      "StudyTime": "103055.988000",
      "TransmitCoilName": "Body",
      "VariableFlipAngleFlag": "N",
      "WindowCenterWidthExplanation": "Algo1",
      "dBdt": 0.0},
    "slices": {}
  },
  "time": {
    "samples": {
      "AcquisitionNumber": [1, 2, 3, 4, 5, 6, 7, 8, 9, 10, 11, 12, 13, 14, 15, 16, 17, 18, 19, 20, 21, 22, 23, 24, 25, 26, 27, 28, 29, 30, 31, 32, 33, 34, 35, 36, 37, 38, 39, 40, 41, 42, 43, 44, 45, 46, 47, 48, 49, 50, 51, 52, 53, 54, 55, 56, 57, 58, 59, 60, 61, 62, 63, 64, 65, 66, 67, 68, 69, 70, 71, 72, 73, 74, 75, 76, 77, 78, 79, 80, 81, 82, 83, 84, 85, 86, 87, 88, 89, 90, 91, 92, 93, 94, 95, 96, 97, 98, 99, 100, 101, 102, 103, 104, 105, 106, 107, 108, 109, 110, 111, 112, 113, 114, 115, 116, 117, 118, 119, 120, 121, 122, 123, 124, 125, 126, 127, 128, 129, 130, 131, 132, 133, 134, 135, 136, 137, 138, 139, 140, 141, 142, 143, 144, 145, 146, 147, 148, 149, 150, 151, 152, 153, 154, 155, 156, 157, 158, 159, 160, 161, 162, 163, 164, 165, 166, 167, 168, 169, 170, 171, 172, 173, 174, 175, 176, 177, 178, 179, 180, 181, 182, 183, 184, 185, 186, 187, 188, 189, 190],
      "AcquisitionTime": ["104826.142500", "104827.632500", "104829.122500", "104830.612500", "104832.102500", "104833.592500", "104835.082500", "104836.572500", "104838.062500", "104839.552500", "104841.042500", "104842.532500", "104844.022500", "104845.512500", "104847.002500", "104848.492500", "104849.982500", "104851.472500", "104852.962500", "104854.452500", "104855.942500", "104857.432500", "104858.922500", "104900.412500", "104901.902500", "104903.392500", "104904.882500", "104906.372500", "104907.862500", "104909.352500", "104910.842500", "104912.332500", "104913.822500", "104915.312500", "104916.802500", "104918.292500", "104919.782500", "104921.272500", "104922.762500", "104924.252500", "104925.742500", "104927.232500", "104928.722500", "104930.212500", "104931.702500", "104933.192500", "104934.682500", "104936.172500", "104937.662500", "104939.152500", "104940.642500", "104942.132500", "104943.622500", "104945.112500", "104946.602500", "104948.092500", "104949.582500", "104951.072500", "104952.562500", "104954.052500", "104955.542500", "104957.032500", "104958.522500", "105000.012500", "105001.502500", "105002.992500", "105004.482500", "105005.972500", "105007.462500", "105008.952500", "105010.442500", "105011.932500", "105013.422500", "105014.912500", "105016.402500", "105017.892500", "105019.382500", "105020.872500", "105022.362500", "105023.852500", "105025.342500", "105026.832500", "105028.322500", "105029.812500", "105031.302500", "105032.792500", "105034.282500", "105035.772500", "105037.262500", "105038.752500", "105040.242500", "105041.732500", "105043.222500", "105044.712500", "105046.202500", "105047.692500", "105049.182500", "105050.672500", "105052.162500", "105053.652500", "105055.142500", "105056.632500", "105058.122500", "105059.612500", "105101.102500", "105102.592500", "105104.082500", "105105.572500", "105107.062500", "105108.552500", "105110.042500", "105111.532500", "105113.022500", "105114.512500", "105116.002500", "105117.492500", "105118.982500", "105120.472500", "105121.962500", "105123.452500", "105124.942500", "105126.432500", "105127.922500", "105129.412500", "105130.902500", "105132.392500", "105133.882500", "105135.372500", "105136.862500", "105138.352500", "105139.842500", "105141.332500", "105142.822500", "105144.312500", "105145.802500", "105147.292500", "105148.782500", "105150.272500", "105151.762500", "105153.252500", "105154.742500", "105156.232500", "105157.722500", "105159.212500", "105200.702500", "105202.192500", "105203.682500", "105205.172500", "105206.662500", "105208.152500", "105209.642500", "105211.132500", "105212.622500", "105214.112500", "105215.602500", "105217.092500", "105218.582500", "105220.072500", "105221.562500", "105223.052500", "105224.542500", "105226.032500", "105227.522500", "105229.012500", "105230.502500", "105231.992500", "105233.482500", "105234.972500", "105236.462500", "105237.952500", "105239.442500", "105240.932500", "105242.422500", "105243.912500", "105245.402500", "105246.892500", "105248.382500", "105249.872500", "105251.362500", "105252.852500", "105254.342500", "105255.832500", "105257.322500", "105258.812500", "105300.302500", "105301.792500", "105303.282500", "105304.772500", "105306.262500", "105307.752500"],
      "ContentTime": ["104955.776000", "104955.779000", "104955.782000", "104955.784000", "104955.787000", "104955.789000", "104955.792000", "104955.794000", "104955.797000", "104955.799000", "104955.802000", "104955.804000", "104955.807000", "104955.809000", "104955.812000", "104955.814000", "104955.817000", "104955.819000", "104955.822000", "104955.824000", "104955.827000", "104955.829000", "104955.832000", "104955.834000", "104955.837000", "104955.839000", "104955.842000", "104955.844000", "104955.847000", "104955.849000", "104955.852000", "104955.854000", "104955.862000", "104955.865000", "104955.867000", "104955.870000", "105015.694000", "105015.696000", "105015.705000", "105015.707000", "105015.710000", "105015.712000", "105015.715000", "105015.718000", "105015.720000", "105015.722000", "105015.725000", "105015.727000", "105015.730000", "105015.732000", "105015.735000", "105015.737000", "105015.740000", "105015.742000", "105015.745000", "105015.747000", "105035.687000", "105035.689000", "105035.692000", "105035.694000", "105035.697000", "105035.699000", "105035.702000", "105035.704000", "105035.707000", "105035.709000", "105035.712000", "105035.714000", "105035.717000", "105035.720000", "105035.722000", "105035.725000", "105035.727000", "105035.730000", "105035.732000", "105035.735000", "105055.686000", "105055.688000", "105055.691000", "105055.694000", "105055.696000", "105055.699000", "105055.701000", "105055.703000", "105055.706000", "105055.708000", "105055.711000", "105055.714000", "105055.716000", "105055.719000", "105055.721000", "105055.724000", "105055.726000", "105055.729000", "105055.731000", "105055.734000", "105135.729000", "105135.731000", "105135.734000", "105135.737000", "105135.739000", "105135.742000", "105135.744000", "105135.747000", "105135.749000", "105135.752000", "105135.754000", "105135.757000", "105135.759000", "105135.762000", "105135.764000", "105135.767000", "105135.800000", "105135.802000", "105135.827000", "105135.830000", "105135.832000", "105135.835000", "105135.837000", "105135.840000", "105135.842000", "105135.845000", "105135.847000", "105135.850000", "105135.852000", "105135.855000", "105215.707000", "105215.710000", "105215.713000", "105215.715000", "105215.718000", "105215.720000", "105215.723000", "105215.725000", "105215.728000", "105215.730000", "105215.733000", "105215.735000", "105215.738000", "105215.740000", "105215.743000", "105215.746000", "105215.748000", "105215.751000", "105215.753000", "105215.756000", "105215.758000", "105215.761000", "105215.763000", "105215.766000", "105215.806000", "105215.809000", "105215.811000", "105255.715000", "105255.718000", "105255.720000", "105255.723000", "105255.725000", "105255.728000", "105255.730000", "105255.733000", "105255.735000", "105255.738000", "105255.740000", "105255.743000", "105255.745000", "105255.748000", "105255.750000", "105255.753000", "105255.756000", "105255.758000", "105255.761000", "105255.763000", "105255.766000", "105255.812000", "105255.815000", "105255.817000", "105255.820000", "105255.822000", "105255.825000", "105310.432000", "105310.435000", "105310.437000", "105310.440000", "105310.442000", "105310.445000", "105310.447000", "105310.450000", "105310.453000", "105310.455000"],
      "InstanceCreationTime": ["104955.776000", "104955.779000", "104955.782000", "104955.784000", "104955.787000", "104955.789000", "104955.792000", "104955.794000", "104955.797000", "104955.799000", "104955.802000", "104955.804000", "104955.807000", "104955.809000", "104955.812000", "104955.814000", "104955.817000", "104955.819000", "104955.822000", "104955.824000", "104955.827000", "104955.829000", "104955.832000", "104955.834000", "104955.837000", "104955.839000", "104955.842000", "104955.844000", "104955.847000", "104955.849000", "104955.852000", "104955.854000", "104955.862000", "104955.865000", "104955.867000", "104955.870000", "105015.694000", "105015.696000", "105015.705000", "105015.707000", "105015.710000", "105015.712000", "105015.715000", "105015.718000", "105015.720000", "105015.722000", "105015.725000", "105015.727000", "105015.730000", "105015.732000", "105015.735000", "105015.737000", "105015.740000", "105015.742000", "105015.745000", "105015.747000", "105035.687000", "105035.689000", "105035.692000", "105035.694000", "105035.697000", "105035.699000", "105035.702000", "105035.704000", "105035.707000", "105035.709000", "105035.712000", "105035.714000", "105035.717000", "105035.720000", "105035.722000", "105035.725000", "105035.727000", "105035.730000", "105035.732000", "105035.735000", "105055.686000", "105055.688000", "105055.691000", "105055.694000", "105055.696000", "105055.699000", "105055.701000", "105055.703000", "105055.706000", "105055.708000", "105055.711000", "105055.714000", "105055.716000", "105055.719000", "105055.721000", "105055.724000", "105055.726000", "105055.729000", "105055.731000", "105055.734000", "105135.729000", "105135.731000", "105135.734000", "105135.737000", "105135.739000", "105135.742000", "105135.744000", "105135.747000", "105135.749000", "105135.752000", "105135.754000", "105135.757000", "105135.759000", "105135.762000", "105135.764000", "105135.767000", "105135.800000", "105135.802000", "105135.827000", "105135.830000", "105135.832000", "105135.835000", "105135.837000", "105135.840000", "105135.842000", "105135.845000", "105135.847000", "105135.850000", "105135.852000", "105135.855000", "105215.707000", "105215.710000", "105215.713000", "105215.715000", "105215.718000", "105215.720000", "105215.723000", "105215.725000", "105215.728000", "105215.730000", "105215.733000", "105215.735000", "105215.738000", "105215.740000", "105215.743000", "105215.746000", "105215.748000", "105215.751000", "105215.753000", "105215.756000", "105215.758000", "105215.761000", "105215.763000", "105215.766000", "105215.806000", "105215.809000", "105215.811000", "105255.715000", "105255.718000", "105255.720000", "105255.723000", "105255.725000", "105255.728000", "105255.730000", "105255.733000", "105255.735000", "105255.738000", "105255.740000", "105255.743000", "105255.745000", "105255.748000", "105255.750000", "105255.753000", "105255.756000", "105255.758000", "105255.761000", "105255.763000", "105255.766000", "105255.812000", "105255.815000", "105255.817000", "105255.820000", "105255.822000", "105255.825000", "105310.432000", "105310.435000", "105310.437000", "105310.440000", "105310.442000", "105310.445000", "105310.447000", "105310.450000", "105310.453000", "105310.455000"],
      "InstanceNumber": [1, 2, 3, 4, 5, 6, 7, 8, 9, 10, 11, 12, 13, 14, 15, 16, 17, 18, 19, 20, 21, 22, 23, 24, 25, 26, 27, 28, 29, 30, 31, 32, 33, 34, 35, 36, 37, 38, 39, 40, 41, 42, 43, 44, 45, 46, 47, 48, 49, 50, 51, 52, 53, 54, 55, 56, 57, 58, 59, 60, 61, 62, 63, 64, 65, 66, 67, 68, 69, 70, 71, 72, 73, 74, 75, 76, 77, 78, 79, 80, 81, 82, 83, 84, 85, 86, 87, 88, 89, 90, 91, 92, 93, 94, 95, 96, 97, 98, 99, 100, 101, 102, 103, 104, 105, 106, 107, 108, 109, 110, 111, 112, 113, 114, 115, 116, 117, 118, 119, 120, 121, 122, 123, 124, 125, 126, 127, 128, 129, 130, 131, 132, 133, 134, 135, 136, 137, 138, 139, 140, 141, 142, 143, 144, 145, 146, 147, 148, 149, 150, 151, 152, 153, 154, 155, 156, 157, 158, 159, 160, 161, 162, 163, 164, 165, 166, 167, 168, 169, 170, 171, 172, 173, 174, 175, 176, 177, 178, 179, 180, 181, 182, 183, 184, 185, 186, 187, 188, 189, 190],
      "WindowCenter": [4726.0, 4742.0, 4748.0, 4720.0, 4756.0, 4756.0, 4750.0, 4758.0, 4750.0, 4758.0, 4754.0, 4726.0, 4738.0, 4728.0, 4734.0, 4750.0, 4758.0, 4764.0, 4760.0, 4764.0, 4756.0, 4746.0, 4724.0, 4736.0, 4738.0, 4740.0, 4744.0, 4748.0, 4756.0, 4752.0, 4760.0, 4752.0, 4752.0, 4718.0, 4742.0, 4738.0, 4746.0, 4748.0, 4728.0, 4750.0, 4754.0, 4756.0, 4728.0, 4754.0, 4748.0, 4750.0, 4742.0, 4752.0, 4724.0, 4750.0, 4748.0, 4748.0, 4754.0, 4744.0, 4754.0, 4750.0, 4752.0, 4752.0, 4756.0, 4760.0, 4748.0, 4738.0, 4736.0, 4740.0, 4742.0, 4754.0, 4752.0, 4762.0, 4762.0, 4756.0, 4754.0, 4724.0, 4750.0, 4722.0, 4712.0, 4748.0, 4742.0, 4754.0, 4752.0, 4756.0, 4758.0, 4752.0, 4760.0, 4728.0, 4720.0, 4756.0, 4746.0, 4718.0, 4730.0, 4746.0, 4744.0, 4732.0, 4724.0, 4758.0, 4750.0, 4726.0, 4748.0, 4724.0, 4756.0, 4722.0, 4754.0, 4752.0, 4752.0, 4728.0, 4722.0, 4750.0, 4716.0, 4744.0, 4722.0, 4758.0, 4752.0, 4760.0, 4728.0, 4756.0, 4746.0, 4756.0, 4722.0, 4746.0, 4750.0, 4746.0, 4718.0, 4728.0, 4748.0, 4756.0, 4750.0, 4754.0, 4724.0, 4754.0, 4722.0, 4750.0, 4754.0, 4754.0, 4726.0, 4752.0, 4756.0, 4746.0, 4748.0, 4748.0, 4742.0, 4750.0, 4748.0, 4756.0, 4770.0, 4760.0, 4748.0, 4722.0, 4742.0, 4742.0, 4744.0, 4742.0, 4748.0, 4754.0, 4760.0, 4758.0, 4758.0, 4754.0, 4744.0, 4752.0, 4748.0, 4750.0, 4752.0, 4746.0, 4762.0, 4754.0, 4756.0, 4740.0, 4720.0, 4744.0, 4746.0, 4750.0, 4750.0, 4746.0, 4752.0, 4754.0, 4726.0, 4748.0, 4752.0, 4746.0, 4752.0, 4728.0, 4758.0, 4756.0, 4742.0, 4750.0, 4746.0, 4738.0, 4752.0, 4722.0, 4730.0, 4756.0],
      "WindowWidth": [18510.0, 18538.0, 18542.0, 18506.0, 18536.0, 18536.0, 18540.0, 18532.0, 18538.0, 18538.0, 18536.0, 18506.0, 18540.0, 18536.0, 18544.0, 18538.0, 18534.0, 18532.0, 18534.0, 18524.0, 18536.0, 18536.0, 18504.0, 18538.0, 18534.0, 18536.0, 18532.0, 18542.0, 18526.0, 18534.0, 18528.0, 18532.0, 18528.0, 18506.0, 18534.0, 18536.0, 18536.0, 18536.0, 18504.0, 18542.0, 18534.0, 18540.0, 18502.0, 18536.0, 18540.0, 18534.0, 18532.0, 18538.0, 18504.0, 18532.0, 18536.0, 18534.0, 18534.0, 18534.0, 18532.0, 18536.0, 18534.0, 18536.0, 18530.0, 18524.0, 18532.0, 18532.0, 18534.0, 18536.0, 18540.0, 18532.0, 18534.0, 18536.0, 18530.0, 18534.0, 18532.0, 18506.0, 18534.0, 18502.0, 18504.0, 18540.0, 18536.0, 18534.0, 18538.0, 18534.0, 18532.0, 18532.0, 18532.0, 18502.0, 18506.0, 18526.0, 18532.0, 18508.0, 18502.0, 18536.0, 18532.0, 18502.0, 18504.0, 18538.0, 18536.0, 18504.0, 18534.0, 18504.0, 18534.0, 18506.0, 18540.0, 18532.0, 18538.0, 18504.0, 18504.0, 18534.0, 18500.0, 18538.0, 18508.0, 18534.0, 18540.0, 18536.0, 18504.0, 18530.0, 18540.0, 18536.0, 18502.0, 18536.0, 18532.0, 18536.0, 18504.0, 18504.0, 18536.0, 18532.0, 18530.0, 18536.0, 18504.0, 18540.0, 18506.0, 18534.0, 18534.0, 18532.0, 18506.0, 18532.0, 18532.0, 18538.0, 18536.0, 18536.0, 18538.0, 18534.0, 18536.0, 18538.0, 18524.0, 18530.0, 18542.0, 18502.0, 18536.0, 18536.0, 18538.0, 18536.0, 18540.0, 18540.0, 18526.0, 18530.0, 18536.0, 18538.0, 18536.0, 18538.0, 18534.0, 18536.0, 18528.0, 18540.0, 18532.0, 18528.0, 18536.0, 18534.0, 18506.0, 18534.0, 18530.0, 18528.0, 18532.0, 18534.0, 18536.0, 18530.0, 18506.0, 18534.0, 18532.0, 18536.0, 18532.0, 18504.0, 18536.0, 18526.0, 18534.0, 18532.0, 18534.0, 18536.0, 18538.0, 18506.0, 18508.0, 18538.0]
    },
    "slices": {}
  }
}