{
  "AcquisitionMatrixPE": 104,
  "AcquisitionNumber": 1,
  "AcquisitionTime": "11:02:44.340000",
  "BandwidthPerPixelPhaseEncode": 17.17,
  "BaseResolution": 104,
  "BodyPartExamined": "BRAIN",
  "CoilString": "HC1-7;NC1_2",
  "ConsistencyInfo": "N4_VE11C_LATEST_20160120",
  "ConversionSoftware": "dcm2niix",
  "ConversionSoftwareVersion": "v1.0.20190902",
  "DerivedVendorReportedEchoSpacing": 0.000560011,
  "DeviceSerialNumber": "167006",
  "DwellTime": 2.1e-06,
  "EchoTime": 0.037,
  "EchoTrainLength": 104,
  "EffectiveEchoSpacing": 0.000560011,
  "FlipAngle": 52,
  "ImageComments": "Unaliased_MB4_PE3_LB",
  "ImageOrientationPatientDICOM": [0.999647, 0.0116653, 0.0238493, 0.00157024, 0.87075, -0.491724],
  "ImageType": [
    "ORIGINAL",
    "PRIMARY",
    "M",
    "MB",
    "ND",
    "MOSAIC"
],
  "ImagingFrequency": 123.259,
  "InPlanePhaseEncodingDirectionDICOM": "COL",
  "InstitutionAddress": "Chemin_Queen-Mary_4565_Montreal_District_CA_H3W_1W5",
  "InstitutionName": "IUGM",
  "InstitutionalDepartmentName": "Department",
  "MRAcquisitionType": "2D",
  "MagneticFieldStrength": 3,
  "Manufacturer": "Siemens",
  "ManufacturersModelName": "Prisma_fit",
  "Modality": "MR",
  "MultibandAccelerationFactor": 4,
  "PartialFourier": 1,
  "PatientPosition": "HFS",
  "PercentPhaseFOV": 100,
  "PhaseEncodingDirection": "j",
  "PhaseEncodingSteps": 104,
  "PhaseResolution": 1,
  "PixelBandwidth": 2290,
  "ProcedureStepDescription": "memory_things",
  "ProtocolName": "func_task-things_run-4",
  "PulseSequenceDetails": "%CustomerSeq%_cmrr_mbep2d_bold",
  "ReceiveCoilActiveElements": "HC1-7;NC1,2",
  "ReceiveCoilName": "HeadNeck_64",
  "ReconMatrixPE": 104,
  "RepetitionTime": 1.49,
  "SAR": 0.0475121,
  "ScanOptions": "FS",
  "ScanningSequence": "EP",
  "SequenceName": "epfid2d1_104",
  "SequenceVariant": "SK_SS",
  "SeriesDescription": "func_task-things_run-4",
  "SeriesNumber": 19,
  "ShimSetting": [618, -7189, -8854, 313, -6, -137, -26, 7],
  "SliceThickness": 2,
  "SliceTiming": [0, 0.7825, 0.0975, 0.88, 0.195, 0.98, 0.2925, 1.0775, 0.39, 1.175, 0.49, 1.2725, 0.5875, 1.37, 0.685, 0, 0.7825, 0.0975, 0.88, 0.195, 0.98, 0.2925, 1.0775, 0.39, 1.175, 0.49, 1.2725, 0.5875, 1.37, 0.685, 0, 0.7825, 0.0975, 0.88, 0.195, 0.98, 0.2925, 1.0775, 0.39, 1.175, 0.49, 1.2725, 0.5875, 1.37, 0.685, 0, 0.7825, 0.0975, 0.88, 0.195, 0.98, 0.2925, 1.0775, 0.39, 1.175, 0.49, 1.2725, 0.5875, 1.37, 0.685],
  "SoftwareVersions": "syngo_MR_E11",
  "SpacingBetweenSlices": 2,
  "StationName": "MRC35049",
  "TaskName": "things",
  "TotalReadoutTime": 0.0576811,
  "TxRefAmp": 264.876,
  "WipMemBlock": "db135566-6375-4c96-a413-133c27f22eb3||Sequence: R016 ve11c/master r/e634e98; Dec 19 2017 11:00:25 by eja",
  "dcmmeta_affine": [
    [-1.9992949962615967, 0.0031404842156916857, 0.053005754947662354, 105.60369110107422],
    [-0.02333063632249832, 1.741499662399292, -0.9831758141517639, -51.777801513671875],
    [0.047698576003313065, 0.9834475517272949, 1.7408491373062134, -87.2465591430664],
    [0.0, 0.0, 0.0, 1.0]
],
  "dcmmeta_reorient_transform": [
    [0.0, -1.0, 0.0, 103.0],
    [1.0, 0.0, 0.0, 0.0],
    [0.0, 0.0, 1.0, 0.0],
    [0.0, 0.0, 0.0, 1.0]
],
  "dcmmeta_shape": [104, 104, 60, 190],
  "dcmmeta_slice_dim": 2,
  "dcmmeta_version": 0.6,
  "global": {
    "const": {
      "AcquisitionMatrix": [104, 0, 0, 104],
      "AngioFlag": "N",
      "BitsAllocated": 16,
      "BitsStored": 16,
      "BodyPartExamined": "BRAIN",
      "Columns": 832,
      "EchoNumbers": 1,
      "EchoTime": 37.0,
      "EchoTrainLength": 104,
      "FlipAngle": 52.0,
      "HighBit": 15,
      "ImageOrientationPatient": [0.99964750379055, 0.01166531773379, 0.02384928777736, 0.00157024210444, 0.87074982462712, -0.4917237814582],
      "ImagePositionPatient": [-834.8136836934, -769.99488748847, 354.66117377421],
      "ImageType": [
        "ORIGINAL",
        "PRIMARY",
        "M",
        "MB",
        "ND",
        "MOSAIC"
],
      "ImagedNucleus": "1H",
      "ImagingFrequency": 123.25895,
      "InPlanePhaseEncodingDirection": "COL",
      "MRAcquisitionType": "2D",
      "MagneticFieldStrength": 3.0,
      "Manufacturer": "SIEMENS",
      "ManufacturerModelName": "Prisma_fit",
      "Modality": "MR",
      "NumberOfAverages": 1.0,
      "NumberOfPhaseEncodingSteps": 104,
      "PercentPhaseFieldOfView": 100.0,
      "PercentSampling": 100.0,
      "PerformedProcedureStepStartTime": "103056.055000",
      "PhotometricInterpretation": "MONOCHROME2",
      "PixelBandwidth": 2290.0,
      "PixelRepresentation": 0,
      "PixelSpacing": [2.0, 2.0],
      "ProtocolName": "func_task-things_run-4",
      "RepetitionTime": 1490.0,
      "Rows": 832,
      "SAR": 0.0475121193463,
      "SamplesPerPixel": 1,
      "ScanOptions": "FS",
      "ScanningSequence": "EP",
      "SequenceName": "epfid2d1_104",
      "SequenceVariant": [
        "SK",
        "SS"
],
      "SeriesDescription": "func_task-things_run-4",
      "SeriesNumber": 19,
      "SeriesTime": "110352.296000",
      "SliceLocation": -47.689404888135,
      "SliceThickness": 2.0,
      "SmallestImagePixelValue": 0,
      "SoftwareVersions": "syngo MR E11",
      "SpacingBetweenSlices": 1.999999980732,
      "SpecificCharacterSet": "ISO_IR 100",
      "StudyID": "1",
      "StudyTime": "103055.988000",
      "TransmitCoilName": "Body",
      "VariableFlipAngleFlag": "N",
      "WindowCenterWidthExplanation": "Algo1",
      "dBdt": 0.0},
    "slices": {}
  },
  "time": {
    "samples": {
      "AcquisitionNumber": [1, 2, 3, 4, 5, 6, 7, 8, 9, 10, 11, 12, 13, 14, 15, 16, 17, 18, 19, 20, 21, 22, 23, 24, 25, 26, 27, 28, 29, 30, 31, 32, 33, 34, 35, 36, 37, 38, 39, 40, 41, 42, 43, 44, 45, 46, 47, 48, 49, 50, 51, 52, 53, 54, 55, 56, 57, 58, 59, 60, 61, 62, 63, 64, 65, 66, 67, 68, 69, 70, 71, 72, 73, 74, 75, 76, 77, 78, 79, 80, 81, 82, 83, 84, 85, 86, 87, 88, 89, 90, 91, 92, 93, 94, 95, 96, 97, 98, 99, 100, 101, 102, 103, 104, 105, 106, 107, 108, 109, 110, 111, 112, 113, 114, 115, 116, 117, 118, 119, 120, 121, 122, 123, 124, 125, 126, 127, 128, 129, 130, 131, 132, 133, 134, 135, 136, 137, 138, 139, 140, 141, 142, 143, 144, 145, 146, 147, 148, 149, 150, 151, 152, 153, 154, 155, 156, 157, 158, 159, 160, 161, 162, 163, 164, 165, 166, 167, 168, 169, 170, 171, 172, 173, 174, 175, 176, 177, 178, 179, 180, 181, 182, 183, 184, 185, 186, 187, 188, 189, 190],
      "AcquisitionTime": ["110244.340000", "110245.830000", "110247.320000", "110248.810000", "110250.300000", "110251.790000", "110253.280000", "110254.770000", "110256.260000", "110257.750000", "110259.240000", "110300.730000", "110302.220000", "110303.710000", "110305.200000", "110306.690000", "110308.180000", "110309.670000", "110311.160000", "110312.650000", "110314.140000", "110315.630000", "110317.120000", "110318.610000", "110320.100000", "110321.590000", "110323.080000", "110324.570000", "110326.060000", "110327.550000", "110329.040000", "110330.530000", "110332.020000", "110333.510000", "110335.000000", "110336.490000", "110337.980000", "110339.470000", "110340.960000", "110342.450000", "110343.940000", "110345.430000", "110346.920000", "110348.410000", "110349.900000", "110351.390000", "110352.880000", "110354.370000", "110355.860000", "110357.350000", "110358.840000", "110400.330000", "110401.820000", "110403.310000", "110404.800000", "110406.290000", "110407.780000", "110409.270000", "110410.760000", "110412.250000", "110413.740000", "110415.230000", "110416.720000", "110418.210000", "110419.700000", "110421.190000", "110422.680000", "110424.170000", "110425.660000", "110427.150000", "110428.640000", "110430.130000", "110431.620000", "110433.110000", "110434.600000", "110436.090000", "110437.580000", "110439.070000", "110440.560000", "110442.050000", "110443.540000", "110445.030000", "110446.520000", "110448.010000", "110449.500000", "110450.990000", "110452.480000", "110453.970000", "110455.460000", "110456.950000", "110458.440000", "110459.930000", "110501.420000", "110502.910000", "110504.400000", "110505.890000", "110507.380000", "110508.870000", "110510.360000", "110511.850000", "110513.340000", "110514.830000", "110516.320000", "110517.810000", "110519.300000", "110520.790000", "110522.280000", "110523.770000", "110525.260000", "110526.750000", "110528.240000", "110529.730000", "110531.220000", "110532.710000", "110534.200000", "110535.690000", "110537.180000", "110538.670000", "110540.160000", "110541.650000", "110543.140000", "110544.630000", "110546.120000", "110547.610000", "110549.100000", "110550.590000", "110552.080000", "110553.570000", "110555.060000", "110556.550000", "110558.040000", "110559.530000", "110601.020000", "110602.510000", "110604.000000", "110605.490000", "110606.980000", "110608.470000", "110609.960000", "110611.450000", "110612.940000", "110614.430000", "110615.920000", "110617.410000", "110618.900000", "110620.390000", "110621.880000", "110623.370000", "110624.860000", "110626.350000", "110627.840000", "110629.330000", "110630.820000", "110632.310000", "110633.800000", "110635.290000", "110636.780000", "110638.270000", "110639.760000", "110641.250000", "110642.740000", "110644.230000", "110645.720000", "110647.210000", "110648.700000", "110650.190000", "110651.680000", "110653.170000", "110654.660000", "110656.150000", "110657.640000", "110659.130000", "110700.620000", "110702.110000", "110703.600000", "110705.090000", "110706.580000", "110708.070000", "110709.560000", "110711.050000", "110712.540000", "110714.030000", "110715.520000", "110717.010000", "110718.500000", "110719.990000", "110721.480000", "110722.970000", "110724.460000", "110725.950000"],
      "ContentTime": ["110352.300000", "110352.304000", "110352.308000", "110352.311000", "110352.315000", "110352.318000", "110352.321000", "110352.325000", "110352.328000", "110352.331000", "110412.262000", "110412.266000", "110412.269000", "110412.273000", "110412.276000", "110412.279000", "110412.283000", "110412.286000", "110412.290000", "110412.293000", "110412.296000", "110412.300000", "110412.303000", "110412.306000", "110412.309000", "110412.313000", "110412.316000", "110412.320000", "110412.323000", "110412.327000", "110412.330000", "110432.262000", "110432.266000", "110432.269000", "110432.273000", "110432.276000", "110432.279000", "110432.283000", "110432.286000", "110432.289000", "110432.293000", "110432.296000", "110432.299000", "110432.303000", "110432.306000", "110432.309000", "110432.313000", "110432.316000", "110432.319000", "110432.323000", "110432.326000", "110452.262000", "110452.276000", "110452.287000", "110452.290000", "110452.294000", "110452.297000", "110452.301000", "110452.304000", "110452.307000", "110452.311000", "110452.314000", "110452.317000", "110452.320000", "110452.324000", "110452.327000", "110452.331000", "110452.334000", "110452.337000", "110452.341000", "110452.344000", "110512.262000", "110512.273000", "110512.276000", "110512.280000", "110512.283000", "110512.286000", "110512.290000", "110512.293000", "110512.297000", "110512.300000", "110512.304000", "110512.307000", "110512.310000", "110512.314000", "110512.317000", "110512.320000", "110512.324000", "110512.327000", "110512.330000", "110512.334000", "110532.262000", "110532.266000", "110532.269000", "110532.273000", "110532.276000", "110532.281000", "110532.286000", "110532.289000", "110532.293000", "110532.298000", "110532.301000", "110532.305000", "110532.308000", "110532.312000", "110532.315000", "110532.318000", "110532.322000", "110532.325000", "110532.328000", "110532.332000", "110612.262000", "110612.277000", "110612.281000", "110612.284000", "110612.287000", "110612.291000", "110612.294000", "110612.297000", "110612.301000", "110612.304000", "110612.308000", "110612.311000", "110612.314000", "110612.318000", "110612.321000", "110612.325000", "110612.328000", "110612.332000", "110612.335000", "110612.338000", "110612.342000", "110612.346000", "110612.349000", "110612.352000", "110612.356000", "110612.359000", "110612.363000", "110612.366000", "110652.262000", "110652.266000", "110652.269000", "110652.273000", "110652.276000", "110652.280000", "110652.283000", "110652.287000", "110652.290000", "110652.294000", "110652.297000", "110652.300000", "110652.304000", "110652.307000", "110652.310000", "110652.314000", "110652.317000", "110652.320000", "110652.324000", "110652.327000", "110652.330000", "110652.334000", "110652.337000", "110652.341000", "110652.344000", "110652.347000", "110652.351000", "110728.041000", "110728.045000", "110728.048000", "110728.052000", "110728.055000", "110728.059000", "110728.062000", "110728.065000", "110728.069000", "110728.072000", "110728.076000", "110728.079000", "110728.082000", "110728.086000", "110728.089000", "110728.093000", "110728.096000", "110728.100000", "110728.103000", "110728.107000", "110728.110000", "110728.113000", "110728.117000", "110728.121000"],
      "InstanceCreationTime": ["110352.300000", "110352.304000", "110352.308000", "110352.311000", "110352.315000", "110352.318000", "110352.321000", "110352.325000", "110352.328000", "110352.331000", "110412.262000", "110412.266000", "110412.269000", "110412.273000", "110412.276000", "110412.279000", "110412.283000", "110412.286000", "110412.290000", "110412.293000", "110412.296000", "110412.300000", "110412.303000", "110412.306000", "110412.309000", "110412.313000", "110412.316000", "110412.320000", "110412.323000", "110412.327000", "110412.330000", "110432.262000", "110432.266000", "110432.269000", "110432.273000", "110432.276000", "110432.279000", "110432.283000", "110432.286000", "110432.289000", "110432.293000", "110432.296000", "110432.299000", "110432.303000", "110432.306000", "110432.309000", "110432.313000", "110432.316000", "110432.319000", "110432.323000", "110432.326000", "110452.262000", "110452.276000", "110452.287000", "110452.290000", "110452.294000", "110452.297000", "110452.301000", "110452.304000", "110452.307000", "110452.311000", "110452.314000", "110452.317000", "110452.320000", "110452.324000", "110452.327000", "110452.331000", "110452.334000", "110452.337000", "110452.341000", "110452.344000", "110512.262000", "110512.273000", "110512.276000", "110512.280000", "110512.283000", "110512.286000", "110512.290000", "110512.293000", "110512.297000", "110512.300000", "110512.304000", "110512.307000", "110512.310000", "110512.314000", "110512.317000", "110512.320000", "110512.324000", "110512.327000", "110512.330000", "110512.334000", "110532.262000", "110532.266000", "110532.269000", "110532.273000", "110532.276000", "110532.281000", "110532.286000", "110532.289000", "110532.293000", "110532.298000", "110532.301000", "110532.305000", "110532.308000", "110532.312000", "110532.315000", "110532.318000", "110532.322000", "110532.325000", "110532.328000", "110532.332000", "110612.262000", "110612.277000", "110612.281000", "110612.284000", "110612.287000", "110612.291000", "110612.294000", "110612.297000", "110612.301000", "110612.304000", "110612.308000", "110612.311000", "110612.314000", "110612.318000", "110612.321000", "110612.325000", "110612.328000", "110612.332000", "110612.335000", "110612.338000", "110612.342000", "110612.346000", "110612.349000", "110612.352000", "110612.356000", "110612.359000", "110612.363000", "110612.366000", "110652.262000", "110652.266000", "110652.269000", "110652.273000", "110652.276000", "110652.280000", "110652.283000", "110652.287000", "110652.290000", "110652.294000", "110652.297000", "110652.300000", "110652.304000", "110652.307000", "110652.310000", "110652.314000", "110652.317000", "110652.320000", "110652.324000", "110652.327000", "110652.330000", "110652.334000", "110652.337000", "110652.341000", "110652.344000", "110652.347000", "110652.351000", "110728.041000", "110728.045000", "110728.048000", "110728.052000", "110728.055000", "110728.059000", "110728.062000", "110728.065000", "110728.069000", "110728.072000", "110728.076000", "110728.079000", "110728.082000", "110728.086000", "110728.089000", "110728.093000", "110728.096000", "110728.100000", "110728.103000", "110728.107000", "110728.110000", "110728.113000", "110728.117000", "110728.121000"],
      "InstanceNumber": [1, 2, 3, 4, 5, 6, 7, 8, 9, 10, 11, 12, 13, 14, 15, 16, 17, 18, 19, 20, 21, 22, 23, 24, 25, 26, 27, 28, 29, 30, 31, 32, 33, 34, 35, 36, 37, 38, 39, 40, 41, 42, 43, 44, 45, 46, 47, 48, 49, 50, 51, 52, 53, 54, 55, 56, 57, 58, 59, 60, 61, 62, 63, 64, 65, 66, 67, 68, 69, 70, 71, 72, 73, 74, 75, 76, 77, 78, 79, 80, 81, 82, 83, 84, 85, 86, 87, 88, 89, 90, 91, 92, 93, 94, 95, 96, 97, 98, 99, 100, 101, 102, 103, 104, 105, 106, 107, 108, 109, 110, 111, 112, 113, 114, 115, 116, 117, 118, 119, 120, 121, 122, 123, 124, 125, 126, 127, 128, 129, 130, 131, 132, 133, 134, 135, 136, 137, 138, 139, 140, 141, 142, 143, 144, 145, 146, 147, 148, 149, 150, 151, 152, 153, 154, 155, 156, 157, 158, 159, 160, 161, 162, 163, 164, 165, 166, 167, 168, 169, 170, 171, 172, 173, 174, 175, 176, 177, 178, 179, 180, 181, 182, 183, 184, 185, 186, 187, 188, 189, 190],
      "LargestImagePixelValue": [45521, 43404, 43638, 44437, 44127, 43893, 42543, 42494, 43037, 41627, 42316, 42764, 41635, 43093, 43112, 43731, 43971, 41719, 41711, 42976, 43007, 42845, 44943, 42792, 43549, 44017, 43095, 43330, 43158, 42132, 43744, 43213, 42807, 42223, 43101, 43090, 43038, 44858, 43426, 43136, 42727, 43043, 43409, 44179, 43307, 42500, 42018, 43911, 43307, 43026, 44170, 43481, 43391, 44193, 43105, 44163, 42632, 42277, 44027, 42654, 41978, 44307, 41956, 43589, 43871, 42951, 42247, 43367, 42375, 42504, 44001, 42196, 41270, 44315, 42845, 42293, 43196, 42697, 42051, 43329, 42842, 42403, 42648, 42356, 42468, 42901, 42260, 42027, 43618, 42561, 42540, 42572, 42531, 42552, 42259, 43901, 42588, 42619, 42710, 41683, 43647, 42795, 42698, 43468, 42567, 43586, 42643, 42008, 42233, 43022, 43262, 43101, 44361, 43378, 42722, 43692, 42751, 41965, 42553, 42910, 41925, 43743, 43019, 42143, 43936, 43335, 42318, 43479, 42305, 42469, 43302, 42040, 41812, 43002, 42325, 42378, 43527, 42043, 42522, 42175, 42166, 42300, 42486, 42892, 42335, 41904, 41990, 42561, 42930, 42460, 42671, 42981, 42552, 42419, 42716, 42250, 42508, 42846, 42670, 42538, 42665, 42752, 42480, 43378, 42972, 42724, 42933, 42658, 43039, 42589, 43002, 42859, 42545, 42396, 42538, 42249, 42291, 42362, 42414, 42548, 42472, 41964, 42574, 42351, 42325, 43268, 42633, 41499, 42037, 42365],
      "WindowCenter": [10920.0, 10838.0, 10813.0, 10839.0, 10848.0, 10862.0, 10848.0, 10829.0, 10816.0, 10807.0, 10819.0, 10832.0, 10805.0, 10792.0, 10812.0, 10864.0, 10900.0, 10864.0, 10832.0, 10796.0, 10781.0, 10807.0, 10847.0, 10834.0, 10843.0, 10817.0, 10810.0, 10808.0, 10841.0, 10810.0, 10811.0, 10818.0, 10811.0, 10817.0, 10801.0, 10813.0, 10813.0, 10816.0, 10805.0, 10814.0, 10809.0, 10822.0, 10843.0, 10831.0, 10799.0, 10779.0, 10763.0, 10792.0, 10824.0, 10845.0, 10850.0, 10829.0, 10809.0, 10811.0, 10791.0, 10799.0, 10793.0, 10789.0, 10807.0, 10795.0, 10790.0, 10808.0, 10778.0, 10802.0, 10827.0, 10829.0, 10801.0, 10794.0, 10810.0, 10826.0, 10838.0, 10807.0, 10761.0, 10773.0, 10806.0, 10833.0, 10837.0, 10817.0, 10787.0, 10763.0, 10771.0, 10794.0, 10784.0, 10776.0, 10818.0, 10828.0, 10818.0, 10768.0, 10750.0, 10786.0, 10819.0, 10830.0, 10803.0, 10766.0, 10738.0, 10777.0, 10814.0, 10826.0, 10822.0, 10811.0, 10815.0, 10794.0, 10767.0, 10739.0, 10739.0, 10788.0, 10817.0, 10828.0, 10828.0, 10804.0, 10800.0, 10811.0, 10805.0, 10802.0, 10804.0, 10804.0, 10799.0, 10799.0, 10794.0, 10799.0, 10799.0, 10811.0, 10793.0, 10776.0, 10790.0, 10806.0, 10799.0, 10780.0, 10782.0, 10823.0, 10837.0, 10821.0, 10795.0, 10746.0, 10762.0, 10814.0, 10811.0, 10799.0, 10804.0, 10807.0, 10781.0, 10779.0, 10783.0, 10782.0, 10807.0, 10784.0, 10764.0, 10763.0, 10779.0, 10792.0, 10802.0, 10790.0, 10808.0, 10813.0, 10802.0, 10797.0, 10785.0, 10764.0, 10770.0, 10773.0, 10762.0, 10778.0, 10774.0, 10775.0, 10783.0, 10792.0, 10785.0, 10794.0, 10800.0, 10784.0, 10780.0, 10771.0, 10783.0, 10796.0, 10787.0, 10743.0, 10745.0, 10792.0, 10811.0, 10830.0, 10813.0, 10777.0, 10749.0, 10789.0, 10796.0, 10806.0, 10799.0, 10766.0, 10753.0, 10749.0],
      "WindowWidth": [23514.0, 23301.0, 23220.0, 23263.0, 23277.0, 23305.0, 23282.0, 23236.0, 23202.0, 23191.0, 23213.0, 23240.0, 23192.0, 23153.0, 23191.0, 23306.0, 23392.0, 23321.0, 23250.0, 23161.0, 23125.0, 23181.0, 23264.0, 23242.0, 23261.0, 23201.0, 23186.0, 23179.0, 23254.0, 23192.0, 23185.0, 23207.0, 23191.0, 23208.0, 23170.0, 23192.0, 23197.0, 23194.0, 23172.0, 23191.0, 23183.0, 23206.0, 23255.0, 23231.0, 23160.0, 23120.0, 23091.0, 23142.0, 23215.0, 23266.0, 23272.0, 23228.0, 23182.0, 23179.0, 23140.0, 23152.0, 23147.0, 23142.0, 23173.0, 23156.0, 23149.0, 23178.0, 23118.0, 23164.0, 23220.0, 23229.0, 23172.0, 23146.0, 23185.0, 23225.0, 23244.0, 23183.0, 23084.0, 23099.0, 23173.0, 23237.0, 23248.0, 23202.0, 23141.0, 23082.0, 23096.0, 23153.0, 23132.0, 23111.0, 23205.0, 23225.0, 23207.0, 23100.0, 23049.0, 23129.0, 23206.0, 23231.0, 23174.0, 23089.0, 23026.0, 23105.0, 23195.0, 23229.0, 23218.0, 23193.0, 23193.0, 23152.0, 23093.0, 23024.0, 23023.0, 23133.0, 23204.0, 23234.0, 23236.0, 23176.0, 23160.0, 23184.0, 23163.0, 23160.0, 23169.0, 23167.0, 23156.0, 23164.0, 23152.0, 23159.0, 23165.0, 23185.0, 23147.0, 23110.0, 23135.0, 23173.0, 23164.0, 23114.0, 23119.0, 23213.0, 23242.0, 23213.0, 23155.0, 23041.0, 23074.0, 23197.0, 23189.0, 23165.0, 23173.0, 23183.0, 23126.0, 23117.0, 23125.0, 23120.0, 23177.0, 23128.0, 23082.0, 23075.0, 23109.0, 23143.0, 23168.0, 23138.0, 23177.0, 23189.0, 23166.0, 23155.0, 23127.0, 23079.0, 23092.0, 23100.0, 23075.0, 23108.0, 23105.0, 23099.0, 23122.0, 23143.0, 23130.0, 23146.0, 23163.0, 23127.0, 23113.0, 23093.0, 23120.0, 23155.0, 23134.0, 23037.0, 23038.0, 23141.0, 23186.0, 23230.0, 23189.0, 23117.0, 23047.0, 23135.0, 23154.0, 23170.0, 23165.0, 23094.0, 23060.0, 23048.0]
    },
    "slices": {}
  }
}