{
  "AcquisitionMatrixPE": 104,
  "AcquisitionNumber": 1,
  "AcquisitionTime": "11:08:51.077500",
  "BandwidthPerPixelPhaseEncode": 17.17,
  "BaseResolution": 104,
  "BodyPartExamined": "BRAIN",
  "CoilString": "HC1-7;NC1_2",
  "ConsistencyInfo": "N4_VE11C_LATEST_20160120",
  "ConversionSoftware": "dcm2niix",
  "ConversionSoftwareVersion": "v1.0.20190902",
  "DerivedVendorReportedEchoSpacing": 0.000560011,
  "DeviceSerialNumber": "167006",
  "DwellTime": 2.1e-06,
  "EchoTime": 0.037,
  "EchoTrainLength": 104,
  "EffectiveEchoSpacing": 0.000560011,
  "FlipAngle": 52,
  "ImageComments": "Unaliased_MB4_PE3_LB",
  "ImageOrientationPatientDICOM": [0.999647, 0.0116653, 0.0238493, 0.00157024, 0.87075, -0.491724],
  "ImageType": [
    "ORIGINAL",
    "PRIMARY",
    "P",
    "MB",
    "ND",
    "MOSAIC"
],
  "ImagingFrequency": 123.259,
  "InPlanePhaseEncodingDirectionDICOM": "COL",
  "InstitutionAddress": "Chemin_Queen-Mary_4565_Montreal_District_CA_H3W_1W5",
  "InstitutionName": "IUGM",
  "InstitutionalDepartmentName": "Department",
  "MRAcquisitionType": "2D",
  "MagneticFieldStrength": 3,
  "Manufacturer": "Siemens",
  "ManufacturersModelName": "Prisma_fit",
  "Modality": "MR",
  "MultibandAccelerationFactor": 4,
  "PartialFourier": 1,
  "PatientPosition": "HFS",
  "PercentPhaseFOV": 100,
  "PhaseEncodingDirection": "j",
  "PhaseEncodingSteps": 104,
  "PhaseResolution": 1,
  "PixelBandwidth": 2290,
  "ProcedureStepDescription": "memory_things",
  "ProtocolName": "func_task-things_run-5",
  "PulseSequenceDetails": "%CustomerSeq%_cmrr_mbep2d_bold",
  "ReceiveCoilActiveElements": "HC1-7;NC1,2",
  "ReceiveCoilName": "HeadNeck_64",
  "ReconMatrixPE": 104,
  "RepetitionTime": 1.49,
  "SAR": 0.0475121,
  "ScanOptions": "FS",
  "ScanningSequence": "EP",
  "SequenceName": "epfid2d1_104",
  "SequenceVariant": "SK_SS",
  "SeriesDescription": "func_task-things_run-5",
  "SeriesNumber": 23,
  "ShimSetting": [618, -7189, -8854, 313, -6, -137, -26, 7],
  "SliceThickness": 2,
  "SliceTiming": [0, 0.7825, 0.0975, 0.88, 0.195, 0.98, 0.2925, 1.0775, 0.39, 1.175, 0.49, 1.2725, 0.5875, 1.37, 0.685, 0, 0.7825, 0.0975, 0.88, 0.195, 0.98, 0.2925, 1.0775, 0.39, 1.175, 0.49, 1.2725, 0.5875, 1.37, 0.685, 0, 0.7825, 0.0975, 0.88, 0.195, 0.98, 0.2925, 1.0775, 0.39, 1.175, 0.49, 1.2725, 0.5875, 1.37, 0.685, 0, 0.7825, 0.0975, 0.88, 0.195, 0.98, 0.2925, 1.0775, 0.39, 1.175, 0.49, 1.2725, 0.5875, 1.37, 0.685],
  "SoftwareVersions": "syngo_MR_E11",
  "SpacingBetweenSlices": 2,
  "StationName": "MRC35049",
  "TaskName": "things",
  "TotalReadoutTime": 0.0576811,
  "TxRefAmp": 264.876,
  "WipMemBlock": "2f770691-5a27-426f-bbcb-5be45fc58be3||Sequence: R016 ve11c/master r/e634e98; Dec 19 2017 11:00:25 by eja",
  "dcmmeta_affine": [
    [-1.9992949962615967, 0.0031404842156916857, 0.053005754947662354, 105.60369110107422],
    [-0.02333063632249832, 1.741499662399292, -0.9831758141517639, -51.777801513671875],
    [0.047698576003313065, 0.9834475517272949, 1.7408491373062134, -87.2465591430664],
    [0.0, 0.0, 0.0, 1.0]
],
  "dcmmeta_reorient_transform": [
    [0.0, -1.0, 0.0, 103.0],
    [1.0, 0.0, 0.0, 0.0],
    [0.0, 0.0, 1.0, 0.0],
    [0.0, 0.0, 0.0, 1.0]
],
  "dcmmeta_shape": [104, 104, 60, 190],
  "dcmmeta_slice_dim": 2,
  "dcmmeta_version": 0.6,
  "global": {
    "const": {
      "AcquisitionMatrix": [104, 0, 0, 104],
      "AngioFlag": "N",
      "BitsAllocated": 16,
      "BitsStored": 16,
      "BodyPartExamined": "BRAIN",
      "Columns": 832,
      "EchoNumbers": 1,
      "EchoTime": 37.0,
      "EchoTrainLength": 104,
      "FlipAngle": 52.0,
      "HighBit": 15,
      "ImageOrientationPatient": [0.99964750379055, 0.01166531773379, 0.02384928777736, 0.00157024210444, 0.87074982462712, -0.4917237814582],
      "ImagePositionPatient": [-834.8136836934, -769.99488748847, 354.66117377421],
      "ImageType": [
        "ORIGINAL",
        "PRIMARY",
        "P",
        "MB",
        "ND",
        "MOSAIC"
],
      "ImagedNucleus": "1H",
      "ImagingFrequency": 123.25895,
      "InPlanePhaseEncodingDirection": "COL",
      "LargestImagePixelValue": 4095,
      "MRAcquisitionType": "2D",
      "MagneticFieldStrength": 3.0,
      "Manufacturer": "SIEMENS",
      "ManufacturerModelName": "Prisma_fit",
      "Modality": "MR",
      "NumberOfAverages": 1.0,
      "NumberOfPhaseEncodingSteps": 104,
      "PercentPhaseFieldOfView": 100.0,
      "PercentSampling": 100.0,
      "PerformedProcedureStepStartTime": "103056.055000",
      "PhotometricInterpretation": "MONOCHROME2",
      "PixelBandwidth": 2290.0,
      "PixelRepresentation": 0,
      "PixelSpacing": [2.0, 2.0],
      "ProtocolName": "func_task-things_run-5",
      "RepetitionTime": 1490.0,
      "RescaleIntercept": -4096.0,
      "RescaleSlope": 2.0,
      "RescaleType": "US",
      "Rows": 832,
      "SAR": 0.0475121193463,
      "SamplesPerPixel": 1,
      "ScanOptions": "FS",
      "ScanningSequence": "EP",
      "SequenceName": "epfid2d1_104",
      "SequenceVariant": [
        "SK",
        "SS"
],
      "SeriesDescription": "func_task-things_run-5",
      "SeriesNumber": 23,
      "SeriesTime": "111016.242000",
      "SliceLocation": -47.689404888135,
      "SliceThickness": 2.0,
      "SmallestImagePixelValue": 0,
      "SoftwareVersions": "syngo MR E11",
      "SpacingBetweenSlices": 1.999999980732,
      "SpecificCharacterSet": "ISO_IR 100",
      "StudyID": "1",
      "StudyTime": "103055.988000",
      "TransmitCoilName": "Body",
      "VariableFlipAngleFlag": "N",
      "WindowCenterWidthExplanation": "Algo1",
      "dBdt": 0.0},
    "slices": {}
  },
  "time": {
    "samples": {
      "AcquisitionNumber": [1, 2, 3, 4, 5, 6, 7, 8, 9, 10, 11, 12, 13, 14, 15, 16, 17, 18, 19, 20, 21, 22, 23, 24, 25, 26, 27, 28, 29, 30, 31, 32, 33, 34, 35, 36, 37, 38, 39, 40, 41, 42, 43, 44, 45, 46, 47, 48, 49, 50, 51, 52, 53, 54, 55, 56, 57, 58, 59, 60, 61, 62, 63, 64, 65, 66, 67, 68, 69, 70, 71, 72, 73, 74, 75, 76, 77, 78, 79, 80, 81, 82, 83, 84, 85, 86, 87, 88, 89, 90, 91, 92, 93, 94, 95, 96, 97, 98, 99, 100, 101, 102, 103, 104, 105, 106, 107, 108, 109, 110, 111, 112, 113, 114, 115, 116, 117, 118, 119, 120, 121, 122, 123, 124, 125, 126, 127, 128, 129, 130, 131, 132, 133, 134, 135, 136, 137, 138, 139, 140, 141, 142, 143, 144, 145, 146, 147, 148, 149, 150, 151, 152, 153, 154, 155, 156, 157, 158, 159, 160, 161, 162, 163, 164, 165, 166, 167, 168, 169, 170, 171, 172, 173, 174, 175, 176, 177, 178, 179, 180, 181, 182, 183, 184, 185, 186, 187, 188, 189, 190],
      "AcquisitionTime": ["110851.077500", "110852.567500", "110854.057500", "110855.547500", "110857.037500", "110858.527500", "110900.017500", "110901.507500", "110902.997500", "110904.487500", "110905.977500", "110907.467500", "110908.957500", "110910.447500", "110911.937500", "110913.427500", "110914.917500", "110916.407500", "110917.897500", "110919.387500", "110920.877500", "110922.367500", "110923.857500", "110925.347500", "110926.837500", "110928.327500", "110929.817500", "110931.307500", "110932.797500", "110934.287500", "110935.777500", "110937.267500", "110938.757500", "110940.247500", "110941.737500", "110943.227500", "110944.717500", "110946.207500", "110947.697500", "110949.187500", "110950.677500", "110952.167500", "110953.657500", "110955.147500", "110956.637500", "110958.127500", "110959.617500", "111001.107500", "111002.597500", "111004.087500", "111005.577500", "111007.067500", "111008.557500", "111010.047500", "111011.537500", "111013.027500", "111014.517500", "111016.007500", "111017.497500", "111018.987500", "111020.477500", "111021.967500", "111023.457500", "111024.947500", "111026.437500", "111027.927500", "111029.417500", "111030.907500", "111032.397500", "111033.887500", "111035.377500", "111036.867500", "111038.357500", "111039.847500", "111041.337500", "111042.827500", "111044.317500", "111045.807500", "111047.297500", "111048.787500", "111050.277500", "111051.767500", "111053.257500", "111054.747500", "111056.237500", "111057.727500", "111059.217500", "111100.707500", "111102.197500", "111103.687500", "111105.177500", "111106.667500", "111108.157500", "111109.647500", "111111.137500", "111112.627500", "111114.117500", "111115.607500", "111117.097500", "111118.587500", "111120.077500", "111121.567500", "111123.057500", "111124.547500", "111126.037500", "111127.527500", "111129.017500", "111130.507500", "111131.997500", "111133.487500", "111134.977500", "111136.467500", "111137.957500", "111139.447500", "111140.937500", "111142.427500", "111143.917500", "111145.407500", "111146.897500", "111148.387500", "111149.877500", "111151.367500", "111152.857500", "111154.347500", "111155.837500", "111157.327500", "111158.817500", "111200.307500", "111201.797500", "111203.287500", "111204.777500", "111206.267500", "111207.757500", "111209.247500", "111210.737500", "111212.227500", "111213.717500", "111215.207500", "111216.697500", "111218.187500", "111219.677500", "111221.167500", "111222.657500", "111224.147500", "111225.637500", "111227.127500", "111228.617500", "111230.107500", "111231.597500", "111233.087500", "111234.577500", "111236.067500", "111237.557500", "111239.047500", "111240.537500", "111242.027500", "111243.517500", "111245.007500", "111246.497500", "111247.987500", "111249.477500", "111250.967500", "111252.457500", "111253.947500", "111255.437500", "111256.927500", "111258.417500", "111259.907500", "111301.397500", "111302.887500", "111304.377500", "111305.867500", "111307.357500", "111308.847500", "111310.337500", "111311.827500", "111313.317500", "111314.807500", "111316.297500", "111317.787500", "111319.277500", "111320.767500", "111322.257500", "111323.747500", "111325.237500", "111326.727500", "111328.217500", "111329.707500", "111331.197500", "111332.687500"],
      "ContentTime": ["111016.244000", "111016.247000", "111016.249000", "111016.251000", "111016.254000", "111016.256000", "111016.259000", "111016.261000", "111016.264000", "111016.267000", "111016.269000", "111016.272000", "111016.274000", "111016.277000", "111016.279000", "111016.282000", "111016.284000", "111016.295000", "111016.298000", "111016.300000", "111016.303000", "111016.306000", "111016.308000", "111016.310000", "111016.313000", "111016.316000", "111016.318000", "111016.321000", "111016.323000", "111016.326000", "111035.687000", "111035.690000", "111035.692000", "111035.694000", "111035.697000", "111035.699000", "111035.702000", "111035.704000", "111035.707000", "111035.709000", "111035.712000", "111035.715000", "111035.717000", "111035.720000", "111035.722000", "111035.725000", "111035.727000", "111035.730000", "111035.732000", "111035.735000", "111055.703000", "111055.706000", "111055.709000", "111055.711000", "111055.714000", "111055.716000", "111055.719000", "111055.721000", "111055.724000", "111055.726000", "111055.729000", "111055.731000", "111055.734000", "111055.736000", "111055.739000", "111055.741000", "111055.744000", "111055.747000", "111055.749000", "111055.752000", "111055.754000", "111115.685000", "111115.688000", "111115.691000", "111115.693000", "111115.696000", "111115.698000", "111115.701000", "111115.703000", "111115.706000", "111115.708000", "111115.711000", "111115.713000", "111115.716000", "111115.718000", "111115.721000", "111115.723000", "111115.726000", "111115.728000", "111115.731000", "111115.733000", "111155.734000", "111155.736000", "111155.739000", "111155.741000", "111155.744000", "111155.746000", "111155.749000", "111155.751000", "111155.754000", "111155.756000", "111155.759000", "111155.761000", "111155.764000", "111155.767000", "111155.769000", "111155.772000", "111155.774000", "111155.777000", "111155.779000", "111155.782000", "111155.784000", "111155.787000", "111155.789000", "111155.792000", "111155.794000", "111155.797000", "111155.799000", "111155.802000", "111155.804000", "111155.807000", "111155.809000", "111155.812000", "111235.721000", "111235.723000", "111235.726000", "111235.729000", "111235.731000", "111235.734000", "111235.736000", "111235.739000", "111235.741000", "111235.744000", "111235.746000", "111235.749000", "111235.751000", "111235.754000", "111235.756000", "111235.759000", "111235.761000", "111235.764000", "111235.766000", "111235.769000", "111235.772000", "111235.774000", "111235.777000", "111235.780000", "111235.782000", "111235.785000", "111235.787000", "111315.705000", "111315.708000", "111315.711000", "111315.713000", "111315.716000", "111315.718000", "111315.721000", "111315.723000", "111315.726000", "111315.728000", "111315.731000", "111315.733000", "111315.736000", "111315.738000", "111315.741000", "111315.744000", "111315.746000", "111315.749000", "111315.751000", "111315.753000", "111315.756000", "111315.759000", "111315.761000", "111315.764000", "111315.766000", "111315.769000", "111315.771000", "111334.609000", "111334.611000", "111334.614000", "111334.617000", "111334.619000", "111334.622000", "111334.624000", "111334.627000", "111334.629000", "111334.632000", "111334.634000", "111334.637000", "111334.640000"],
      "InstanceCreationTime": ["111016.244000", "111016.247000", "111016.249000", "111016.251000", "111016.254000", "111016.256000", "111016.259000", "111016.261000", "111016.264000", "111016.267000", "111016.269000", "111016.272000", "111016.274000", "111016.277000", "111016.279000", "111016.282000", "111016.284000", "111016.295000", "111016.298000", "111016.300000", "111016.303000", "111016.306000", "111016.308000", "111016.310000", "111016.313000", "111016.316000", "111016.318000", "111016.321000", "111016.323000", "111016.326000", "111035.687000", "111035.690000", "111035.692000", "111035.694000", "111035.697000", "111035.699000", "111035.702000", "111035.704000", "111035.707000", "111035.709000", "111035.712000", "111035.715000", "111035.717000", "111035.720000", "111035.722000", "111035.725000", "111035.727000", "111035.730000", "111035.732000", "111035.735000", "111055.703000", "111055.706000", "111055.709000", "111055.711000", "111055.714000", "111055.716000", "111055.719000", "111055.721000", "111055.724000", "111055.726000", "111055.729000", "111055.731000", "111055.734000", "111055.736000", "111055.739000", "111055.741000", "111055.744000", "111055.747000", "111055.749000", "111055.752000", "111055.754000", "111115.685000", "111115.688000", "111115.691000", "111115.693000", "111115.696000", "111115.698000", "111115.701000", "111115.703000", "111115.706000", "111115.708000", "111115.711000", "111115.713000", "111115.716000", "111115.718000", "111115.721000", "111115.723000", "111115.726000", "111115.728000", "111115.731000", "111115.733000", "111155.734000", "111155.736000", "111155.739000", "111155.741000", "111155.744000", "111155.746000", "111155.749000", "111155.751000", "111155.754000", "111155.756000", "111155.759000", "111155.761000", "111155.764000", "111155.767000", "111155.769000", "111155.772000", "111155.774000", "111155.777000", "111155.779000", "111155.782000", "111155.784000", "111155.787000", "111155.789000", "111155.792000", "111155.794000", "111155.797000", "111155.799000", "111155.802000", "111155.804000", "111155.807000", "111155.809000", "111155.812000", "111235.721000", "111235.723000", "111235.726000", "111235.729000", "111235.731000", "111235.734000", "111235.736000", "111235.739000", "111235.741000", "111235.744000", "111235.746000", "111235.749000", "111235.751000", "111235.754000", "111235.756000", "111235.759000", "111235.761000", "111235.764000", "111235.766000", "111235.769000", "111235.772000", "111235.774000", "111235.777000", "111235.780000", "111235.782000", "111235.785000", "111235.787000", "111315.705000", "111315.708000", "111315.711000", "111315.713000", "111315.716000", "111315.718000", "111315.721000", "111315.723000", "111315.726000", "111315.728000", "111315.731000", "111315.733000", "111315.736000", "111315.738000", "111315.741000", "111315.744000", "111315.746000", "111315.749000", "111315.751000", "111315.753000", "111315.756000", "111315.759000", "111315.761000", "111315.764000", "111315.766000", "111315.769000", "111315.771000", "111334.609000", "111334.611000", "111334.614000", "111334.617000", "111334.619000", "111334.622000", "111334.624000", "111334.627000", "111334.629000", "111334.632000", "111334.634000", "111334.637000", "111334.640000"],
      "InstanceNumber": [1, 2, 3, 4, 5, 6, 7, 8, 9, 10, 11, 12, 13, 14, 15, 16, 17, 18, 19, 20, 21, 22, 23, 24, 25, 26, 27, 28, 29, 30, 31, 32, 33, 34, 35, 36, 37, 38, 39, 40, 41, 42, 43, 44, 45, 46, 47, 48, 49, 50, 51, 52, 53, 54, 55, 56, 57, 58, 59, 60, 61, 62, 63, 64, 65, 66, 67, 68, 69, 70, 71, 72, 73, 74, 75, 76, 77, 78, 79, 80, 81, 82, 83, 84, 85, 86, 87, 88, 89, 90, 91, 92, 93, 94, 95, 96, 97, 98, 99, 100, 101, 102, 103, 104, 105, 106, 107, 108, 109, 110, 111, 112, 113, 114, 115, 116, 117, 118, 119, 120, 121, 122, 123, 124, 125, 126, 127, 128, 129, 130, 131, 132, 133, 134, 135, 136, 137, 138, 139, 140, 141, 142, 143, 144, 145, 146, 147, 148, 149, 150, 151, 152, 153, 154, 155, 156, 157, 158, 159, 160, 161, 162, 163, 164, 165, 166, 167, 168, 169, 170, 171, 172, 173, 174, 175, 176, 177, 178, 179, 180, 181, 182, 183, 184, 185, 186, 187, 188, 189, 190],
      "WindowCenter": [4760.0, 4794.0, 4796.0, 4764.0, 4762.0, 4760.0, 4756.0, 4756.0, 4786.0, 4788.0, 4786.0, 4766.0, 4790.0, 4798.0, 4788.0, 4764.0, 4792.0, 4794.0, 4758.0, 4756.0, 4758.0, 4754.0, 4762.0, 4786.0, 4788.0, 4798.0, 4792.0, 4764.0, 4792.0, 4764.0, 4758.0, 4790.0, 4786.0, 4758.0, 4776.0, 4754.0, 4762.0, 4800.0, 4794.0, 4800.0, 4796.0, 4760.0, 4790.0, 4756.0, 4758.0, 4756.0, 4760.0, 4786.0, 4784.0, 4800.0, 4798.0, 4786.0, 4786.0, 4760.0, 4786.0, 4760.0, 4762.0, 4758.0, 4788.0, 4794.0, 4790.0, 4792.0, 4762.0, 4760.0, 4764.0, 4764.0, 4788.0, 4788.0, 4762.0, 4790.0, 4762.0, 4788.0, 4760.0, 4790.0, 4760.0, 4788.0, 4792.0, 4784.0, 4794.0, 4764.0, 4760.0, 4760.0, 4758.0, 4764.0, 4760.0, 4790.0, 4788.0, 4794.0, 4826.0, 4796.0, 4760.0, 4758.0, 4776.0, 4754.0, 4756.0, 4758.0, 4792.0, 4792.0, 4794.0, 4790.0, 4766.0, 4788.0, 4760.0, 4788.0, 4802.0, 4790.0, 4756.0, 4764.0, 4758.0, 4758.0, 4786.0, 4756.0, 4786.0, 4766.0, 4764.0, 4796.0, 4792.0, 4762.0, 4792.0, 4760.0, 4764.0, 4798.0, 4792.0, 4756.0, 4758.0, 4786.0, 4756.0, 4762.0, 4790.0, 4766.0, 4790.0, 4792.0, 4762.0, 4764.0, 4790.0, 4762.0, 4762.0, 4786.0, 4758.0, 4758.0, 4760.0, 4784.0, 4804.0, 4792.0, 4800.0, 4802.0, 4762.0, 4758.0, 4764.0, 4780.0, 4756.0, 4760.0, 4756.0, 4788.0, 4788.0, 4796.0, 4766.0, 4794.0, 4792.0, 4786.0, 4790.0, 4760.0, 4764.0, 4754.0, 4758.0, 4790.0, 4762.0, 4790.0, 4760.0, 4790.0, 4792.0, 4760.0, 4788.0, 4760.0, 4758.0, 4764.0, 4758.0, 4792.0, 4796.0, 4764.0, 4760.0, 4788.0, 4758.0, 4760.0, 4760.0, 4758.0, 4764.0, 4760.0, 4792.0, 4766.0],
      "WindowWidth": [18520.0, 18550.0, 18544.0, 18520.0, 18516.0, 18518.0, 18532.0, 18524.0, 18544.0, 18554.0, 18556.0, 18518.0, 18558.0, 18552.0, 18548.0, 18526.0, 18546.0, 18552.0, 18520.0, 18528.0, 18524.0, 18524.0, 18522.0, 18550.0, 18554.0, 18548.0, 18550.0, 18526.0, 18544.0, 18518.0, 18526.0, 18546.0, 18550.0, 18528.0, 18560.0, 18528.0, 18524.0, 18550.0, 18554.0, 18552.0, 18546.0, 18524.0, 18550.0, 18526.0, 18524.0, 18526.0, 18524.0, 18546.0, 18552.0, 18552.0, 18550.0, 18550.0, 18546.0, 18526.0, 18554.0, 18528.0, 18520.0, 18522.0, 18550.0, 18552.0, 18554.0, 18550.0, 18522.0, 18526.0, 18518.0, 18518.0, 18552.0, 18548.0, 18524.0, 18552.0, 18530.0, 18548.0, 18522.0, 18552.0, 18528.0, 18552.0, 18552.0, 18558.0, 18546.0, 18520.0, 18522.0, 18522.0, 18528.0, 18524.0, 18528.0, 18552.0, 18548.0, 18556.0, 18574.0, 18542.0, 18530.0, 18522.0, 18564.0, 18532.0, 18524.0, 18524.0, 18548.0, 18552.0, 18554.0, 18550.0, 18522.0, 18548.0, 18524.0, 18550.0, 18544.0, 18550.0, 18522.0, 18514.0, 18526.0, 18524.0, 18554.0, 18522.0, 18550.0, 18518.0, 18518.0, 18550.0, 18554.0, 18524.0, 18550.0, 18518.0, 18520.0, 18548.0, 18550.0, 18522.0, 18520.0, 18554.0, 18526.0, 18520.0, 18548.0, 18518.0, 18548.0, 18548.0, 18520.0, 18524.0, 18546.0, 18526.0, 18516.0, 18546.0, 18518.0, 18530.0, 18528.0, 18560.0, 18548.0, 18550.0, 18546.0, 18544.0, 18520.0, 18524.0, 18510.0, 18564.0, 18524.0, 18524.0, 18524.0, 18550.0, 18554.0, 18552.0, 18526.0, 18550.0, 18552.0, 18552.0, 18550.0, 18526.0, 18524.0, 18518.0, 18524.0, 18546.0, 18528.0, 18552.0, 18524.0, 18546.0, 18548.0, 18526.0, 18548.0, 18522.0, 18524.0, 18514.0, 18522.0, 18550.0, 18546.0, 18524.0, 18524.0, 18554.0, 18528.0, 18524.0, 18522.0, 18528.0, 18518.0, 18522.0, 18552.0, 18524.0]
    },
    "slices": {}
  }
}