{
  "AcquisitionMatrixPE": 104,
  "AcquisitionNumber": 1,
  "AcquisitionTime": "11:15:2.787500",
  "BandwidthPerPixelPhaseEncode": 17.17,
  "BaseResolution": 104,
  "BodyPartExamined": "BRAIN",
  "CoilString": "HC1-7;NC1_2",
  "ConsistencyInfo": "N4_VE11C_LATEST_20160120",
  "ConversionSoftware": "dcm2niix",
  "ConversionSoftwareVersion": "v1.0.20190902",
  "DerivedVendorReportedEchoSpacing": 0.000560011,
  "DeviceSerialNumber": "167006",
  "DwellTime": 2.1e-06,
  "EchoTime": 0.037,
  "EchoTrainLength": 104,
  "EffectiveEchoSpacing": 0.000560011,
  "FlipAngle": 52,
  "ImageComments": "Unaliased_MB4_PE3_LB",
  "ImageOrientationPatientDICOM": [0.999647, 0.0116653, 0.0238493, 0.00157024, 0.87075, -0.491724],
  "ImageType": [
    "ORIGINAL",
    "PRIMARY",
    "M",
    "MB",
    "ND",
    "MOSAIC"
],
  "ImagingFrequency": 123.259,
  "InPlanePhaseEncodingDirectionDICOM": "COL",
  "InstitutionAddress": "Chemin_Queen-Mary_4565_Montreal_District_CA_H3W_1W5",
  "InstitutionName": "IUGM",
  "InstitutionalDepartmentName": "Department",
  "MRAcquisitionType": "2D",
  "MagneticFieldStrength": 3,
  "Manufacturer": "Siemens",
  "ManufacturersModelName": "Prisma_fit",
  "Modality": "MR",
  "MultibandAccelerationFactor": 4,
  "PartialFourier": 1,
  "PatientPosition": "HFS",
  "PercentPhaseFOV": 100,
  "PhaseEncodingDirection": "j",
  "PhaseEncodingSteps": 104,
  "PhaseResolution": 1,
  "PixelBandwidth": 2290,
  "ProcedureStepDescription": "memory_things",
  "ProtocolName": "func_task-things_run-6",
  "PulseSequenceDetails": "%CustomerSeq%_cmrr_mbep2d_bold",
  "ReceiveCoilActiveElements": "HC1-7;NC1,2",
  "ReceiveCoilName": "HeadNeck_64",
  "ReconMatrixPE": 104,
  "RepetitionTime": 1.49,
  "SAR": 0.0475121,
  "ScanOptions": "FS",
  "ScanningSequence": "EP",
  "SequenceName": "epfid2d1_104",
  "SequenceVariant": "SK_SS",
  "SeriesDescription": "func_task-things_run-6",
  "SeriesNumber": 25,
  "ShimSetting": [618, -7189, -8854, 313, -6, -137, -26, 7],
  "SliceThickness": 2,
  "SliceTiming": [0, 0.785, 0.0975, 0.8825, 0.1975, 0.98, 0.295, 1.0775, 0.3925, 1.1775, 0.49, 1.275, 0.5875, 1.3725, 0.6875, 0, 0.785, 0.0975, 0.8825, 0.1975, 0.98, 0.295, 1.0775, 0.3925, 1.1775, 0.49, 1.275, 0.5875, 1.3725, 0.6875, 0, 0.785, 0.0975, 0.8825, 0.1975, 0.98, 0.295, 1.0775, 0.3925, 1.1775, 0.49, 1.275, 0.5875, 1.3725, 0.6875, 0, 0.785, 0.0975, 0.8825, 0.1975, 0.98, 0.295, 1.0775, 0.3925, 1.1775, 0.49, 1.275, 0.5875, 1.3725, 0.6875],
  "SoftwareVersions": "syngo_MR_E11",
  "SpacingBetweenSlices": 2,
  "StationName": "MRC35049",
  "TaskName": "things",
  "TotalReadoutTime": 0.0576811,
  "TxRefAmp": 264.876,
  "WipMemBlock": "5dadf46a-1b09-4e9d-9f92-4be5a96f06fc||Sequence: R016 ve11c/master r/e634e98; Dec 19 2017 11:00:25 by eja",
  "dcmmeta_affine": [
    [-1.9992949962615967, 0.0031404842156916857, 0.053005754947662354, 105.60369110107422],
    [-0.02333063632249832, 1.741499662399292, -0.9831758141517639, -51.777801513671875],
    [0.047698576003313065, 0.9834475517272949, 1.7408491373062134, -87.2465591430664],
    [0.0, 0.0, 0.0, 1.0]
],
  "dcmmeta_reorient_transform": [
    [0.0, -1.0, 0.0, 103.0],
    [1.0, 0.0, 0.0, 0.0],
    [0.0, 0.0, 1.0, 0.0],
    [0.0, 0.0, 0.0, 1.0]
],
  "dcmmeta_shape": [104, 104, 60, 190],
  "dcmmeta_slice_dim": 2,
  "dcmmeta_version": 0.6,
  "global": {
    "const": {
      "AcquisitionMatrix": [104, 0, 0, 104],
      "AngioFlag": "N",
      "BitsAllocated": 16,
      "BitsStored": 16,
      "BodyPartExamined": "BRAIN",
      "Columns": 832,
      "EchoNumbers": 1,
      "EchoTime": 37.0,
      "EchoTrainLength": 104,
      "FlipAngle": 52.0,
      "HighBit": 15,
      "ImageOrientationPatient": [0.99964750379055, 0.01166531773379, 0.02384928777736, 0.00157024210444, 0.87074982462712, -0.4917237814582],
      "ImagePositionPatient": [-834.8136836934, -769.99488748847, 354.66117377421],
      "ImageType": [
        "ORIGINAL",
        "PRIMARY",
        "M",
        "MB",
        "ND",
        "MOSAIC"
],
      "ImagedNucleus": "1H",
      "ImagingFrequency": 123.258951,
      "InPlanePhaseEncodingDirection": "COL",
      "MRAcquisitionType": "2D",
      "MagneticFieldStrength": 3.0,
      "Manufacturer": "SIEMENS",
      "ManufacturerModelName": "Prisma_fit",
      "Modality": "MR",
      "NumberOfAverages": 1.0,
      "NumberOfPhaseEncodingSteps": 104,
      "PercentPhaseFieldOfView": 100.0,
      "PercentSampling": 100.0,
      "PerformedProcedureStepStartTime": "103056.055000",
      "PhotometricInterpretation": "MONOCHROME2",
      "PixelBandwidth": 2290.0,
      "PixelRepresentation": 0,
      "PixelSpacing": [2.0, 2.0],
      "ProtocolName": "func_task-things_run-6",
      "RepetitionTime": 1490.0,
      "Rows": 832,
      "SAR": 0.0475121193463,
      "SamplesPerPixel": 1,
      "ScanOptions": "FS",
      "ScanningSequence": "EP",
      "SequenceName": "epfid2d1_104",
      "SequenceVariant": [
        "SK",
        "SS"
],
      "SeriesDescription": "func_task-things_run-6",
      "SeriesNumber": 25,
      "SeriesTime": "111626.110000",
      "SliceLocation": -47.689404888135,
      "SliceThickness": 2.0,
      "SmallestImagePixelValue": 0,
      "SoftwareVersions": "syngo MR E11",
      "SpacingBetweenSlices": 1.999999980732,
      "SpecificCharacterSet": "ISO_IR 100",
      "StudyID": "1",
      "StudyTime": "103055.988000",
      "TransmitCoilName": "Body",
      "VariableFlipAngleFlag": "N",
      "WindowCenterWidthExplanation": "Algo1",
      "dBdt": 0.0},
    "slices": {}
  },
  "time": {
    "samples": {
      "AcquisitionNumber": [1, 2, 3, 4, 5, 6, 7, 8, 9, 10, 11, 12, 13, 14, 15, 16, 17, 18, 19, 20, 21, 22, 23, 24, 25, 26, 27, 28, 29, 30, 31, 32, 33, 34, 35, 36, 37, 38, 39, 40, 41, 42, 43, 44, 45, 46, 47, 48, 49, 50, 51, 52, 53, 54, 55, 56, 57, 58, 59, 60, 61, 62, 63, 64, 65, 66, 67, 68, 69, 70, 71, 72, 73, 74, 75, 76, 77, 78, 79, 80, 81, 82, 83, 84, 85, 86, 87, 88, 89, 90, 91, 92, 93, 94, 95, 96, 97, 98, 99, 100, 101, 102, 103, 104, 105, 106, 107, 108, 109, 110, 111, 112, 113, 114, 115, 116, 117, 118, 119, 120, 121, 122, 123, 124, 125, 126, 127, 128, 129, 130, 131, 132, 133, 134, 135, 136, 137, 138, 139, 140, 141, 142, 143, 144, 145, 146, 147, 148, 149, 150, 151, 152, 153, 154, 155, 156, 157, 158, 159, 160, 161, 162, 163, 164, 165, 166, 167, 168, 169, 170, 171, 172, 173, 174, 175, 176, 177, 178, 179, 180, 181, 182, 183, 184, 185, 186, 187, 188, 189, 190],
      "AcquisitionTime": ["111502.787500", "111504.277500", "111505.767500", "111507.257500", "111508.747500", "111510.237500", "111511.727500", "111513.217500", "111514.707500", "111516.197500", "111517.687500", "111519.177500", "111520.667500", "111522.157500", "111523.647500", "111525.137500", "111526.627500", "111528.117500", "111529.607500", "111531.097500", "111532.587500", "111534.077500", "111535.567500", "111537.057500", "111538.547500", "111540.037500", "111541.527500", "111543.017500", "111544.507500", "111545.997500", "111547.487500", "111548.977500", "111550.467500", "111551.957500", "111553.447500", "111554.937500", "111556.427500", "111557.917500", "111559.407500", "111600.897500", "111602.387500", "111603.877500", "111605.367500", "111606.857500", "111608.347500", "111609.837500", "111611.327500", "111612.817500", "111614.307500", "111615.797500", "111617.287500", "111618.777500", "111620.267500", "111621.757500", "111623.247500", "111624.737500", "111626.227500", "111627.717500", "111629.207500", "111630.697500", "111632.187500", "111633.677500", "111635.167500", "111636.657500", "111638.147500", "111639.637500", "111641.127500", "111642.617500", "111644.107500", "111645.597500", "111647.087500", "111648.577500", "111650.067500", "111651.557500", "111653.047500", "111654.537500", "111656.027500", "111657.517500", "111659.007500", "111700.497500", "111701.987500", "111703.477500", "111704.967500", "111706.457500", "111707.947500", "111709.437500", "111710.927500", "111712.417500", "111713.907500", "111715.397500", "111716.887500", "111718.377500", "111719.867500", "111721.357500", "111722.847500", "111724.337500", "111725.827500", "111727.317500", "111728.807500", "111730.297500", "111731.787500", "111733.277500", "111734.767500", "111736.257500", "111737.747500", "111739.237500", "111740.727500", "111742.217500", "111743.707500", "111745.197500", "111746.687500", "111748.177500", "111749.667500", "111751.157500", "111752.647500", "111754.137500", "111755.627500", "111757.117500", "111758.607500", "111800.097500", "111801.587500", "111803.077500", "111804.567500", "111806.057500", "111807.547500", "111809.037500", "111810.527500", "111812.017500", "111813.507500", "111814.997500", "111816.487500", "111817.977500", "111819.467500", "111820.957500", "111822.447500", "111823.937500", "111825.427500", "111826.917500", "111828.407500", "111829.897500", "111831.387500", "111832.877500", "111834.367500", "111835.857500", "111837.347500", "111838.837500", "111840.327500", "111841.817500", "111843.307500", "111844.797500", "111846.287500", "111847.777500", "111849.267500", "111850.757500", "111852.247500", "111853.737500", "111855.227500", "111856.717500", "111858.207500", "111859.697500", "111901.187500", "111902.677500", "111904.167500", "111905.657500", "111907.147500", "111908.637500", "111910.127500", "111911.617500", "111913.107500", "111914.597500", "111916.087500", "111917.577500", "111919.067500", "111920.557500", "111922.047500", "111923.537500", "111925.027500", "111926.517500", "111928.007500", "111929.497500", "111930.987500", "111932.477500", "111933.967500", "111935.457500", "111936.947500", "111938.437500", "111939.927500", "111941.417500", "111942.907500", "111944.397500"],
      "ContentTime": ["111626.113000", "111626.117000", "111626.121000", "111626.124000", "111626.127000", "111626.131000", "111626.134000", "111626.137000", "111626.141000", "111626.144000", "111626.147000", "111626.151000", "111626.154000", "111626.157000", "111626.161000", "111626.164000", "111626.168000", "111626.177000", "111626.180000", "111626.184000", "111626.187000", "111626.190000", "111626.194000", "111626.197000", "111626.200000", "111626.203000", "111626.207000", "111626.210000", "111626.213000", "111646.076000", "111646.080000", "111646.083000", "111646.087000", "111646.090000", "111646.093000", "111646.097000", "111646.100000", "111646.103000", "111646.107000", "111646.110000", "111646.114000", "111646.117000", "111646.120000", "111646.124000", "111646.127000", "111646.130000", "111646.133000", "111646.137000", "111646.140000", "111706.076000", "111706.080000", "111706.083000", "111706.087000", "111706.090000", "111706.093000", "111706.097000", "111706.100000", "111706.103000", "111706.107000", "111706.110000", "111706.113000", "111706.117000", "111706.120000", "111706.123000", "111706.127000", "111706.130000", "111706.133000", "111706.137000", "111706.140000", "111726.076000", "111726.080000", "111726.083000", "111726.087000", "111726.090000", "111726.094000", "111726.097000", "111726.100000", "111726.104000", "111726.107000", "111726.110000", "111726.114000", "111726.117000", "111726.121000", "111726.124000", "111726.127000", "111726.131000", "111726.134000", "111726.138000", "111726.141000", "111746.076000", "111746.080000", "111746.083000", "111746.103000", "111746.106000", "111746.110000", "111746.113000", "111746.116000", "111746.120000", "111746.123000", "111746.127000", "111746.130000", "111746.133000", "111746.137000", "111746.140000", "111746.143000", "111746.147000", "111746.150000", "111746.154000", "111746.157000", "111826.077000", "111826.081000", "111826.084000", "111826.098000", "111826.102000", "111826.105000", "111826.109000", "111826.112000", "111826.115000", "111826.119000", "111826.122000", "111826.126000", "111826.129000", "111826.132000", "111826.136000", "111826.139000", "111826.143000", "111826.146000", "111826.149000", "111826.153000", "111826.156000", "111826.159000", "111826.163000", "111826.166000", "111826.169000", "111826.173000", "111906.077000", "111906.080000", "111906.084000", "111906.087000", "111906.090000", "111906.094000", "111906.097000", "111906.100000", "111906.104000", "111906.107000", "111906.111000", "111906.114000", "111906.117000", "111906.121000", "111906.124000", "111906.127000", "111906.131000", "111906.134000", "111906.137000", "111906.141000", "111906.144000", "111906.148000", "111906.151000", "111906.154000", "111906.158000", "111906.161000", "111906.164000", "111946.076000", "111946.080000", "111946.084000", "111946.087000", "111946.091000", "111946.094000", "111946.097000", "111946.101000", "111946.104000", "111946.107000", "111946.111000", "111946.114000", "111946.118000", "111946.121000", "111946.124000", "111946.128000", "111946.131000", "111946.135000", "111946.138000", "111946.141000", "111946.145000", "111946.148000", "111946.151000", "111946.155000", "111946.158000", "111946.161000", "111946.165000", "111946.720000"],
      "InstanceCreationTime": ["111626.113000", "111626.117000", "111626.121000", "111626.124000", "111626.127000", "111626.131000", "111626.134000", "111626.137000", "111626.141000", "111626.144000", "111626.147000", "111626.151000", "111626.154000", "111626.157000", "111626.161000", "111626.164000", "111626.168000", "111626.177000", "111626.180000", "111626.184000", "111626.187000", "111626.190000", "111626.194000", "111626.197000", "111626.200000", "111626.203000", "111626.207000", "111626.210000", "111626.213000", "111646.076000", "111646.080000", "111646.083000", "111646.087000", "111646.090000", "111646.093000", "111646.097000", "111646.100000", "111646.103000", "111646.107000", "111646.110000", "111646.114000", "111646.117000", "111646.120000", "111646.124000", "111646.127000", "111646.130000", "111646.133000", "111646.137000", "111646.140000", "111706.076000", "111706.080000", "111706.083000", "111706.087000", "111706.090000", "111706.093000", "111706.097000", "111706.100000", "111706.103000", "111706.107000", "111706.110000", "111706.113000", "111706.117000", "111706.120000", "111706.123000", "111706.127000", "111706.130000", "111706.133000", "111706.137000", "111706.140000", "111726.076000", "111726.080000", "111726.083000", "111726.087000", "111726.090000", "111726.094000", "111726.097000", "111726.100000", "111726.104000", "111726.107000", "111726.110000", "111726.114000", "111726.117000", "111726.121000", "111726.124000", "111726.127000", "111726.131000", "111726.134000", "111726.138000", "111726.141000", "111746.076000", "111746.080000", "111746.083000", "111746.103000", "111746.106000", "111746.110000", "111746.113000", "111746.116000", "111746.120000", "111746.123000", "111746.127000", "111746.130000", "111746.133000", "111746.137000", "111746.140000", "111746.143000", "111746.147000", "111746.150000", "111746.154000", "111746.157000", "111826.077000", "111826.081000", "111826.084000", "111826.098000", "111826.102000", "111826.105000", "111826.109000", "111826.112000", "111826.115000", "111826.119000", "111826.122000", "111826.126000", "111826.129000", "111826.132000", "111826.136000", "111826.139000", "111826.143000", "111826.146000", "111826.149000", "111826.153000", "111826.156000", "111826.159000", "111826.163000", "111826.166000", "111826.169000", "111826.173000", "111906.077000", "111906.080000", "111906.084000", "111906.087000", "111906.090000", "111906.094000", "111906.097000", "111906.100000", "111906.104000", "111906.107000", "111906.111000", "111906.114000", "111906.117000", "111906.121000", "111906.124000", "111906.127000", "111906.131000", "111906.134000", "111906.137000", "111906.141000", "111906.144000", "111906.148000", "111906.151000", "111906.154000", "111906.158000", "111906.161000", "111906.164000", "111946.076000", "111946.080000", "111946.084000", "111946.087000", "111946.091000", "111946.094000", "111946.097000", "111946.101000", "111946.104000", "111946.107000", "111946.111000", "111946.114000", "111946.118000", "111946.121000", "111946.124000", "111946.128000", "111946.131000", "111946.135000", "111946.138000", "111946.141000", "111946.145000", "111946.148000", "111946.151000", "111946.155000", "111946.158000", "111946.161000", "111946.165000", "111946.720000"],
      "InstanceNumber": [1, 2, 3, 4, 5, 6, 7, 8, 9, 10, 11, 12, 13, 14, 15, 16, 17, 18, 19, 20, 21, 22, 23, 24, 25, 26, 27, 28, 29, 30, 31, 32, 33, 34, 35, 36, 37, 38, 39, 40, 41, 42, 43, 44, 45, 46, 47, 48, 49, 50, 51, 52, 53, 54, 55, 56, 57, 58, 59, 60, 61, 62, 63, 64, 65, 66, 67, 68, 69, 70, 71, 72, 73, 74, 75, 76, 77, 78, 79, 80, 81, 82, 83, 84, 85, 86, 87, 88, 89, 90, 91, 92, 93, 94, 95, 96, 97, 98, 99, 100, 101, 102, 103, 104, 105, 106, 107, 108, 109, 110, 111, 112, 113, 114, 115, 116, 117, 118, 119, 120, 121, 122, 123, 124, 125, 126, 127, 128, 129, 130, 131, 132, 133, 134, 135, 136, 137, 138, 139, 140, 141, 142, 143, 144, 145, 146, 147, 148, 149, 150, 151, 152, 153, 154, 155, 156, 157, 158, 159, 160, 161, 162, 163, 164, 165, 166, 167, 168, 169, 170, 171, 172, 173, 174, 175, 176, 177, 178, 179, 180, 181, 182, 183, 184, 185, 186, 187, 188, 189, 190],
      "LargestImagePixelValue": [42990, 42676, 43138, 42754, 42306, 43656, 41964, 43258, 43323, 41310, 42775, 41817, 41791, 42180, 42117, 41938, 42241, 41510, 41259, 41530, 42295, 41873, 41981, 42188, 41862, 42531, 42905, 44304, 42467, 40915, 41871, 42829, 42957, 42003, 41929, 41839, 41327, 41351, 41204, 41702, 42259, 42687, 43560, 43776, 41242, 41577, 41582, 42027, 42160, 42438, 42181, 41552, 41236, 40659, 41229, 40712, 41016, 43768, 42439, 43188, 44084, 42075, 42413, 42591, 42343, 42199, 42742, 42694, 41798, 42077, 42170, 42685, 42290, 43073, 42424, 41992, 41871, 42934, 43831, 44487, 42048, 42022, 41708, 41904, 42389, 41591, 41796, 40704, 40947, 41286, 42801, 42024, 40575, 40975, 41977, 42068, 41776, 41861, 41964, 42160, 42220, 42323, 42791, 43831, 44145, 42285, 42354, 41539, 42522, 42320, 41562, 42674, 44132, 44164, 43651, 41632, 42673, 42546, 42294, 41779, 41249, 41642, 41914, 42416, 42107, 41884, 43316, 43571, 41407, 42930, 41568, 41903, 43640, 43543, 41843, 42483, 42632, 41315, 42819, 41995, 41817, 43111, 41658, 41254, 44130, 43460, 40474, 40931, 41728, 41955, 42334, 42129, 42596, 41939, 42252, 42697, 41242, 42323, 42685, 44692, 44496, 41959, 41971, 41849, 41554, 41581, 41713, 42309, 43642, 43419, 42993, 43156, 41277, 41870, 43269, 44320, 42334, 42247, 41858, 42555, 42701, 42786, 42861, 43279, 44108, 42060, 42405, 42417, 43716, 45478],
      "WindowCenter": [10788.0, 10780.0, 10814.0, 10789.0, 10787.0, 10818.0, 10795.0, 10792.0, 10766.0, 10761.0, 10791.0, 10808.0, 10831.0, 10834.0, 10803.0, 10797.0, 10771.0, 10753.0, 10749.0, 10756.0, 10762.0, 10762.0, 10765.0, 10786.0, 10821.0, 10842.0, 10816.0, 10788.0, 10729.0, 10729.0, 10798.0, 10819.0, 10822.0, 10787.0, 10749.0, 10711.0, 10694.0, 10696.0, 10724.0, 10772.0, 10807.0, 10801.0, 10776.0, 10725.0, 10673.0, 10710.0, 10757.0, 10805.0, 10808.0, 10780.0, 10753.0, 10729.0, 10716.0, 10716.0, 10722.0, 10718.0, 10733.0, 10782.0, 10756.0, 10749.0, 10759.0, 10741.0, 10770.0, 10774.0, 10776.0, 10771.0, 10765.0, 10747.0, 10744.0, 10745.0, 10750.0, 10757.0, 10751.0, 10753.0, 10750.0, 10761.0, 10771.0, 10784.0, 10771.0, 10751.0, 10719.0, 10756.0, 10781.0, 10791.0, 10779.0, 10735.0, 10692.0, 10704.0, 10730.0, 10749.0, 10773.0, 10722.0, 10696.0, 10750.0, 10766.0, 10739.0, 10751.0, 10764.0, 10757.0, 10788.0, 10765.0, 10770.0, 10785.0, 10774.0, 10791.0, 10760.0, 10749.0, 10739.0, 10759.0, 10752.0, 10755.0, 10785.0, 10787.0, 10770.0, 10756.0, 10755.0, 10789.0, 10789.0, 10764.0, 10753.0, 10737.0, 10735.0, 10753.0, 10771.0, 10761.0, 10755.0, 10790.0, 10782.0, 10750.0, 10776.0, 10774.0, 10790.0, 10805.0, 10776.0, 10738.0, 10744.0, 10757.0, 10743.0, 10771.0, 10747.0, 10738.0, 10764.0, 10737.0, 10749.0, 10758.0, 10723.0, 10700.0, 10740.0, 10774.0, 10787.0, 10788.0, 10757.0, 10746.0, 10733.0, 10701.0, 10712.0, 10702.0, 10758.0, 10805.0, 10819.0, 10783.0, 10764.0, 10779.0, 10759.0, 10736.0, 10723.0, 10739.0, 10755.0, 10763.0, 10738.0, 10722.0, 10732.0, 10739.0, 10774.0, 10794.0, 10785.0, 10745.0, 10742.0, 10765.0, 10796.0, 10795.0, 10782.0, 10761.0, 10757.0, 10751.0, 10733.0, 10757.0, 10796.0, 10799.0, 10777.0],
      "WindowWidth": [23218.0, 23169.0, 23222.0, 23150.0, 23144.0, 23199.0, 23160.0, 23145.0, 23084.0, 23080.0, 23137.0, 23176.0, 23230.0, 23242.0, 23164.0, 23154.0, 23096.0, 23060.0, 23049.0, 23063.0, 23072.0, 23077.0, 23083.0, 23129.0, 23210.0, 23251.0, 23197.0, 23129.0, 23004.0, 23005.0, 23158.0, 23200.0, 23206.0, 23130.0, 23044.0, 22960.0, 22923.0, 22927.0, 22991.0, 23101.0, 23181.0, 23162.0, 23103.0, 22990.0, 22883.0, 22963.0, 23066.0, 23176.0, 23182.0, 23116.0, 23052.0, 23001.0, 22976.0, 22975.0, 22987.0, 22982.0, 23013.0, 23112.0, 23058.0, 23039.0, 23060.0, 23035.0, 23087.0, 23096.0, 23101.0, 23091.0, 23073.0, 23033.0, 23029.0, 23032.0, 23043.0, 23058.0, 23051.0, 23050.0, 23045.0, 23071.0, 23094.0, 23122.0, 23086.0, 23040.0, 22977.0, 23057.0, 23117.0, 23136.0, 23112.0, 23017.0, 22912.0, 22942.0, 23002.0, 23044.0, 23092.0, 22989.0, 22929.0, 23048.0, 23083.0, 23023.0, 23044.0, 23076.0, 23061.0, 23128.0, 23082.0, 23089.0, 23125.0, 23093.0, 23131.0, 23070.0, 23045.0, 23023.0, 23068.0, 23051.0, 23057.0, 23122.0, 23121.0, 23078.0, 23053.0, 23058.0, 23134.0, 23135.0, 23078.0, 23046.0, 23017.0, 23014.0, 23048.0, 23089.0, 23068.0, 23058.0, 23128.0, 23115.0, 23049.0, 23106.0, 23102.0, 23137.0, 23168.0, 23103.0, 23018.0, 23028.0, 23058.0, 23033.0, 23100.0, 23040.0, 23017.0, 23067.0, 23016.0, 23043.0, 23057.0, 22979.0, 22940.0, 23025.0, 23102.0, 23130.0, 23127.0, 23053.0, 23028.0, 23007.0, 22931.0, 22954.0, 22939.0, 23061.0, 23168.0, 23193.0, 23111.0, 23075.0, 23120.0, 23066.0, 23015.0, 22981.0, 23017.0, 23051.0, 23062.0, 23013.0, 22976.0, 22994.0, 23020.0, 23097.0, 23141.0, 23113.0, 23032.0, 23023.0, 23080.0, 23145.0, 23149.0, 23118.0, 23063.0, 23053.0, 23036.0, 23015.0, 23056.0, 23148.0, 23152.0, 23099.0]
    },
    "slices": {}
  }
}