{
  "AcquisitionMatrixPE": 104,
  "AcquisitionNumber": 1,
  "AcquisitionTime": "11:02:44.340000",
  "BandwidthPerPixelPhaseEncode": 17.17,
  "BaseResolution": 104,
  "BodyPartExamined": "BRAIN",
  "CoilString": "HC1-7;NC1_2",
  "ConsistencyInfo": "N4_VE11C_LATEST_20160120",
  "ConversionSoftware": "dcm2niix",
  "ConversionSoftwareVersion": "v1.0.20190902",
  "DerivedVendorReportedEchoSpacing": 0.000560011,
  "DeviceSerialNumber": "167006",
  "DwellTime": 2.1e-06,
  "EchoTime": 0.037,
  "EchoTrainLength": 104,
  "EffectiveEchoSpacing": 0.000560011,
  "FlipAngle": 52,
  "ImageComments": "Unaliased_MB4_PE3_LB",
  "ImageOrientationPatientDICOM": [0.999647, 0.0116653, 0.0238493, 0.00157024, 0.87075, -0.491724],
  "ImageType": [
    "ORIGINAL",
    "PRIMARY",
    "P",
    "MB",
    "ND",
    "MOSAIC"
],
  "ImagingFrequency": 123.259,
  "InPlanePhaseEncodingDirectionDICOM": "COL",
  "InstitutionAddress": "Chemin_Queen-Mary_4565_Montreal_District_CA_H3W_1W5",
  "InstitutionName": "IUGM",
  "InstitutionalDepartmentName": "Department",
  "MRAcquisitionType": "2D",
  "MagneticFieldStrength": 3,
  "Manufacturer": "Siemens",
  "ManufacturersModelName": "Prisma_fit",
  "Modality": "MR",
  "MultibandAccelerationFactor": 4,
  "PartialFourier": 1,
  "PatientPosition": "HFS",
  "PercentPhaseFOV": 100,
  "PhaseEncodingDirection": "j",
  "PhaseEncodingSteps": 104,
  "PhaseResolution": 1,
  "PixelBandwidth": 2290,
  "ProcedureStepDescription": "memory_things",
  "ProtocolName": "func_task-things_run-4",
  "PulseSequenceDetails": "%CustomerSeq%_cmrr_mbep2d_bold",
  "ReceiveCoilActiveElements": "HC1-7;NC1,2",
  "ReceiveCoilName": "HeadNeck_64",
  "ReconMatrixPE": 104,
  "RepetitionTime": 1.49,
  "SAR": 0.0475121,
  "ScanOptions": "FS",
  "ScanningSequence": "EP",
  "SequenceName": "epfid2d1_104",
  "SequenceVariant": "SK_SS",
  "SeriesDescription": "func_task-things_run-4",
  "SeriesNumber": 20,
  "ShimSetting": [618, -7189, -8854, 313, -6, -137, -26, 7],
  "SliceThickness": 2,
  "SliceTiming": [0, 0.7825, 0.0975, 0.88, 0.195, 0.98, 0.2925, 1.0775, 0.39, 1.175, 0.49, 1.2725, 0.5875, 1.37, 0.685, 0, 0.7825, 0.0975, 0.88, 0.195, 0.98, 0.2925, 1.0775, 0.39, 1.175, 0.49, 1.2725, 0.5875, 1.37, 0.685, 0, 0.7825, 0.0975, 0.88, 0.195, 0.98, 0.2925, 1.0775, 0.39, 1.175, 0.49, 1.2725, 0.5875, 1.37, 0.685, 0, 0.7825, 0.0975, 0.88, 0.195, 0.98, 0.2925, 1.0775, 0.39, 1.175, 0.49, 1.2725, 0.5875, 1.37, 0.685],
  "SoftwareVersions": "syngo_MR_E11",
  "SpacingBetweenSlices": 2,
  "StationName": "MRC35049",
  "TaskName": "things",
  "TotalReadoutTime": 0.0576811,
  "TxRefAmp": 264.876,
  "WipMemBlock": "db135566-6375-4c96-a413-133c27f22eb3||Sequence: R016 ve11c/master r/e634e98; Dec 19 2017 11:00:25 by eja",
  "dcmmeta_affine": [
    [-1.9992949962615967, 0.0031404842156916857, 0.053005754947662354, 105.60369110107422],
    [-0.02333063632249832, 1.741499662399292, -0.9831758141517639, -51.777801513671875],
    [0.047698576003313065, 0.9834475517272949, 1.7408491373062134, -87.2465591430664],
    [0.0, 0.0, 0.0, 1.0]
],
  "dcmmeta_reorient_transform": [
    [0.0, -1.0, 0.0, 103.0],
    [1.0, 0.0, 0.0, 0.0],
    [0.0, 0.0, 1.0, 0.0],
    [0.0, 0.0, 0.0, 1.0]
],
  "dcmmeta_shape": [104, 104, 60, 190],
  "dcmmeta_slice_dim": 2,
  "dcmmeta_version": 0.6,
  "global": {
    "const": {
      "AcquisitionMatrix": [104, 0, 0, 104],
      "AngioFlag": "N",
      "BitsAllocated": 16,
      "BitsStored": 16,
      "BodyPartExamined": "BRAIN",
      "Columns": 832,
      "EchoNumbers": 1,
      "EchoTime": 37.0,
      "EchoTrainLength": 104,
      "FlipAngle": 52.0,
      "HighBit": 15,
      "ImageOrientationPatient": [0.99964750379055, 0.01166531773379, 0.02384928777736, 0.00157024210444, 0.87074982462712, -0.4917237814582],
      "ImagePositionPatient": [-834.8136836934, -769.99488748847, 354.66117377421],
      "ImageType": [
        "ORIGINAL",
        "PRIMARY",
        "P",
        "MB",
        "ND",
        "MOSAIC"
],
      "ImagedNucleus": "1H",
      "ImagingFrequency": 123.25895,
      "InPlanePhaseEncodingDirection": "COL",
      "LargestImagePixelValue": 4095,
      "MRAcquisitionType": "2D",
      "MagneticFieldStrength": 3.0,
      "Manufacturer": "SIEMENS",
      "ManufacturerModelName": "Prisma_fit",
      "Modality": "MR",
      "NumberOfAverages": 1.0,
      "NumberOfPhaseEncodingSteps": 104,
      "PercentPhaseFieldOfView": 100.0,
      "PercentSampling": 100.0,
      "PerformedProcedureStepStartTime": "103056.055000",
      "PhotometricInterpretation": "MONOCHROME2",
      "PixelBandwidth": 2290.0,
      "PixelRepresentation": 0,
      "PixelSpacing": [2.0, 2.0],
      "ProtocolName": "func_task-things_run-4",
      "RepetitionTime": 1490.0,
      "RescaleIntercept": -4096.0,
      "RescaleSlope": 2.0,
      "RescaleType": "US",
      "Rows": 832,
      "SAR": 0.0475121193463,
      "SamplesPerPixel": 1,
      "ScanOptions": "FS",
      "ScanningSequence": "EP",
      "SequenceName": "epfid2d1_104",
      "SequenceVariant": [
        "SK",
        "SS"
],
      "SeriesDescription": "func_task-things_run-4",
      "SeriesNumber": 20,
      "SeriesTime": "110352.367000",
      "SliceLocation": -47.689404888135,
      "SliceThickness": 2.0,
      "SmallestImagePixelValue": 0,
      "SoftwareVersions": "syngo MR E11",
      "SpacingBetweenSlices": 1.999999980732,
      "SpecificCharacterSet": "ISO_IR 100",
      "StudyID": "1",
      "StudyTime": "103055.988000",
      "TransmitCoilName": "Body",
      "VariableFlipAngleFlag": "N",
      "WindowCenterWidthExplanation": "Algo1",
      "dBdt": 0.0},
    "slices": {}
  },
  "time": {
    "samples": {
      "AcquisitionNumber": [1, 2, 3, 4, 5, 6, 7, 8, 9, 10, 11, 12, 13, 14, 15, 16, 17, 18, 19, 20, 21, 22, 23, 24, 25, 26, 27, 28, 29, 30, 31, 32, 33, 34, 35, 36, 37, 38, 39, 40, 41, 42, 43, 44, 45, 46, 47, 48, 49, 50, 51, 52, 53, 54, 55, 56, 57, 58, 59, 60, 61, 62, 63, 64, 65, 66, 67, 68, 69, 70, 71, 72, 73, 74, 75, 76, 77, 78, 79, 80, 81, 82, 83, 84, 85, 86, 87, 88, 89, 90, 91, 92, 93, 94, 95, 96, 97, 98, 99, 100, 101, 102, 103, 104, 105, 106, 107, 108, 109, 110, 111, 112, 113, 114, 115, 116, 117, 118, 119, 120, 121, 122, 123, 124, 125, 126, 127, 128, 129, 130, 131, 132, 133, 134, 135, 136, 137, 138, 139, 140, 141, 142, 143, 144, 145, 146, 147, 148, 149, 150, 151, 152, 153, 154, 155, 156, 157, 158, 159, 160, 161, 162, 163, 164, 165, 166, 167, 168, 169, 170, 171, 172, 173, 174, 175, 176, 177, 178, 179, 180, 181, 182, 183, 184, 185, 186, 187, 188, 189, 190],
      "AcquisitionTime": ["110244.340000", "110245.830000", "110247.320000", "110248.810000", "110250.300000", "110251.790000", "110253.280000", "110254.770000", "110256.260000", "110257.750000", "110259.240000", "110300.730000", "110302.220000", "110303.710000", "110305.200000", "110306.690000", "110308.180000", "110309.670000", "110311.160000", "110312.650000", "110314.140000", "110315.630000", "110317.120000", "110318.610000", "110320.100000", "110321.590000", "110323.080000", "110324.570000", "110326.060000", "110327.550000", "110329.040000", "110330.530000", "110332.020000", "110333.510000", "110335.000000", "110336.490000", "110337.980000", "110339.470000", "110340.960000", "110342.450000", "110343.940000", "110345.430000", "110346.920000", "110348.410000", "110349.900000", "110351.390000", "110352.880000", "110354.370000", "110355.860000", "110357.350000", "110358.840000", "110400.330000", "110401.820000", "110403.310000", "110404.800000", "110406.290000", "110407.780000", "110409.270000", "110410.760000", "110412.250000", "110413.740000", "110415.230000", "110416.720000", "110418.210000", "110419.700000", "110421.190000", "110422.680000", "110424.170000", "110425.660000", "110427.150000", "110428.640000", "110430.130000", "110431.620000", "110433.110000", "110434.600000", "110436.090000", "110437.580000", "110439.070000", "110440.560000", "110442.050000", "110443.540000", "110445.030000", "110446.520000", "110448.010000", "110449.500000", "110450.990000", "110452.480000", "110453.970000", "110455.460000", "110456.950000", "110458.440000", "110459.930000", "110501.420000", "110502.910000", "110504.400000", "110505.890000", "110507.380000", "110508.870000", "110510.360000", "110511.850000", "110513.340000", "110514.830000", "110516.320000", "110517.810000", "110519.300000", "110520.790000", "110522.280000", "110523.770000", "110525.260000", "110526.750000", "110528.240000", "110529.730000", "110531.220000", "110532.710000", "110534.200000", "110535.690000", "110537.180000", "110538.670000", "110540.160000", "110541.650000", "110543.140000", "110544.630000", "110546.120000", "110547.610000", "110549.100000", "110550.590000", "110552.080000", "110553.570000", "110555.060000", "110556.550000", "110558.040000", "110559.530000", "110601.020000", "110602.510000", "110604.000000", "110605.490000", "110606.980000", "110608.470000", "110609.960000", "110611.450000", "110612.940000", "110614.430000", "110615.920000", "110617.410000", "110618.900000", "110620.390000", "110621.880000", "110623.370000", "110624.860000", "110626.350000", "110627.840000", "110629.330000", "110630.820000", "110632.310000", "110633.800000", "110635.290000", "110636.780000", "110638.270000", "110639.760000", "110641.250000", "110642.740000", "110644.230000", "110645.720000", "110647.210000", "110648.700000", "110650.190000", "110651.680000", "110653.170000", "110654.660000", "110656.150000", "110657.640000", "110659.130000", "110700.620000", "110702.110000", "110703.600000", "110705.090000", "110706.580000", "110708.070000", "110709.560000", "110711.050000", "110712.540000", "110714.030000", "110715.520000", "110717.010000", "110718.500000", "110719.990000", "110721.480000", "110722.970000", "110724.460000", "110725.950000"],
      "ContentTime": ["110352.369000", "110352.379000", "110352.381000", "110352.384000", "110352.386000", "110352.389000", "110352.391000", "110352.394000", "110352.396000", "110352.404000", "110412.415000", "110412.418000", "110412.421000", "110412.423000", "110412.426000", "110412.428000", "110412.431000", "110412.433000", "110412.436000", "110412.438000", "110412.441000", "110412.443000", "110412.446000", "110412.448000", "110412.451000", "110412.453000", "110412.456000", "110412.458000", "110412.461000", "110412.463000", "110412.466000", "110432.785000", "110432.788000", "110432.790000", "110432.792000", "110432.795000", "110432.797000", "110432.800000", "110432.803000", "110432.805000", "110432.808000", "110432.810000", "110432.813000", "110432.815000", "110432.818000", "110432.820000", "110432.823000", "110432.825000", "110432.828000", "110432.831000", "110432.833000", "110452.384000", "110452.387000", "110452.390000", "110452.392000", "110452.395000", "110452.397000", "110452.400000", "110452.402000", "110452.405000", "110452.407000", "110452.410000", "110452.412000", "110452.415000", "110452.417000", "110452.420000", "110452.422000", "110452.425000", "110452.427000", "110452.430000", "110452.432000", "110513.071000", "110513.074000", "110513.077000", "110513.080000", "110513.082000", "110513.085000", "110513.088000", "110513.090000", "110513.093000", "110513.095000", "110513.098000", "110513.101000", "110513.104000", "110513.106000", "110513.109000", "110513.112000", "110513.115000", "110513.117000", "110513.120000", "110513.122000", "110532.372000", "110532.374000", "110532.377000", "110532.380000", "110532.382000", "110532.385000", "110532.387000", "110532.390000", "110532.392000", "110532.395000", "110532.397000", "110532.400000", "110532.402000", "110532.405000", "110532.407000", "110532.410000", "110532.412000", "110532.415000", "110532.417000", "110532.420000", "110612.418000", "110612.420000", "110612.423000", "110612.425000", "110612.428000", "110612.431000", "110612.433000", "110612.436000", "110612.438000", "110612.441000", "110612.443000", "110612.446000", "110612.448000", "110612.451000", "110612.453000", "110612.456000", "110612.458000", "110612.461000", "110612.463000", "110612.466000", "110612.469000", "110612.471000", "110612.474000", "110612.477000", "110612.479000", "110612.482000", "110612.484000", "110612.487000", "110652.406000", "110652.409000", "110652.412000", "110652.414000", "110652.417000", "110652.419000", "110652.422000", "110652.424000", "110652.427000", "110652.429000", "110652.432000", "110652.434000", "110652.437000", "110652.439000", "110652.442000", "110652.445000", "110652.447000", "110652.450000", "110652.452000", "110652.455000", "110652.457000", "110652.460000", "110652.463000", "110652.465000", "110652.468000", "110652.470000", "110652.473000", "110728.182000", "110728.185000", "110728.187000", "110728.190000", "110728.192000", "110728.195000", "110728.198000", "110728.200000", "110728.203000", "110728.205000", "110728.208000", "110728.210000", "110728.213000", "110728.215000", "110728.218000", "110728.221000", "110728.223000", "110728.226000", "110728.229000", "110728.231000", "110728.234000", "110728.236000", "110728.239000", "110728.242000"],
      "InstanceCreationTime": ["110352.369000", "110352.379000", "110352.381000", "110352.384000", "110352.386000", "110352.389000", "110352.391000", "110352.394000", "110352.396000", "110352.404000", "110412.415000", "110412.418000", "110412.421000", "110412.423000", "110412.426000", "110412.428000", "110412.431000", "110412.433000", "110412.436000", "110412.438000", "110412.441000", "110412.443000", "110412.446000", "110412.448000", "110412.451000", "110412.453000", "110412.456000", "110412.458000", "110412.461000", "110412.463000", "110412.466000", "110432.785000", "110432.788000", "110432.790000", "110432.792000", "110432.795000", "110432.797000", "110432.800000", "110432.803000", "110432.805000", "110432.808000", "110432.810000", "110432.813000", "110432.815000", "110432.818000", "110432.820000", "110432.823000", "110432.825000", "110432.828000", "110432.831000", "110432.833000", "110452.384000", "110452.387000", "110452.390000", "110452.392000", "110452.395000", "110452.397000", "110452.400000", "110452.402000", "110452.405000", "110452.407000", "110452.410000", "110452.412000", "110452.415000", "110452.417000", "110452.420000", "110452.422000", "110452.425000", "110452.427000", "110452.430000", "110452.432000", "110513.071000", "110513.074000", "110513.077000", "110513.080000", "110513.082000", "110513.085000", "110513.088000", "110513.090000", "110513.093000", "110513.095000", "110513.098000", "110513.101000", "110513.104000", "110513.106000", "110513.109000", "110513.112000", "110513.115000", "110513.117000", "110513.120000", "110513.122000", "110532.372000", "110532.374000", "110532.377000", "110532.380000", "110532.382000", "110532.385000", "110532.387000", "110532.390000", "110532.392000", "110532.395000", "110532.397000", "110532.400000", "110532.402000", "110532.405000", "110532.407000", "110532.410000", "110532.412000", "110532.415000", "110532.417000", "110532.420000", "110612.418000", "110612.420000", "110612.423000", "110612.425000", "110612.428000", "110612.431000", "110612.433000", "110612.436000", "110612.438000", "110612.441000", "110612.443000", "110612.446000", "110612.448000", "110612.451000", "110612.453000", "110612.456000", "110612.458000", "110612.461000", "110612.463000", "110612.466000", "110612.469000", "110612.471000", "110612.474000", "110612.477000", "110612.479000", "110612.482000", "110612.484000", "110612.487000", "110652.406000", "110652.409000", "110652.412000", "110652.414000", "110652.417000", "110652.419000", "110652.422000", "110652.424000", "110652.427000", "110652.429000", "110652.432000", "110652.434000", "110652.437000", "110652.439000", "110652.442000", "110652.445000", "110652.447000", "110652.450000", "110652.452000", "110652.455000", "110652.457000", "110652.460000", "110652.463000", "110652.465000", "110652.468000", "110652.470000", "110652.473000", "110728.182000", "110728.185000", "110728.187000", "110728.190000", "110728.192000", "110728.195000", "110728.198000", "110728.200000", "110728.203000", "110728.205000", "110728.208000", "110728.210000", "110728.213000", "110728.215000", "110728.218000", "110728.221000", "110728.223000", "110728.226000", "110728.229000", "110728.231000", "110728.234000", "110728.236000", "110728.239000", "110728.242000"],
      "InstanceNumber": [1, 2, 3, 4, 5, 6, 7, 8, 9, 10, 11, 12, 13, 14, 15, 16, 17, 18, 19, 20, 21, 22, 23, 24, 25, 26, 27, 28, 29, 30, 31, 32, 33, 34, 35, 36, 37, 38, 39, 40, 41, 42, 43, 44, 45, 46, 47, 48, 49, 50, 51, 52, 53, 54, 55, 56, 57, 58, 59, 60, 61, 62, 63, 64, 65, 66, 67, 68, 69, 70, 71, 72, 73, 74, 75, 76, 77, 78, 79, 80, 81, 82, 83, 84, 85, 86, 87, 88, 89, 90, 91, 92, 93, 94, 95, 96, 97, 98, 99, 100, 101, 102, 103, 104, 105, 106, 107, 108, 109, 110, 111, 112, 113, 114, 115, 116, 117, 118, 119, 120, 121, 122, 123, 124, 125, 126, 127, 128, 129, 130, 131, 132, 133, 134, 135, 136, 137, 138, 139, 140, 141, 142, 143, 144, 145, 146, 147, 148, 149, 150, 151, 152, 153, 154, 155, 156, 157, 158, 159, 160, 161, 162, 163, 164, 165, 166, 167, 168, 169, 170, 171, 172, 173, 174, 175, 176, 177, 178, 179, 180, 181, 182, 183, 184, 185, 186, 187, 188, 189, 190],
      "WindowCenter": [4756.0, 4750.0, 4772.0, 4746.0, 4750.0, 4762.0, 4756.0, 4760.0, 4788.0, 4756.0, 4752.0, 4758.0, 4754.0, 4774.0, 4774.0, 4752.0, 4794.0, 4786.0, 4750.0, 4752.0, 4776.0, 4772.0, 4752.0, 4750.0, 4750.0, 4760.0, 4758.0, 4784.0, 4766.0, 4754.0, 4786.0, 4792.0, 4756.0, 4776.0, 4778.0, 4780.0, 4774.0, 4760.0, 4760.0, 4758.0, 4752.0, 4754.0, 4752.0, 4786.0, 4798.0, 4760.0, 4750.0, 4776.0, 4750.0, 4746.0, 4754.0, 4756.0, 4754.0, 4760.0, 4758.0, 4762.0, 4786.0, 4756.0, 4760.0, 4754.0, 4752.0, 4756.0, 4752.0, 4754.0, 4786.0, 4756.0, 4754.0, 4756.0, 4756.0, 4748.0, 4782.0, 4752.0, 4752.0, 4784.0, 4754.0, 4752.0, 4752.0, 4754.0, 4752.0, 4758.0, 4758.0, 4750.0, 4756.0, 4756.0, 4752.0, 4758.0, 4754.0, 4752.0, 4786.0, 4780.0, 4782.0, 4762.0, 4754.0, 4750.0, 4752.0, 4756.0, 4756.0, 4756.0, 4748.0, 4754.0, 4788.0, 4754.0, 4758.0, 4788.0, 4752.0, 4762.0, 4784.0, 4776.0, 4774.0, 4778.0, 4752.0, 4748.0, 4758.0, 4786.0, 4760.0, 4764.0, 4788.0, 4752.0, 4752.0, 4756.0, 4750.0, 4754.0, 4754.0, 4750.0, 4782.0, 4760.0, 4754.0, 4760.0, 4756.0, 4754.0, 4760.0, 4756.0, 4744.0, 4760.0, 4756.0, 4752.0, 4764.0, 4764.0, 4756.0, 4752.0, 4752.0, 4748.0, 4754.0, 4758.0, 4758.0, 4758.0, 4760.0, 4752.0, 4760.0, 4752.0, 4752.0, 4762.0, 4758.0, 4752.0, 4764.0, 4754.0, 4748.0, 4784.0, 4756.0, 4752.0, 4758.0, 4756.0, 4752.0, 4760.0, 4754.0, 4750.0, 4762.0, 4758.0, 4752.0, 4762.0, 4756.0, 4750.0, 4760.0, 4756.0, 4750.0, 4758.0, 4760.0, 4752.0, 4784.0, 4784.0, 4756.0, 4760.0, 4784.0, 4754.0, 4752.0, 4786.0, 4794.0, 4784.0, 4758.0, 4780.0],
      "WindowWidth": [18526.0, 18530.0, 18564.0, 18532.0, 18530.0, 18526.0, 18524.0, 18534.0, 18554.0, 18526.0, 18530.0, 18520.0, 18532.0, 18566.0, 18570.0, 18526.0, 18540.0, 18550.0, 18528.0, 18528.0, 18560.0, 18568.0, 18530.0, 18534.0, 18524.0, 18524.0, 18530.0, 18558.0, 18526.0, 18528.0, 18552.0, 18544.0, 18526.0, 18584.0, 18580.0, 18588.0, 18574.0, 18522.0, 18520.0, 18528.0, 18526.0, 18528.0, 18530.0, 18558.0, 18544.0, 18520.0, 18532.0, 18560.0, 18536.0, 18542.0, 18532.0, 18534.0, 18534.0, 18524.0, 18530.0, 18520.0, 18558.0, 18532.0, 18528.0, 18534.0, 18536.0, 18526.0, 18534.0, 18528.0, 18546.0, 18524.0, 18532.0, 18516.0, 18530.0, 18524.0, 18552.0, 18532.0, 18532.0, 18550.0, 18526.0, 18526.0, 18518.0, 18522.0, 18532.0, 18522.0, 18524.0, 18528.0, 18526.0, 18526.0, 18530.0, 18526.0, 18524.0, 18528.0, 18556.0, 18560.0, 18556.0, 18524.0, 18526.0, 18532.0, 18528.0, 18518.0, 18526.0, 18526.0, 18526.0, 18532.0, 18558.0, 18530.0, 18526.0, 18554.0, 18520.0, 18522.0, 18550.0, 18554.0, 18574.0, 18562.0, 18534.0, 18532.0, 18522.0, 18554.0, 18528.0, 18524.0, 18554.0, 18528.0, 18528.0, 18530.0, 18534.0, 18526.0, 18526.0, 18526.0, 18554.0, 18526.0, 18534.0, 18524.0, 18522.0, 18530.0, 18526.0, 18526.0, 18526.0, 18528.0, 18530.0, 18530.0, 18522.0, 18520.0, 18528.0, 18534.0, 18530.0, 18532.0, 18528.0, 18520.0, 18522.0, 18526.0, 18528.0, 18532.0, 18524.0, 18528.0, 18532.0, 18522.0, 18528.0, 18522.0, 18526.0, 18524.0, 18528.0, 18552.0, 18526.0, 18526.0, 18524.0, 18526.0, 18528.0, 18522.0, 18526.0, 18526.0, 18522.0, 18526.0, 18528.0, 18524.0, 18526.0, 18532.0, 18524.0, 18524.0, 18528.0, 18520.0, 18530.0, 18528.0, 18550.0, 18552.0, 18530.0, 18518.0, 18552.0, 18534.0, 18534.0, 18546.0, 18544.0, 18546.0, 18526.0, 18584.0]
    },
    "slices": {}
  }
}