{
  "AcquisitionMatrixPE": 104,
  "AcquisitionNumber": 1,
  "AcquisitionTime": "11:08:51.077500",
  "BandwidthPerPixelPhaseEncode": 17.17,
  "BaseResolution": 104,
  "BodyPartExamined": "BRAIN",
  "CoilString": "HC1-7;NC1_2",
  "ConsistencyInfo": "N4_VE11C_LATEST_20160120",
  "ConversionSoftware": "dcm2niix",
  "ConversionSoftwareVersion": "v1.0.20190902",
  "DerivedVendorReportedEchoSpacing": 0.000560011,
  "DeviceSerialNumber": "167006",
  "DwellTime": 2.1e-06,
  "EchoTime": 0.037,
  "EchoTrainLength": 104,
  "EffectiveEchoSpacing": 0.000560011,
  "FlipAngle": 52,
  "ImageComments": "Unaliased_MB4_PE3_LB",
  "ImageOrientationPatientDICOM": [0.999647, 0.0116653, 0.0238493, 0.00157024, 0.87075, -0.491724],
  "ImageType": [
    "ORIGINAL",
    "PRIMARY",
    "M",
    "MB",
    "ND",
    "MOSAIC"
],
  "ImagingFrequency": 123.259,
  "InPlanePhaseEncodingDirectionDICOM": "COL",
  "InstitutionAddress": "Chemin_Queen-Mary_4565_Montreal_District_CA_H3W_1W5",
  "InstitutionName": "IUGM",
  "InstitutionalDepartmentName": "Department",
  "MRAcquisitionType": "2D",
  "MagneticFieldStrength": 3,
  "Manufacturer": "Siemens",
  "ManufacturersModelName": "Prisma_fit",
  "Modality": "MR",
  "MultibandAccelerationFactor": 4,
  "PartialFourier": 1,
  "PatientPosition": "HFS",
  "PercentPhaseFOV": 100,
  "PhaseEncodingDirection": "j",
  "PhaseEncodingSteps": 104,
  "PhaseResolution": 1,
  "PixelBandwidth": 2290,
  "ProcedureStepDescription": "memory_things",
  "ProtocolName": "func_task-things_run-5",
  "PulseSequenceDetails": "%CustomerSeq%_cmrr_mbep2d_bold",
  "ReceiveCoilActiveElements": "HC1-7;NC1,2",
  "ReceiveCoilName": "HeadNeck_64",
  "ReconMatrixPE": 104,
  "RepetitionTime": 1.49,
  "SAR": 0.0475121,
  "ScanOptions": "FS",
  "ScanningSequence": "EP",
  "SequenceName": "epfid2d1_104",
  "SequenceVariant": "SK_SS",
  "SeriesDescription": "func_task-things_run-5",
  "SeriesNumber": 22,
  "ShimSetting": [618, -7189, -8854, 313, -6, -137, -26, 7],
  "SliceThickness": 2,
  "SliceTiming": [0, 0.7825, 0.0975, 0.88, 0.195, 0.98, 0.2925, 1.0775, 0.39, 1.175, 0.49, 1.2725, 0.5875, 1.37, 0.685, 0, 0.7825, 0.0975, 0.88, 0.195, 0.98, 0.2925, 1.0775, 0.39, 1.175, 0.49, 1.2725, 0.5875, 1.37, 0.685, 0, 0.7825, 0.0975, 0.88, 0.195, 0.98, 0.2925, 1.0775, 0.39, 1.175, 0.49, 1.2725, 0.5875, 1.37, 0.685, 0, 0.7825, 0.0975, 0.88, 0.195, 0.98, 0.2925, 1.0775, 0.39, 1.175, 0.49, 1.2725, 0.5875, 1.37, 0.685],
  "SoftwareVersions": "syngo_MR_E11",
  "SpacingBetweenSlices": 2,
  "StationName": "MRC35049",
  "TaskName": "things",
  "TotalReadoutTime": 0.0576811,
  "TxRefAmp": 264.876,
  "WipMemBlock": "2f770691-5a27-426f-bbcb-5be45fc58be3||Sequence: R016 ve11c/master r/e634e98; Dec 19 2017 11:00:25 by eja",
  "dcmmeta_affine": [
    [-1.9992949962615967, 0.0031404842156916857, 0.053005754947662354, 105.60369110107422],
    [-0.02333063632249832, 1.741499662399292, -0.9831758141517639, -51.777801513671875],
    [0.047698576003313065, 0.9834475517272949, 1.7408491373062134, -87.2465591430664],
    [0.0, 0.0, 0.0, 1.0]
],
  "dcmmeta_reorient_transform": [
    [0.0, -1.0, 0.0, 103.0],
    [1.0, 0.0, 0.0, 0.0],
    [0.0, 0.0, 1.0, 0.0],
    [0.0, 0.0, 0.0, 1.0]
],
  "dcmmeta_shape": [104, 104, 60, 190],
  "dcmmeta_slice_dim": 2,
  "dcmmeta_version": 0.6,
  "global": {
    "const": {
      "AcquisitionMatrix": [104, 0, 0, 104],
      "AngioFlag": "N",
      "BitsAllocated": 16,
      "BitsStored": 16,
      "BodyPartExamined": "BRAIN",
      "Columns": 832,
      "EchoNumbers": 1,
      "EchoTime": 37.0,
      "EchoTrainLength": 104,
      "FlipAngle": 52.0,
      "HighBit": 15,
      "ImageOrientationPatient": [0.99964750379055, 0.01166531773379, 0.02384928777736, 0.00157024210444, 0.87074982462712, -0.4917237814582],
      "ImagePositionPatient": [-834.8136836934, -769.99488748847, 354.66117377421],
      "ImageType": [
        "ORIGINAL",
        "PRIMARY",
        "M",
        "MB",
        "ND",
        "MOSAIC"
],
      "ImagedNucleus": "1H",
      "ImagingFrequency": 123.25895,
      "InPlanePhaseEncodingDirection": "COL",
      "MRAcquisitionType": "2D",
      "MagneticFieldStrength": 3.0,
      "Manufacturer": "SIEMENS",
      "ManufacturerModelName": "Prisma_fit",
      "Modality": "MR",
      "NumberOfAverages": 1.0,
      "NumberOfPhaseEncodingSteps": 104,
      "PercentPhaseFieldOfView": 100.0,
      "PercentSampling": 100.0,
      "PerformedProcedureStepStartTime": "103056.055000",
      "PhotometricInterpretation": "MONOCHROME2",
      "PixelBandwidth": 2290.0,
      "PixelRepresentation": 0,
      "PixelSpacing": [2.0, 2.0],
      "ProtocolName": "func_task-things_run-5",
      "RepetitionTime": 1490.0,
      "Rows": 832,
      "SAR": 0.0475121193463,
      "SamplesPerPixel": 1,
      "ScanOptions": "FS",
      "ScanningSequence": "EP",
      "SequenceName": "epfid2d1_104",
      "SequenceVariant": [
        "SK",
        "SS"
],
      "SeriesDescription": "func_task-things_run-5",
      "SeriesNumber": 22,
      "SeriesTime": "111015.610000",
      "SliceLocation": -47.689404888135,
      "SliceThickness": 2.0,
      "SmallestImagePixelValue": 0,
      "SoftwareVersions": "syngo MR E11",
      "SpacingBetweenSlices": 1.999999980732,
      "SpecificCharacterSet": "ISO_IR 100",
      "StudyID": "1",
      "StudyTime": "103055.988000",
      "TransmitCoilName": "Body",
      "VariableFlipAngleFlag": "N",
      "WindowCenterWidthExplanation": "Algo1",
      "dBdt": 0.0},
    "slices": {}
  },
  "time": {
    "samples": {
      "AcquisitionNumber": [1, 2, 3, 4, 5, 6, 7, 8, 9, 10, 11, 12, 13, 14, 15, 16, 17, 18, 19, 20, 21, 22, 23, 24, 25, 26, 27, 28, 29, 30, 31, 32, 33, 34, 35, 36, 37, 38, 39, 40, 41, 42, 43, 44, 45, 46, 47, 48, 49, 50, 51, 52, 53, 54, 55, 56, 57, 58, 59, 60, 61, 62, 63, 64, 65, 66, 67, 68, 69, 70, 71, 72, 73, 74, 75, 76, 77, 78, 79, 80, 81, 82, 83, 84, 85, 86, 87, 88, 89, 90, 91, 92, 93, 94, 95, 96, 97, 98, 99, 100, 101, 102, 103, 104, 105, 106, 107, 108, 109, 110, 111, 112, 113, 114, 115, 116, 117, 118, 119, 120, 121, 122, 123, 124, 125, 126, 127, 128, 129, 130, 131, 132, 133, 134, 135, 136, 137, 138, 139, 140, 141, 142, 143, 144, 145, 146, 147, 148, 149, 150, 151, 152, 153, 154, 155, 156, 157, 158, 159, 160, 161, 162, 163, 164, 165, 166, 167, 168, 169, 170, 171, 172, 173, 174, 175, 176, 177, 178, 179, 180, 181, 182, 183, 184, 185, 186, 187, 188, 189, 190],
      "AcquisitionTime": ["110851.077500", "110852.567500", "110854.057500", "110855.547500", "110857.037500", "110858.527500", "110900.017500", "110901.507500", "110902.997500", "110904.487500", "110905.977500", "110907.467500", "110908.957500", "110910.447500", "110911.937500", "110913.427500", "110914.917500", "110916.407500", "110917.897500", "110919.387500", "110920.877500", "110922.367500", "110923.857500", "110925.347500", "110926.837500", "110928.327500", "110929.817500", "110931.307500", "110932.797500", "110934.287500", "110935.777500", "110937.267500", "110938.757500", "110940.247500", "110941.737500", "110943.227500", "110944.717500", "110946.207500", "110947.697500", "110949.187500", "110950.677500", "110952.167500", "110953.657500", "110955.147500", "110956.637500", "110958.127500", "110959.617500", "111001.107500", "111002.597500", "111004.087500", "111005.577500", "111007.067500", "111008.557500", "111010.047500", "111011.537500", "111013.027500", "111014.517500", "111016.007500", "111017.497500", "111018.987500", "111020.477500", "111021.967500", "111023.457500", "111024.947500", "111026.437500", "111027.927500", "111029.417500", "111030.907500", "111032.397500", "111033.887500", "111035.377500", "111036.867500", "111038.357500", "111039.847500", "111041.337500", "111042.827500", "111044.317500", "111045.807500", "111047.297500", "111048.787500", "111050.277500", "111051.767500", "111053.257500", "111054.747500", "111056.237500", "111057.727500", "111059.217500", "111100.707500", "111102.197500", "111103.687500", "111105.177500", "111106.667500", "111108.157500", "111109.647500", "111111.137500", "111112.627500", "111114.117500", "111115.607500", "111117.097500", "111118.587500", "111120.077500", "111121.567500", "111123.057500", "111124.547500", "111126.037500", "111127.527500", "111129.017500", "111130.507500", "111131.997500", "111133.487500", "111134.977500", "111136.467500", "111137.957500", "111139.447500", "111140.937500", "111142.427500", "111143.917500", "111145.407500", "111146.897500", "111148.387500", "111149.877500", "111151.367500", "111152.857500", "111154.347500", "111155.837500", "111157.327500", "111158.817500", "111200.307500", "111201.797500", "111203.287500", "111204.777500", "111206.267500", "111207.757500", "111209.247500", "111210.737500", "111212.227500", "111213.717500", "111215.207500", "111216.697500", "111218.187500", "111219.677500", "111221.167500", "111222.657500", "111224.147500", "111225.637500", "111227.127500", "111228.617500", "111230.107500", "111231.597500", "111233.087500", "111234.577500", "111236.067500", "111237.557500", "111239.047500", "111240.537500", "111242.027500", "111243.517500", "111245.007500", "111246.497500", "111247.987500", "111249.477500", "111250.967500", "111252.457500", "111253.947500", "111255.437500", "111256.927500", "111258.417500", "111259.907500", "111301.397500", "111302.887500", "111304.377500", "111305.867500", "111307.357500", "111308.847500", "111310.337500", "111311.827500", "111313.317500", "111314.807500", "111316.297500", "111317.787500", "111319.277500", "111320.767500", "111322.257500", "111323.747500", "111325.237500", "111326.727500", "111328.217500", "111329.707500", "111331.197500", "111332.687500"],
      "ContentTime": ["111015.613000", "111015.617000", "111015.620000", "111015.624000", "111015.627000", "111015.631000", "111015.647000", "111015.650000", "111015.654000", "111015.657000", "111015.660000", "111015.664000", "111015.667000", "111015.670000", "111015.674000", "111015.677000", "111015.681000", "111015.687000", "111015.690000", "111015.694000", "111015.697000", "111015.701000", "111015.704000", "111015.707000", "111015.711000", "111015.714000", "111015.717000", "111015.721000", "111015.724000", "111015.728000", "111035.573000", "111035.577000", "111035.581000", "111035.584000", "111035.587000", "111035.591000", "111035.594000", "111035.597000", "111035.601000", "111035.604000", "111035.608000", "111035.611000", "111035.614000", "111035.617000", "111035.621000", "111035.624000", "111035.627000", "111035.631000", "111035.634000", "111035.638000", "111055.573000", "111055.577000", "111055.580000", "111055.584000", "111055.587000", "111055.590000", "111055.594000", "111055.597000", "111055.600000", "111055.604000", "111055.607000", "111055.610000", "111055.614000", "111055.617000", "111055.620000", "111055.624000", "111055.627000", "111055.639000", "111055.643000", "111055.646000", "111055.649000", "111115.573000", "111115.577000", "111115.580000", "111115.584000", "111115.587000", "111115.591000", "111115.594000", "111115.597000", "111115.601000", "111115.604000", "111115.607000", "111115.611000", "111115.614000", "111115.617000", "111115.621000", "111115.624000", "111115.627000", "111115.631000", "111115.634000", "111115.637000", "111155.572000", "111155.576000", "111155.579000", "111155.583000", "111155.586000", "111155.589000", "111155.593000", "111155.596000", "111155.599000", "111155.603000", "111155.606000", "111155.610000", "111155.613000", "111155.616000", "111155.620000", "111155.623000", "111155.626000", "111155.630000", "111155.633000", "111155.636000", "111155.640000", "111155.643000", "111155.646000", "111155.650000", "111155.663000", "111155.667000", "111155.670000", "111155.673000", "111155.676000", "111155.680000", "111155.683000", "111155.687000", "111235.573000", "111235.577000", "111235.580000", "111235.584000", "111235.587000", "111235.590000", "111235.594000", "111235.597000", "111235.601000", "111235.604000", "111235.607000", "111235.611000", "111235.614000", "111235.617000", "111235.621000", "111235.624000", "111235.627000", "111235.631000", "111235.634000", "111235.638000", "111235.641000", "111235.644000", "111235.648000", "111235.651000", "111235.654000", "111235.658000", "111235.661000", "111315.573000", "111315.577000", "111315.580000", "111315.584000", "111315.587000", "111315.590000", "111315.594000", "111315.597000", "111315.601000", "111315.604000", "111315.607000", "111315.611000", "111315.614000", "111315.617000", "111315.621000", "111315.624000", "111315.627000", "111315.631000", "111315.634000", "111315.637000", "111315.641000", "111315.644000", "111315.647000", "111315.651000", "111315.654000", "111315.657000", "111315.661000", "111334.515000", "111334.519000", "111334.523000", "111334.526000", "111334.529000", "111334.533000", "111334.536000", "111334.540000", "111334.543000", "111334.547000", "111334.550000", "111334.554000", "111334.557000"],
      "InstanceCreationTime": ["111015.613000", "111015.617000", "111015.620000", "111015.624000", "111015.627000", "111015.631000", "111015.647000", "111015.650000", "111015.654000", "111015.657000", "111015.660000", "111015.664000", "111015.667000", "111015.670000", "111015.674000", "111015.677000", "111015.681000", "111015.687000", "111015.690000", "111015.694000", "111015.697000", "111015.701000", "111015.704000", "111015.707000", "111015.711000", "111015.714000", "111015.717000", "111015.721000", "111015.724000", "111015.728000", "111035.573000", "111035.577000", "111035.581000", "111035.584000", "111035.587000", "111035.591000", "111035.594000", "111035.597000", "111035.601000", "111035.604000", "111035.608000", "111035.611000", "111035.614000", "111035.617000", "111035.621000", "111035.624000", "111035.627000", "111035.631000", "111035.634000", "111035.638000", "111055.573000", "111055.577000", "111055.580000", "111055.584000", "111055.587000", "111055.590000", "111055.594000", "111055.597000", "111055.600000", "111055.604000", "111055.607000", "111055.610000", "111055.614000", "111055.617000", "111055.620000", "111055.624000", "111055.627000", "111055.639000", "111055.643000", "111055.646000", "111055.649000", "111115.573000", "111115.577000", "111115.580000", "111115.584000", "111115.587000", "111115.591000", "111115.594000", "111115.597000", "111115.601000", "111115.604000", "111115.607000", "111115.611000", "111115.614000", "111115.617000", "111115.621000", "111115.624000", "111115.627000", "111115.631000", "111115.634000", "111115.637000", "111155.572000", "111155.576000", "111155.579000", "111155.583000", "111155.586000", "111155.589000", "111155.593000", "111155.596000", "111155.599000", "111155.603000", "111155.606000", "111155.610000", "111155.613000", "111155.616000", "111155.620000", "111155.623000", "111155.626000", "111155.630000", "111155.633000", "111155.636000", "111155.640000", "111155.643000", "111155.646000", "111155.650000", "111155.663000", "111155.667000", "111155.670000", "111155.673000", "111155.676000", "111155.680000", "111155.683000", "111155.687000", "111235.573000", "111235.577000", "111235.580000", "111235.584000", "111235.587000", "111235.590000", "111235.594000", "111235.597000", "111235.601000", "111235.604000", "111235.607000", "111235.611000", "111235.614000", "111235.617000", "111235.621000", "111235.624000", "111235.627000", "111235.631000", "111235.634000", "111235.638000", "111235.641000", "111235.644000", "111235.648000", "111235.651000", "111235.654000", "111235.658000", "111235.661000", "111315.573000", "111315.577000", "111315.580000", "111315.584000", "111315.587000", "111315.590000", "111315.594000", "111315.597000", "111315.601000", "111315.604000", "111315.607000", "111315.611000", "111315.614000", "111315.617000", "111315.621000", "111315.624000", "111315.627000", "111315.631000", "111315.634000", "111315.637000", "111315.641000", "111315.644000", "111315.647000", "111315.651000", "111315.654000", "111315.657000", "111315.661000", "111334.515000", "111334.519000", "111334.523000", "111334.526000", "111334.529000", "111334.533000", "111334.536000", "111334.540000", "111334.543000", "111334.547000", "111334.550000", "111334.554000", "111334.557000"],
      "InstanceNumber": [1, 2, 3, 4, 5, 6, 7, 8, 9, 10, 11, 12, 13, 14, 15, 16, 17, 18, 19, 20, 21, 22, 23, 24, 25, 26, 27, 28, 29, 30, 31, 32, 33, 34, 35, 36, 37, 38, 39, 40, 41, 42, 43, 44, 45, 46, 47, 48, 49, 50, 51, 52, 53, 54, 55, 56, 57, 58, 59, 60, 61, 62, 63, 64, 65, 66, 67, 68, 69, 70, 71, 72, 73, 74, 75, 76, 77, 78, 79, 80, 81, 82, 83, 84, 85, 86, 87, 88, 89, 90, 91, 92, 93, 94, 95, 96, 97, 98, 99, 100, 101, 102, 103, 104, 105, 106, 107, 108, 109, 110, 111, 112, 113, 114, 115, 116, 117, 118, 119, 120, 121, 122, 123, 124, 125, 126, 127, 128, 129, 130, 131, 132, 133, 134, 135, 136, 137, 138, 139, 140, 141, 142, 143, 144, 145, 146, 147, 148, 149, 150, 151, 152, 153, 154, 155, 156, 157, 158, 159, 160, 161, 162, 163, 164, 165, 166, 167, 168, 169, 170, 171, 172, 173, 174, 175, 176, 177, 178, 179, 180, 181, 182, 183, 184, 185, 186, 187, 188, 189, 190],
      "LargestImagePixelValue": [45946, 44593, 44245, 42567, 43148, 42764, 42540, 43258, 43663, 42945, 42126, 42705, 42202, 44039, 41907, 41467, 41818, 41879, 41273, 41081, 41924, 42296, 42204, 42090, 41714, 42831, 41168, 41065, 41974, 40934, 41744, 42741, 42509, 42007, 41777, 41323, 41206, 42522, 41703, 42145, 41588, 41212, 41645, 41553, 42085, 41713, 41682, 41531, 40842, 41725, 41387, 42021, 41633, 41806, 41400, 41273, 41812, 41660, 41579, 41333, 41013, 41230, 41220, 41445, 41247, 40968, 41239, 41297, 41548, 41395, 41255, 41727, 41279, 41556, 41229, 41320, 41392, 41111, 41461, 41043, 41348, 41228, 40934, 41451, 40734, 41764, 41305, 41372, 42972, 40850, 42392, 42025, 41187, 41439, 42054, 41356, 42120, 40908, 40682, 40755, 41092, 41290, 41408, 41530, 42533, 41168, 41349, 41983, 41440, 40998, 41066, 40877, 41442, 40654, 41376, 41348, 41231, 41286, 41225, 41292, 40998, 41824, 40554, 42072, 41705, 41250, 41209, 41351, 40921, 40400, 41155, 41098, 40863, 40822, 40843, 41069, 41307, 41507, 41421, 41497, 41153, 41337, 42152, 41915, 42255, 41580, 42503, 40910, 41804, 41806, 41148, 41405, 40736, 41418, 40664, 41287, 40991, 40892, 41041, 41145, 41392, 41501, 41002, 41274, 41313, 41744, 41236, 41139, 41060, 41636, 40836, 40830, 41219, 41020, 41911, 41231, 41227, 41369, 40899, 41240, 41155, 40885, 41671, 41288, 41258, 41291, 41393, 41161, 41043, 40953],
      "WindowCenter": [10909.0, 10816.0, 10779.0, 10783.0, 10813.0, 10815.0, 10799.0, 10814.0, 10822.0, 10807.0, 10766.0, 10724.0, 10703.0, 10748.0, 10776.0, 10825.0, 10793.0, 10765.0, 10735.0, 10742.0, 10770.0, 10787.0, 10788.0, 10773.0, 10757.0, 10765.0, 10733.0, 10711.0, 10719.0, 10763.0, 10810.0, 10813.0, 10773.0, 10753.0, 10734.0, 10719.0, 10760.0, 10808.0, 10788.0, 10761.0, 10735.0, 10748.0, 10759.0, 10779.0, 10786.0, 10747.0, 10712.0, 10703.0, 10716.0, 10768.0, 10791.0, 10789.0, 10750.0, 10740.0, 10723.0, 10716.0, 10727.0, 10728.0, 10731.0, 10733.0, 10735.0, 10725.0, 10716.0, 10728.0, 10737.0, 10753.0, 10761.0, 10743.0, 10741.0, 10724.0, 10730.0, 10730.0, 10725.0, 10746.0, 10742.0, 10749.0, 10724.0, 10727.0, 10734.0, 10730.0, 10736.0, 10728.0, 10720.0, 10732.0, 10731.0, 10742.0, 10730.0, 10693.0, 10700.0, 10714.0, 10772.0, 10729.0, 10701.0, 10711.0, 10744.0, 10744.0, 10747.0, 10727.0, 10739.0, 10744.0, 10749.0, 10731.0, 10720.0, 10707.0, 10697.0, 10695.0, 10677.0, 10685.0, 10728.0, 10766.0, 10780.0, 10766.0, 10720.0, 10687.0, 10706.0, 10730.0, 10736.0, 10738.0, 10710.0, 10715.0, 10711.0, 10740.0, 10767.0, 10769.0, 10731.0, 10709.0, 10717.0, 10706.0, 10709.0, 10707.0, 10714.0, 10709.0, 10729.0, 10712.0, 10717.0, 10738.0, 10743.0, 10751.0, 10757.0, 10755.0, 10752.0, 10758.0, 10778.0, 10782.0, 10763.0, 10712.0, 10723.0, 10729.0, 10763.0, 10784.0, 10758.0, 10735.0, 10697.0, 10679.0, 10674.0, 10720.0, 10729.0, 10722.0, 10720.0, 10745.0, 10740.0, 10747.0, 10722.0, 10700.0, 10680.0, 10699.0, 10724.0, 10764.0, 10771.0, 10749.0, 10732.0, 10760.0, 10759.0, 10763.0, 10762.0, 10740.0, 10722.0, 10676.0, 10663.0, 10697.0, 10727.0, 10739.0, 10739.0, 10721.0, 10719.0, 10710.0, 10697.0, 10703.0, 10718.0, 10730.0],
      "WindowWidth": [23487.0, 23250.0, 23139.0, 23142.0, 23200.0, 23201.0, 23165.0, 23192.0, 23206.0, 23174.0, 23088.0, 22987.0, 22943.0, 23031.0, 23105.0, 23223.0, 23149.0, 23083.0, 23024.0, 23040.0, 23098.0, 23133.0, 23137.0, 23101.0, 23068.0, 23078.0, 23017.0, 22968.0, 22978.0, 23080.0, 23186.0, 23190.0, 23105.0, 23061.0, 23023.0, 22989.0, 23077.0, 23179.0, 23142.0, 23076.0, 23016.0, 23051.0, 23075.0, 23119.0, 23135.0, 23050.0, 22968.0, 22943.0, 22978.0, 23093.0, 23145.0, 23139.0, 23056.0, 23028.0, 22990.0, 22977.0, 22996.0, 23000.0, 23008.0, 23015.0, 23021.0, 23002.0, 22979.0, 23008.0, 23025.0, 23062.0, 23078.0, 23037.0, 23032.0, 22993.0, 23010.0, 23006.0, 22998.0, 23042.0, 23032.0, 23054.0, 22997.0, 23001.0, 23020.0, 23014.0, 23025.0, 23005.0, 22988.0, 23009.0, 23012.0, 23030.0, 23007.0, 22924.0, 22933.0, 22970.0, 23099.0, 23008.0, 22944.0, 22964.0, 23036.0, 23042.0, 23041.0, 22997.0, 23025.0, 23038.0, 23049.0, 23007.0, 22982.0, 22957.0, 22925.0, 22925.0, 22894.0, 22900.0, 22998.0, 23089.0, 23123.0, 23104.0, 22985.0, 22912.0, 22948.0, 23000.0, 23018.0, 23023.0, 22960.0, 22970.0, 22966.0, 23027.0, 23091.0, 23090.0, 23006.0, 22957.0, 22976.0, 22951.0, 22957.0, 22957.0, 22969.0, 22959.0, 23003.0, 22968.0, 22975.0, 23025.0, 23036.0, 23051.0, 23071.0, 23063.0, 23057.0, 23069.0, 23110.0, 23118.0, 23084.0, 22971.0, 22983.0, 23009.0, 23077.0, 23126.0, 23073.0, 23017.0, 22933.0, 22886.0, 22878.0, 22976.0, 23001.0, 22984.0, 22977.0, 23037.0, 23026.0, 23040.0, 22989.0, 22938.0, 22893.0, 22929.0, 22990.0, 23078.0, 23096.0, 23045.0, 23006.0, 23071.0, 23068.0, 23078.0, 23069.0, 23023.0, 22986.0, 22882.0, 22854.0, 22925.0, 23004.0, 23029.0, 23025.0, 22985.0, 22975.0, 22960.0, 22926.0, 22938.0, 22974.0, 23000.0]
    },
    "slices": {}
  }
}