{
  "AcquisitionMatrixPE": 104,
  "AcquisitionNumber": 1,
  "AcquisitionTime": "13:42:15.047500",
  "BandwidthPerPixelPhaseEncode": 17.17,
  "BaseResolution": 104,
  "BodyPartExamined": "BRAIN",
  "CoilString": "HC1-7;NC1_2",
  "ConsistencyInfo": "N4_VE11C_LATEST_20160120",
  "ConversionSoftware": "dcm2niix",
  "ConversionSoftwareVersion": "v1.0.20190902",
  "DerivedVendorReportedEchoSpacing": 0.000560011,
  "DeviceSerialNumber": "167006",
  "DwellTime": 2.1e-06,
  "EchoTime": 0.037,
  "EchoTrainLength": 104,
  "EffectiveEchoSpacing": 0.000560011,
  "FlipAngle": 52,
  "ImageComments": "Unaliased_MB4_PE3_LB",
  "ImageOrientationPatientDICOM": [0.999276, 0.0292309, 0.0243402, -0.0214553, 0.961523, -0.273884],
  "ImageType": [
    "ORIGINAL",
    "PRIMARY",
    "P",
    "MB",
    "ND",
    "MOSAIC"
],
  "ImagingFrequency": 123.259,
  "InPlanePhaseEncodingDirectionDICOM": "COL",
  "InstitutionAddress": "Chemin_Queen-Mary_4565_Montreal_District_CA_H3W_1W5",
  "InstitutionName": "IUGM",
  "InstitutionalDepartmentName": "Department",
  "MRAcquisitionType": "2D",
  "MagneticFieldStrength": 3,
  "Manufacturer": "Siemens",
  "ManufacturersModelName": "Prisma_fit",
  "Modality": "MR",
  "MultibandAccelerationFactor": 4,
  "PartialFourier": 1,
  "PatientPosition": "HFS",
  "PercentPhaseFOV": 100,
  "PhaseEncodingDirection": "j",
  "PhaseEncodingSteps": 104,
  "PhaseResolution": 1,
  "PixelBandwidth": 2290,
  "ProcedureStepDescription": "memory_things",
  "ProtocolName": "func_task-things_run-4",
  "PulseSequenceDetails": "%CustomerSeq%_cmrr_mbep2d_bold",
  "ReceiveCoilActiveElements": "HC1-7;NC1,2",
  "ReceiveCoilName": "HeadNeck_64",
  "ReconMatrixPE": 104,
  "RepetitionTime": 1.49,
  "SAR": 0.0365199,
  "ScanOptions": "FS",
  "ScanningSequence": "EP",
  "SequenceName": "epfid2d1_104",
  "SequenceVariant": "SK_SS",
  "SeriesDescription": "func_task-things_run-4",
  "SeriesNumber": 20,
  "ShimSetting": [639, -7196, -8813, 648, 59, 43, 92, -11],
  "SliceThickness": 2,
  "SliceTiming": [0, 0.785, 0.0975, 0.8825, 0.195, 0.98, 0.295, 1.0775, 0.3925, 1.175, 0.49, 1.275, 0.5875, 1.3725, 0.685, 0, 0.785, 0.0975, 0.8825, 0.195, 0.98, 0.295, 1.0775, 0.3925, 1.175, 0.49, 1.275, 0.5875, 1.3725, 0.685, 0, 0.785, 0.0975, 0.8825, 0.195, 0.98, 0.295, 1.0775, 0.3925, 1.175, 0.49, 1.275, 0.5875, 1.3725, 0.685, 0, 0.785, 0.0975, 0.8825, 0.195, 0.98, 0.295, 1.0775, 0.3925, 1.175, 0.49, 1.275, 0.5875, 1.3725, 0.685],
  "SoftwareVersions": "syngo_MR_E11",
  "SpacingBetweenSlices": 2,
  "StationName": "MRC35049",
  "TaskName": "things",
  "TotalReadoutTime": 0.0576811,
  "TxRefAmp": 216.379,
  "WipMemBlock": "7e28ae7a-325f-49e1-9c6d-b06deaae8576||Sequence: R016 ve11c/master r/e634e98; Dec 19 2017 11:00:25 by eja",
  "dcmmeta_affine": [
    [-1.9985525608062744, -0.04291053116321564, 0.06281915307044983, 109.86357879638672],
    [-0.058461710810661316, 1.923046588897705, -0.5463278293609619, -69.98748016357422],
    [0.04868047311902046, 0.5477687120437622, 1.922909140586853, -67.62686157226562],
    [0.0, 0.0, 0.0, 1.0]
],
  "dcmmeta_reorient_transform": [
    [0.0, -1.0, 0.0, 103.0],
    [1.0, 0.0, 0.0, 0.0],
    [0.0, 0.0, 1.0, 0.0],
    [0.0, 0.0, 0.0, 1.0]
],
  "dcmmeta_shape": [104, 104, 60, 190],
  "dcmmeta_slice_dim": 2,
  "dcmmeta_version": 0.6,
  "global": {
    "const": {
      "AcquisitionMatrix": [104, 0, 0, 104],
      "AngioFlag": "N",
      "BitsAllocated": 16,
      "BitsStored": 16,
      "BodyPartExamined": "BRAIN",
      "Columns": 832,
      "EchoNumbers": 1,
      "EchoTime": 37.0,
      "EchoTrainLength": 104,
      "FlipAngle": 52.0,
      "HighBit": 15,
      "ImageOrientationPatient": [0.99927629311091, 0.02923085508164, 0.02434023701044, -0.0214552649843, 0.96152328635864, -0.2738843577033],
      "ImagePositionPatient": [-817.29750619655, -849.35533157309, 170.4614371762],
      "ImageType": [
        "ORIGINAL",
        "PRIMARY",
        "P",
        "MB",
        "ND",
        "MOSAIC"
],
      "ImagedNucleus": "1H",
      "ImagingFrequency": 123.258985,
      "InPlanePhaseEncodingDirection": "COL",
      "LargestImagePixelValue": 4095,
      "MRAcquisitionType": "2D",
      "MagneticFieldStrength": 3.0,
      "Manufacturer": "SIEMENS",
      "ManufacturerModelName": "Prisma_fit",
      "Modality": "MR",
      "NumberOfAverages": 1.0,
      "NumberOfPhaseEncodingSteps": 104,
      "PercentPhaseFieldOfView": 100.0,
      "PercentSampling": 100.0,
      "PerformedProcedureStepStartTime": "132103.268000",
      "PhotometricInterpretation": "MONOCHROME2",
      "PixelBandwidth": 2290.0,
      "PixelRepresentation": 0,
      "PixelSpacing": [2.0, 2.0],
      "ProtocolName": "func_task-things_run-4",
      "RepetitionTime": 1490.0,
      "RescaleIntercept": -4096.0,
      "RescaleSlope": 2.0,
      "RescaleType": "US",
      "Rows": 832,
      "SAR": 0.03651993656565,
      "SamplesPerPixel": 1,
      "ScanOptions": "FS",
      "ScanningSequence": "EP",
      "SequenceName": "epfid2d1_104",
      "SequenceVariant": [
        "SK",
        "SS"
],
      "SeriesDescription": "func_task-things_run-4",
      "SeriesNumber": 20,
      "SeriesTime": "134345.328000",
      "SliceLocation": -42.451331425946,
      "SliceThickness": 2.0,
      "SmallestImagePixelValue": 0,
      "SoftwareVersions": "syngo MR E11",
      "SpacingBetweenSlices": 1.9999999473305,
      "SpecificCharacterSet": "ISO_IR 100",
      "StudyID": "2",
      "StudyTime": "132103.213000",
      "TransmitCoilName": "Body",
      "VariableFlipAngleFlag": "N",
      "WindowCenterWidthExplanation": "Algo1",
      "dBdt": 0.0},
    "slices": {}
  },
  "time": {
    "samples": {
      "AcquisitionNumber": [1, 2, 3, 4, 5, 6, 7, 8, 9, 10, 11, 12, 13, 14, 15, 16, 17, 18, 19, 20, 21, 22, 23, 24, 25, 26, 27, 28, 29, 30, 31, 32, 33, 34, 35, 36, 37, 38, 39, 40, 41, 42, 43, 44, 45, 46, 47, 48, 49, 50, 51, 52, 53, 54, 55, 56, 57, 58, 59, 60, 61, 62, 63, 64, 65, 66, 67, 68, 69, 70, 71, 72, 73, 74, 75, 76, 77, 78, 79, 80, 81, 82, 83, 84, 85, 86, 87, 88, 89, 90, 91, 92, 93, 94, 95, 96, 97, 98, 99, 100, 101, 102, 103, 104, 105, 106, 107, 108, 109, 110, 111, 112, 113, 114, 115, 116, 117, 118, 119, 120, 121, 122, 123, 124, 125, 126, 127, 128, 129, 130, 131, 132, 133, 134, 135, 136, 137, 138, 139, 140, 141, 142, 143, 144, 145, 146, 147, 148, 149, 150, 151, 152, 153, 154, 155, 156, 157, 158, 159, 160, 161, 162, 163, 164, 165, 166, 167, 168, 169, 170, 171, 172, 173, 174, 175, 176, 177, 178, 179, 180, 181, 182, 183, 184, 185, 186, 187, 188, 189, 190],
      "AcquisitionTime": ["134215.047500", "134216.537500", "134218.027500", "134219.517500", "134221.007500", "134222.497500", "134223.987500", "134225.477500", "134226.967500", "134228.457500", "134229.947500", "134231.437500", "134232.927500", "134234.417500", "134235.907500", "134237.397500", "134238.887500", "134240.377500", "134241.867500", "134243.357500", "134244.847500", "134246.337500", "134247.827500", "134249.317500", "134250.807500", "134252.297500", "134253.787500", "134255.277500", "134256.767500", "134258.257500", "134259.747500", "134301.237500", "134302.727500", "134304.217500", "134305.707500", "134307.197500", "134308.687500", "134310.177500", "134311.667500", "134313.157500", "134314.647500", "134316.137500", "134317.627500", "134319.117500", "134320.607500", "134322.097500", "134323.587500", "134325.077500", "134326.567500", "134328.057500", "134329.547500", "134331.037500", "134332.527500", "134334.017500", "134335.507500", "134336.997500", "134338.487500", "134339.977500", "134341.467500", "134342.957500", "134344.447500", "134345.937500", "134347.427500", "134348.917500", "134350.407500", "134351.897500", "134353.387500", "134354.877500", "134356.367500", "134357.857500", "134359.347500", "134400.837500", "134402.327500", "134403.817500", "134405.307500", "134406.797500", "134408.287500", "134409.777500", "134411.267500", "134412.757500", "134414.247500", "134415.737500", "134417.227500", "134418.717500", "134420.207500", "134421.697500", "134423.187500", "134424.677500", "134426.167500", "134427.657500", "134429.147500", "134430.637500", "134432.127500", "134433.617500", "134435.107500", "134436.597500", "134438.087500", "134439.577500", "134441.067500", "134442.557500", "134444.047500", "134445.537500", "134447.027500", "134448.517500", "134450.007500", "134451.497500", "134452.987500", "134454.477500", "134455.967500", "134457.457500", "134458.947500", "134500.437500", "134501.927500", "134503.417500", "134504.907500", "134506.397500", "134507.887500", "134509.377500", "134510.867500", "134512.357500", "134513.847500", "134515.337500", "134516.827500", "134518.317500", "134519.807500", "134521.297500", "134522.787500", "134524.277500", "134525.767500", "134527.257500", "134528.747500", "134530.237500", "134531.727500", "134533.217500", "134534.707500", "134536.197500", "134537.687500", "134539.177500", "134540.667500", "134542.157500", "134543.647500", "134545.137500", "134546.627500", "134548.117500", "134549.607500", "134551.097500", "134552.587500", "134554.077500", "134555.567500", "134557.057500", "134558.547500", "134600.037500", "134601.527500", "134603.017500", "134604.507500", "134605.997500", "134607.487500", "134608.977500", "134610.467500", "134611.957500", "134613.447500", "134614.937500", "134616.427500", "134617.917500", "134619.407500", "134620.897500", "134622.387500", "134623.877500", "134625.367500", "134626.857500", "134628.347500", "134629.837500", "134631.327500", "134632.817500", "134634.307500", "134635.797500", "134637.287500", "134638.777500", "134640.267500", "134641.757500", "134643.247500", "134644.737500", "134646.227500", "134647.717500", "134649.207500", "134650.697500", "134652.187500", "134653.677500", "134655.167500", "134656.657500"],
      "ContentTime": ["134345.330000", "134345.333000", "134345.336000", "134345.343000", "134345.346000", "134345.349000", "134345.351000", "134345.354000", "134345.356000", "134345.359000", "134345.361000", "134345.364000", "134345.366000", "134345.369000", "134345.371000", "134345.374000", "134345.376000", "134345.379000", "134345.381000", "134345.384000", "134345.386000", "134345.389000", "134345.391000", "134345.394000", "134345.396000", "134345.399000", "134345.401000", "134345.404000", "134345.406000", "134345.409000", "134345.411000", "134345.414000", "134345.416000", "134345.419000", "134345.421000", "134345.424000", "134404.917000", "134404.919000", "134404.922000", "134404.925000", "134404.927000", "134404.930000", "134404.932000", "134404.935000", "134404.937000", "134404.940000", "134404.943000", "134404.945000", "134404.948000", "134404.950000", "134404.953000", "134404.955000", "134404.958000", "134404.960000", "134404.963000", "134404.965000", "134424.831000", "134424.833000", "134424.836000", "134424.838000", "134424.841000", "134424.844000", "134424.846000", "134424.849000", "134424.851000", "134424.854000", "134424.856000", "134424.859000", "134424.861000", "134424.864000", "134424.866000", "134424.869000", "134424.871000", "134424.874000", "134424.876000", "134424.879000", "134444.870000", "134444.873000", "134444.876000", "134444.880000", "134444.884000", "134444.887000", "134444.890000", "134444.894000", "134444.898000", "134444.901000", "134444.904000", "134444.907000", "134444.909000", "134444.912000", "134444.915000", "134444.917000", "134444.920000", "134444.922000", "134444.925000", "134444.928000", "134524.885000", "134524.890000", "134524.893000", "134524.896000", "134524.899000", "134524.903000", "134524.906000", "134524.908000", "134524.911000", "134524.913000", "134524.916000", "134524.919000", "134524.921000", "134524.924000", "134524.926000", "134524.929000", "134524.931000", "134524.934000", "134524.936000", "134524.939000", "134524.942000", "134524.944000", "134524.947000", "134524.949000", "134524.952000", "134524.954000", "134524.957000", "134524.960000", "134524.962000", "134524.965000", "134604.850000", "134604.853000", "134604.856000", "134604.858000", "134604.861000", "134604.863000", "134604.866000", "134604.869000", "134604.871000", "134604.874000", "134604.876000", "134604.879000", "134604.881000", "134604.884000", "134604.886000", "134604.889000", "134604.891000", "134604.894000", "134604.896000", "134604.899000", "134604.901000", "134604.904000", "134604.907000", "134604.909000", "134604.912000", "134604.914000", "134604.917000", "134644.893000", "134644.896000", "134644.898000", "134644.901000", "134644.904000", "134644.906000", "134644.909000", "134644.911000", "134644.914000", "134644.916000", "134644.919000", "134644.921000", "134644.924000", "134644.926000", "134644.929000", "134644.932000", "134644.934000", "134644.937000", "134644.939000", "134644.942000", "134644.945000", "134644.947000", "134644.950000", "134644.952000", "134644.955000", "134644.957000", "134644.960000", "134658.873000", "134658.876000", "134658.879000", "134658.881000", "134658.884000", "134658.887000", "134658.890000", "134658.892000", "134658.895000", "134658.898000"],
      "InstanceCreationTime": ["134345.330000", "134345.333000", "134345.336000", "134345.343000", "134345.346000", "134345.349000", "134345.351000", "134345.354000", "134345.356000", "134345.359000", "134345.361000", "134345.364000", "134345.366000", "134345.369000", "134345.371000", "134345.374000", "134345.376000", "134345.379000", "134345.381000", "134345.384000", "134345.386000", "134345.389000", "134345.391000", "134345.394000", "134345.396000", "134345.399000", "134345.401000", "134345.404000", "134345.406000", "134345.409000", "134345.411000", "134345.414000", "134345.416000", "134345.419000", "134345.421000", "134345.424000", "134404.917000", "134404.919000", "134404.922000", "134404.925000", "134404.927000", "134404.930000", "134404.932000", "134404.935000", "134404.937000", "134404.940000", "134404.943000", "134404.945000", "134404.948000", "134404.950000", "134404.953000", "134404.955000", "134404.958000", "134404.960000", "134404.963000", "134404.965000", "134424.831000", "134424.833000", "134424.836000", "134424.838000", "134424.841000", "134424.844000", "134424.846000", "134424.849000", "134424.851000", "134424.854000", "134424.856000", "134424.859000", "134424.861000", "134424.864000", "134424.866000", "134424.869000", "134424.871000", "134424.874000", "134424.876000", "134424.879000", "134444.870000", "134444.873000", "134444.876000", "134444.880000", "134444.884000", "134444.887000", "134444.890000", "134444.894000", "134444.898000", "134444.901000", "134444.904000", "134444.907000", "134444.909000", "134444.912000", "134444.915000", "134444.917000", "134444.920000", "134444.922000", "134444.925000", "134444.928000", "134524.885000", "134524.890000", "134524.893000", "134524.896000", "134524.899000", "134524.903000", "134524.906000", "134524.908000", "134524.911000", "134524.913000", "134524.916000", "134524.919000", "134524.921000", "134524.924000", "134524.926000", "134524.929000", "134524.931000", "134524.934000", "134524.936000", "134524.939000", "134524.942000", "134524.944000", "134524.947000", "134524.949000", "134524.952000", "134524.954000", "134524.957000", "134524.960000", "134524.962000", "134524.965000", "134604.850000", "134604.853000", "134604.856000", "134604.858000", "134604.861000", "134604.863000", "134604.866000", "134604.869000", "134604.871000", "134604.874000", "134604.876000", "134604.879000", "134604.881000", "134604.884000", "134604.886000", "134604.889000", "134604.891000", "134604.894000", "134604.896000", "134604.899000", "134604.901000", "134604.904000", "134604.907000", "134604.909000", "134604.912000", "134604.914000", "134604.917000", "134644.893000", "134644.896000", "134644.898000", "134644.901000", "134644.904000", "134644.906000", "134644.909000", "134644.911000", "134644.914000", "134644.916000", "134644.919000", "134644.921000", "134644.924000", "134644.926000", "134644.929000", "134644.932000", "134644.934000", "134644.937000", "134644.939000", "134644.942000", "134644.945000", "134644.947000", "134644.950000", "134644.952000", "134644.955000", "134644.957000", "134644.960000", "134658.873000", "134658.876000", "134658.879000", "134658.881000", "134658.884000", "134658.887000", "134658.890000", "134658.892000", "134658.895000", "134658.898000"],
      "InstanceNumber": [1, 2, 3, 4, 5, 6, 7, 8, 9, 10, 11, 12, 13, 14, 15, 16, 17, 18, 19, 20, 21, 22, 23, 24, 25, 26, 27, 28, 29, 30, 31, 32, 33, 34, 35, 36, 37, 38, 39, 40, 41, 42, 43, 44, 45, 46, 47, 48, 49, 50, 51, 52, 53, 54, 55, 56, 57, 58, 59, 60, 61, 62, 63, 64, 65, 66, 67, 68, 69, 70, 71, 72, 73, 74, 75, 76, 77, 78, 79, 80, 81, 82, 83, 84, 85, 86, 87, 88, 89, 90, 91, 92, 93, 94, 95, 96, 97, 98, 99, 100, 101, 102, 103, 104, 105, 106, 107, 108, 109, 110, 111, 112, 113, 114, 115, 116, 117, 118, 119, 120, 121, 122, 123, 124, 125, 126, 127, 128, 129, 130, 131, 132, 133, 134, 135, 136, 137, 138, 139, 140, 141, 142, 143, 144, 145, 146, 147, 148, 149, 150, 151, 152, 153, 154, 155, 156, 157, 158, 159, 160, 161, 162, 163, 164, 165, 166, 167, 168, 169, 170, 171, 172, 173, 174, 175, 176, 177, 178, 179, 180, 181, 182, 183, 184, 185, 186, 187, 188, 189, 190],
      "WindowCenter": [4828.0, 4826.0, 4826.0, 4828.0, 4830.0, 4826.0, 4826.0, 4828.0, 4822.0, 4828.0, 4830.0, 4826.0, 4828.0, 4826.0, 4826.0, 4824.0, 4828.0, 4830.0, 4830.0, 4824.0, 4826.0, 4824.0, 4830.0, 4824.0, 4828.0, 4828.0, 4828.0, 4824.0, 4828.0, 4802.0, 4824.0, 4824.0, 4826.0, 4828.0, 4826.0, 4830.0, 4826.0, 4828.0, 4828.0, 4826.0, 4828.0, 4828.0, 4828.0, 4826.0, 4828.0, 4826.0, 4828.0, 4826.0, 4828.0, 4828.0, 4830.0, 4828.0, 4826.0, 4832.0, 4828.0, 4830.0, 4824.0, 4828.0, 4828.0, 4828.0, 4824.0, 4828.0, 4804.0, 4828.0, 4824.0, 4826.0, 4824.0, 4826.0, 4826.0, 4824.0, 4826.0, 4832.0, 4830.0, 4826.0, 4802.0, 4826.0, 4826.0, 4826.0, 4826.0, 4804.0, 4828.0, 4826.0, 4826.0, 4828.0, 4826.0, 4826.0, 4826.0, 4824.0, 4824.0, 4828.0, 4830.0, 4826.0, 4828.0, 4830.0, 4826.0, 4826.0, 4826.0, 4828.0, 4826.0, 4824.0, 4830.0, 4826.0, 4828.0, 4824.0, 4802.0, 4830.0, 4826.0, 4828.0, 4828.0, 4826.0, 4828.0, 4830.0, 4826.0, 4826.0, 4826.0, 4826.0, 4826.0, 4826.0, 4824.0, 4826.0, 4826.0, 4828.0, 4830.0, 4830.0, 4828.0, 4826.0, 4830.0, 4828.0, 4828.0, 4828.0, 4828.0, 4828.0, 4830.0, 4828.0, 4826.0, 4826.0, 4828.0, 4826.0, 4826.0, 4828.0, 4828.0, 4830.0, 4828.0, 4826.0, 4826.0, 4828.0, 4826.0, 4828.0, 4828.0, 4824.0, 4828.0, 4826.0, 4826.0, 4828.0, 4826.0, 4828.0, 4824.0, 4824.0, 4828.0, 4826.0, 4804.0, 4826.0, 4828.0, 4826.0, 4828.0, 4830.0, 4826.0, 4828.0, 4830.0, 4824.0, 4828.0, 4830.0, 4804.0, 4828.0, 4828.0, 4804.0, 4830.0, 4828.0, 4830.0, 4824.0, 4828.0, 4826.0, 4826.0, 4828.0, 4824.0, 4826.0, 4828.0, 4828.0, 4802.0, 4828.0],
      "WindowWidth": [18590.0, 18588.0, 18592.0, 18590.0, 18598.0, 18588.0, 18592.0, 18594.0, 18586.0, 18592.0, 18594.0, 18592.0, 18594.0, 18590.0, 18594.0, 18586.0, 18592.0, 18588.0, 18592.0, 18594.0, 18594.0, 18588.0, 18596.0, 18590.0, 18590.0, 18586.0, 18592.0, 18590.0, 18594.0, 18560.0, 18590.0, 18586.0, 18592.0, 18592.0, 18592.0, 18596.0, 18586.0, 18592.0, 18590.0, 18592.0, 18590.0, 18594.0, 18592.0, 18588.0, 18590.0, 18594.0, 18592.0, 18592.0, 18592.0, 18594.0, 18588.0, 18594.0, 18588.0, 18598.0, 18592.0, 18596.0, 18596.0, 18590.0, 18594.0, 18590.0, 18582.0, 18590.0, 18560.0, 18590.0, 18586.0, 18592.0, 18588.0, 18590.0, 18588.0, 18590.0, 18586.0, 18594.0, 18586.0, 18596.0, 18560.0, 18592.0, 18588.0, 18592.0, 18588.0, 18562.0, 18590.0, 18588.0, 18588.0, 18590.0, 18590.0, 18596.0, 18590.0, 18590.0, 18588.0, 18590.0, 18594.0, 18586.0, 18588.0, 18590.0, 18586.0, 18586.0, 18588.0, 18590.0, 18592.0, 18584.0, 18594.0, 18588.0, 18588.0, 18592.0, 18560.0, 18592.0, 18588.0, 18590.0, 18592.0, 18588.0, 18590.0, 18590.0, 18594.0, 18592.0, 18590.0, 18586.0, 18590.0, 18586.0, 18588.0, 18586.0, 18588.0, 18584.0, 18592.0, 18588.0, 18592.0, 18584.0, 18590.0, 18590.0, 18590.0, 18588.0, 18592.0, 18594.0, 18588.0, 18594.0, 18588.0, 18592.0, 18592.0, 18586.0, 18592.0, 18598.0, 18594.0, 18594.0, 18586.0, 18586.0, 18588.0, 18592.0, 18590.0, 18592.0, 18586.0, 18586.0, 18590.0, 18592.0, 18586.0, 18588.0, 18586.0, 18592.0, 18588.0, 18588.0, 18590.0, 18588.0, 18558.0, 18586.0, 18588.0, 18590.0, 18588.0, 18592.0, 18590.0, 18594.0, 18590.0, 18584.0, 18594.0, 18590.0, 18558.0, 18592.0, 18594.0, 18558.0, 18592.0, 18594.0, 18592.0, 18594.0, 18592.0, 18584.0, 18596.0, 18592.0, 18590.0, 18588.0, 18588.0, 18596.0, 18558.0, 18592.0]
    },
    "slices": {}
  }
}