{
  "AcquisitionMatrixPE": 104,
  "AcquisitionNumber": 1,
  "AcquisitionTime": "13:23:30.357500",
  "BandwidthPerPixelPhaseEncode": 17.17,
  "BaseResolution": 104,
  "BodyPartExamined": "BRAIN",
  "CoilString": "HC1-7;NC1_2",
  "ConsistencyInfo": "N4_VE11C_LATEST_20160120",
  "ConversionSoftware": "dcm2niix",
  "ConversionSoftwareVersion": "v1.0.20190902",
  "DerivedVendorReportedEchoSpacing": 0.000560011,
  "DeviceSerialNumber": "167006",
  "DwellTime": 2.1e-06,
  "EchoTime": 0.037,
  "EchoTrainLength": 104,
  "EffectiveEchoSpacing": 0.000560011,
  "FlipAngle": 52,
  "ImageComments": "Unaliased_MB4_PE3_LB",
  "ImageOrientationPatientDICOM": [0.999276, 0.0292309, 0.0243402, -0.0214553, 0.961523, -0.273884],
  "ImageType": [
    "ORIGINAL",
    "PRIMARY",
    "M",
    "MB",
    "ND",
    "MOSAIC"
],
  "ImagingFrequency": 123.259,
  "InPlanePhaseEncodingDirectionDICOM": "COL",
  "InstitutionAddress": "Chemin_Queen-Mary_4565_Montreal_District_CA_H3W_1W5",
  "InstitutionName": "IUGM",
  "InstitutionalDepartmentName": "Department",
  "MRAcquisitionType": "2D",
  "MagneticFieldStrength": 3,
  "Manufacturer": "Siemens",
  "ManufacturersModelName": "Prisma_fit",
  "Modality": "MR",
  "MultibandAccelerationFactor": 4,
  "PartialFourier": 1,
  "PatientPosition": "HFS",
  "PercentPhaseFOV": 100,
  "PhaseEncodingDirection": "j",
  "PhaseEncodingSteps": 104,
  "PhaseResolution": 1,
  "PixelBandwidth": 2290,
  "ProcedureStepDescription": "memory_things",
  "ProtocolName": "func_task-things_run-1",
  "PulseSequenceDetails": "%CustomerSeq%_cmrr_mbep2d_bold",
  "ReceiveCoilActiveElements": "HC1-7;NC1,2",
  "ReceiveCoilName": "HeadNeck_64",
  "ReconMatrixPE": 104,
  "RepetitionTime": 1.49,
  "SAR": 0.0365199,
  "ScanOptions": "FS",
  "ScanningSequence": "EP",
  "SequenceName": "epfid2d1_104",
  "SequenceVariant": "SK_SS",
  "SeriesDescription": "func_task-things_run-1",
  "SeriesNumber": 10,
  "ShimSetting": [639, -7196, -8813, 648, 59, 43, 92, -11],
  "SliceThickness": 2,
  "SliceTiming": [0, 0.7825, 0.0975, 0.8825, 0.195, 0.98, 0.295, 1.0775, 0.3925, 1.175, 0.49, 1.2725, 0.5875, 1.3725, 0.685, 0, 0.7825, 0.0975, 0.8825, 0.195, 0.98, 0.295, 1.0775, 0.3925, 1.175, 0.49, 1.2725, 0.5875, 1.3725, 0.685, 0, 0.7825, 0.0975, 0.8825, 0.195, 0.98, 0.295, 1.0775, 0.3925, 1.175, 0.49, 1.2725, 0.5875, 1.3725, 0.685, 0, 0.7825, 0.0975, 0.8825, 0.195, 0.98, 0.295, 1.0775, 0.3925, 1.175, 0.49, 1.2725, 0.5875, 1.3725, 0.685],
  "SoftwareVersions": "syngo_MR_E11",
  "SpacingBetweenSlices": 2,
  "StationName": "MRC35049",
  "TaskName": "things",
  "TotalReadoutTime": 0.0576811,
  "TxRefAmp": 216.379,
  "WipMemBlock": "ccb73d4c-de8a-42a2-a6bc-83a363e21501||Sequence: R016 ve11c/master r/e634e98; Dec 19 2017 11:00:25 by eja",
  "dcmmeta_affine": [
    [-1.9985525608062744, -0.04291053116321564, 0.06281915307044983, 109.86357879638672],
    [-0.058461710810661316, 1.923046588897705, -0.5463278293609619, -69.98748016357422],
    [0.04868047311902046, 0.5477687120437622, 1.922909140586853, -67.62686157226562],
    [0.0, 0.0, 0.0, 1.0]
],
  "dcmmeta_reorient_transform": [
    [0.0, -1.0, 0.0, 103.0],
    [1.0, 0.0, 0.0, 0.0],
    [0.0, 0.0, 1.0, 0.0],
    [0.0, 0.0, 0.0, 1.0]
],
  "dcmmeta_shape": [104, 104, 60, 190],
  "dcmmeta_slice_dim": 2,
  "dcmmeta_version": 0.6,
  "global": {
    "const": {
      "AcquisitionMatrix": [104, 0, 0, 104],
      "AngioFlag": "N",
      "BitsAllocated": 16,
      "BitsStored": 16,
      "BodyPartExamined": "BRAIN",
      "Columns": 832,
      "EchoNumbers": 1,
      "EchoTime": 37.0,
      "EchoTrainLength": 104,
      "FlipAngle": 52.0,
      "HighBit": 15,
      "ImageOrientationPatient": [0.99927629311091, 0.02923085508164, 0.02434023701044, -0.0214552649843, 0.96152328635864, -0.2738843577033],
      "ImagePositionPatient": [-817.29750619655, -849.35533157309, 170.4614371762],
      "ImageType": [
        "ORIGINAL",
        "PRIMARY",
        "M",
        "MB",
        "ND",
        "MOSAIC"
],
      "ImagedNucleus": "1H",
      "ImagingFrequency": 123.258974,
      "InPlanePhaseEncodingDirection": "COL",
      "MRAcquisitionType": "2D",
      "MagneticFieldStrength": 3.0,
      "Manufacturer": "SIEMENS",
      "ManufacturerModelName": "Prisma_fit",
      "Modality": "MR",
      "NumberOfAverages": 1.0,
      "NumberOfPhaseEncodingSteps": 104,
      "PercentPhaseFieldOfView": 100.0,
      "PercentSampling": 100.0,
      "PerformedProcedureStepStartTime": "132103.268000",
      "PhotometricInterpretation": "MONOCHROME2",
      "PixelBandwidth": 2290.0,
      "PixelRepresentation": 0,
      "PixelSpacing": [2.0, 2.0],
      "ProtocolName": "func_task-things_run-1",
      "RepetitionTime": 1490.0,
      "Rows": 832,
      "SAR": 0.03651993656565,
      "SamplesPerPixel": 1,
      "ScanOptions": "FS",
      "ScanningSequence": "EP",
      "SequenceName": "epfid2d1_104",
      "SequenceVariant": [
        "SK",
        "SS"
],
      "SeriesDescription": "func_task-things_run-1",
      "SeriesNumber": 10,
      "SeriesTime": "132444.749000",
      "SliceLocation": -42.451331425946,
      "SliceThickness": 2.0,
      "SmallestImagePixelValue": 0,
      "SoftwareVersions": "syngo MR E11",
      "SpacingBetweenSlices": 1.9999999473305,
      "SpecificCharacterSet": "ISO_IR 100",
      "StudyID": "2",
      "StudyTime": "132103.213000",
      "TransmitCoilName": "Body",
      "VariableFlipAngleFlag": "N",
      "WindowCenterWidthExplanation": "Algo1",
      "dBdt": 0.0},
    "slices": {}
  },
  "time": {
    "samples": {
      "AcquisitionNumber": [1, 2, 3, 4, 5, 6, 7, 8, 9, 10, 11, 12, 13, 14, 15, 16, 17, 18, 19, 20, 21, 22, 23, 24, 25, 26, 27, 28, 29, 30, 31, 32, 33, 34, 35, 36, 37, 38, 39, 40, 41, 42, 43, 44, 45, 46, 47, 48, 49, 50, 51, 52, 53, 54, 55, 56, 57, 58, 59, 60, 61, 62, 63, 64, 65, 66, 67, 68, 69, 70, 71, 72, 73, 74, 75, 76, 77, 78, 79, 80, 81, 82, 83, 84, 85, 86, 87, 88, 89, 90, 91, 92, 93, 94, 95, 96, 97, 98, 99, 100, 101, 102, 103, 104, 105, 106, 107, 108, 109, 110, 111, 112, 113, 114, 115, 116, 117, 118, 119, 120, 121, 122, 123, 124, 125, 126, 127, 128, 129, 130, 131, 132, 133, 134, 135, 136, 137, 138, 139, 140, 141, 142, 143, 144, 145, 146, 147, 148, 149, 150, 151, 152, 153, 154, 155, 156, 157, 158, 159, 160, 161, 162, 163, 164, 165, 166, 167, 168, 169, 170, 171, 172, 173, 174, 175, 176, 177, 178, 179, 180, 181, 182, 183, 184, 185, 186, 187, 188, 189, 190],
      "AcquisitionTime": ["132330.357500", "132331.847500", "132333.337500", "132334.827500", "132336.317500", "132337.807500", "132339.297500", "132340.787500", "132342.277500", "132343.767500", "132345.257500", "132346.747500", "132348.237500", "132349.727500", "132351.217500", "132352.707500", "132354.197500", "132355.687500", "132357.177500", "132358.667500", "132400.157500", "132401.647500", "132403.137500", "132404.627500", "132406.117500", "132407.607500", "132409.097500", "132410.587500", "132412.077500", "132413.567500", "132415.057500", "132416.547500", "132418.037500", "132419.527500", "132421.017500", "132422.507500", "132423.997500", "132425.487500", "132426.977500", "132428.467500", "132429.957500", "132431.447500", "132432.937500", "132434.427500", "132435.917500", "132437.407500", "132438.897500", "132440.387500", "132441.877500", "132443.367500", "132444.857500", "132446.347500", "132447.837500", "132449.327500", "132450.817500", "132452.307500", "132453.797500", "132455.287500", "132456.777500", "132458.267500", "132459.757500", "132501.247500", "132502.737500", "132504.227500", "132505.717500", "132507.207500", "132508.697500", "132510.187500", "132511.677500", "132513.167500", "132514.657500", "132516.147500", "132517.637500", "132519.127500", "132520.617500", "132522.107500", "132523.597500", "132525.087500", "132526.577500", "132528.067500", "132529.557500", "132531.047500", "132532.537500", "132534.027500", "132535.517500", "132537.007500", "132538.497500", "132539.987500", "132541.477500", "132542.967500", "132544.457500", "132545.947500", "132547.437500", "132548.927500", "132550.417500", "132551.907500", "132553.397500", "132554.887500", "132556.377500", "132557.867500", "132559.357500", "132600.847500", "132602.337500", "132603.827500", "132605.317500", "132606.807500", "132608.297500", "132609.787500", "132611.277500", "132612.767500", "132614.257500", "132615.747500", "132617.237500", "132618.727500", "132620.217500", "132621.707500", "132623.197500", "132624.687500", "132626.177500", "132627.667500", "132629.157500", "132630.647500", "132632.137500", "132633.627500", "132635.117500", "132636.607500", "132638.097500", "132639.587500", "132641.077500", "132642.567500", "132644.057500", "132645.547500", "132647.037500", "132648.527500", "132650.017500", "132651.507500", "132652.997500", "132654.487500", "132655.977500", "132657.467500", "132658.957500", "132700.447500", "132701.937500", "132703.427500", "132704.917500", "132706.407500", "132707.897500", "132709.387500", "132710.877500", "132712.367500", "132713.857500", "132715.347500", "132716.837500", "132718.327500", "132719.817500", "132721.307500", "132722.797500", "132724.287500", "132725.777500", "132727.267500", "132728.757500", "132730.247500", "132731.737500", "132733.227500", "132734.717500", "132736.207500", "132737.697500", "132739.187500", "132740.677500", "132742.167500", "132743.657500", "132745.147500", "132746.637500", "132748.127500", "132749.617500", "132751.107500", "132752.597500", "132754.087500", "132755.577500", "132757.067500", "132758.557500", "132800.047500", "132801.537500", "132803.027500", "132804.517500", "132806.007500", "132807.497500", "132808.987500", "132810.477500", "132811.967500"],
      "ContentTime": ["132444.752000", "132444.755000", "132444.759000", "132504.718000", "132504.722000", "132504.725000", "132504.728000", "132504.732000", "132504.735000", "132504.738000", "132504.742000", "132504.745000", "132504.749000", "132504.752000", "132504.755000", "132504.759000", "132504.762000", "132504.765000", "132504.769000", "132504.772000", "132504.792000", "132504.795000", "132504.799000", "132524.718000", "132524.722000", "132524.725000", "132524.729000", "132524.732000", "132524.735000", "132524.739000", "132524.742000", "132524.745000", "132524.748000", "132524.752000", "132524.755000", "132524.759000", "132524.762000", "132524.765000", "132524.769000", "132524.772000", "132524.775000", "132524.779000", "132524.782000", "132544.721000", "132544.726000", "132544.729000", "132544.733000", "132544.736000", "132544.739000", "132544.743000", "132544.746000", "132544.749000", "132544.753000", "132544.756000", "132544.759000", "132544.763000", "132544.766000", "132544.769000", "132544.773000", "132544.776000", "132544.785000", "132544.788000", "132544.791000", "132544.795000", "132604.719000", "132604.723000", "132604.726000", "132604.729000", "132604.733000", "132604.736000", "132604.739000", "132604.743000", "132604.746000", "132604.750000", "132604.753000", "132604.756000", "132604.760000", "132604.763000", "132604.766000", "132604.770000", "132604.773000", "132604.777000", "132604.780000", "132604.783000", "132624.719000", "132624.723000", "132624.726000", "132624.730000", "132624.733000", "132624.736000", "132624.740000", "132624.743000", "132624.746000", "132624.750000", "132624.753000", "132624.757000", "132624.760000", "132624.763000", "132624.767000", "132624.770000", "132624.773000", "132624.777000", "132624.780000", "132624.784000", "132644.718000", "132644.722000", "132644.725000", "132644.729000", "132644.732000", "132644.735000", "132644.739000", "132644.742000", "132644.745000", "132644.749000", "132644.752000", "132644.755000", "132644.759000", "132644.762000", "132644.766000", "132644.769000", "132644.772000", "132644.791000", "132644.794000", "132644.797000", "132724.718000", "132724.722000", "132724.725000", "132724.729000", "132724.732000", "132724.735000", "132724.739000", "132724.742000", "132724.745000", "132724.749000", "132724.752000", "132724.756000", "132724.759000", "132724.763000", "132724.768000", "132724.773000", "132724.777000", "132724.780000", "132724.785000", "132724.790000", "132724.794000", "132724.797000", "132724.801000", "132724.804000", "132724.808000", "132724.811000", "132724.814000", "132724.818000", "132724.821000", "132724.824000", "132724.828000", "132724.831000", "132804.719000", "132804.723000", "132804.726000", "132804.734000", "132804.738000", "132804.741000", "132804.744000", "132804.748000", "132804.751000", "132804.754000", "132804.758000", "132804.761000", "132804.764000", "132804.768000", "132804.771000", "132804.775000", "132804.778000", "132804.781000", "132804.785000", "132804.788000", "132804.792000", "132804.795000", "132804.798000", "132804.802000", "132804.805000", "132804.808000", "132804.812000", "132814.010000", "132814.013000", "132814.017000", "132814.021000", "132814.024000", "132814.028000", "132814.032000"],
      "InstanceCreationTime": ["132444.752000", "132444.755000", "132444.759000", "132504.718000", "132504.722000", "132504.725000", "132504.728000", "132504.732000", "132504.735000", "132504.738000", "132504.742000", "132504.745000", "132504.749000", "132504.752000", "132504.755000", "132504.759000", "132504.762000", "132504.765000", "132504.769000", "132504.772000", "132504.792000", "132504.795000", "132504.799000", "132524.718000", "132524.722000", "132524.725000", "132524.729000", "132524.732000", "132524.735000", "132524.739000", "132524.742000", "132524.745000", "132524.748000", "132524.752000", "132524.755000", "132524.759000", "132524.762000", "132524.765000", "132524.769000", "132524.772000", "132524.775000", "132524.779000", "132524.782000", "132544.721000", "132544.726000", "132544.729000", "132544.733000", "132544.736000", "132544.739000", "132544.743000", "132544.746000", "132544.749000", "132544.753000", "132544.756000", "132544.759000", "132544.763000", "132544.766000", "132544.769000", "132544.773000", "132544.776000", "132544.785000", "132544.788000", "132544.791000", "132544.795000", "132604.719000", "132604.723000", "132604.726000", "132604.729000", "132604.733000", "132604.736000", "132604.739000", "132604.743000", "132604.746000", "132604.750000", "132604.753000", "132604.756000", "132604.760000", "132604.763000", "132604.766000", "132604.770000", "132604.773000", "132604.777000", "132604.780000", "132604.783000", "132624.719000", "132624.723000", "132624.726000", "132624.730000", "132624.733000", "132624.736000", "132624.740000", "132624.743000", "132624.746000", "132624.750000", "132624.753000", "132624.757000", "132624.760000", "132624.763000", "132624.767000", "132624.770000", "132624.773000", "132624.777000", "132624.780000", "132624.784000", "132644.718000", "132644.722000", "132644.725000", "132644.729000", "132644.732000", "132644.735000", "132644.739000", "132644.742000", "132644.745000", "132644.749000", "132644.752000", "132644.755000", "132644.759000", "132644.762000", "132644.766000", "132644.769000", "132644.772000", "132644.791000", "132644.794000", "132644.797000", "132724.718000", "132724.722000", "132724.725000", "132724.729000", "132724.732000", "132724.735000", "132724.739000", "132724.742000", "132724.745000", "132724.749000", "132724.752000", "132724.756000", "132724.759000", "132724.763000", "132724.768000", "132724.773000", "132724.777000", "132724.780000", "132724.785000", "132724.790000", "132724.794000", "132724.797000", "132724.801000", "132724.804000", "132724.808000", "132724.811000", "132724.814000", "132724.818000", "132724.821000", "132724.824000", "132724.828000", "132724.831000", "132804.719000", "132804.723000", "132804.726000", "132804.734000", "132804.738000", "132804.741000", "132804.744000", "132804.748000", "132804.751000", "132804.754000", "132804.758000", "132804.761000", "132804.764000", "132804.768000", "132804.771000", "132804.775000", "132804.778000", "132804.781000", "132804.785000", "132804.788000", "132804.792000", "132804.795000", "132804.798000", "132804.802000", "132804.805000", "132804.808000", "132804.812000", "132814.010000", "132814.013000", "132814.017000", "132814.021000", "132814.024000", "132814.028000", "132814.032000"],
      "InstanceNumber": [1, 2, 3, 4, 5, 6, 7, 8, 9, 10, 11, 12, 13, 14, 15, 16, 17, 18, 19, 20, 21, 22, 23, 24, 25, 26, 27, 28, 29, 30, 31, 32, 33, 34, 35, 36, 37, 38, 39, 40, 41, 42, 43, 44, 45, 46, 47, 48, 49, 50, 51, 52, 53, 54, 55, 56, 57, 58, 59, 60, 61, 62, 63, 64, 65, 66, 67, 68, 69, 70, 71, 72, 73, 74, 75, 76, 77, 78, 79, 80, 81, 82, 83, 84, 85, 86, 87, 88, 89, 90, 91, 92, 93, 94, 95, 96, 97, 98, 99, 100, 101, 102, 103, 104, 105, 106, 107, 108, 109, 110, 111, 112, 113, 114, 115, 116, 117, 118, 119, 120, 121, 122, 123, 124, 125, 126, 127, 128, 129, 130, 131, 132, 133, 134, 135, 136, 137, 138, 139, 140, 141, 142, 143, 144, 145, 146, 147, 148, 149, 150, 151, 152, 153, 154, 155, 156, 157, 158, 159, 160, 161, 162, 163, 164, 165, 166, 167, 168, 169, 170, 171, 172, 173, 174, 175, 176, 177, 178, 179, 180, 181, 182, 183, 184, 185, 186, 187, 188, 189, 190],
      "LargestImagePixelValue": [41548, 40531, 39640, 39395, 39247, 39390, 39194, 39192, 39324, 39273, 39101, 39333, 39305, 39182, 38828, 38771, 38834, 38888, 39403, 39013, 39328, 38782, 38856, 38769, 38921, 39076, 38929, 38835, 39199, 39003, 39251, 39118, 39198, 39299, 38527, 38986, 38661, 38927, 39176, 39162, 38990, 38855, 39031, 38814, 38835, 39004, 38872, 39524, 38870, 38858, 38813, 39001, 38840, 38767, 39078, 38955, 38869, 38821, 38772, 38786, 38955, 38469, 39033, 38892, 39068, 38998, 38555, 38696, 38703, 38907, 38791, 38720, 38820, 38736, 38631, 38868, 38814, 38590, 38669, 38619, 38898, 38921, 38644, 38670, 38914, 38727, 38706, 38786, 38812, 38714, 38694, 38703, 38677, 38477, 38578, 38702, 38957, 38782, 38764, 38931, 38758, 38849, 38739, 38589, 38675, 38408, 38563, 38820, 39062, 38309, 38538, 38765, 38566, 38922, 38711, 38788, 38677, 38643, 38600, 38749, 38399, 38794, 39007, 38773, 38950, 38735, 38474, 38685, 38612, 38928, 38572, 38333, 38762, 38445, 38378, 38481, 38767, 38768, 38335, 38485, 38751, 38231, 38465, 38616, 38637, 38672, 38610, 38494, 38588, 38903, 38746, 38793, 38732, 39011, 38883, 39028, 38300, 38538, 38334, 38880, 38730, 38835, 38588, 38499, 38697, 38898, 38829, 38826, 38530, 38686, 38539, 38554, 38614, 38449, 38408, 38518, 38922, 38315, 38410, 38201, 38552, 38542, 38531, 39211, 38477, 38676, 38468, 38705, 38415, 38431],
      "WindowCenter": [10256.0, 10216.0, 10184.0, 10172.0, 10162.0, 10167.0, 10171.0, 10179.0, 10186.0, 10185.0, 10180.0, 10185.0, 10187.0, 10190.0, 10190.0, 10183.0, 10173.0, 10178.0, 10170.0, 10169.0, 10167.0, 10162.0, 10163.0, 10157.0, 10144.0, 10128.0, 10131.0, 10135.0, 10150.0, 10152.0, 10158.0, 10158.0, 10166.0, 10175.0, 10166.0, 10156.0, 10145.0, 10143.0, 10158.0, 10166.0, 10161.0, 10154.0, 10158.0, 10154.0, 10161.0, 10153.0, 10145.0, 10156.0, 10154.0, 10162.0, 10164.0, 10170.0, 10163.0, 10154.0, 10154.0, 10161.0, 10163.0, 10162.0, 10162.0, 10177.0, 10177.0, 10156.0, 10143.0, 10133.0, 10132.0, 10143.0, 10147.0, 10162.0, 10156.0, 10145.0, 10135.0, 10129.0, 10159.0, 10164.0, 10170.0, 10156.0, 10155.0, 10164.0, 10165.0, 10156.0, 10159.0, 10167.0, 10179.0, 10175.0, 10163.0, 10144.0, 10138.0, 10145.0, 10146.0, 10144.0, 10145.0, 10153.0, 10161.0, 10155.0, 10139.0, 10136.0, 10137.0, 10138.0, 10144.0, 10145.0, 10138.0, 10144.0, 10151.0, 10153.0, 10153.0, 10142.0, 10146.0, 10146.0, 10154.0, 10156.0, 10151.0, 10149.0, 10146.0, 10146.0, 10139.0, 10137.0, 10147.0, 10158.0, 10159.0, 10149.0, 10125.0, 10120.0, 10134.0, 10144.0, 10161.0, 10157.0, 10149.0, 10140.0, 10146.0, 10159.0, 10157.0, 10151.0, 10141.0, 10139.0, 10147.0, 10149.0, 10163.0, 10173.0, 10167.0, 10151.0, 10140.0, 10127.0, 10138.0, 10139.0, 10139.0, 10140.0, 10147.0, 10140.0, 10138.0, 10140.0, 10140.0, 10133.0, 10125.0, 10129.0, 10144.0, 10156.0, 10151.0, 10136.0, 10124.0, 10119.0, 10129.0, 10146.0, 10146.0, 10131.0, 10123.0, 10128.0, 10130.0, 10139.0, 10142.0, 10148.0, 10149.0, 10150.0, 10157.0, 10152.0, 10136.0, 10133.0, 10155.0, 10167.0, 10161.0, 10138.0, 10119.0, 10114.0, 10115.0, 10133.0, 10132.0, 10130.0, 10130.0, 10130.0, 10124.0, 10115.0],
      "WindowWidth": [21877.0, 21759.0, 21676.0, 21639.0, 21614.0, 21621.0, 21632.0, 21648.0, 21662.0, 21663.0, 21652.0, 21661.0, 21666.0, 21676.0, 21677.0, 21660.0, 21635.0, 21644.0, 21626.0, 21623.0, 21617.0, 21608.0, 21612.0, 21600.0, 21567.0, 21529.0, 21533.0, 21546.0, 21578.0, 21586.0, 21596.0, 21597.0, 21615.0, 21635.0, 21620.0, 21594.0, 21568.0, 21562.0, 21595.0, 21613.0, 21603.0, 21589.0, 21597.0, 21588.0, 21604.0, 21586.0, 21569.0, 21591.0, 21592.0, 21608.0, 21615.0, 21625.0, 21610.0, 21590.0, 21588.0, 21606.0, 21613.0, 21610.0, 21609.0, 21642.0, 21638.0, 21594.0, 21561.0, 21538.0, 21536.0, 21561.0, 21577.0, 21607.0, 21595.0, 21566.0, 21543.0, 21533.0, 21598.0, 21612.0, 21623.0, 21595.0, 21591.0, 21611.0, 21614.0, 21593.0, 21595.0, 21617.0, 21647.0, 21641.0, 21606.0, 21559.0, 21548.0, 21567.0, 21569.0, 21565.0, 21567.0, 21585.0, 21602.0, 21591.0, 21551.0, 21544.0, 21547.0, 21550.0, 21563.0, 21564.0, 21551.0, 21561.0, 21580.0, 21584.0, 21585.0, 21561.0, 21568.0, 21567.0, 21586.0, 21594.0, 21582.0, 21575.0, 21568.0, 21567.0, 21551.0, 21545.0, 21573.0, 21599.0, 21601.0, 21575.0, 21518.0, 21505.0, 21537.0, 21561.0, 21602.0, 21597.0, 21579.0, 21554.0, 21567.0, 21595.0, 21596.0, 21580.0, 21557.0, 21553.0, 21570.0, 21577.0, 21609.0, 21633.0, 21619.0, 21581.0, 21555.0, 21528.0, 21549.0, 21553.0, 21553.0, 21556.0, 21568.0, 21556.0, 21549.0, 21555.0, 21553.0, 21537.0, 21520.0, 21528.0, 21561.0, 21590.0, 21581.0, 21546.0, 21517.0, 21504.0, 21527.0, 21567.0, 21567.0, 21532.0, 21515.0, 21524.0, 21531.0, 21551.0, 21559.0, 21571.0, 21575.0, 21579.0, 21596.0, 21585.0, 21547.0, 21538.0, 21588.0, 21616.0, 21601.0, 21551.0, 21505.0, 21491.0, 21496.0, 21533.0, 21535.0, 21530.0, 21528.0, 21527.0, 21515.0, 21494.0]
    },
    "slices": {}
  }
}