{
  "AcquisitionMatrixPE": 104,
  "AcquisitionNumber": 1,
  "AcquisitionTime": "13:23:30.357500",
  "BandwidthPerPixelPhaseEncode": 17.17,
  "BaseResolution": 104,
  "BodyPartExamined": "BRAIN",
  "CoilString": "HC1-7;NC1_2",
  "ConsistencyInfo": "N4_VE11C_LATEST_20160120",
  "ConversionSoftware": "dcm2niix",
  "ConversionSoftwareVersion": "v1.0.20190902",
  "DerivedVendorReportedEchoSpacing": 0.000560011,
  "DeviceSerialNumber": "167006",
  "DwellTime": 2.1e-06,
  "EchoTime": 0.037,
  "EchoTrainLength": 104,
  "EffectiveEchoSpacing": 0.000560011,
  "FlipAngle": 52,
  "ImageComments": "Unaliased_MB4_PE3_LB",
  "ImageOrientationPatientDICOM": [0.999276, 0.0292309, 0.0243402, -0.0214553, 0.961523, -0.273884],
  "ImageType": [
    "ORIGINAL",
    "PRIMARY",
    "P",
    "MB",
    "ND",
    "MOSAIC"
],
  "ImagingFrequency": 123.259,
  "InPlanePhaseEncodingDirectionDICOM": "COL",
  "InstitutionAddress": "Chemin_Queen-Mary_4565_Montreal_District_CA_H3W_1W5",
  "InstitutionName": "IUGM",
  "InstitutionalDepartmentName": "Department",
  "MRAcquisitionType": "2D",
  "MagneticFieldStrength": 3,
  "Manufacturer": "Siemens",
  "ManufacturersModelName": "Prisma_fit",
  "Modality": "MR",
  "MultibandAccelerationFactor": 4,
  "PartialFourier": 1,
  "PatientPosition": "HFS",
  "PercentPhaseFOV": 100,
  "PhaseEncodingDirection": "j",
  "PhaseEncodingSteps": 104,
  "PhaseResolution": 1,
  "PixelBandwidth": 2290,
  "ProcedureStepDescription": "memory_things",
  "ProtocolName": "func_task-things_run-1",
  "PulseSequenceDetails": "%CustomerSeq%_cmrr_mbep2d_bold",
  "ReceiveCoilActiveElements": "HC1-7;NC1,2",
  "ReceiveCoilName": "HeadNeck_64",
  "ReconMatrixPE": 104,
  "RepetitionTime": 1.49,
  "SAR": 0.0365199,
  "ScanOptions": "FS",
  "ScanningSequence": "EP",
  "SequenceName": "epfid2d1_104",
  "SequenceVariant": "SK_SS",
  "SeriesDescription": "func_task-things_run-1",
  "SeriesNumber": 11,
  "ShimSetting": [639, -7196, -8813, 648, 59, 43, 92, -11],
  "SliceThickness": 2,
  "SliceTiming": [0, 0.7825, 0.0975, 0.8825, 0.195, 0.98, 0.295, 1.0775, 0.3925, 1.175, 0.49, 1.2725, 0.5875, 1.3725, 0.685, 0, 0.7825, 0.0975, 0.8825, 0.195, 0.98, 0.295, 1.0775, 0.3925, 1.175, 0.49, 1.2725, 0.5875, 1.3725, 0.685, 0, 0.7825, 0.0975, 0.8825, 0.195, 0.98, 0.295, 1.0775, 0.3925, 1.175, 0.49, 1.2725, 0.5875, 1.3725, 0.685, 0, 0.7825, 0.0975, 0.8825, 0.195, 0.98, 0.295, 1.0775, 0.3925, 1.175, 0.49, 1.2725, 0.5875, 1.3725, 0.685],
  "SoftwareVersions": "syngo_MR_E11",
  "SpacingBetweenSlices": 2,
  "StationName": "MRC35049",
  "TaskName": "things",
  "TotalReadoutTime": 0.0576811,
  "TxRefAmp": 216.379,
  "WipMemBlock": "ccb73d4c-de8a-42a2-a6bc-83a363e21501||Sequence: R016 ve11c/master r/e634e98; Dec 19 2017 11:00:25 by eja",
  "dcmmeta_affine": [
    [-1.9985525608062744, -0.04291053116321564, 0.06281915307044983, 109.86357879638672],
    [-0.058461710810661316, 1.923046588897705, -0.5463278293609619, -69.98748016357422],
    [0.04868047311902046, 0.5477687120437622, 1.922909140586853, -67.62686157226562],
    [0.0, 0.0, 0.0, 1.0]
],
  "dcmmeta_reorient_transform": [
    [0.0, -1.0, 0.0, 103.0],
    [1.0, 0.0, 0.0, 0.0],
    [0.0, 0.0, 1.0, 0.0],
    [0.0, 0.0, 0.0, 1.0]
],
  "dcmmeta_shape": [104, 104, 60, 190],
  "dcmmeta_slice_dim": 2,
  "dcmmeta_version": 0.6,
  "global": {
    "const": {
      "AcquisitionMatrix": [104, 0, 0, 104],
      "AngioFlag": "N",
      "BitsAllocated": 16,
      "BitsStored": 16,
      "BodyPartExamined": "BRAIN",
      "Columns": 832,
      "EchoNumbers": 1,
      "EchoTime": 37.0,
      "EchoTrainLength": 104,
      "FlipAngle": 52.0,
      "HighBit": 15,
      "ImageOrientationPatient": [0.99927629311091, 0.02923085508164, 0.02434023701044, -0.0214552649843, 0.96152328635864, -0.2738843577033],
      "ImagePositionPatient": [-817.29750619655, -849.35533157309, 170.4614371762],
      "ImageType": [
        "ORIGINAL",
        "PRIMARY",
        "P",
        "MB",
        "ND",
        "MOSAIC"
],
      "ImagedNucleus": "1H",
      "ImagingFrequency": 123.258974,
      "InPlanePhaseEncodingDirection": "COL",
      "LargestImagePixelValue": 4095,
      "MRAcquisitionType": "2D",
      "MagneticFieldStrength": 3.0,
      "Manufacturer": "SIEMENS",
      "ManufacturerModelName": "Prisma_fit",
      "Modality": "MR",
      "NumberOfAverages": 1.0,
      "NumberOfPhaseEncodingSteps": 104,
      "PercentPhaseFieldOfView": 100.0,
      "PercentSampling": 100.0,
      "PerformedProcedureStepStartTime": "132103.268000",
      "PhotometricInterpretation": "MONOCHROME2",
      "PixelBandwidth": 2290.0,
      "PixelRepresentation": 0,
      "PixelSpacing": [2.0, 2.0],
      "ProtocolName": "func_task-things_run-1",
      "RepetitionTime": 1490.0,
      "RescaleIntercept": -4096.0,
      "RescaleSlope": 2.0,
      "RescaleType": "US",
      "Rows": 832,
      "SAR": 0.03651993656565,
      "SamplesPerPixel": 1,
      "ScanOptions": "FS",
      "ScanningSequence": "EP",
      "SequenceName": "epfid2d1_104",
      "SequenceVariant": [
        "SK",
        "SS"
],
      "SeriesDescription": "func_task-things_run-1",
      "SeriesNumber": 11,
      "SeriesTime": "132444.793000",
      "SliceLocation": -42.451331425946,
      "SliceThickness": 2.0,
      "SmallestImagePixelValue": 0,
      "SoftwareVersions": "syngo MR E11",
      "SpacingBetweenSlices": 1.9999999473305,
      "SpecificCharacterSet": "ISO_IR 100",
      "StudyID": "2",
      "StudyTime": "132103.213000",
      "TransmitCoilName": "Body",
      "VariableFlipAngleFlag": "N",
      "WindowCenterWidthExplanation": "Algo1",
      "dBdt": 0.0},
    "slices": {}
  },
  "time": {
    "samples": {
      "AcquisitionNumber": [1, 2, 3, 4, 5, 6, 7, 8, 9, 10, 11, 12, 13, 14, 15, 16, 17, 18, 19, 20, 21, 22, 23, 24, 25, 26, 27, 28, 29, 30, 31, 32, 33, 34, 35, 36, 37, 38, 39, 40, 41, 42, 43, 44, 45, 46, 47, 48, 49, 50, 51, 52, 53, 54, 55, 56, 57, 58, 59, 60, 61, 62, 63, 64, 65, 66, 67, 68, 69, 70, 71, 72, 73, 74, 75, 76, 77, 78, 79, 80, 81, 82, 83, 84, 85, 86, 87, 88, 89, 90, 91, 92, 93, 94, 95, 96, 97, 98, 99, 100, 101, 102, 103, 104, 105, 106, 107, 108, 109, 110, 111, 112, 113, 114, 115, 116, 117, 118, 119, 120, 121, 122, 123, 124, 125, 126, 127, 128, 129, 130, 131, 132, 133, 134, 135, 136, 137, 138, 139, 140, 141, 142, 143, 144, 145, 146, 147, 148, 149, 150, 151, 152, 153, 154, 155, 156, 157, 158, 159, 160, 161, 162, 163, 164, 165, 166, 167, 168, 169, 170, 171, 172, 173, 174, 175, 176, 177, 178, 179, 180, 181, 182, 183, 184, 185, 186, 187, 188, 189, 190],
      "AcquisitionTime": ["132330.357500", "132331.847500", "132333.337500", "132334.827500", "132336.317500", "132337.807500", "132339.297500", "132340.787500", "132342.277500", "132343.767500", "132345.257500", "132346.747500", "132348.237500", "132349.727500", "132351.217500", "132352.707500", "132354.197500", "132355.687500", "132357.177500", "132358.667500", "132400.157500", "132401.647500", "132403.137500", "132404.627500", "132406.117500", "132407.607500", "132409.097500", "132410.587500", "132412.077500", "132413.567500", "132415.057500", "132416.547500", "132418.037500", "132419.527500", "132421.017500", "132422.507500", "132423.997500", "132425.487500", "132426.977500", "132428.467500", "132429.957500", "132431.447500", "132432.937500", "132434.427500", "132435.917500", "132437.407500", "132438.897500", "132440.387500", "132441.877500", "132443.367500", "132444.857500", "132446.347500", "132447.837500", "132449.327500", "132450.817500", "132452.307500", "132453.797500", "132455.287500", "132456.777500", "132458.267500", "132459.757500", "132501.247500", "132502.737500", "132504.227500", "132505.717500", "132507.207500", "132508.697500", "132510.187500", "132511.677500", "132513.167500", "132514.657500", "132516.147500", "132517.637500", "132519.127500", "132520.617500", "132522.107500", "132523.597500", "132525.087500", "132526.577500", "132528.067500", "132529.557500", "132531.047500", "132532.537500", "132534.027500", "132535.517500", "132537.007500", "132538.497500", "132539.987500", "132541.477500", "132542.967500", "132544.457500", "132545.947500", "132547.437500", "132548.927500", "132550.417500", "132551.907500", "132553.397500", "132554.887500", "132556.377500", "132557.867500", "132559.357500", "132600.847500", "132602.337500", "132603.827500", "132605.317500", "132606.807500", "132608.297500", "132609.787500", "132611.277500", "132612.767500", "132614.257500", "132615.747500", "132617.237500", "132618.727500", "132620.217500", "132621.707500", "132623.197500", "132624.687500", "132626.177500", "132627.667500", "132629.157500", "132630.647500", "132632.137500", "132633.627500", "132635.117500", "132636.607500", "132638.097500", "132639.587500", "132641.077500", "132642.567500", "132644.057500", "132645.547500", "132647.037500", "132648.527500", "132650.017500", "132651.507500", "132652.997500", "132654.487500", "132655.977500", "132657.467500", "132658.957500", "132700.447500", "132701.937500", "132703.427500", "132704.917500", "132706.407500", "132707.897500", "132709.387500", "132710.877500", "132712.367500", "132713.857500", "132715.347500", "132716.837500", "132718.327500", "132719.817500", "132721.307500", "132722.797500", "132724.287500", "132725.777500", "132727.267500", "132728.757500", "132730.247500", "132731.737500", "132733.227500", "132734.717500", "132736.207500", "132737.697500", "132739.187500", "132740.677500", "132742.167500", "132743.657500", "132745.147500", "132746.637500", "132748.127500", "132749.617500", "132751.107500", "132752.597500", "132754.087500", "132755.577500", "132757.067500", "132758.557500", "132800.047500", "132801.537500", "132803.027500", "132804.517500", "132806.007500", "132807.497500", "132808.987500", "132810.477500", "132811.967500"],
      "ContentTime": ["132444.795000", "132444.798000", "132444.800000", "132504.844000", "132504.847000", "132504.849000", "132504.852000", "132504.854000", "132504.857000", "132504.859000", "132504.862000", "132504.865000", "132504.867000", "132504.870000", "132504.880000", "132504.883000", "132504.887000", "132504.890000", "132504.892000", "132504.895000", "132504.898000", "132504.900000", "132504.903000", "132524.843000", "132524.846000", "132524.848000", "132524.851000", "132524.853000", "132524.856000", "132524.858000", "132524.861000", "132524.863000", "132524.866000", "132524.868000", "132524.871000", "132524.873000", "132524.876000", "132524.878000", "132524.887000", "132524.890000", "132524.892000", "132524.895000", "132524.897000", "132544.843000", "132544.846000", "132544.848000", "132544.851000", "132544.853000", "132544.856000", "132544.858000", "132544.861000", "132544.863000", "132544.866000", "132544.869000", "132544.871000", "132544.874000", "132544.876000", "132544.879000", "132544.881000", "132544.884000", "132544.886000", "132544.889000", "132544.891000", "132604.825000", "132604.827000", "132604.837000", "132604.840000", "132604.842000", "132604.845000", "132604.847000", "132604.850000", "132604.852000", "132604.855000", "132604.857000", "132604.860000", "132604.862000", "132604.865000", "132604.867000", "132604.870000", "132604.872000", "132604.883000", "132604.885000", "132604.888000", "132604.890000", "132624.846000", "132624.849000", "132624.852000", "132624.854000", "132624.857000", "132624.859000", "132624.873000", "132624.876000", "132624.878000", "132624.881000", "132624.884000", "132624.886000", "132624.889000", "132624.891000", "132624.894000", "132624.896000", "132624.899000", "132624.901000", "132624.904000", "132624.906000", "132644.851000", "132644.854000", "132644.856000", "132644.859000", "132644.861000", "132644.864000", "132644.866000", "132644.869000", "132644.871000", "132644.874000", "132644.876000", "132644.879000", "132644.881000", "132644.884000", "132644.886000", "132644.889000", "132644.891000", "132644.894000", "132644.896000", "132644.899000", "132724.894000", "132724.896000", "132724.899000", "132724.902000", "132724.904000", "132724.916000", "132724.919000", "132724.921000", "132724.924000", "132724.927000", "132724.929000", "132724.932000", "132724.934000", "132724.937000", "132724.939000", "132724.942000", "132724.944000", "132724.947000", "132724.949000", "132724.952000", "132724.954000", "132724.957000", "132724.959000", "132724.962000", "132724.964000", "132724.967000", "132724.969000", "132724.972000", "132724.974000", "132724.977000", "132724.980000", "132724.982000", "132804.868000", "132804.870000", "132804.874000", "132804.877000", "132804.879000", "132804.882000", "132804.884000", "132804.887000", "132804.889000", "132804.892000", "132804.894000", "132804.897000", "132804.900000", "132804.902000", "132804.905000", "132804.907000", "132804.910000", "132804.912000", "132804.923000", "132804.925000", "132804.928000", "132804.930000", "132804.933000", "132804.936000", "132804.939000", "132804.941000", "132804.944000", "132814.062000", "132814.065000", "132814.068000", "132814.071000", "132814.074000", "132814.077000", "132814.079000"],
      "InstanceCreationTime": ["132444.795000", "132444.798000", "132444.800000", "132504.844000", "132504.847000", "132504.849000", "132504.852000", "132504.854000", "132504.857000", "132504.859000", "132504.862000", "132504.865000", "132504.867000", "132504.870000", "132504.880000", "132504.883000", "132504.887000", "132504.890000", "132504.892000", "132504.895000", "132504.898000", "132504.900000", "132504.903000", "132524.843000", "132524.846000", "132524.848000", "132524.851000", "132524.853000", "132524.856000", "132524.858000", "132524.861000", "132524.863000", "132524.866000", "132524.868000", "132524.871000", "132524.873000", "132524.876000", "132524.878000", "132524.887000", "132524.890000", "132524.892000", "132524.895000", "132524.897000", "132544.843000", "132544.846000", "132544.848000", "132544.851000", "132544.853000", "132544.856000", "132544.858000", "132544.861000", "132544.863000", "132544.866000", "132544.869000", "132544.871000", "132544.874000", "132544.876000", "132544.879000", "132544.881000", "132544.884000", "132544.886000", "132544.889000", "132544.891000", "132604.825000", "132604.827000", "132604.837000", "132604.840000", "132604.842000", "132604.845000", "132604.847000", "132604.850000", "132604.852000", "132604.855000", "132604.857000", "132604.860000", "132604.862000", "132604.865000", "132604.867000", "132604.870000", "132604.872000", "132604.883000", "132604.885000", "132604.888000", "132604.890000", "132624.846000", "132624.849000", "132624.852000", "132624.854000", "132624.857000", "132624.859000", "132624.873000", "132624.876000", "132624.878000", "132624.881000", "132624.884000", "132624.886000", "132624.889000", "132624.891000", "132624.894000", "132624.896000", "132624.899000", "132624.901000", "132624.904000", "132624.906000", "132644.851000", "132644.854000", "132644.856000", "132644.859000", "132644.861000", "132644.864000", "132644.866000", "132644.869000", "132644.871000", "132644.874000", "132644.876000", "132644.879000", "132644.881000", "132644.884000", "132644.886000", "132644.889000", "132644.891000", "132644.894000", "132644.896000", "132644.899000", "132724.894000", "132724.896000", "132724.899000", "132724.902000", "132724.904000", "132724.916000", "132724.919000", "132724.921000", "132724.924000", "132724.927000", "132724.929000", "132724.932000", "132724.934000", "132724.937000", "132724.939000", "132724.942000", "132724.944000", "132724.947000", "132724.949000", "132724.952000", "132724.954000", "132724.957000", "132724.959000", "132724.962000", "132724.964000", "132724.967000", "132724.969000", "132724.972000", "132724.974000", "132724.977000", "132724.980000", "132724.982000", "132804.868000", "132804.870000", "132804.874000", "132804.877000", "132804.879000", "132804.882000", "132804.884000", "132804.887000", "132804.889000", "132804.892000", "132804.894000", "132804.897000", "132804.900000", "132804.902000", "132804.905000", "132804.907000", "132804.910000", "132804.912000", "132804.923000", "132804.925000", "132804.928000", "132804.930000", "132804.933000", "132804.936000", "132804.939000", "132804.941000", "132804.944000", "132814.062000", "132814.065000", "132814.068000", "132814.071000", "132814.074000", "132814.077000", "132814.079000"],
      "InstanceNumber": [1, 2, 3, 4, 5, 6, 7, 8, 9, 10, 11, 12, 13, 14, 15, 16, 17, 18, 19, 20, 21, 22, 23, 24, 25, 26, 27, 28, 29, 30, 31, 32, 33, 34, 35, 36, 37, 38, 39, 40, 41, 42, 43, 44, 45, 46, 47, 48, 49, 50, 51, 52, 53, 54, 55, 56, 57, 58, 59, 60, 61, 62, 63, 64, 65, 66, 67, 68, 69, 70, 71, 72, 73, 74, 75, 76, 77, 78, 79, 80, 81, 82, 83, 84, 85, 86, 87, 88, 89, 90, 91, 92, 93, 94, 95, 96, 97, 98, 99, 100, 101, 102, 103, 104, 105, 106, 107, 108, 109, 110, 111, 112, 113, 114, 115, 116, 117, 118, 119, 120, 121, 122, 123, 124, 125, 126, 127, 128, 129, 130, 131, 132, 133, 134, 135, 136, 137, 138, 139, 140, 141, 142, 143, 144, 145, 146, 147, 148, 149, 150, 151, 152, 153, 154, 155, 156, 157, 158, 159, 160, 161, 162, 163, 164, 165, 166, 167, 168, 169, 170, 171, 172, 173, 174, 175, 176, 177, 178, 179, 180, 181, 182, 183, 184, 185, 186, 187, 188, 189, 190],
      "WindowCenter": [4834.0, 4834.0, 4834.0, 4834.0, 4834.0, 4836.0, 4834.0, 4836.0, 4832.0, 4858.0, 4832.0, 4834.0, 4834.0, 4832.0, 4836.0, 4836.0, 4834.0, 4832.0, 4832.0, 4834.0, 4832.0, 4856.0, 4836.0, 4834.0, 4856.0, 4830.0, 4834.0, 4832.0, 4836.0, 4832.0, 4834.0, 4832.0, 4832.0, 4832.0, 4832.0, 4856.0, 4834.0, 4834.0, 4858.0, 4858.0, 4834.0, 4832.0, 4834.0, 4834.0, 4836.0, 4834.0, 4834.0, 4830.0, 4832.0, 4832.0, 4858.0, 4856.0, 4830.0, 4832.0, 4832.0, 4832.0, 4832.0, 4834.0, 4832.0, 4830.0, 4830.0, 4834.0, 4832.0, 4834.0, 4836.0, 4858.0, 4832.0, 4830.0, 4832.0, 4834.0, 4832.0, 4834.0, 4832.0, 4830.0, 4830.0, 4834.0, 4834.0, 4834.0, 4832.0, 4836.0, 4834.0, 4830.0, 4830.0, 4830.0, 4834.0, 4834.0, 4834.0, 4834.0, 4834.0, 4832.0, 4832.0, 4834.0, 4830.0, 4858.0, 4832.0, 4832.0, 4832.0, 4858.0, 4836.0, 4834.0, 4832.0, 4832.0, 4834.0, 4830.0, 4832.0, 4832.0, 4836.0, 4834.0, 4834.0, 4830.0, 4836.0, 4832.0, 4832.0, 4832.0, 4832.0, 4856.0, 4830.0, 4832.0, 4834.0, 4832.0, 4832.0, 4834.0, 4856.0, 4834.0, 4832.0, 4830.0, 4832.0, 4832.0, 4834.0, 4834.0, 4832.0, 4834.0, 4830.0, 4834.0, 4832.0, 4832.0, 4830.0, 4832.0, 4834.0, 4830.0, 4832.0, 4830.0, 4832.0, 4832.0, 4832.0, 4832.0, 4830.0, 4834.0, 4834.0, 4830.0, 4830.0, 4834.0, 4834.0, 4834.0, 4832.0, 4856.0, 4830.0, 4832.0, 4854.0, 4832.0, 4832.0, 4832.0, 4832.0, 4834.0, 4832.0, 4832.0, 4832.0, 4832.0, 4832.0, 4834.0, 4832.0, 4830.0, 4834.0, 4832.0, 4832.0, 4828.0, 4832.0, 4834.0, 4832.0, 4830.0, 4834.0, 4832.0, 4834.0, 4834.0, 4832.0, 4830.0, 4832.0, 4832.0, 4832.0, 4834.0],
      "WindowWidth": [18590.0, 18588.0, 18586.0, 18584.0, 18588.0, 18588.0, 18584.0, 18594.0, 18586.0, 18622.0, 18582.0, 18588.0, 18586.0, 18588.0, 18592.0, 18592.0, 18590.0, 18586.0, 18584.0, 18586.0, 18590.0, 18612.0, 18592.0, 18586.0, 18620.0, 18586.0, 18584.0, 18584.0, 18590.0, 18584.0, 18592.0, 18588.0, 18584.0, 18588.0, 18586.0, 18616.0, 18586.0, 18590.0, 18618.0, 18614.0, 18590.0, 18586.0, 18584.0, 18588.0, 18586.0, 18588.0, 18588.0, 18588.0, 18586.0, 18592.0, 18616.0, 18618.0, 18582.0, 18588.0, 18588.0, 18586.0, 18590.0, 18584.0, 18592.0, 18586.0, 18590.0, 18586.0, 18582.0, 18586.0, 18586.0, 18618.0, 18584.0, 18584.0, 18584.0, 18588.0, 18588.0, 18586.0, 18588.0, 18584.0, 18584.0, 18582.0, 18584.0, 18584.0, 18586.0, 18584.0, 18588.0, 18586.0, 18586.0, 18586.0, 18586.0, 18586.0, 18586.0, 18582.0, 18584.0, 18584.0, 18586.0, 18578.0, 18582.0, 18616.0, 18582.0, 18584.0, 18582.0, 18614.0, 18588.0, 18580.0, 18586.0, 18586.0, 18586.0, 18580.0, 18590.0, 18586.0, 18582.0, 18588.0, 18588.0, 18578.0, 18582.0, 18584.0, 18584.0, 18590.0, 18586.0, 18618.0, 18580.0, 18578.0, 18588.0, 18584.0, 18580.0, 18592.0, 18614.0, 18586.0, 18580.0, 18578.0, 18582.0, 18586.0, 18582.0, 18584.0, 18578.0, 18580.0, 18584.0, 18588.0, 18582.0, 18588.0, 18578.0, 18588.0, 18584.0, 18582.0, 18580.0, 18584.0, 18580.0, 18584.0, 18580.0, 18584.0, 18586.0, 18580.0, 18584.0, 18582.0, 18580.0, 18582.0, 18586.0, 18582.0, 18584.0, 18616.0, 18586.0, 18584.0, 18618.0, 18580.0, 18580.0, 18586.0, 18580.0, 18582.0, 18586.0, 18582.0, 18586.0, 18584.0, 18580.0, 18588.0, 18582.0, 18582.0, 18584.0, 18582.0, 18584.0, 18582.0, 18580.0, 18580.0, 18582.0, 18578.0, 18582.0, 18584.0, 18584.0, 18586.0, 18584.0, 18584.0, 18578.0, 18580.0, 18580.0, 18578.0]
    },
    "slices": {}
  }
}