{
  "AcquisitionMatrixPE": 104,
  "AcquisitionNumber": 1,
  "AcquisitionTime": "13:54:27.995000",
  "BandwidthPerPixelPhaseEncode": 17.17,
  "BaseResolution": 104,
  "BodyPartExamined": "BRAIN",
  "CoilString": "HC1-7;NC1_2",
  "ConsistencyInfo": "N4_VE11C_LATEST_20160120",
  "ConversionSoftware": "dcm2niix",
  "ConversionSoftwareVersion": "v1.0.20190902",
  "DerivedVendorReportedEchoSpacing": 0.000560011,
  "DeviceSerialNumber": "167006",
  "DwellTime": 2.1e-06,
  "EchoTime": 0.037,
  "EchoTrainLength": 104,
  "EffectiveEchoSpacing": 0.000560011,
  "FlipAngle": 52,
  "ImageComments": "Unaliased_MB4_PE3_LB",
  "ImageOrientationPatientDICOM": [0.999276, 0.0292309, 0.0243402, -0.0214553, 0.961523, -0.273884],
  "ImageType": [
    "ORIGINAL",
    "PRIMARY",
    "M",
    "MB",
    "ND",
    "MOSAIC"
],
  "ImagingFrequency": 123.259,
  "InPlanePhaseEncodingDirectionDICOM": "COL",
  "InstitutionAddress": "Chemin_Queen-Mary_4565_Montreal_District_CA_H3W_1W5",
  "InstitutionName": "IUGM",
  "InstitutionalDepartmentName": "Department",
  "MRAcquisitionType": "2D",
  "MagneticFieldStrength": 3,
  "Manufacturer": "Siemens",
  "ManufacturersModelName": "Prisma_fit",
  "Modality": "MR",
  "MultibandAccelerationFactor": 4,
  "PartialFourier": 1,
  "PatientPosition": "HFS",
  "PercentPhaseFOV": 100,
  "PhaseEncodingDirection": "j",
  "PhaseEncodingSteps": 104,
  "PhaseResolution": 1,
  "PixelBandwidth": 2290,
  "ProcedureStepDescription": "memory_things",
  "ProtocolName": "func_task-things_run-6",
  "PulseSequenceDetails": "%CustomerSeq%_cmrr_mbep2d_bold",
  "ReceiveCoilActiveElements": "HC1-7;NC1,2",
  "ReceiveCoilName": "HeadNeck_64",
  "ReconMatrixPE": 104,
  "RepetitionTime": 1.49,
  "SAR": 0.0365199,
  "ScanOptions": "FS",
  "ScanningSequence": "EP",
  "SequenceName": "epfid2d1_104",
  "SequenceVariant": "SK_SS",
  "SeriesDescription": "func_task-things_run-6",
  "SeriesNumber": 25,
  "ShimSetting": [639, -7196, -8813, 648, 59, 43, 92, -11],
  "SliceThickness": 2,
  "SliceTiming": [0, 0.785, 0.0975, 0.8825, 0.195, 0.98, 0.295, 1.0775, 0.3925, 1.175, 0.49, 1.275, 0.5875, 1.3725, 0.685, 0, 0.785, 0.0975, 0.8825, 0.195, 0.98, 0.295, 1.0775, 0.3925, 1.175, 0.49, 1.275, 0.5875, 1.3725, 0.685, 0, 0.785, 0.0975, 0.8825, 0.195, 0.98, 0.295, 1.0775, 0.3925, 1.175, 0.49, 1.275, 0.5875, 1.3725, 0.685, 0, 0.785, 0.0975, 0.8825, 0.195, 0.98, 0.295, 1.0775, 0.3925, 1.175, 0.49, 1.275, 0.5875, 1.3725, 0.685],
  "SoftwareVersions": "syngo_MR_E11",
  "SpacingBetweenSlices": 2,
  "StationName": "MRC35049",
  "TaskName": "things",
  "TotalReadoutTime": 0.0576811,
  "TxRefAmp": 216.379,
  "WipMemBlock": "f852ddf4-b408-4be4-bb38-7b7883eebfd6||Sequence: R016 ve11c/master r/e634e98; Dec 19 2017 11:00:25 by eja",
  "dcmmeta_affine": [
    [-1.9985525608062744, -0.04291053116321564, 0.06281915307044983, 109.86357879638672],
    [-0.058461710810661316, 1.923046588897705, -0.5463278293609619, -69.98748016357422],
    [0.04868047311902046, 0.5477687120437622, 1.922909140586853, -67.62686157226562],
    [0.0, 0.0, 0.0, 1.0]
],
  "dcmmeta_reorient_transform": [
    [0.0, -1.0, 0.0, 103.0],
    [1.0, 0.0, 0.0, 0.0],
    [0.0, 0.0, 1.0, 0.0],
    [0.0, 0.0, 0.0, 1.0]
],
  "dcmmeta_shape": [104, 104, 60, 190],
  "dcmmeta_slice_dim": 2,
  "dcmmeta_version": 0.6,
  "global": {
    "const": {
      "AcquisitionMatrix": [104, 0, 0, 104],
      "AngioFlag": "N",
      "BitsAllocated": 16,
      "BitsStored": 16,
      "BodyPartExamined": "BRAIN",
      "Columns": 832,
      "EchoNumbers": 1,
      "EchoTime": 37.0,
      "EchoTrainLength": 104,
      "FlipAngle": 52.0,
      "HighBit": 15,
      "ImageOrientationPatient": [0.99927629311091, 0.02923085508164, 0.02434023701044, -0.0214552649843, 0.96152328635864, -0.2738843577033],
      "ImagePositionPatient": [-817.29750619655, -849.35533157309, 170.4614371762],
      "ImageType": [
        "ORIGINAL",
        "PRIMARY",
        "M",
        "MB",
        "ND",
        "MOSAIC"
],
      "ImagedNucleus": "1H",
      "ImagingFrequency": 123.258989,
      "InPlanePhaseEncodingDirection": "COL",
      "MRAcquisitionType": "2D",
      "MagneticFieldStrength": 3.0,
      "Manufacturer": "SIEMENS",
      "ManufacturerModelName": "Prisma_fit",
      "Modality": "MR",
      "NumberOfAverages": 1.0,
      "NumberOfPhaseEncodingSteps": 104,
      "PercentPhaseFieldOfView": 100.0,
      "PercentSampling": 100.0,
      "PerformedProcedureStepStartTime": "132103.268000",
      "PhotometricInterpretation": "MONOCHROME2",
      "PixelBandwidth": 2290.0,
      "PixelRepresentation": 0,
      "PixelSpacing": [2.0, 2.0],
      "ProtocolName": "func_task-things_run-6",
      "RepetitionTime": 1490.0,
      "Rows": 832,
      "SAR": 0.03651993656565,
      "SamplesPerPixel": 1,
      "ScanOptions": "FS",
      "ScanningSequence": "EP",
      "SequenceName": "epfid2d1_104",
      "SequenceVariant": [
        "SK",
        "SS"
],
      "SeriesDescription": "func_task-things_run-6",
      "SeriesNumber": 25,
      "SeriesTime": "135526.129000",
      "SliceLocation": -42.451331425946,
      "SliceThickness": 2.0,
      "SmallestImagePixelValue": 0,
      "SoftwareVersions": "syngo MR E11",
      "SpacingBetweenSlices": 1.9999999473305,
      "SpecificCharacterSet": "ISO_IR 100",
      "StudyID": "2",
      "StudyTime": "132103.213000",
      "TransmitCoilName": "Body",
      "VariableFlipAngleFlag": "N",
      "WindowCenterWidthExplanation": "Algo1",
      "dBdt": 0.0},
    "slices": {}
  },
  "time": {
    "samples": {
      "AcquisitionNumber": [1, 2, 3, 4, 5, 6, 7, 8, 9, 10, 11, 12, 13, 14, 15, 16, 17, 18, 19, 20, 21, 22, 23, 24, 25, 26, 27, 28, 29, 30, 31, 32, 33, 34, 35, 36, 37, 38, 39, 40, 41, 42, 43, 44, 45, 46, 47, 48, 49, 50, 51, 52, 53, 54, 55, 56, 57, 58, 59, 60, 61, 62, 63, 64, 65, 66, 67, 68, 69, 70, 71, 72, 73, 74, 75, 76, 77, 78, 79, 80, 81, 82, 83, 84, 85, 86, 87, 88, 89, 90, 91, 92, 93, 94, 95, 96, 97, 98, 99, 100, 101, 102, 103, 104, 105, 106, 107, 108, 109, 110, 111, 112, 113, 114, 115, 116, 117, 118, 119, 120, 121, 122, 123, 124, 125, 126, 127, 128, 129, 130, 131, 132, 133, 134, 135, 136, 137, 138, 139, 140, 141, 142, 143, 144, 145, 146, 147, 148, 149, 150, 151, 152, 153, 154, 155, 156, 157, 158, 159, 160, 161, 162, 163, 164, 165, 166, 167, 168, 169, 170, 171, 172, 173, 174, 175, 176, 177, 178, 179, 180, 181, 182, 183, 184, 185, 186, 187, 188, 189, 190],
      "AcquisitionTime": ["135427.995000", "135429.485000", "135430.975000", "135432.465000", "135433.955000", "135435.445000", "135436.935000", "135438.425000", "135439.915000", "135441.405000", "135442.895000", "135444.385000", "135445.875000", "135447.365000", "135448.855000", "135450.345000", "135451.835000", "135453.325000", "135454.815000", "135456.305000", "135457.795000", "135459.285000", "135500.775000", "135502.265000", "135503.755000", "135505.245000", "135506.735000", "135508.225000", "135509.715000", "135511.205000", "135512.695000", "135514.185000", "135515.675000", "135517.165000", "135518.655000", "135520.145000", "135521.635000", "135523.125000", "135524.615000", "135526.105000", "135527.595000", "135529.085000", "135530.575000", "135532.065000", "135533.555000", "135535.045000", "135536.535000", "135538.025000", "135539.515000", "135541.005000", "135542.495000", "135543.985000", "135545.475000", "135546.965000", "135548.455000", "135549.945000", "135551.435000", "135552.925000", "135554.415000", "135555.905000", "135557.395000", "135558.885000", "135600.375000", "135601.865000", "135603.355000", "135604.845000", "135606.335000", "135607.825000", "135609.315000", "135610.805000", "135612.295000", "135613.785000", "135615.275000", "135616.765000", "135618.255000", "135619.745000", "135621.235000", "135622.725000", "135624.215000", "135625.705000", "135627.195000", "135628.685000", "135630.175000", "135631.665000", "135633.155000", "135634.645000", "135636.135000", "135637.625000", "135639.115000", "135640.605000", "135642.095000", "135643.585000", "135645.075000", "135646.565000", "135648.055000", "135649.545000", "135651.035000", "135652.525000", "135654.015000", "135655.505000", "135656.995000", "135658.485000", "135659.975000", "135701.465000", "135702.955000", "135704.445000", "135705.935000", "135707.425000", "135708.915000", "135710.405000", "135711.895000", "135713.385000", "135714.875000", "135716.365000", "135717.855000", "135719.345000", "135720.835000", "135722.325000", "135723.815000", "135725.305000", "135726.795000", "135728.285000", "135729.775000", "135731.265000", "135732.755000", "135734.245000", "135735.735000", "135737.225000", "135738.715000", "135740.205000", "135741.695000", "135743.185000", "135744.675000", "135746.165000", "135747.655000", "135749.145000", "135750.635000", "135752.125000", "135753.615000", "135755.105000", "135756.595000", "135758.085000", "135759.575000", "135801.065000", "135802.555000", "135804.045000", "135805.535000", "135807.025000", "135808.515000", "135810.005000", "135811.495000", "135812.985000", "135814.475000", "135815.965000", "135817.455000", "135818.945000", "135820.435000", "135821.925000", "135823.415000", "135824.905000", "135826.395000", "135827.885000", "135829.375000", "135830.865000", "135832.355000", "135833.845000", "135835.335000", "135836.825000", "135838.315000", "135839.805000", "135841.295000", "135842.785000", "135844.275000", "135845.765000", "135847.255000", "135848.745000", "135850.235000", "135851.725000", "135853.215000", "135854.705000", "135856.195000", "135857.685000", "135859.175000", "135900.665000", "135902.155000", "135903.645000", "135905.135000", "135906.625000", "135908.115000", "135909.605000"],
      "ContentTime": ["135526.133000", "135526.136000", "135526.146000", "135526.150000", "135546.077000", "135546.081000", "135546.084000", "135546.088000", "135546.091000", "135546.094000", "135546.098000", "135546.101000", "135546.105000", "135546.108000", "135546.112000", "135546.115000", "135546.119000", "135546.122000", "135546.125000", "135546.129000", "135546.141000", "135546.145000", "135546.148000", "135546.151000", "135606.077000", "135606.081000", "135606.084000", "135606.088000", "135606.091000", "135606.094000", "135606.098000", "135606.101000", "135606.104000", "135606.108000", "135606.111000", "135606.115000", "135606.118000", "135606.121000", "135606.125000", "135606.128000", "135606.131000", "135606.135000", "135606.138000", "135606.141000", "135626.076000", "135626.080000", "135626.084000", "135626.088000", "135626.091000", "135626.095000", "135626.099000", "135626.102000", "135626.106000", "135626.110000", "135626.114000", "135626.117000", "135626.121000", "135626.124000", "135626.127000", "135626.131000", "135626.134000", "135626.138000", "135626.141000", "135626.144000", "135646.076000", "135646.080000", "135646.083000", "135646.087000", "135646.090000", "135646.094000", "135646.097000", "135646.100000", "135646.104000", "135646.107000", "135646.111000", "135646.114000", "135646.117000", "135646.121000", "135646.124000", "135646.128000", "135646.132000", "135646.135000", "135646.138000", "135646.142000", "135646.145000", "135706.076000", "135706.080000", "135706.083000", "135706.087000", "135706.090000", "135706.093000", "135706.097000", "135706.100000", "135706.104000", "135706.107000", "135706.110000", "135706.114000", "135706.117000", "135706.121000", "135706.124000", "135706.127000", "135706.131000", "135706.134000", "135706.137000", "135706.141000", "135746.076000", "135746.080000", "135746.083000", "135746.087000", "135746.090000", "135746.093000", "135746.097000", "135746.100000", "135746.104000", "135746.107000", "135746.110000", "135746.114000", "135746.117000", "135746.120000", "135746.124000", "135746.127000", "135746.131000", "135746.134000", "135746.137000", "135746.141000", "135746.144000", "135746.147000", "135746.151000", "135746.155000", "135746.158000", "135746.161000", "135746.165000", "135826.077000", "135826.081000", "135826.085000", "135826.088000", "135826.091000", "135826.095000", "135826.098000", "135826.102000", "135826.105000", "135826.108000", "135826.112000", "135826.115000", "135826.118000", "135826.122000", "135826.125000", "135826.129000", "135826.132000", "135826.135000", "135826.139000", "135826.142000", "135826.146000", "135826.149000", "135826.152000", "135826.156000", "135826.159000", "135826.162000", "135826.166000", "135906.076000", "135906.080000", "135906.084000", "135906.087000", "135906.090000", "135906.094000", "135906.097000", "135906.100000", "135906.104000", "135906.107000", "135906.111000", "135906.114000", "135906.117000", "135906.121000", "135906.124000", "135906.128000", "135906.131000", "135906.134000", "135906.138000", "135906.141000", "135906.144000", "135906.148000", "135906.151000", "135906.155000", "135906.158000", "135906.161000", "135906.165000", "135911.641000", "135911.645000", "135911.649000", "135911.652000"],
      "InstanceCreationTime": ["135526.133000", "135526.136000", "135526.146000", "135526.150000", "135546.077000", "135546.081000", "135546.084000", "135546.088000", "135546.091000", "135546.094000", "135546.098000", "135546.101000", "135546.105000", "135546.108000", "135546.112000", "135546.115000", "135546.119000", "135546.122000", "135546.125000", "135546.129000", "135546.141000", "135546.145000", "135546.148000", "135546.151000", "135606.077000", "135606.081000", "135606.084000", "135606.088000", "135606.091000", "135606.094000", "135606.098000", "135606.101000", "135606.104000", "135606.108000", "135606.111000", "135606.115000", "135606.118000", "135606.121000", "135606.125000", "135606.128000", "135606.131000", "135606.135000", "135606.138000", "135606.141000", "135626.076000", "135626.080000", "135626.084000", "135626.088000", "135626.091000", "135626.095000", "135626.099000", "135626.102000", "135626.106000", "135626.110000", "135626.114000", "135626.117000", "135626.121000", "135626.124000", "135626.127000", "135626.131000", "135626.134000", "135626.138000", "135626.141000", "135626.144000", "135646.076000", "135646.080000", "135646.083000", "135646.087000", "135646.090000", "135646.094000", "135646.097000", "135646.100000", "135646.104000", "135646.107000", "135646.111000", "135646.114000", "135646.117000", "135646.121000", "135646.124000", "135646.128000", "135646.132000", "135646.135000", "135646.138000", "135646.142000", "135646.145000", "135706.076000", "135706.080000", "135706.083000", "135706.087000", "135706.090000", "135706.093000", "135706.097000", "135706.100000", "135706.104000", "135706.107000", "135706.110000", "135706.114000", "135706.117000", "135706.121000", "135706.124000", "135706.127000", "135706.131000", "135706.134000", "135706.137000", "135706.141000", "135746.076000", "135746.080000", "135746.083000", "135746.087000", "135746.090000", "135746.093000", "135746.097000", "135746.100000", "135746.104000", "135746.107000", "135746.110000", "135746.114000", "135746.117000", "135746.120000", "135746.124000", "135746.127000", "135746.131000", "135746.134000", "135746.137000", "135746.141000", "135746.144000", "135746.147000", "135746.151000", "135746.155000", "135746.158000", "135746.161000", "135746.165000", "135826.077000", "135826.081000", "135826.085000", "135826.088000", "135826.091000", "135826.095000", "135826.098000", "135826.102000", "135826.105000", "135826.108000", "135826.112000", "135826.115000", "135826.118000", "135826.122000", "135826.125000", "135826.129000", "135826.132000", "135826.135000", "135826.139000", "135826.142000", "135826.146000", "135826.149000", "135826.152000", "135826.156000", "135826.159000", "135826.162000", "135826.166000", "135906.076000", "135906.080000", "135906.084000", "135906.087000", "135906.090000", "135906.094000", "135906.097000", "135906.100000", "135906.104000", "135906.107000", "135906.111000", "135906.114000", "135906.117000", "135906.121000", "135906.124000", "135906.128000", "135906.131000", "135906.134000", "135906.138000", "135906.141000", "135906.144000", "135906.148000", "135906.151000", "135906.155000", "135906.158000", "135906.161000", "135906.165000", "135911.641000", "135911.645000", "135911.649000", "135911.652000"],
      "InstanceNumber": [1, 2, 3, 4, 5, 6, 7, 8, 9, 10, 11, 12, 13, 14, 15, 16, 17, 18, 19, 20, 21, 22, 23, 24, 25, 26, 27, 28, 29, 30, 31, 32, 33, 34, 35, 36, 37, 38, 39, 40, 41, 42, 43, 44, 45, 46, 47, 48, 49, 50, 51, 52, 53, 54, 55, 56, 57, 58, 59, 60, 61, 62, 63, 64, 65, 66, 67, 68, 69, 70, 71, 72, 73, 74, 75, 76, 77, 78, 79, 80, 81, 82, 83, 84, 85, 86, 87, 88, 89, 90, 91, 92, 93, 94, 95, 96, 97, 98, 99, 100, 101, 102, 103, 104, 105, 106, 107, 108, 109, 110, 111, 112, 113, 114, 115, 116, 117, 118, 119, 120, 121, 122, 123, 124, 125, 126, 127, 128, 129, 130, 131, 132, 133, 134, 135, 136, 137, 138, 139, 140, 141, 142, 143, 144, 145, 146, 147, 148, 149, 150, 151, 152, 153, 154, 155, 156, 157, 158, 159, 160, 161, 162, 163, 164, 165, 166, 167, 168, 169, 170, 171, 172, 173, 174, 175, 176, 177, 178, 179, 180, 181, 182, 183, 184, 185, 186, 187, 188, 189, 190],
      "LargestImagePixelValue": [41488, 40021, 38944, 38990, 38654, 38203, 38134, 38345, 38987, 38504, 39131, 38171, 38324, 38135, 38681, 38409, 38871, 38365, 38176, 38094, 37961, 37964, 38299, 38158, 38868, 38624, 38288, 38208, 38152, 37968, 38469, 38484, 38797, 38086, 38429, 38359, 38243, 38571, 38251, 38151, 38242, 38007, 38413, 37850, 38232, 38040, 38449, 38043, 38449, 37920, 38537, 38205, 38242, 38304, 38214, 38185, 38045, 38194, 38160, 38071, 38352, 38601, 38449, 38624, 37978, 38323, 38258, 38544, 38493, 38234, 37900, 37906, 38135, 38064, 37962, 38468, 38030, 38479, 38368, 38340, 38463, 37884, 38053, 38608, 38183, 38207, 38497, 38097, 38617, 38342, 38024, 37775, 38007, 38673, 38313, 37931, 38117, 38190, 38279, 38295, 37886, 37906, 37767, 38764, 38531, 38575, 38519, 38283, 37965, 37643, 37947, 38143, 38124, 37907, 38328, 37853, 37856, 37573, 37687, 38203, 38098, 38294, 38403, 38476, 38409, 38062, 37900, 38333, 37661, 37781, 37933, 38265, 37932, 38292, 38249, 38018, 38335, 37914, 38141, 37952, 38412, 38128, 37977, 37999, 37932, 37972, 38483, 38094, 38230, 38005, 38118, 37817, 38230, 38145, 37985, 38136, 38320, 37964, 38123, 37842, 38188, 38502, 38032, 38363, 38584, 37794, 38432, 38185, 38030, 38419, 38524, 38096, 37916, 38109, 38299, 38000, 37872, 38150, 38243, 37897, 38188, 38287, 38183, 38126, 38142, 37933, 38262, 37948, 37995, 37881],
      "WindowCenter": [10190.0, 10153.0, 10137.0, 10146.0, 10155.0, 10134.0, 10115.0, 10096.0, 10097.0, 10100.0, 10130.0, 10137.0, 10130.0, 10112.0, 10102.0, 10099.0, 10105.0, 10124.0, 10146.0, 10149.0, 10139.0, 10108.0, 10094.0, 10084.0, 10088.0, 10104.0, 10110.0, 10104.0, 10095.0, 10094.0, 10101.0, 10108.0, 10118.0, 10119.0, 10120.0, 10127.0, 10128.0, 10135.0, 10137.0, 10137.0, 10136.0, 10131.0, 10120.0, 10103.0, 10094.0, 10100.0, 10110.0, 10120.0, 10119.0, 10105.0, 10102.0, 10094.0, 10100.0, 10107.0, 10102.0, 10101.0, 10110.0, 10121.0, 10129.0, 10124.0, 10118.0, 10118.0, 10126.0, 10136.0, 10138.0, 10131.0, 10112.0, 10110.0, 10126.0, 10131.0, 10125.0, 10132.0, 10131.0, 10122.0, 10105.0, 10102.0, 10101.0, 10110.0, 10125.0, 10127.0, 10127.0, 10115.0, 10119.0, 10120.0, 10114.0, 10105.0, 10108.0, 10097.0, 10110.0, 10119.0, 10115.0, 10106.0, 10111.0, 10119.0, 10120.0, 10112.0, 10089.0, 10084.0, 10099.0, 10119.0, 10138.0, 10135.0, 10118.0, 10110.0, 10095.0, 10100.0, 10118.0, 10143.0, 10139.0, 10124.0, 10115.0, 10106.0, 10105.0, 10112.0, 10143.0, 10158.0, 10159.0, 10128.0, 10102.0, 10088.0, 10080.0, 10084.0, 10092.0, 10106.0, 10116.0, 10112.0, 10106.0, 10119.0, 10133.0, 10134.0, 10117.0, 10104.0, 10094.0, 10094.0, 10118.0, 10122.0, 10121.0, 10114.0, 10105.0, 10103.0, 10119.0, 10123.0, 10124.0, 10115.0, 10105.0, 10096.0, 10110.0, 10114.0, 10121.0, 10121.0, 10121.0, 10123.0, 10123.0, 10108.0, 10105.0, 10115.0, 10137.0, 10131.0, 10115.0, 10090.0, 10093.0, 10087.0, 10087.0, 10101.0, 10109.0, 10090.0, 10088.0, 10095.0, 10096.0, 10104.0, 10114.0, 10123.0, 10124.0, 10116.0, 10112.0, 10105.0, 10107.0, 10107.0, 10112.0, 10099.0, 10089.0, 10093.0, 10096.0, 10090.0, 10087.0, 10078.0, 10094.0, 10127.0, 10142.0, 10141.0],
      "WindowWidth": [21709.0, 21601.0, 21557.0, 21571.0, 21588.0, 21541.0, 21494.0, 21448.0, 21446.0, 21457.0, 21524.0, 21544.0, 21527.0, 21484.0, 21462.0, 21452.0, 21466.0, 21511.0, 21565.0, 21572.0, 21545.0, 21475.0, 21440.0, 21417.0, 21427.0, 21463.0, 21481.0, 21466.0, 21444.0, 21442.0, 21457.0, 21476.0, 21497.0, 21500.0, 21504.0, 21517.0, 21523.0, 21534.0, 21539.0, 21538.0, 21537.0, 21527.0, 21500.0, 21462.0, 21443.0, 21454.0, 21480.0, 21503.0, 21501.0, 21470.0, 21460.0, 21442.0, 21455.0, 21470.0, 21461.0, 21459.0, 21478.0, 21504.0, 21521.0, 21510.0, 21493.0, 21495.0, 21514.0, 21539.0, 21543.0, 21526.0, 21483.0, 21477.0, 21513.0, 21529.0, 21516.0, 21531.0, 21526.0, 21504.0, 21469.0, 21459.0, 21457.0, 21480.0, 21511.0, 21517.0, 21516.0, 21494.0, 21496.0, 21499.0, 21487.0, 21468.0, 21472.0, 21451.0, 21478.0, 21500.0, 21494.0, 21471.0, 21479.0, 21497.0, 21500.0, 21482.0, 21432.0, 21416.0, 21451.0, 21497.0, 21544.0, 21539.0, 21497.0, 21472.0, 21441.0, 21453.0, 21496.0, 21551.0, 21545.0, 21511.0, 21491.0, 21470.0, 21467.0, 21486.0, 21553.0, 21591.0, 21593.0, 21523.0, 21461.0, 21428.0, 21412.0, 21418.0, 21437.0, 21467.0, 21490.0, 21485.0, 21474.0, 21500.0, 21536.0, 21534.0, 21493.0, 21461.0, 21440.0, 21440.0, 21495.0, 21506.0, 21502.0, 21486.0, 21465.0, 21461.0, 21496.0, 21509.0, 21511.0, 21491.0, 21465.0, 21446.0, 21477.0, 21488.0, 21502.0, 21501.0, 21502.0, 21507.0, 21510.0, 21474.0, 21466.0, 21490.0, 21536.0, 21523.0, 21486.0, 21431.0, 21434.0, 21422.0, 21423.0, 21452.0, 21471.0, 21433.0, 21426.0, 21442.0, 21447.0, 21464.0, 21489.0, 21509.0, 21512.0, 21492.0, 21479.0, 21467.0, 21475.0, 21474.0, 21483.0, 21454.0, 21431.0, 21437.0, 21447.0, 21433.0, 21426.0, 21406.0, 21440.0, 21515.0, 21551.0, 21545.0]
    },
    "slices": {}
  }
}