{
  "AcquisitionMatrixPE": 104,
  "AcquisitionNumber": 1,
  "AcquisitionTime": "13:36:7.485000",
  "BandwidthPerPixelPhaseEncode": 17.17,
  "BaseResolution": 104,
  "BodyPartExamined": "BRAIN",
  "CoilString": "HC1-7;NC1_2",
  "ConsistencyInfo": "N4_VE11C_LATEST_20160120",
  "ConversionSoftware": "dcm2niix",
  "ConversionSoftwareVersion": "v1.0.20190902",
  "DerivedVendorReportedEchoSpacing": 0.000560011,
  "DeviceSerialNumber": "167006",
  "DwellTime": 2.1e-06,
  "EchoTime": 0.037,
  "EchoTrainLength": 104,
  "EffectiveEchoSpacing": 0.000560011,
  "FlipAngle": 52,
  "ImageComments": "Unaliased_MB4_PE3_LB",
  "ImageOrientationPatientDICOM": [0.999276, 0.0292309, 0.0243402, -0.0214553, 0.961523, -0.273884],
  "ImageType": [
    "ORIGINAL",
    "PRIMARY",
    "M",
    "MB",
    "ND",
    "MOSAIC"
],
  "ImagingFrequency": 123.259,
  "InPlanePhaseEncodingDirectionDICOM": "COL",
  "InstitutionAddress": "Chemin_Queen-Mary_4565_Montreal_District_CA_H3W_1W5",
  "InstitutionName": "IUGM",
  "InstitutionalDepartmentName": "Department",
  "MRAcquisitionType": "2D",
  "MagneticFieldStrength": 3,
  "Manufacturer": "Siemens",
  "ManufacturersModelName": "Prisma_fit",
  "Modality": "MR",
  "MultibandAccelerationFactor": 4,
  "PartialFourier": 1,
  "PatientPosition": "HFS",
  "PercentPhaseFOV": 100,
  "PhaseEncodingDirection": "j",
  "PhaseEncodingSteps": 104,
  "PhaseResolution": 1,
  "PixelBandwidth": 2290,
  "ProcedureStepDescription": "memory_things",
  "ProtocolName": "func_task-things_run-3",
  "PulseSequenceDetails": "%CustomerSeq%_cmrr_mbep2d_bold",
  "ReceiveCoilActiveElements": "HC1-7;NC1,2",
  "ReceiveCoilName": "HeadNeck_64",
  "ReconMatrixPE": 104,
  "RepetitionTime": 1.49,
  "SAR": 0.0365199,
  "ScanOptions": "FS",
  "ScanningSequence": "EP",
  "SequenceName": "epfid2d1_104",
  "SequenceVariant": "SK_SS",
  "SeriesDescription": "func_task-things_run-3",
  "SeriesNumber": 16,
  "ShimSetting": [639, -7196, -8813, 648, 59, 43, 92, -11],
  "SliceThickness": 2,
  "SliceTiming": [0, 0.785, 0.1, 0.8825, 0.1975, 0.98, 0.295, 1.0775, 0.3925, 1.1775, 0.49, 1.275, 0.59, 1.3725, 0.6875, 0, 0.785, 0.1, 0.8825, 0.1975, 0.98, 0.295, 1.0775, 0.3925, 1.1775, 0.49, 1.275, 0.59, 1.3725, 0.6875, 0, 0.785, 0.1, 0.8825, 0.1975, 0.98, 0.295, 1.0775, 0.3925, 1.1775, 0.49, 1.275, 0.59, 1.3725, 0.6875, 0, 0.785, 0.1, 0.8825, 0.1975, 0.98, 0.295, 1.0775, 0.3925, 1.1775, 0.49, 1.275, 0.59, 1.3725, 0.6875],
  "SoftwareVersions": "syngo_MR_E11",
  "SpacingBetweenSlices": 2,
  "StationName": "MRC35049",
  "TaskName": "things",
  "TotalReadoutTime": 0.0576811,
  "TxRefAmp": 216.379,
  "WipMemBlock": "1fb70985-b846-436f-a373-c7ed5e8915ba||Sequence: R016 ve11c/master r/e634e98; Dec 19 2017 11:00:25 by eja",
  "dcmmeta_affine": [
    [-1.9985525608062744, -0.04291053116321564, 0.06281915307044983, 109.86357879638672],
    [-0.058461710810661316, 1.923046588897705, -0.5463278293609619, -69.98748016357422],
    [0.04868047311902046, 0.5477687120437622, 1.922909140586853, -67.62686157226562],
    [0.0, 0.0, 0.0, 1.0]
],
  "dcmmeta_reorient_transform": [
    [0.0, -1.0, 0.0, 103.0],
    [1.0, 0.0, 0.0, 0.0],
    [0.0, 0.0, 1.0, 0.0],
    [0.0, 0.0, 0.0, 1.0]
],
  "dcmmeta_shape": [104, 104, 60, 190],
  "dcmmeta_slice_dim": 2,
  "dcmmeta_version": 0.6,
  "global": {
    "const": {
      "AcquisitionMatrix": [104, 0, 0, 104],
      "AngioFlag": "N",
      "BitsAllocated": 16,
      "BitsStored": 16,
      "BodyPartExamined": "BRAIN",
      "Columns": 832,
      "EchoNumbers": 1,
      "EchoTime": 37.0,
      "EchoTrainLength": 104,
      "FlipAngle": 52.0,
      "HighBit": 15,
      "ImageOrientationPatient": [0.99927629311091, 0.02923085508164, 0.02434023701044, -0.0214552649843, 0.96152328635864, -0.2738843577033],
      "ImagePositionPatient": [-817.29750619655, -849.35533157309, 170.4614371762],
      "ImageType": [
        "ORIGINAL",
        "PRIMARY",
        "M",
        "MB",
        "ND",
        "MOSAIC"
],
      "ImagedNucleus": "1H",
      "ImagingFrequency": 123.258983,
      "InPlanePhaseEncodingDirection": "COL",
      "MRAcquisitionType": "2D",
      "MagneticFieldStrength": 3.0,
      "Manufacturer": "SIEMENS",
      "ManufacturerModelName": "Prisma_fit",
      "Modality": "MR",
      "NumberOfAverages": 1.0,
      "NumberOfPhaseEncodingSteps": 104,
      "PercentPhaseFieldOfView": 100.0,
      "PercentSampling": 100.0,
      "PerformedProcedureStepStartTime": "132103.268000",
      "PhotometricInterpretation": "MONOCHROME2",
      "PixelBandwidth": 2290.0,
      "PixelRepresentation": 0,
      "PixelSpacing": [2.0, 2.0],
      "ProtocolName": "func_task-things_run-3",
      "RepetitionTime": 1490.0,
      "Rows": 832,
      "SAR": 0.03651993656565,
      "SamplesPerPixel": 1,
      "ScanOptions": "FS",
      "ScanningSequence": "EP",
      "SequenceName": "epfid2d1_104",
      "SequenceVariant": [
        "SK",
        "SS"
],
      "SeriesDescription": "func_task-things_run-3",
      "SeriesNumber": 16,
      "SeriesTime": "133726.106000",
      "SliceLocation": -42.451331425946,
      "SliceThickness": 2.0,
      "SmallestImagePixelValue": 0,
      "SoftwareVersions": "syngo MR E11",
      "SpacingBetweenSlices": 1.9999999473305,
      "SpecificCharacterSet": "ISO_IR 100",
      "StudyID": "2",
      "StudyTime": "132103.213000",
      "TransmitCoilName": "Body",
      "VariableFlipAngleFlag": "N",
      "WindowCenterWidthExplanation": "Algo1",
      "dBdt": 0.0},
    "slices": {}
  },
  "time": {
    "samples": {
      "AcquisitionNumber": [1, 2, 3, 4, 5, 6, 7, 8, 9, 10, 11, 12, 13, 14, 15, 16, 17, 18, 19, 20, 21, 22, 23, 24, 25, 26, 27, 28, 29, 30, 31, 32, 33, 34, 35, 36, 37, 38, 39, 40, 41, 42, 43, 44, 45, 46, 47, 48, 49, 50, 51, 52, 53, 54, 55, 56, 57, 58, 59, 60, 61, 62, 63, 64, 65, 66, 67, 68, 69, 70, 71, 72, 73, 74, 75, 76, 77, 78, 79, 80, 81, 82, 83, 84, 85, 86, 87, 88, 89, 90, 91, 92, 93, 94, 95, 96, 97, 98, 99, 100, 101, 102, 103, 104, 105, 106, 107, 108, 109, 110, 111, 112, 113, 114, 115, 116, 117, 118, 119, 120, 121, 122, 123, 124, 125, 126, 127, 128, 129, 130, 131, 132, 133, 134, 135, 136, 137, 138, 139, 140, 141, 142, 143, 144, 145, 146, 147, 148, 149, 150, 151, 152, 153, 154, 155, 156, 157, 158, 159, 160, 161, 162, 163, 164, 165, 166, 167, 168, 169, 170, 171, 172, 173, 174, 175, 176, 177, 178, 179, 180, 181, 182, 183, 184, 185, 186, 187, 188, 189, 190],
      "AcquisitionTime": ["133607.485000", "133608.975000", "133610.465000", "133611.955000", "133613.445000", "133614.935000", "133616.425000", "133617.915000", "133619.405000", "133620.895000", "133622.385000", "133623.875000", "133625.365000", "133626.855000", "133628.345000", "133629.835000", "133631.325000", "133632.815000", "133634.305000", "133635.795000", "133637.285000", "133638.775000", "133640.265000", "133641.755000", "133643.245000", "133644.735000", "133646.225000", "133647.715000", "133649.205000", "133650.695000", "133652.185000", "133653.675000", "133655.165000", "133656.655000", "133658.145000", "133659.635000", "133701.125000", "133702.615000", "133704.105000", "133705.595000", "133707.085000", "133708.575000", "133710.065000", "133711.555000", "133713.045000", "133714.535000", "133716.025000", "133717.515000", "133719.005000", "133720.495000", "133721.985000", "133723.475000", "133724.965000", "133726.455000", "133727.945000", "133729.435000", "133730.925000", "133732.415000", "133733.905000", "133735.395000", "133736.885000", "133738.375000", "133739.865000", "133741.355000", "133742.845000", "133744.335000", "133745.825000", "133747.315000", "133748.805000", "133750.295000", "133751.785000", "133753.275000", "133754.765000", "133756.255000", "133757.745000", "133759.235000", "133800.725000", "133802.215000", "133803.705000", "133805.195000", "133806.685000", "133808.175000", "133809.665000", "133811.155000", "133812.645000", "133814.135000", "133815.625000", "133817.115000", "133818.605000", "133820.095000", "133821.585000", "133823.075000", "133824.565000", "133826.055000", "133827.545000", "133829.035000", "133830.525000", "133832.015000", "133833.505000", "133834.995000", "133836.485000", "133837.975000", "133839.465000", "133840.955000", "133842.445000", "133843.935000", "133845.425000", "133846.915000", "133848.405000", "133849.895000", "133851.385000", "133852.875000", "133854.365000", "133855.855000", "133857.345000", "133858.835000", "133900.325000", "133901.815000", "133903.305000", "133904.795000", "133906.285000", "133907.775000", "133909.265000", "133910.755000", "133912.245000", "133913.735000", "133915.225000", "133916.715000", "133918.205000", "133919.695000", "133921.185000", "133922.675000", "133924.165000", "133925.655000", "133927.145000", "133928.635000", "133930.125000", "133931.615000", "133933.105000", "133934.595000", "133936.085000", "133937.575000", "133939.065000", "133940.555000", "133942.045000", "133943.535000", "133945.025000", "133946.515000", "133948.005000", "133949.495000", "133950.985000", "133952.475000", "133953.965000", "133955.455000", "133956.945000", "133958.435000", "133959.925000", "134001.415000", "134002.905000", "134004.395000", "134005.885000", "134007.375000", "134008.865000", "134010.355000", "134011.845000", "134013.335000", "134014.825000", "134016.315000", "134017.805000", "134019.295000", "134020.785000", "134022.275000", "134023.765000", "134025.255000", "134026.745000", "134028.235000", "134029.725000", "134031.215000", "134032.705000", "134034.195000", "134035.685000", "134037.175000", "134038.665000", "134040.155000", "134041.645000", "134043.135000", "134044.625000", "134046.115000", "134047.605000", "134049.095000"],
      "ContentTime": ["133726.110000", "133726.113000", "133726.117000", "133726.120000", "133726.124000", "133726.127000", "133726.130000", "133726.134000", "133726.137000", "133726.140000", "133726.144000", "133726.147000", "133726.150000", "133726.154000", "133726.157000", "133726.160000", "133726.164000", "133726.167000", "133726.170000", "133726.174000", "133726.177000", "133726.187000", "133726.191000", "133726.194000", "133726.197000", "133746.077000", "133746.081000", "133746.084000", "133746.088000", "133746.098000", "133746.101000", "133746.104000", "133746.108000", "133746.111000", "133746.114000", "133746.118000", "133746.121000", "133746.124000", "133746.128000", "133746.131000", "133746.134000", "133746.137000", "133746.141000", "133746.144000", "133746.148000", "133806.076000", "133806.080000", "133806.083000", "133806.087000", "133806.090000", "133806.094000", "133806.097000", "133806.100000", "133806.104000", "133806.107000", "133806.111000", "133806.114000", "133806.117000", "133806.121000", "133806.124000", "133806.127000", "133806.131000", "133806.134000", "133806.137000", "133806.141000", "133806.144000", "133826.076000", "133826.080000", "133826.083000", "133826.087000", "133826.090000", "133826.093000", "133826.097000", "133826.100000", "133826.104000", "133826.107000", "133826.110000", "133826.114000", "133826.117000", "133826.121000", "133826.124000", "133826.128000", "133826.131000", "133826.135000", "133826.138000", "133826.141000", "133846.077000", "133846.081000", "133846.084000", "133846.088000", "133846.091000", "133846.095000", "133846.098000", "133846.102000", "133846.105000", "133846.108000", "133846.112000", "133846.115000", "133846.118000", "133846.122000", "133846.125000", "133846.129000", "133846.132000", "133846.135000", "133846.139000", "133846.142000", "133926.077000", "133926.081000", "133926.084000", "133926.088000", "133926.091000", "133926.094000", "133926.098000", "133926.101000", "133926.105000", "133926.108000", "133926.111000", "133926.115000", "133926.118000", "133926.121000", "133926.125000", "133926.128000", "133926.132000", "133926.135000", "133926.138000", "133926.142000", "133926.145000", "133926.148000", "133926.163000", "133926.166000", "133926.170000", "133926.173000", "134006.077000", "134006.081000", "134006.091000", "134006.094000", "134006.098000", "134006.101000", "134006.104000", "134006.108000", "134006.111000", "134006.115000", "134006.118000", "134006.121000", "134006.125000", "134006.128000", "134006.131000", "134006.135000", "134006.138000", "134006.141000", "134006.145000", "134006.148000", "134006.151000", "134006.155000", "134006.158000", "134006.162000", "134006.165000", "134006.168000", "134006.172000", "134046.076000", "134046.080000", "134046.083000", "134046.087000", "134046.090000", "134046.094000", "134046.097000", "134046.100000", "134046.104000", "134046.107000", "134046.110000", "134046.114000", "134046.117000", "134046.120000", "134046.124000", "134046.127000", "134046.130000", "134046.134000", "134046.137000", "134046.141000", "134046.144000", "134046.147000", "134046.151000", "134046.154000", "134046.157000", "134046.161000", "134046.164000", "134051.276000", "134051.280000", "134051.284000", "134051.287000"],
      "InstanceCreationTime": ["133726.110000", "133726.113000", "133726.117000", "133726.120000", "133726.124000", "133726.127000", "133726.130000", "133726.134000", "133726.137000", "133726.140000", "133726.144000", "133726.147000", "133726.150000", "133726.154000", "133726.157000", "133726.160000", "133726.164000", "133726.167000", "133726.170000", "133726.174000", "133726.177000", "133726.187000", "133726.191000", "133726.194000", "133726.197000", "133746.077000", "133746.081000", "133746.084000", "133746.088000", "133746.098000", "133746.101000", "133746.104000", "133746.108000", "133746.111000", "133746.114000", "133746.118000", "133746.121000", "133746.124000", "133746.128000", "133746.131000", "133746.134000", "133746.137000", "133746.141000", "133746.144000", "133746.148000", "133806.076000", "133806.080000", "133806.083000", "133806.087000", "133806.090000", "133806.094000", "133806.097000", "133806.100000", "133806.104000", "133806.107000", "133806.111000", "133806.114000", "133806.117000", "133806.121000", "133806.124000", "133806.127000", "133806.131000", "133806.134000", "133806.137000", "133806.141000", "133806.144000", "133826.076000", "133826.080000", "133826.083000", "133826.087000", "133826.090000", "133826.093000", "133826.097000", "133826.100000", "133826.104000", "133826.107000", "133826.110000", "133826.114000", "133826.117000", "133826.121000", "133826.124000", "133826.128000", "133826.131000", "133826.135000", "133826.138000", "133826.141000", "133846.077000", "133846.081000", "133846.084000", "133846.088000", "133846.091000", "133846.095000", "133846.098000", "133846.102000", "133846.105000", "133846.108000", "133846.112000", "133846.115000", "133846.118000", "133846.122000", "133846.125000", "133846.129000", "133846.132000", "133846.135000", "133846.139000", "133846.142000", "133926.077000", "133926.081000", "133926.084000", "133926.088000", "133926.091000", "133926.094000", "133926.098000", "133926.101000", "133926.105000", "133926.108000", "133926.111000", "133926.115000", "133926.118000", "133926.121000", "133926.125000", "133926.128000", "133926.132000", "133926.135000", "133926.138000", "133926.142000", "133926.145000", "133926.148000", "133926.163000", "133926.166000", "133926.170000", "133926.173000", "134006.077000", "134006.081000", "134006.091000", "134006.094000", "134006.098000", "134006.101000", "134006.104000", "134006.108000", "134006.111000", "134006.115000", "134006.118000", "134006.121000", "134006.125000", "134006.128000", "134006.131000", "134006.135000", "134006.138000", "134006.141000", "134006.145000", "134006.148000", "134006.151000", "134006.155000", "134006.158000", "134006.162000", "134006.165000", "134006.168000", "134006.172000", "134046.076000", "134046.080000", "134046.083000", "134046.087000", "134046.090000", "134046.094000", "134046.097000", "134046.100000", "134046.104000", "134046.107000", "134046.110000", "134046.114000", "134046.117000", "134046.120000", "134046.124000", "134046.127000", "134046.130000", "134046.134000", "134046.137000", "134046.141000", "134046.144000", "134046.147000", "134046.151000", "134046.154000", "134046.157000", "134046.161000", "134046.164000", "134051.276000", "134051.280000", "134051.284000", "134051.287000"],
      "InstanceNumber": [1, 2, 3, 4, 5, 6, 7, 8, 9, 10, 11, 12, 13, 14, 15, 16, 17, 18, 19, 20, 21, 22, 23, 24, 25, 26, 27, 28, 29, 30, 31, 32, 33, 34, 35, 36, 37, 38, 39, 40, 41, 42, 43, 44, 45, 46, 47, 48, 49, 50, 51, 52, 53, 54, 55, 56, 57, 58, 59, 60, 61, 62, 63, 64, 65, 66, 67, 68, 69, 70, 71, 72, 73, 74, 75, 76, 77, 78, 79, 80, 81, 82, 83, 84, 85, 86, 87, 88, 89, 90, 91, 92, 93, 94, 95, 96, 97, 98, 99, 100, 101, 102, 103, 104, 105, 106, 107, 108, 109, 110, 111, 112, 113, 114, 115, 116, 117, 118, 119, 120, 121, 122, 123, 124, 125, 126, 127, 128, 129, 130, 131, 132, 133, 134, 135, 136, 137, 138, 139, 140, 141, 142, 143, 144, 145, 146, 147, 148, 149, 150, 151, 152, 153, 154, 155, 156, 157, 158, 159, 160, 161, 162, 163, 164, 165, 166, 167, 168, 169, 170, 171, 172, 173, 174, 175, 176, 177, 178, 179, 180, 181, 182, 183, 184, 185, 186, 187, 188, 189, 190],
      "LargestImagePixelValue": [41261, 40026, 39392, 38571, 38739, 39303, 38491, 39405, 38467, 38520, 38472, 38904, 38426, 38395, 38381, 38602, 38370, 38738, 38238, 38020, 38363, 38412, 38271, 38354, 38487, 38423, 38021, 38382, 38728, 38214, 39085, 38243, 38693, 38187, 38191, 38233, 38112, 38108, 38623, 38397, 38345, 38480, 38336, 38183, 38342, 38436, 38301, 38136, 38131, 38266, 38602, 38202, 38485, 38675, 38396, 38014, 38196, 38485, 38579, 38401, 38379, 38640, 38660, 38649, 38408, 37987, 38280, 38510, 38481, 38529, 37964, 38036, 38294, 38058, 38337, 38115, 38163, 38710, 38034, 38034, 38209, 38107, 37961, 38145, 38258, 38396, 38065, 38171, 38217, 38178, 38105, 38335, 38474, 38206, 38208, 38080, 38005, 38118, 38174, 38166, 38257, 38254, 38690, 38219, 38286, 38063, 38033, 38265, 38435, 38114, 38078, 38023, 38570, 38434, 38285, 38487, 38139, 38203, 37893, 38222, 38234, 38100, 38299, 37971, 37946, 38356, 38103, 38222, 37865, 38246, 38488, 38416, 38198, 38576, 37974, 38015, 38183, 38016, 38129, 38005, 38253, 38132, 38320, 38247, 37989, 38367, 38280, 38158, 37916, 37969, 38443, 38363, 38312, 38239, 38025, 37943, 37996, 38047, 38372, 38210, 38424, 38134, 38034, 37978, 38355, 38296, 38310, 38307, 37937, 37948, 37951, 37969, 38415, 38342, 38046, 37959, 38080, 37997, 38338, 38006, 38561, 38173, 38113, 38035, 37926, 37881, 37989, 37976, 38185, 38195],
      "WindowCenter": [10181.0, 10150.0, 10156.0, 10150.0, 10140.0, 10130.0, 10108.0, 10102.0, 10095.0, 10110.0, 10127.0, 10143.0, 10140.0, 10134.0, 10131.0, 10121.0, 10114.0, 10128.0, 10126.0, 10130.0, 10121.0, 10107.0, 10104.0, 10116.0, 10129.0, 10148.0, 10135.0, 10117.0, 10104.0, 10096.0, 10107.0, 10111.0, 10118.0, 10108.0, 10113.0, 10114.0, 10107.0, 10107.0, 10118.0, 10113.0, 10112.0, 10114.0, 10113.0, 10105.0, 10110.0, 10120.0, 10123.0, 10125.0, 10117.0, 10112.0, 10111.0, 10105.0, 10111.0, 10111.0, 10107.0, 10114.0, 10124.0, 10132.0, 10131.0, 10115.0, 10097.0, 10092.0, 10100.0, 10112.0, 10129.0, 10133.0, 10131.0, 10122.0, 10122.0, 10124.0, 10125.0, 10131.0, 10122.0, 10114.0, 10119.0, 10115.0, 10122.0, 10129.0, 10124.0, 10124.0, 10133.0, 10133.0, 10126.0, 10118.0, 10108.0, 10120.0, 10134.0, 10143.0, 10135.0, 10127.0, 10117.0, 10116.0, 10121.0, 10125.0, 10141.0, 10142.0, 10133.0, 10124.0, 10126.0, 10126.0, 10126.0, 10124.0, 10116.0, 10118.0, 10133.0, 10125.0, 10116.0, 10108.0, 10115.0, 10125.0, 10128.0, 10119.0, 10122.0, 10131.0, 10135.0, 10133.0, 10121.0, 10118.0, 10112.0, 10118.0, 10131.0, 10129.0, 10134.0, 10118.0, 10100.0, 10106.0, 10117.0, 10126.0, 10113.0, 10100.0, 10096.0, 10099.0, 10107.0, 10128.0, 10129.0, 10129.0, 10119.0, 10117.0, 10124.0, 10127.0, 10120.0, 10109.0, 10098.0, 10089.0, 10082.0, 10098.0, 10121.0, 10125.0, 10112.0, 10108.0, 10098.0, 10089.0, 10095.0, 10113.0, 10133.0, 10138.0, 10130.0, 10117.0, 10107.0, 10106.0, 10114.0, 10117.0, 10110.0, 10092.0, 10096.0, 10103.0, 10116.0, 10133.0, 10127.0, 10118.0, 10117.0, 10102.0, 10114.0, 10140.0, 10139.0, 10136.0, 10121.0, 10108.0, 10099.0, 10106.0, 10129.0, 10144.0, 10154.0, 10144.0, 10120.0, 10097.0, 10093.0, 10096.0, 10100.0, 10114.0],
      "WindowWidth": [21698.0, 21605.0, 21603.0, 21583.0, 21556.0, 21528.0, 21481.0, 21462.0, 21450.0, 21484.0, 21521.0, 21559.0, 21555.0, 21542.0, 21533.0, 21506.0, 21491.0, 21525.0, 21523.0, 21527.0, 21506.0, 21477.0, 21466.0, 21493.0, 21527.0, 21570.0, 21541.0, 21499.0, 21466.0, 21449.0, 21471.0, 21484.0, 21501.0, 21481.0, 21490.0, 21494.0, 21480.0, 21478.0, 21501.0, 21490.0, 21488.0, 21493.0, 21490.0, 21471.0, 21482.0, 21505.0, 21514.0, 21518.0, 21500.0, 21486.0, 21484.0, 21470.0, 21482.0, 21483.0, 21477.0, 21492.0, 21515.0, 21531.0, 21526.0, 21490.0, 21450.0, 21438.0, 21456.0, 21486.0, 21526.0, 21537.0, 21531.0, 21510.0, 21511.0, 21516.0, 21520.0, 21531.0, 21509.0, 21488.0, 21500.0, 21494.0, 21510.0, 21524.0, 21517.0, 21516.0, 21537.0, 21534.0, 21519.0, 21500.0, 21476.0, 21504.0, 21541.0, 21561.0, 21540.0, 21520.0, 21497.0, 21497.0, 21506.0, 21518.0, 21555.0, 21557.0, 21533.0, 21512.0, 21517.0, 21518.0, 21517.0, 21512.0, 21495.0, 21502.0, 21535.0, 21516.0, 21492.0, 21477.0, 21492.0, 21515.0, 21527.0, 21504.0, 21506.0, 21528.0, 21540.0, 21532.0, 21508.0, 21500.0, 21491.0, 21501.0, 21528.0, 21527.0, 21535.0, 21499.0, 21459.0, 21471.0, 21498.0, 21517.0, 21489.0, 21456.0, 21446.0, 21456.0, 21476.0, 21520.0, 21527.0, 21526.0, 21503.0, 21497.0, 21512.0, 21522.0, 21505.0, 21479.0, 21450.0, 21430.0, 21415.0, 21451.0, 21504.0, 21517.0, 21490.0, 21476.0, 21450.0, 21431.0, 21444.0, 21487.0, 21537.0, 21550.0, 21532.0, 21497.0, 21475.0, 21472.0, 21492.0, 21500.0, 21479.0, 21438.0, 21444.0, 21461.0, 21495.0, 21532.0, 21521.0, 21500.0, 21495.0, 21465.0, 21490.0, 21549.0, 21553.0, 21542.0, 21508.0, 21473.0, 21454.0, 21469.0, 21522.0, 21557.0, 21581.0, 21556.0, 21503.0, 21450.0, 21438.0, 21443.0, 21457.0, 21486.0]
    },
    "slices": {}
  }
}