{
  "AcquisitionMatrixPE": 104,
  "AcquisitionNumber": 1,
  "AcquisitionTime": "13:42:15.047500",
  "BandwidthPerPixelPhaseEncode": 17.17,
  "BaseResolution": 104,
  "BodyPartExamined": "BRAIN",
  "CoilString": "HC1-7;NC1_2",
  "ConsistencyInfo": "N4_VE11C_LATEST_20160120",
  "ConversionSoftware": "dcm2niix",
  "ConversionSoftwareVersion": "v1.0.20190902",
  "DerivedVendorReportedEchoSpacing": 0.000560011,
  "DeviceSerialNumber": "167006",
  "DwellTime": 2.1e-06,
  "EchoTime": 0.037,
  "EchoTrainLength": 104,
  "EffectiveEchoSpacing": 0.000560011,
  "FlipAngle": 52,
  "ImageComments": "Unaliased_MB4_PE3_LB",
  "ImageOrientationPatientDICOM": [0.999276, 0.0292309, 0.0243402, -0.0214553, 0.961523, -0.273884],
  "ImageType": [
    "ORIGINAL",
    "PRIMARY",
    "M",
    "MB",
    "ND",
    "MOSAIC"
],
  "ImagingFrequency": 123.259,
  "InPlanePhaseEncodingDirectionDICOM": "COL",
  "InstitutionAddress": "Chemin_Queen-Mary_4565_Montreal_District_CA_H3W_1W5",
  "InstitutionName": "IUGM",
  "InstitutionalDepartmentName": "Department",
  "MRAcquisitionType": "2D",
  "MagneticFieldStrength": 3,
  "Manufacturer": "Siemens",
  "ManufacturersModelName": "Prisma_fit",
  "Modality": "MR",
  "MultibandAccelerationFactor": 4,
  "PartialFourier": 1,
  "PatientPosition": "HFS",
  "PercentPhaseFOV": 100,
  "PhaseEncodingDirection": "j",
  "PhaseEncodingSteps": 104,
  "PhaseResolution": 1,
  "PixelBandwidth": 2290,
  "ProcedureStepDescription": "memory_things",
  "ProtocolName": "func_task-things_run-4",
  "PulseSequenceDetails": "%CustomerSeq%_cmrr_mbep2d_bold",
  "ReceiveCoilActiveElements": "HC1-7;NC1,2",
  "ReceiveCoilName": "HeadNeck_64",
  "ReconMatrixPE": 104,
  "RepetitionTime": 1.49,
  "SAR": 0.0365199,
  "ScanOptions": "FS",
  "ScanningSequence": "EP",
  "SequenceName": "epfid2d1_104",
  "SequenceVariant": "SK_SS",
  "SeriesDescription": "func_task-things_run-4",
  "SeriesNumber": 19,
  "ShimSetting": [639, -7196, -8813, 648, 59, 43, 92, -11],
  "SliceThickness": 2,
  "SliceTiming": [0, 0.785, 0.0975, 0.8825, 0.195, 0.98, 0.295, 1.0775, 0.3925, 1.175, 0.49, 1.275, 0.5875, 1.3725, 0.685, 0, 0.785, 0.0975, 0.8825, 0.195, 0.98, 0.295, 1.0775, 0.3925, 1.175, 0.49, 1.275, 0.5875, 1.3725, 0.685, 0, 0.785, 0.0975, 0.8825, 0.195, 0.98, 0.295, 1.0775, 0.3925, 1.175, 0.49, 1.275, 0.5875, 1.3725, 0.685, 0, 0.785, 0.0975, 0.8825, 0.195, 0.98, 0.295, 1.0775, 0.3925, 1.175, 0.49, 1.275, 0.5875, 1.3725, 0.685],
  "SoftwareVersions": "syngo_MR_E11",
  "SpacingBetweenSlices": 2,
  "StationName": "MRC35049",
  "TaskName": "things",
  "TotalReadoutTime": 0.0576811,
  "TxRefAmp": 216.379,
  "WipMemBlock": "7e28ae7a-325f-49e1-9c6d-b06deaae8576||Sequence: R016 ve11c/master r/e634e98; Dec 19 2017 11:00:25 by eja",
  "dcmmeta_affine": [
    [-1.9985525608062744, -0.04291053116321564, 0.06281915307044983, 109.86357879638672],
    [-0.058461710810661316, 1.923046588897705, -0.5463278293609619, -69.98748016357422],
    [0.04868047311902046, 0.5477687120437622, 1.922909140586853, -67.62686157226562],
    [0.0, 0.0, 0.0, 1.0]
],
  "dcmmeta_reorient_transform": [
    [0.0, -1.0, 0.0, 103.0],
    [1.0, 0.0, 0.0, 0.0],
    [0.0, 0.0, 1.0, 0.0],
    [0.0, 0.0, 0.0, 1.0]
],
  "dcmmeta_shape": [104, 104, 60, 190],
  "dcmmeta_slice_dim": 2,
  "dcmmeta_version": 0.6,
  "global": {
    "const": {
      "AcquisitionMatrix": [104, 0, 0, 104],
      "AngioFlag": "N",
      "BitsAllocated": 16,
      "BitsStored": 16,
      "BodyPartExamined": "BRAIN",
      "Columns": 832,
      "EchoNumbers": 1,
      "EchoTime": 37.0,
      "EchoTrainLength": 104,
      "FlipAngle": 52.0,
      "HighBit": 15,
      "ImageOrientationPatient": [0.99927629311091, 0.02923085508164, 0.02434023701044, -0.0214552649843, 0.96152328635864, -0.2738843577033],
      "ImagePositionPatient": [-817.29750619655, -849.35533157309, 170.4614371762],
      "ImageType": [
        "ORIGINAL",
        "PRIMARY",
        "M",
        "MB",
        "ND",
        "MOSAIC"
],
      "ImagedNucleus": "1H",
      "ImagingFrequency": 123.258985,
      "InPlanePhaseEncodingDirection": "COL",
      "MRAcquisitionType": "2D",
      "MagneticFieldStrength": 3.0,
      "Manufacturer": "SIEMENS",
      "ManufacturerModelName": "Prisma_fit",
      "Modality": "MR",
      "NumberOfAverages": 1.0,
      "NumberOfPhaseEncodingSteps": 104,
      "PercentPhaseFieldOfView": 100.0,
      "PercentSampling": 100.0,
      "PerformedProcedureStepStartTime": "132103.268000",
      "PhotometricInterpretation": "MONOCHROME2",
      "PixelBandwidth": 2290.0,
      "PixelRepresentation": 0,
      "PixelSpacing": [2.0, 2.0],
      "ProtocolName": "func_task-things_run-4",
      "RepetitionTime": 1490.0,
      "Rows": 832,
      "SAR": 0.03651993656565,
      "SamplesPerPixel": 1,
      "ScanOptions": "FS",
      "ScanningSequence": "EP",
      "SequenceName": "epfid2d1_104",
      "SequenceVariant": [
        "SK",
        "SS"
],
      "SeriesDescription": "func_task-things_run-4",
      "SeriesNumber": 19,
      "SeriesTime": "134344.753000",
      "SliceLocation": -42.451331425946,
      "SliceThickness": 2.0,
      "SmallestImagePixelValue": 0,
      "SoftwareVersions": "syngo MR E11",
      "SpacingBetweenSlices": 1.9999999473305,
      "SpecificCharacterSet": "ISO_IR 100",
      "StudyID": "2",
      "StudyTime": "132103.213000",
      "TransmitCoilName": "Body",
      "VariableFlipAngleFlag": "N",
      "WindowCenterWidthExplanation": "Algo1",
      "dBdt": 0.0},
    "slices": {}
  },
  "time": {
    "samples": {
      "AcquisitionNumber": [1, 2, 3, 4, 5, 6, 7, 8, 9, 10, 11, 12, 13, 14, 15, 16, 17, 18, 19, 20, 21, 22, 23, 24, 25, 26, 27, 28, 29, 30, 31, 32, 33, 34, 35, 36, 37, 38, 39, 40, 41, 42, 43, 44, 45, 46, 47, 48, 49, 50, 51, 52, 53, 54, 55, 56, 57, 58, 59, 60, 61, 62, 63, 64, 65, 66, 67, 68, 69, 70, 71, 72, 73, 74, 75, 76, 77, 78, 79, 80, 81, 82, 83, 84, 85, 86, 87, 88, 89, 90, 91, 92, 93, 94, 95, 96, 97, 98, 99, 100, 101, 102, 103, 104, 105, 106, 107, 108, 109, 110, 111, 112, 113, 114, 115, 116, 117, 118, 119, 120, 121, 122, 123, 124, 125, 126, 127, 128, 129, 130, 131, 132, 133, 134, 135, 136, 137, 138, 139, 140, 141, 142, 143, 144, 145, 146, 147, 148, 149, 150, 151, 152, 153, 154, 155, 156, 157, 158, 159, 160, 161, 162, 163, 164, 165, 166, 167, 168, 169, 170, 171, 172, 173, 174, 175, 176, 177, 178, 179, 180, 181, 182, 183, 184, 185, 186, 187, 188, 189, 190],
      "AcquisitionTime": ["134215.047500", "134216.537500", "134218.027500", "134219.517500", "134221.007500", "134222.497500", "134223.987500", "134225.477500", "134226.967500", "134228.457500", "134229.947500", "134231.437500", "134232.927500", "134234.417500", "134235.907500", "134237.397500", "134238.887500", "134240.377500", "134241.867500", "134243.357500", "134244.847500", "134246.337500", "134247.827500", "134249.317500", "134250.807500", "134252.297500", "134253.787500", "134255.277500", "134256.767500", "134258.257500", "134259.747500", "134301.237500", "134302.727500", "134304.217500", "134305.707500", "134307.197500", "134308.687500", "134310.177500", "134311.667500", "134313.157500", "134314.647500", "134316.137500", "134317.627500", "134319.117500", "134320.607500", "134322.097500", "134323.587500", "134325.077500", "134326.567500", "134328.057500", "134329.547500", "134331.037500", "134332.527500", "134334.017500", "134335.507500", "134336.997500", "134338.487500", "134339.977500", "134341.467500", "134342.957500", "134344.447500", "134345.937500", "134347.427500", "134348.917500", "134350.407500", "134351.897500", "134353.387500", "134354.877500", "134356.367500", "134357.857500", "134359.347500", "134400.837500", "134402.327500", "134403.817500", "134405.307500", "134406.797500", "134408.287500", "134409.777500", "134411.267500", "134412.757500", "134414.247500", "134415.737500", "134417.227500", "134418.717500", "134420.207500", "134421.697500", "134423.187500", "134424.677500", "134426.167500", "134427.657500", "134429.147500", "134430.637500", "134432.127500", "134433.617500", "134435.107500", "134436.597500", "134438.087500", "134439.577500", "134441.067500", "134442.557500", "134444.047500", "134445.537500", "134447.027500", "134448.517500", "134450.007500", "134451.497500", "134452.987500", "134454.477500", "134455.967500", "134457.457500", "134458.947500", "134500.437500", "134501.927500", "134503.417500", "134504.907500", "134506.397500", "134507.887500", "134509.377500", "134510.867500", "134512.357500", "134513.847500", "134515.337500", "134516.827500", "134518.317500", "134519.807500", "134521.297500", "134522.787500", "134524.277500", "134525.767500", "134527.257500", "134528.747500", "134530.237500", "134531.727500", "134533.217500", "134534.707500", "134536.197500", "134537.687500", "134539.177500", "134540.667500", "134542.157500", "134543.647500", "134545.137500", "134546.627500", "134548.117500", "134549.607500", "134551.097500", "134552.587500", "134554.077500", "134555.567500", "134557.057500", "134558.547500", "134600.037500", "134601.527500", "134603.017500", "134604.507500", "134605.997500", "134607.487500", "134608.977500", "134610.467500", "134611.957500", "134613.447500", "134614.937500", "134616.427500", "134617.917500", "134619.407500", "134620.897500", "134622.387500", "134623.877500", "134625.367500", "134626.857500", "134628.347500", "134629.837500", "134631.327500", "134632.817500", "134634.307500", "134635.797500", "134637.287500", "134638.777500", "134640.267500", "134641.757500", "134643.247500", "134644.737500", "134646.227500", "134647.717500", "134649.207500", "134650.697500", "134652.187500", "134653.677500", "134655.167500", "134656.657500"],
      "ContentTime": ["134344.756000", "134344.760000", "134344.763000", "134344.766000", "134344.770000", "134344.773000", "134344.777000", "134344.780000", "134344.783000", "134344.787000", "134344.790000", "134344.793000", "134344.797000", "134344.812000", "134344.815000", "134344.818000", "134344.822000", "134344.825000", "134344.829000", "134344.832000", "134344.835000", "134344.839000", "134344.842000", "134344.846000", "134344.849000", "134344.862000", "134344.865000", "134344.869000", "134344.872000", "134344.875000", "134344.879000", "134344.882000", "134344.885000", "134344.889000", "134344.892000", "134344.895000", "134404.718000", "134404.722000", "134404.725000", "134404.729000", "134404.732000", "134404.735000", "134404.739000", "134404.742000", "134404.746000", "134404.749000", "134404.752000", "134404.756000", "134404.759000", "134404.762000", "134404.858000", "134404.861000", "134404.865000", "134404.868000", "134404.871000", "134404.875000", "134424.719000", "134424.723000", "134424.726000", "134424.730000", "134424.733000", "134424.737000", "134424.740000", "134424.743000", "134424.747000", "134424.750000", "134424.754000", "134424.757000", "134424.760000", "134424.764000", "134424.767000", "134424.771000", "134424.774000", "134424.777000", "134424.781000", "134424.784000", "134444.719000", "134444.723000", "134444.726000", "134444.730000", "134444.733000", "134444.737000", "134444.740000", "134444.743000", "134444.747000", "134444.750000", "134444.754000", "134444.757000", "134444.761000", "134444.764000", "134444.768000", "134444.797000", "134444.801000", "134444.804000", "134444.808000", "134444.811000", "134524.718000", "134524.722000", "134524.725000", "134524.729000", "134524.732000", "134524.736000", "134524.739000", "134524.743000", "134524.747000", "134524.750000", "134524.754000", "134524.757000", "134524.760000", "134524.764000", "134524.767000", "134524.771000", "134524.774000", "134524.778000", "134524.781000", "134524.784000", "134524.788000", "134524.791000", "134524.794000", "134524.798000", "134524.801000", "134524.805000", "134524.819000", "134524.822000", "134524.835000", "134524.839000", "134604.718000", "134604.722000", "134604.725000", "134604.729000", "134604.732000", "134604.736000", "134604.739000", "134604.743000", "134604.746000", "134604.749000", "134604.753000", "134604.756000", "134604.760000", "134604.763000", "134604.767000", "134604.771000", "134604.774000", "134604.778000", "134604.781000", "134604.784000", "134604.788000", "134604.791000", "134604.794000", "134604.798000", "134604.801000", "134604.804000", "134604.808000", "134644.719000", "134644.723000", "134644.726000", "134644.730000", "134644.733000", "134644.737000", "134644.740000", "134644.743000", "134644.747000", "134644.750000", "134644.753000", "134644.757000", "134644.760000", "134644.763000", "134644.768000", "134644.772000", "134644.775000", "134644.779000", "134644.782000", "134644.785000", "134644.789000", "134644.792000", "134644.796000", "134644.799000", "134644.803000", "134644.806000", "134644.809000", "134658.803000", "134658.807000", "134658.810000", "134658.814000", "134658.817000", "134658.820000", "134658.824000", "134658.827000", "134658.831000", "134658.834000"],
      "InstanceCreationTime": ["134344.756000", "134344.760000", "134344.763000", "134344.766000", "134344.770000", "134344.773000", "134344.777000", "134344.780000", "134344.783000", "134344.787000", "134344.790000", "134344.793000", "134344.797000", "134344.812000", "134344.815000", "134344.818000", "134344.822000", "134344.825000", "134344.829000", "134344.832000", "134344.835000", "134344.839000", "134344.842000", "134344.846000", "134344.849000", "134344.862000", "134344.865000", "134344.869000", "134344.872000", "134344.875000", "134344.879000", "134344.882000", "134344.885000", "134344.889000", "134344.892000", "134344.895000", "134404.718000", "134404.722000", "134404.725000", "134404.729000", "134404.732000", "134404.735000", "134404.739000", "134404.742000", "134404.746000", "134404.749000", "134404.752000", "134404.756000", "134404.759000", "134404.762000", "134404.858000", "134404.861000", "134404.865000", "134404.868000", "134404.871000", "134404.875000", "134424.719000", "134424.723000", "134424.726000", "134424.730000", "134424.733000", "134424.737000", "134424.740000", "134424.743000", "134424.747000", "134424.750000", "134424.754000", "134424.757000", "134424.760000", "134424.764000", "134424.767000", "134424.771000", "134424.774000", "134424.777000", "134424.781000", "134424.784000", "134444.719000", "134444.723000", "134444.726000", "134444.730000", "134444.733000", "134444.737000", "134444.740000", "134444.743000", "134444.747000", "134444.750000", "134444.754000", "134444.757000", "134444.761000", "134444.764000", "134444.768000", "134444.797000", "134444.801000", "134444.804000", "134444.808000", "134444.811000", "134524.718000", "134524.722000", "134524.725000", "134524.729000", "134524.732000", "134524.736000", "134524.739000", "134524.743000", "134524.747000", "134524.750000", "134524.754000", "134524.757000", "134524.760000", "134524.764000", "134524.767000", "134524.771000", "134524.774000", "134524.778000", "134524.781000", "134524.784000", "134524.788000", "134524.791000", "134524.794000", "134524.798000", "134524.801000", "134524.805000", "134524.819000", "134524.822000", "134524.835000", "134524.839000", "134604.718000", "134604.722000", "134604.725000", "134604.729000", "134604.732000", "134604.736000", "134604.739000", "134604.743000", "134604.746000", "134604.749000", "134604.753000", "134604.756000", "134604.760000", "134604.763000", "134604.767000", "134604.771000", "134604.774000", "134604.778000", "134604.781000", "134604.784000", "134604.788000", "134604.791000", "134604.794000", "134604.798000", "134604.801000", "134604.804000", "134604.808000", "134644.719000", "134644.723000", "134644.726000", "134644.730000", "134644.733000", "134644.737000", "134644.740000", "134644.743000", "134644.747000", "134644.750000", "134644.753000", "134644.757000", "134644.760000", "134644.763000", "134644.768000", "134644.772000", "134644.775000", "134644.779000", "134644.782000", "134644.785000", "134644.789000", "134644.792000", "134644.796000", "134644.799000", "134644.803000", "134644.806000", "134644.809000", "134658.803000", "134658.807000", "134658.810000", "134658.814000", "134658.817000", "134658.820000", "134658.824000", "134658.827000", "134658.831000", "134658.834000"],
      "InstanceNumber": [1, 2, 3, 4, 5, 6, 7, 8, 9, 10, 11, 12, 13, 14, 15, 16, 17, 18, 19, 20, 21, 22, 23, 24, 25, 26, 27, 28, 29, 30, 31, 32, 33, 34, 35, 36, 37, 38, 39, 40, 41, 42, 43, 44, 45, 46, 47, 48, 49, 50, 51, 52, 53, 54, 55, 56, 57, 58, 59, 60, 61, 62, 63, 64, 65, 66, 67, 68, 69, 70, 71, 72, 73, 74, 75, 76, 77, 78, 79, 80, 81, 82, 83, 84, 85, 86, 87, 88, 89, 90, 91, 92, 93, 94, 95, 96, 97, 98, 99, 100, 101, 102, 103, 104, 105, 106, 107, 108, 109, 110, 111, 112, 113, 114, 115, 116, 117, 118, 119, 120, 121, 122, 123, 124, 125, 126, 127, 128, 129, 130, 131, 132, 133, 134, 135, 136, 137, 138, 139, 140, 141, 142, 143, 144, 145, 146, 147, 148, 149, 150, 151, 152, 153, 154, 155, 156, 157, 158, 159, 160, 161, 162, 163, 164, 165, 166, 167, 168, 169, 170, 171, 172, 173, 174, 175, 176, 177, 178, 179, 180, 181, 182, 183, 184, 185, 186, 187, 188, 189, 190],
      "LargestImagePixelValue": [41388, 39587, 39510, 39106, 38829, 38777, 38648, 38404, 38460, 38358, 38544, 38461, 38372, 38285, 38034, 38511, 38101, 38323, 38217, 38543, 38326, 38425, 38529, 38223, 38044, 38349, 38280, 38306, 38152, 38105, 38168, 37983, 38133, 38249, 38165, 38587, 38045, 38627, 38266, 38208, 38192, 38199, 38347, 38044, 38223, 38139, 38109, 38081, 38125, 38192, 38053, 38233, 38234, 37943, 38392, 38372, 38144, 38235, 38228, 38290, 38377, 38337, 38609, 38434, 38087, 38136, 38173, 38164, 38506, 38240, 38142, 38205, 38240, 38153, 38231, 38103, 38046, 38351, 38107, 38258, 38194, 38075, 38115, 38564, 37840, 38231, 38021, 38208, 38095, 38801, 37857, 38170, 37941, 38035, 38233, 38269, 38568, 38098, 37921, 37836, 38143, 38206, 38062, 37827, 38071, 38246, 38414, 38509, 38055, 38054, 38075, 38672, 37968, 38514, 38386, 37885, 38155, 38244, 37982, 38285, 38299, 38132, 37980, 38176, 38341, 38246, 37781, 38244, 37930, 38096, 37992, 38112, 38132, 38251, 37903, 37914, 38175, 37911, 37947, 38090, 38008, 38007, 38150, 38043, 38148, 38205, 38142, 38362, 38133, 38373, 38342, 38084, 38060, 38101, 38205, 38350, 37986, 37764, 37963, 38334, 37938, 38350, 37905, 37937, 38181, 38015, 38302, 38291, 38263, 37966, 38182, 37845, 37775, 38152, 38109, 38155, 38419, 38358, 37775, 38066, 38244, 38240, 38327, 37966, 38078, 38237, 38168, 37787, 37970, 37789],
      "WindowCenter": [10186.0, 10154.0, 10144.0, 10137.0, 10128.0, 10117.0, 10108.0, 10110.0, 10117.0, 10126.0, 10134.0, 10136.0, 10137.0, 10145.0, 10138.0, 10122.0, 10112.0, 10111.0, 10109.0, 10116.0, 10125.0, 10128.0, 10128.0, 10122.0, 10121.0, 10127.0, 10127.0, 10126.0, 10127.0, 10136.0, 10138.0, 10137.0, 10128.0, 10120.0, 10114.0, 10118.0, 10110.0, 10107.0, 10109.0, 10108.0, 10104.0, 10111.0, 10112.0, 10110.0, 10111.0, 10109.0, 10102.0, 10101.0, 10100.0, 10107.0, 10119.0, 10120.0, 10105.0, 10094.0, 10092.0, 10104.0, 10120.0, 10137.0, 10130.0, 10118.0, 10101.0, 10090.0, 10098.0, 10109.0, 10112.0, 10119.0, 10119.0, 10106.0, 10109.0, 10108.0, 10119.0, 10136.0, 10130.0, 10112.0, 10103.0, 10117.0, 10128.0, 10128.0, 10106.0, 10095.0, 10094.0, 10103.0, 10112.0, 10119.0, 10115.0, 10120.0, 10121.0, 10114.0, 10127.0, 10149.0, 10150.0, 10149.0, 10133.0, 10113.0, 10097.0, 10101.0, 10116.0, 10129.0, 10138.0, 10132.0, 10130.0, 10132.0, 10130.0, 10126.0, 10138.0, 10144.0, 10144.0, 10149.0, 10140.0, 10119.0, 10106.0, 10102.0, 10094.0, 10104.0, 10119.0, 10118.0, 10123.0, 10120.0, 10113.0, 10128.0, 10138.0, 10128.0, 10118.0, 10116.0, 10118.0, 10114.0, 10122.0, 10130.0, 10132.0, 10125.0, 10116.0, 10121.0, 10129.0, 10129.0, 10118.0, 10115.0, 10132.0, 10141.0, 10133.0, 10117.0, 10122.0, 10125.0, 10132.0, 10126.0, 10117.0, 10107.0, 10115.0, 10129.0, 10126.0, 10124.0, 10114.0, 10096.0, 10096.0, 10104.0, 10122.0, 10132.0, 10132.0, 10118.0, 10116.0, 10113.0, 10113.0, 10122.0, 10118.0, 10108.0, 10098.0, 10096.0, 10095.0, 10102.0, 10111.0, 10113.0, 10124.0, 10125.0, 10109.0, 10099.0, 10097.0, 10103.0, 10105.0, 10106.0, 10105.0, 10113.0, 10119.0, 10120.0, 10114.0, 10098.0, 10088.0, 10096.0, 10109.0, 10123.0, 10132.0, 10134.0],
      "WindowWidth": [21702.0, 21607.0, 21576.0, 21552.0, 21527.0, 21499.0, 21478.0, 21483.0, 21499.0, 21520.0, 21538.0, 21543.0, 21548.0, 21564.0, 21549.0, 21511.0, 21488.0, 21484.0, 21479.0, 21495.0, 21515.0, 21522.0, 21524.0, 21512.0, 21508.0, 21519.0, 21520.0, 21516.0, 21520.0, 21543.0, 21549.0, 21542.0, 21523.0, 21504.0, 21493.0, 21500.0, 21482.0, 21472.0, 21476.0, 21476.0, 21468.0, 21486.0, 21486.0, 21481.0, 21482.0, 21479.0, 21461.0, 21461.0, 21461.0, 21476.0, 21504.0, 21507.0, 21473.0, 21444.0, 21438.0, 21463.0, 21506.0, 21545.0, 21528.0, 21499.0, 21457.0, 21433.0, 21453.0, 21478.0, 21487.0, 21502.0, 21503.0, 21476.0, 21479.0, 21476.0, 21500.0, 21541.0, 21526.0, 21482.0, 21465.0, 21498.0, 21524.0, 21521.0, 21475.0, 21447.0, 21446.0, 21466.0, 21490.0, 21502.0, 21496.0, 21504.0, 21507.0, 21491.0, 21519.0, 21568.0, 21575.0, 21573.0, 21534.0, 21485.0, 21449.0, 21458.0, 21492.0, 21525.0, 21544.0, 21533.0, 21526.0, 21533.0, 21529.0, 21521.0, 21546.0, 21555.0, 21554.0, 21569.0, 21549.0, 21502.0, 21469.0, 21457.0, 21442.0, 21467.0, 21501.0, 21505.0, 21510.0, 21502.0, 21487.0, 21521.0, 21543.0, 21524.0, 21502.0, 21495.0, 21496.0, 21489.0, 21510.0, 21527.0, 21533.0, 21516.0, 21498.0, 21505.0, 21525.0, 21525.0, 21502.0, 21494.0, 21532.0, 21553.0, 21533.0, 21497.0, 21505.0, 21515.0, 21531.0, 21517.0, 21497.0, 21475.0, 21493.0, 21522.0, 21519.0, 21513.0, 21489.0, 21448.0, 21449.0, 21467.0, 21510.0, 21533.0, 21533.0, 21500.0, 21496.0, 21487.0, 21490.0, 21509.0, 21504.0, 21478.0, 21453.0, 21448.0, 21446.0, 21462.0, 21479.0, 21487.0, 21513.0, 21517.0, 21481.0, 21456.0, 21450.0, 21465.0, 21469.0, 21470.0, 21470.0, 21489.0, 21501.0, 21503.0, 21488.0, 21454.0, 21431.0, 21446.0, 21476.0, 21512.0, 21530.0, 21535.0]
    },
    "slices": {}
  }
}