{
  "AcquisitionMatrixPE": 104,
  "AcquisitionNumber": 1,
  "AcquisitionTime": "13:48:23.885000",
  "BandwidthPerPixelPhaseEncode": 17.17,
  "BaseResolution": 104,
  "BodyPartExamined": "BRAIN",
  "CoilString": "HC1-7;NC1_2",
  "ConsistencyInfo": "N4_VE11C_LATEST_20160120",
  "ConversionSoftware": "dcm2niix",
  "ConversionSoftwareVersion": "v1.0.20190902",
  "DerivedVendorReportedEchoSpacing": 0.000560011,
  "DeviceSerialNumber": "167006",
  "DwellTime": 2.1e-06,
  "EchoTime": 0.037,
  "EchoTrainLength": 104,
  "EffectiveEchoSpacing": 0.000560011,
  "FlipAngle": 52,
  "ImageComments": "Unaliased_MB4_PE3_LB",
  "ImageOrientationPatientDICOM": [0.999276, 0.0292309, 0.0243402, -0.0214553, 0.961523, -0.273884],
  "ImageType": [
    "ORIGINAL",
    "PRIMARY",
    "M",
    "MB",
    "ND",
    "MOSAIC"
],
  "ImagingFrequency": 123.259,
  "InPlanePhaseEncodingDirectionDICOM": "COL",
  "InstitutionAddress": "Chemin_Queen-Mary_4565_Montreal_District_CA_H3W_1W5",
  "InstitutionName": "IUGM",
  "InstitutionalDepartmentName": "Department",
  "MRAcquisitionType": "2D",
  "MagneticFieldStrength": 3,
  "Manufacturer": "Siemens",
  "ManufacturersModelName": "Prisma_fit",
  "Modality": "MR",
  "MultibandAccelerationFactor": 4,
  "PartialFourier": 1,
  "PatientPosition": "HFS",
  "PercentPhaseFOV": 100,
  "PhaseEncodingDirection": "j",
  "PhaseEncodingSteps": 104,
  "PhaseResolution": 1,
  "PixelBandwidth": 2290,
  "ProcedureStepDescription": "memory_things",
  "ProtocolName": "func_task-things_run-5",
  "PulseSequenceDetails": "%CustomerSeq%_cmrr_mbep2d_bold",
  "ReceiveCoilActiveElements": "HC1-7;NC1,2",
  "ReceiveCoilName": "HeadNeck_64",
  "ReconMatrixPE": 104,
  "RepetitionTime": 1.49,
  "SAR": 0.0365199,
  "ScanOptions": "FS",
  "ScanningSequence": "EP",
  "SequenceName": "epfid2d1_104",
  "SequenceVariant": "SK_SS",
  "SeriesDescription": "func_task-things_run-5",
  "SeriesNumber": 22,
  "ShimSetting": [639, -7196, -8813, 648, 59, 43, 92, -11],
  "SliceThickness": 2,
  "SliceTiming": [0, 0.785, 0.0975, 0.8825, 0.195, 0.98, 0.295, 1.0775, 0.3925, 1.175, 0.49, 1.275, 0.5875, 1.3725, 0.685, 0, 0.785, 0.0975, 0.8825, 0.195, 0.98, 0.295, 1.0775, 0.3925, 1.175, 0.49, 1.275, 0.5875, 1.3725, 0.685, 0, 0.785, 0.0975, 0.8825, 0.195, 0.98, 0.295, 1.0775, 0.3925, 1.175, 0.49, 1.275, 0.5875, 1.3725, 0.685, 0, 0.785, 0.0975, 0.8825, 0.195, 0.98, 0.295, 1.0775, 0.3925, 1.175, 0.49, 1.275, 0.5875, 1.3725, 0.685],
  "SoftwareVersions": "syngo_MR_E11",
  "SpacingBetweenSlices": 2,
  "StationName": "MRC35049",
  "TaskName": "things",
  "TotalReadoutTime": 0.0576811,
  "TxRefAmp": 216.379,
  "WipMemBlock": "fb879ad2-a63a-4cbd-92ad-38355ac753c3||Sequence: R016 ve11c/master r/e634e98; Dec 19 2017 11:00:25 by eja",
  "dcmmeta_affine": [
    [-1.9985525608062744, -0.04291053116321564, 0.06281915307044983, 109.86357879638672],
    [-0.058461710810661316, 1.923046588897705, -0.5463278293609619, -69.98748016357422],
    [0.04868047311902046, 0.5477687120437622, 1.922909140586853, -67.62686157226562],
    [0.0, 0.0, 0.0, 1.0]
],
  "dcmmeta_reorient_transform": [
    [0.0, -1.0, 0.0, 103.0],
    [1.0, 0.0, 0.0, 0.0],
    [0.0, 0.0, 1.0, 0.0],
    [0.0, 0.0, 0.0, 1.0]
],
  "dcmmeta_shape": [104, 104, 60, 190],
  "dcmmeta_slice_dim": 2,
  "dcmmeta_version": 0.6,
  "global": {
    "const": {
      "AcquisitionMatrix": [104, 0, 0, 104],
      "AngioFlag": "N",
      "BitsAllocated": 16,
      "BitsStored": 16,
      "BodyPartExamined": "BRAIN",
      "Columns": 832,
      "EchoNumbers": 1,
      "EchoTime": 37.0,
      "EchoTrainLength": 104,
      "FlipAngle": 52.0,
      "HighBit": 15,
      "ImageOrientationPatient": [0.99927629311091, 0.02923085508164, 0.02434023701044, -0.0214552649843, 0.96152328635864, -0.2738843577033],
      "ImagePositionPatient": [-817.29750619655, -849.35533157309, 170.4614371762],
      "ImageType": [
        "ORIGINAL",
        "PRIMARY",
        "M",
        "MB",
        "ND",
        "MOSAIC"
],
      "ImagedNucleus": "1H",
      "ImagingFrequency": 123.258987,
      "InPlanePhaseEncodingDirection": "COL",
      "MRAcquisitionType": "2D",
      "MagneticFieldStrength": 3.0,
      "Manufacturer": "SIEMENS",
      "ManufacturerModelName": "Prisma_fit",
      "Modality": "MR",
      "NumberOfAverages": 1.0,
      "NumberOfPhaseEncodingSteps": 104,
      "PercentPhaseFieldOfView": 100.0,
      "PercentSampling": 100.0,
      "PerformedProcedureStepStartTime": "132103.268000",
      "PhotometricInterpretation": "MONOCHROME2",
      "PixelBandwidth": 2290.0,
      "PixelRepresentation": 0,
      "PixelSpacing": [2.0, 2.0],
      "ProtocolName": "func_task-things_run-5",
      "RepetitionTime": 1490.0,
      "Rows": 832,
      "SAR": 0.03651993656565,
      "SamplesPerPixel": 1,
      "ScanOptions": "FS",
      "ScanningSequence": "EP",
      "SequenceName": "epfid2d1_104",
      "SequenceVariant": [
        "SK",
        "SS"
],
      "SeriesDescription": "func_task-things_run-5",
      "SeriesNumber": 22,
      "SeriesTime": "134955.894000",
      "SliceLocation": -42.451331425946,
      "SliceThickness": 2.0,
      "SmallestImagePixelValue": 0,
      "SoftwareVersions": "syngo MR E11",
      "SpacingBetweenSlices": 1.9999999473305,
      "SpecificCharacterSet": "ISO_IR 100",
      "StudyID": "2",
      "StudyTime": "132103.213000",
      "TransmitCoilName": "Body",
      "VariableFlipAngleFlag": "N",
      "WindowCenterWidthExplanation": "Algo1",
      "dBdt": 0.0},
    "slices": {}
  },
  "time": {
    "samples": {
      "AcquisitionNumber": [1, 2, 3, 4, 5, 6, 7, 8, 9, 10, 11, 12, 13, 14, 15, 16, 17, 18, 19, 20, 21, 22, 23, 24, 25, 26, 27, 28, 29, 30, 31, 32, 33, 34, 35, 36, 37, 38, 39, 40, 41, 42, 43, 44, 45, 46, 47, 48, 49, 50, 51, 52, 53, 54, 55, 56, 57, 58, 59, 60, 61, 62, 63, 64, 65, 66, 67, 68, 69, 70, 71, 72, 73, 74, 75, 76, 77, 78, 79, 80, 81, 82, 83, 84, 85, 86, 87, 88, 89, 90, 91, 92, 93, 94, 95, 96, 97, 98, 99, 100, 101, 102, 103, 104, 105, 106, 107, 108, 109, 110, 111, 112, 113, 114, 115, 116, 117, 118, 119, 120, 121, 122, 123, 124, 125, 126, 127, 128, 129, 130, 131, 132, 133, 134, 135, 136, 137, 138, 139, 140, 141, 142, 143, 144, 145, 146, 147, 148, 149, 150, 151, 152, 153, 154, 155, 156, 157, 158, 159, 160, 161, 162, 163, 164, 165, 166, 167, 168, 169, 170, 171, 172, 173, 174, 175, 176, 177, 178, 179, 180, 181, 182, 183, 184, 185, 186, 187, 188, 189, 190],
      "AcquisitionTime": ["134823.885000", "134825.375000", "134826.865000", "134828.355000", "134829.845000", "134831.335000", "134832.825000", "134834.315000", "134835.805000", "134837.295000", "134838.785000", "134840.275000", "134841.765000", "134843.255000", "134844.745000", "134846.235000", "134847.725000", "134849.215000", "134850.705000", "134852.195000", "134853.685000", "134855.175000", "134856.665000", "134858.155000", "134859.645000", "134901.135000", "134902.625000", "134904.115000", "134905.605000", "134907.095000", "134908.585000", "134910.075000", "134911.565000", "134913.055000", "134914.545000", "134916.035000", "134917.525000", "134919.015000", "134920.505000", "134921.995000", "134923.485000", "134924.975000", "134926.465000", "134927.955000", "134929.445000", "134930.935000", "134932.425000", "134933.915000", "134935.405000", "134936.895000", "134938.385000", "134939.875000", "134941.365000", "134942.855000", "134944.345000", "134945.835000", "134947.325000", "134948.815000", "134950.305000", "134951.795000", "134953.285000", "134954.775000", "134956.265000", "134957.755000", "134959.245000", "135000.735000", "135002.225000", "135003.715000", "135005.205000", "135006.695000", "135008.185000", "135009.675000", "135011.165000", "135012.655000", "135014.145000", "135015.635000", "135017.125000", "135018.615000", "135020.105000", "135021.595000", "135023.085000", "135024.575000", "135026.065000", "135027.555000", "135029.045000", "135030.535000", "135032.025000", "135033.515000", "135035.005000", "135036.495000", "135037.985000", "135039.475000", "135040.965000", "135042.455000", "135043.945000", "135045.435000", "135046.925000", "135048.415000", "135049.905000", "135051.395000", "135052.885000", "135054.375000", "135055.865000", "135057.355000", "135058.845000", "135100.335000", "135101.825000", "135103.315000", "135104.805000", "135106.295000", "135107.785000", "135109.275000", "135110.765000", "135112.255000", "135113.745000", "135115.235000", "135116.725000", "135118.215000", "135119.705000", "135121.195000", "135122.685000", "135124.175000", "135125.665000", "135127.155000", "135128.645000", "135130.135000", "135131.625000", "135133.115000", "135134.605000", "135136.095000", "135137.585000", "135139.075000", "135140.565000", "135142.055000", "135143.545000", "135145.035000", "135146.525000", "135148.015000", "135149.505000", "135150.995000", "135152.485000", "135153.975000", "135155.465000", "135156.955000", "135158.445000", "135159.935000", "135201.425000", "135202.915000", "135204.405000", "135205.895000", "135207.385000", "135208.875000", "135210.365000", "135211.855000", "135213.345000", "135214.835000", "135216.325000", "135217.815000", "135219.305000", "135220.795000", "135222.285000", "135223.775000", "135225.265000", "135226.755000", "135228.245000", "135229.735000", "135231.225000", "135232.715000", "135234.205000", "135235.695000", "135237.185000", "135238.675000", "135240.165000", "135241.655000", "135243.145000", "135244.635000", "135246.125000", "135247.615000", "135249.105000", "135250.595000", "135252.085000", "135253.575000", "135255.065000", "135256.555000", "135258.045000", "135259.535000", "135301.025000", "135302.515000", "135304.005000", "135305.495000"],
      "ContentTime": ["134955.897000", "134955.901000", "134955.904000", "134955.908000", "134955.911000", "134955.914000", "134955.918000", "134955.921000", "134955.924000", "134955.928000", "134955.931000", "134955.934000", "134955.938000", "134955.941000", "134955.944000", "134955.957000", "134955.961000", "134955.964000", "134955.967000", "134955.971000", "134955.974000", "134955.977000", "134955.981000", "134955.984000", "134955.987000", "134955.991000", "134955.994000", "134955.997000", "134956.001000", "134956.004000", "134956.007000", "134956.018000", "134956.021000", "134956.024000", "134956.028000", "134956.031000", "134956.034000", "135015.814000", "135015.818000", "135015.821000", "135015.825000", "135015.828000", "135015.831000", "135015.835000", "135015.838000", "135015.841000", "135015.845000", "135015.848000", "135015.851000", "135015.855000", "135015.858000", "135015.861000", "135015.865000", "135015.868000", "135015.880000", "135015.883000", "135015.887000", "135015.890000", "135035.814000", "135035.818000", "135035.821000", "135035.825000", "135035.830000", "135035.834000", "135035.841000", "135035.845000", "135035.848000", "135035.852000", "135035.855000", "135035.859000", "135035.862000", "135035.866000", "135035.869000", "135035.873000", "135035.879000", "135035.882000", "135035.886000", "135035.889000", "135055.813000", "135055.817000", "135055.820000", "135055.824000", "135055.827000", "135055.830000", "135055.834000", "135055.837000", "135055.841000", "135055.844000", "135055.847000", "135055.851000", "135055.854000", "135055.857000", "135055.863000", "135055.866000", "135055.870000", "135055.873000", "135055.877000", "135055.880000", "135135.813000", "135135.832000", "135135.836000", "135135.839000", "135135.843000", "135135.846000", "135135.849000", "135135.853000", "135135.856000", "135135.860000", "135135.863000", "135135.866000", "135135.870000", "135135.873000", "135135.876000", "135135.880000", "135135.883000", "135135.887000", "135135.890000", "135135.893000", "135135.897000", "135135.900000", "135135.903000", "135135.907000", "135135.910000", "135135.913000", "135135.917000", "135135.920000", "135135.924000", "135135.927000", "135215.814000", "135215.818000", "135215.821000", "135215.825000", "135215.828000", "135215.831000", "135215.835000", "135215.838000", "135215.842000", "135215.845000", "135215.848000", "135215.852000", "135215.855000", "135215.859000", "135215.862000", "135215.865000", "135215.869000", "135215.872000", "135215.875000", "135215.879000", "135215.882000", "135215.886000", "135215.889000", "135215.893000", "135215.896000", "135215.899000", "135215.903000", "135255.814000", "135255.818000", "135255.821000", "135255.825000", "135255.828000", "135255.831000", "135255.835000", "135255.838000", "135255.841000", "135255.845000", "135255.848000", "135255.851000", "135255.855000", "135255.858000", "135255.862000", "135255.865000", "135255.868000", "135255.872000", "135255.875000", "135255.879000", "135255.882000", "135255.885000", "135255.889000", "135255.892000", "135255.895000", "135255.899000", "135255.902000", "135307.187000", "135307.191000", "135307.194000", "135307.198000", "135307.201000", "135307.205000", "135307.208000", "135307.211000"],
      "InstanceCreationTime": ["134955.897000", "134955.901000", "134955.904000", "134955.908000", "134955.911000", "134955.914000", "134955.918000", "134955.921000", "134955.924000", "134955.928000", "134955.931000", "134955.934000", "134955.938000", "134955.941000", "134955.944000", "134955.957000", "134955.961000", "134955.964000", "134955.967000", "134955.971000", "134955.974000", "134955.977000", "134955.981000", "134955.984000", "134955.987000", "134955.991000", "134955.994000", "134955.997000", "134956.001000", "134956.004000", "134956.007000", "134956.018000", "134956.021000", "134956.024000", "134956.028000", "134956.031000", "134956.034000", "135015.814000", "135015.818000", "135015.821000", "135015.825000", "135015.828000", "135015.831000", "135015.835000", "135015.838000", "135015.841000", "135015.845000", "135015.848000", "135015.851000", "135015.855000", "135015.858000", "135015.861000", "135015.865000", "135015.868000", "135015.880000", "135015.883000", "135015.887000", "135015.890000", "135035.814000", "135035.818000", "135035.821000", "135035.825000", "135035.830000", "135035.834000", "135035.841000", "135035.845000", "135035.848000", "135035.852000", "135035.855000", "135035.859000", "135035.862000", "135035.866000", "135035.869000", "135035.873000", "135035.879000", "135035.882000", "135035.886000", "135035.889000", "135055.813000", "135055.817000", "135055.820000", "135055.824000", "135055.827000", "135055.830000", "135055.834000", "135055.837000", "135055.841000", "135055.844000", "135055.847000", "135055.851000", "135055.854000", "135055.857000", "135055.863000", "135055.866000", "135055.870000", "135055.873000", "135055.877000", "135055.880000", "135135.813000", "135135.832000", "135135.836000", "135135.839000", "135135.843000", "135135.846000", "135135.849000", "135135.853000", "135135.856000", "135135.860000", "135135.863000", "135135.866000", "135135.870000", "135135.873000", "135135.876000", "135135.880000", "135135.883000", "135135.887000", "135135.890000", "135135.893000", "135135.897000", "135135.900000", "135135.903000", "135135.907000", "135135.910000", "135135.913000", "135135.917000", "135135.920000", "135135.924000", "135135.927000", "135215.814000", "135215.818000", "135215.821000", "135215.825000", "135215.828000", "135215.831000", "135215.835000", "135215.838000", "135215.842000", "135215.845000", "135215.848000", "135215.852000", "135215.855000", "135215.859000", "135215.862000", "135215.865000", "135215.869000", "135215.872000", "135215.875000", "135215.879000", "135215.882000", "135215.886000", "135215.889000", "135215.893000", "135215.896000", "135215.899000", "135215.903000", "135255.814000", "135255.818000", "135255.821000", "135255.825000", "135255.828000", "135255.831000", "135255.835000", "135255.838000", "135255.841000", "135255.845000", "135255.848000", "135255.851000", "135255.855000", "135255.858000", "135255.862000", "135255.865000", "135255.868000", "135255.872000", "135255.875000", "135255.879000", "135255.882000", "135255.885000", "135255.889000", "135255.892000", "135255.895000", "135255.899000", "135255.902000", "135307.187000", "135307.191000", "135307.194000", "135307.198000", "135307.201000", "135307.205000", "135307.208000", "135307.211000"],
      "InstanceNumber": [1, 2, 3, 4, 5, 6, 7, 8, 9, 10, 11, 12, 13, 14, 15, 16, 17, 18, 19, 20, 21, 22, 23, 24, 25, 26, 27, 28, 29, 30, 31, 32, 33, 34, 35, 36, 37, 38, 39, 40, 41, 42, 43, 44, 45, 46, 47, 48, 49, 50, 51, 52, 53, 54, 55, 56, 57, 58, 59, 60, 61, 62, 63, 64, 65, 66, 67, 68, 69, 70, 71, 72, 73, 74, 75, 76, 77, 78, 79, 80, 81, 82, 83, 84, 85, 86, 87, 88, 89, 90, 91, 92, 93, 94, 95, 96, 97, 98, 99, 100, 101, 102, 103, 104, 105, 106, 107, 108, 109, 110, 111, 112, 113, 114, 115, 116, 117, 118, 119, 120, 121, 122, 123, 124, 125, 126, 127, 128, 129, 130, 131, 132, 133, 134, 135, 136, 137, 138, 139, 140, 141, 142, 143, 144, 145, 146, 147, 148, 149, 150, 151, 152, 153, 154, 155, 156, 157, 158, 159, 160, 161, 162, 163, 164, 165, 166, 167, 168, 169, 170, 171, 172, 173, 174, 175, 176, 177, 178, 179, 180, 181, 182, 183, 184, 185, 186, 187, 188, 189, 190],
      "LargestImagePixelValue": [41420, 39881, 39507, 38646, 38482, 38169, 39050, 38789, 38657, 38269, 38547, 38423, 38411, 38074, 38478, 38529, 38736, 37995, 38178, 38293, 38779, 38552, 38758, 38569, 38216, 38422, 38256, 38011, 38363, 38471, 38408, 37969, 38563, 38179, 38047, 38045, 38038, 38310, 38776, 38572, 38140, 38668, 37977, 38010, 38114, 38098, 38203, 38126, 38086, 38497, 37962, 38211, 38319, 38571, 38439, 38202, 38264, 37944, 38229, 38507, 38375, 38246, 38295, 38377, 38384, 38159, 38039, 38238, 38220, 38009, 38328, 38469, 38406, 38114, 38111, 38329, 38343, 38240, 37849, 38151, 38160, 38465, 38217, 37726, 38306, 38573, 38605, 38296, 38445, 38396, 38142, 38077, 38348, 38574, 38222, 37779, 38057, 38336, 38688, 38211, 38372, 38232, 38302, 38564, 38619, 37748, 38049, 38167, 38024, 38006, 38251, 38552, 38161, 38390, 38197, 38506, 38120, 38416, 38365, 38931, 38712, 38335, 38494, 38708, 38258, 38690, 38788, 38213, 38381, 38556, 38156, 38013, 38150, 38283, 38280, 38167, 38046, 38757, 38437, 38202, 38257, 38136, 38104, 37852, 38185, 37719, 37836, 38269, 38265, 38262, 38302, 38500, 37707, 38084, 37959, 38091, 37979, 38219, 38091, 38446, 38256, 38530, 38268, 38420, 38221, 38113, 38249, 38344, 38269, 38259, 37873, 38068, 38005, 38352, 37947, 38358, 38551, 38443, 38268, 38068, 38197, 38469, 38390, 38159, 37948, 38297, 38346, 38381, 38070, 38076],
      "WindowCenter": [10189.0, 10159.0, 10167.0, 10171.0, 10161.0, 10136.0, 10122.0, 10106.0, 10112.0, 10116.0, 10132.0, 10140.0, 10119.0, 10107.0, 10104.0, 10114.0, 10129.0, 10128.0, 10125.0, 10115.0, 10112.0, 10106.0, 10120.0, 10137.0, 10127.0, 10125.0, 10117.0, 10112.0, 10116.0, 10115.0, 10116.0, 10117.0, 10134.0, 10142.0, 10134.0, 10119.0, 10109.0, 10114.0, 10122.0, 10117.0, 10109.0, 10123.0, 10124.0, 10119.0, 10118.0, 10111.0, 10110.0, 10115.0, 10118.0, 10119.0, 10113.0, 10108.0, 10107.0, 10122.0, 10124.0, 10118.0, 10114.0, 10099.0, 10092.0, 10107.0, 10116.0, 10110.0, 10115.0, 10109.0, 10108.0, 10101.0, 10100.0, 10108.0, 10118.0, 10112.0, 10109.0, 10116.0, 10116.0, 10109.0, 10103.0, 10115.0, 10118.0, 10125.0, 10113.0, 10111.0, 10119.0, 10128.0, 10129.0, 10115.0, 10109.0, 10101.0, 10115.0, 10124.0, 10127.0, 10120.0, 10110.0, 10102.0, 10108.0, 10109.0, 10112.0, 10120.0, 10118.0, 10118.0, 10126.0, 10122.0, 10135.0, 10130.0, 10119.0, 10117.0, 10139.0, 10140.0, 10139.0, 10131.0, 10122.0, 10113.0, 10118.0, 10112.0, 10118.0, 10126.0, 10121.0, 10111.0, 10102.0, 10100.0, 10108.0, 10130.0, 10119.0, 10110.0, 10101.0, 10107.0, 10101.0, 10107.0, 10114.0, 10112.0, 10125.0, 10127.0, 10122.0, 10120.0, 10105.0, 10108.0, 10117.0, 10117.0, 10119.0, 10126.0, 10128.0, 10127.0, 10127.0, 10120.0, 10114.0, 10122.0, 10131.0, 10131.0, 10122.0, 10112.0, 10110.0, 10126.0, 10136.0, 10143.0, 10131.0, 10117.0, 10118.0, 10118.0, 10110.0, 10111.0, 10119.0, 10119.0, 10110.0, 10103.0, 10108.0, 10126.0, 10131.0, 10124.0, 10120.0, 10113.0, 10117.0, 10126.0, 10130.0, 10131.0, 10121.0, 10112.0, 10102.0, 10108.0, 10118.0, 10127.0, 10121.0, 10112.0, 10096.0, 10103.0, 10118.0, 10113.0, 10103.0, 10101.0, 10107.0, 10116.0, 10119.0, 10111.0],
      "WindowWidth": [21712.0, 21623.0, 21631.0, 21634.0, 21605.0, 21545.0, 21510.0, 21473.0, 21487.0, 21501.0, 21538.0, 21549.0, 21505.0, 21474.0, 21467.0, 21490.0, 21526.0, 21525.0, 21516.0, 21491.0, 21483.0, 21473.0, 21505.0, 21541.0, 21524.0, 21514.0, 21497.0, 21487.0, 21490.0, 21489.0, 21492.0, 21497.0, 21535.0, 21553.0, 21534.0, 21500.0, 21477.0, 21485.0, 21503.0, 21494.0, 21479.0, 21506.0, 21510.0, 21501.0, 21498.0, 21481.0, 21478.0, 21489.0, 21497.0, 21499.0, 21487.0, 21472.0, 21470.0, 21503.0, 21511.0, 21497.0, 21486.0, 21451.0, 21438.0, 21471.0, 21490.0, 21480.0, 21488.0, 21475.0, 21472.0, 21458.0, 21454.0, 21474.0, 21498.0, 21483.0, 21475.0, 21490.0, 21490.0, 21477.0, 21464.0, 21489.0, 21498.0, 21513.0, 21487.0, 21481.0, 21499.0, 21520.0, 21522.0, 21493.0, 21475.0, 21455.0, 21486.0, 21508.0, 21514.0, 21500.0, 21478.0, 21460.0, 21473.0, 21477.0, 21488.0, 21504.0, 21497.0, 21497.0, 21515.0, 21509.0, 21536.0, 21525.0, 21497.0, 21490.0, 21540.0, 21550.0, 21545.0, 21527.0, 21505.0, 21488.0, 21496.0, 21485.0, 21495.0, 21513.0, 21502.0, 21479.0, 21458.0, 21452.0, 21472.0, 21519.0, 21498.0, 21475.0, 21456.0, 21466.0, 21455.0, 21470.0, 21485.0, 21484.0, 21510.0, 21515.0, 21507.0, 21501.0, 21468.0, 21470.0, 21492.0, 21492.0, 21498.0, 21512.0, 21519.0, 21516.0, 21516.0, 21499.0, 21488.0, 21508.0, 21527.0, 21527.0, 21508.0, 21482.0, 21477.0, 21514.0, 21539.0, 21553.0, 21529.0, 21496.0, 21494.0, 21495.0, 21477.0, 21480.0, 21499.0, 21497.0, 21476.0, 21461.0, 21473.0, 21512.0, 21528.0, 21513.0, 21499.0, 21483.0, 21490.0, 21510.0, 21524.0, 21527.0, 21503.0, 21481.0, 21457.0, 21469.0, 21495.0, 21516.0, 21503.0, 21482.0, 21446.0, 21461.0, 21493.0, 21482.0, 21458.0, 21452.0, 21464.0, 21485.0, 21495.0, 21479.0]
    },
    "slices": {}
  }
}