{
  "AcquisitionMatrixPE": 104,
  "AcquisitionNumber": 1,
  "AcquisitionTime": "13:29:45.012500",
  "BandwidthPerPixelPhaseEncode": 17.17,
  "BaseResolution": 104,
  "BodyPartExamined": "BRAIN",
  "CoilString": "HC1-7;NC1_2",
  "ConsistencyInfo": "N4_VE11C_LATEST_20160120",
  "ConversionSoftware": "dcm2niix",
  "ConversionSoftwareVersion": "v1.0.20190902",
  "DerivedVendorReportedEchoSpacing": 0.000560011,
  "DeviceSerialNumber": "167006",
  "DwellTime": 2.1e-06,
  "EchoTime": 0.037,
  "EchoTrainLength": 104,
  "EffectiveEchoSpacing": 0.000560011,
  "FlipAngle": 52,
  "ImageComments": "Unaliased_MB4_PE3_LB",
  "ImageOrientationPatientDICOM": [0.999276, 0.0292309, 0.0243402, -0.0214553, 0.961523, -0.273884],
  "ImageType": [
    "ORIGINAL",
    "PRIMARY",
    "P",
    "MB",
    "ND",
    "MOSAIC"
],
  "ImagingFrequency": 123.259,
  "InPlanePhaseEncodingDirectionDICOM": "COL",
  "InstitutionAddress": "Chemin_Queen-Mary_4565_Montreal_District_CA_H3W_1W5",
  "InstitutionName": "IUGM",
  "InstitutionalDepartmentName": "Department",
  "MRAcquisitionType": "2D",
  "MagneticFieldStrength": 3,
  "Manufacturer": "Siemens",
  "ManufacturersModelName": "Prisma_fit",
  "Modality": "MR",
  "MultibandAccelerationFactor": 4,
  "PartialFourier": 1,
  "PatientPosition": "HFS",
  "PercentPhaseFOV": 100,
  "PhaseEncodingDirection": "j",
  "PhaseEncodingSteps": 104,
  "PhaseResolution": 1,
  "PixelBandwidth": 2290,
  "ProcedureStepDescription": "memory_things",
  "ProtocolName": "func_task-things_run-2",
  "PulseSequenceDetails": "%CustomerSeq%_cmrr_mbep2d_bold",
  "ReceiveCoilActiveElements": "HC1-7;NC1,2",
  "ReceiveCoilName": "HeadNeck_64",
  "ReconMatrixPE": 104,
  "RepetitionTime": 1.49,
  "SAR": 0.0365199,
  "ScanOptions": "FS",
  "ScanningSequence": "EP",
  "SequenceName": "epfid2d1_104",
  "SequenceVariant": "SK_SS",
  "SeriesDescription": "func_task-things_run-2",
  "SeriesNumber": 14,
  "ShimSetting": [639, -7196, -8813, 648, 59, 43, 92, -11],
  "SliceThickness": 2,
  "SliceTiming": [0, 0.7825, 0.0975, 0.8825, 0.195, 0.98, 0.2925, 1.0775, 0.3925, 1.175, 0.49, 1.2725, 0.5875, 1.3725, 0.685, 0, 0.7825, 0.0975, 0.8825, 0.195, 0.98, 0.2925, 1.0775, 0.3925, 1.175, 0.49, 1.2725, 0.5875, 1.3725, 0.685, 0, 0.7825, 0.0975, 0.8825, 0.195, 0.98, 0.2925, 1.0775, 0.3925, 1.175, 0.49, 1.2725, 0.5875, 1.3725, 0.685, 0, 0.7825, 0.0975, 0.8825, 0.195, 0.98, 0.2925, 1.0775, 0.3925, 1.175, 0.49, 1.2725, 0.5875, 1.3725, 0.685],
  "SoftwareVersions": "syngo_MR_E11",
  "SpacingBetweenSlices": 2,
  "StationName": "MRC35049",
  "TaskName": "things",
  "TotalReadoutTime": 0.0576811,
  "TxRefAmp": 216.379,
  "WipMemBlock": "16716e7a-faec-420a-99e9-a033261362b3||Sequence: R016 ve11c/master r/e634e98; Dec 19 2017 11:00:25 by eja",
  "dcmmeta_affine": [
    [-1.9985525608062744, -0.04291053116321564, 0.06281915307044983, 109.86357879638672],
    [-0.058461710810661316, 1.923046588897705, -0.5463278293609619, -69.98748016357422],
    [0.04868047311902046, 0.5477687120437622, 1.922909140586853, -67.62686157226562],
    [0.0, 0.0, 0.0, 1.0]
],
  "dcmmeta_reorient_transform": [
    [0.0, -1.0, 0.0, 103.0],
    [1.0, 0.0, 0.0, 0.0],
    [0.0, 0.0, 1.0, 0.0],
    [0.0, 0.0, 0.0, 1.0]
],
  "dcmmeta_shape": [104, 104, 60, 190],
  "dcmmeta_slice_dim": 2,
  "dcmmeta_version": 0.6,
  "global": {
    "const": {
      "AcquisitionMatrix": [104, 0, 0, 104],
      "AngioFlag": "N",
      "BitsAllocated": 16,
      "BitsStored": 16,
      "BodyPartExamined": "BRAIN",
      "Columns": 832,
      "EchoNumbers": 1,
      "EchoTime": 37.0,
      "EchoTrainLength": 104,
      "FlipAngle": 52.0,
      "HighBit": 15,
      "ImageOrientationPatient": [0.99927629311091, 0.02923085508164, 0.02434023701044, -0.0214552649843, 0.96152328635864, -0.2738843577033],
      "ImagePositionPatient": [-817.29750619655, -849.35533157309, 170.4614371762],
      "ImageType": [
        "ORIGINAL",
        "PRIMARY",
        "P",
        "MB",
        "ND",
        "MOSAIC"
],
      "ImagedNucleus": "1H",
      "ImagingFrequency": 123.258979,
      "InPlanePhaseEncodingDirection": "COL",
      "LargestImagePixelValue": 4095,
      "MRAcquisitionType": "2D",
      "MagneticFieldStrength": 3.0,
      "Manufacturer": "SIEMENS",
      "ManufacturerModelName": "Prisma_fit",
      "Modality": "MR",
      "NumberOfAverages": 1.0,
      "NumberOfPhaseEncodingSteps": 104,
      "PercentPhaseFieldOfView": 100.0,
      "PercentSampling": 100.0,
      "PerformedProcedureStepStartTime": "132103.268000",
      "PhotometricInterpretation": "MONOCHROME2",
      "PixelBandwidth": 2290.0,
      "PixelRepresentation": 0,
      "PixelSpacing": [2.0, 2.0],
      "ProtocolName": "func_task-things_run-2",
      "RepetitionTime": 1490.0,
      "RescaleIntercept": -4096.0,
      "RescaleSlope": 2.0,
      "RescaleType": "US",
      "Rows": 832,
      "SAR": 0.03651993656565,
      "SamplesPerPixel": 1,
      "ScanOptions": "FS",
      "ScanningSequence": "EP",
      "SequenceName": "epfid2d1_104",
      "SequenceVariant": [
        "SK",
        "SS"
],
      "SeriesDescription": "func_task-things_run-2",
      "SeriesNumber": 14,
      "SeriesTime": "133116.028000",
      "SliceLocation": -42.451331425946,
      "SliceThickness": 2.0,
      "SmallestImagePixelValue": 0,
      "SoftwareVersions": "syngo MR E11",
      "SpacingBetweenSlices": 1.9999999473305,
      "SpecificCharacterSet": "ISO_IR 100",
      "StudyID": "2",
      "StudyTime": "132103.213000",
      "TransmitCoilName": "Body",
      "VariableFlipAngleFlag": "N",
      "WindowCenterWidthExplanation": "Algo1",
      "dBdt": 0.0},
    "slices": {}
  },
  "time": {
    "samples": {
      "AcquisitionNumber": [1, 2, 3, 4, 5, 6, 7, 8, 9, 10, 11, 12, 13, 14, 15, 16, 17, 18, 19, 20, 21, 22, 23, 24, 25, 26, 27, 28, 29, 30, 31, 32, 33, 34, 35, 36, 37, 38, 39, 40, 41, 42, 43, 44, 45, 46, 47, 48, 49, 50, 51, 52, 53, 54, 55, 56, 57, 58, 59, 60, 61, 62, 63, 64, 65, 66, 67, 68, 69, 70, 71, 72, 73, 74, 75, 76, 77, 78, 79, 80, 81, 82, 83, 84, 85, 86, 87, 88, 89, 90, 91, 92, 93, 94, 95, 96, 97, 98, 99, 100, 101, 102, 103, 104, 105, 106, 107, 108, 109, 110, 111, 112, 113, 114, 115, 116, 117, 118, 119, 120, 121, 122, 123, 124, 125, 126, 127, 128, 129, 130, 131, 132, 133, 134, 135, 136, 137, 138, 139, 140, 141, 142, 143, 144, 145, 146, 147, 148, 149, 150, 151, 152, 153, 154, 155, 156, 157, 158, 159, 160, 161, 162, 163, 164, 165, 166, 167, 168, 169, 170, 171, 172, 173, 174, 175, 176, 177, 178, 179, 180, 181, 182, 183, 184, 185, 186, 187, 188, 189, 190],
      "AcquisitionTime": ["132945.012500", "132946.502500", "132947.992500", "132949.482500", "132950.972500", "132952.462500", "132953.952500", "132955.442500", "132956.932500", "132958.422500", "132959.912500", "133001.402500", "133002.892500", "133004.382500", "133005.872500", "133007.362500", "133008.852500", "133010.342500", "133011.832500", "133013.322500", "133014.812500", "133016.302500", "133017.792500", "133019.282500", "133020.772500", "133022.262500", "133023.752500", "133025.242500", "133026.732500", "133028.222500", "133029.712500", "133031.202500", "133032.692500", "133034.182500", "133035.672500", "133037.162500", "133038.652500", "133040.142500", "133041.632500", "133043.122500", "133044.612500", "133046.102500", "133047.592500", "133049.082500", "133050.572500", "133052.062500", "133053.552500", "133055.042500", "133056.532500", "133058.022500", "133059.512500", "133101.002500", "133102.492500", "133103.982500", "133105.472500", "133106.962500", "133108.452500", "133109.942500", "133111.432500", "133112.922500", "133114.412500", "133115.902500", "133117.392500", "133118.882500", "133120.372500", "133121.862500", "133123.352500", "133124.842500", "133126.332500", "133127.822500", "133129.312500", "133130.802500", "133132.292500", "133133.782500", "133135.272500", "133136.762500", "133138.252500", "133139.742500", "133141.232500", "133142.722500", "133144.212500", "133145.702500", "133147.192500", "133148.682500", "133150.172500", "133151.662500", "133153.152500", "133154.642500", "133156.132500", "133157.622500", "133159.112500", "133200.602500", "133202.092500", "133203.582500", "133205.072500", "133206.562500", "133208.052500", "133209.542500", "133211.032500", "133212.522500", "133214.012500", "133215.502500", "133216.992500", "133218.482500", "133219.972500", "133221.462500", "133222.952500", "133224.442500", "133225.932500", "133227.422500", "133228.912500", "133230.402500", "133231.892500", "133233.382500", "133234.872500", "133236.362500", "133237.852500", "133239.342500", "133240.832500", "133242.322500", "133243.812500", "133245.302500", "133246.792500", "133248.282500", "133249.772500", "133251.262500", "133252.752500", "133254.242500", "133255.732500", "133257.222500", "133258.712500", "133300.202500", "133301.692500", "133303.182500", "133304.672500", "133306.162500", "133307.652500", "133309.142500", "133310.632500", "133312.122500", "133313.612500", "133315.102500", "133316.592500", "133318.082500", "133319.572500", "133321.062500", "133322.552500", "133324.042500", "133325.532500", "133327.022500", "133328.512500", "133330.002500", "133331.492500", "133332.982500", "133334.472500", "133335.962500", "133337.452500", "133338.942500", "133340.432500", "133341.922500", "133343.412500", "133344.902500", "133346.392500", "133347.882500", "133349.372500", "133350.862500", "133352.352500", "133353.842500", "133355.332500", "133356.822500", "133358.312500", "133359.802500", "133401.292500", "133402.782500", "133404.272500", "133405.762500", "133407.252500", "133408.742500", "133410.232500", "133411.722500", "133413.212500", "133414.702500", "133416.192500", "133417.682500", "133419.172500", "133420.662500", "133422.152500", "133423.642500", "133425.132500", "133426.622500"],
      "ContentTime": ["133116.030000", "133116.033000", "133116.036000", "133116.038000", "133116.055000", "133116.057000", "133116.060000", "133116.062000", "133116.065000", "133116.067000", "133116.070000", "133116.076000", "133116.079000", "133116.081000", "133116.084000", "133116.086000", "133116.089000", "133116.091000", "133116.094000", "133116.096000", "133116.099000", "133116.101000", "133116.104000", "133116.107000", "133116.109000", "133116.111000", "133116.114000", "133116.117000", "133116.119000", "133116.122000", "133116.124000", "133116.127000", "133116.129000", "133116.132000", "133116.134000", "133116.137000", "133135.924000", "133135.927000", "133135.930000", "133135.932000", "133135.935000", "133135.937000", "133135.940000", "133135.942000", "133135.945000", "133135.947000", "133135.950000", "133135.952000", "133135.955000", "133135.957000", "133135.960000", "133135.962000", "133135.965000", "133135.967000", "133135.970000", "133135.976000", "133155.935000", "133155.938000", "133155.940000", "133155.943000", "133155.945000", "133155.948000", "133155.950000", "133155.953000", "133155.955000", "133155.958000", "133155.960000", "133155.963000", "133155.965000", "133155.968000", "133155.970000", "133155.973000", "133155.975000", "133155.978000", "133155.981000", "133155.983000", "133215.938000", "133215.941000", "133215.944000", "133215.946000", "133215.949000", "133215.951000", "133215.954000", "133215.956000", "133215.959000", "133215.961000", "133215.964000", "133215.966000", "133215.969000", "133215.971000", "133215.974000", "133215.977000", "133215.979000", "133215.982000", "133215.984000", "133215.987000", "133215.989000", "133255.997000", "133256.000000", "133256.003000", "133256.006000", "133256.008000", "133256.011000", "133256.013000", "133256.016000", "133256.018000", "133256.021000", "133256.023000", "133256.026000", "133256.028000", "133256.031000", "133256.033000", "133256.036000", "133256.038000", "133256.041000", "133256.043000", "133256.046000", "133256.048000", "133256.051000", "133256.053000", "133256.056000", "133256.058000", "133256.071000", "133256.073000", "133256.076000", "133256.078000", "133256.081000", "133336.588000", "133336.591000", "133336.593000", "133336.596000", "133336.598000", "133336.601000", "133336.603000", "133336.606000", "133336.608000", "133336.611000", "133336.613000", "133336.616000", "133336.619000", "133336.621000", "133336.624000", "133336.626000", "133336.629000", "133336.631000", "133336.634000", "133336.636000", "133336.639000", "133336.641000", "133336.644000", "133336.646000", "133336.649000", "133336.651000", "133336.654000", "133416.150000", "133416.153000", "133416.155000", "133416.158000", "133416.161000", "133416.163000", "133416.166000", "133416.168000", "133416.171000", "133416.173000", "133416.176000", "133416.178000", "133416.181000", "133416.183000", "133416.186000", "133416.188000", "133416.191000", "133416.193000", "133416.196000", "133416.199000", "133416.201000", "133416.204000", "133416.206000", "133416.209000", "133416.211000", "133416.214000", "133416.218000", "133428.437000", "133428.440000", "133428.442000", "133428.445000", "133428.448000", "133428.450000", "133428.453000", "133428.455000", "133428.458000"],
      "InstanceCreationTime": ["133116.030000", "133116.033000", "133116.036000", "133116.038000", "133116.055000", "133116.057000", "133116.060000", "133116.062000", "133116.065000", "133116.067000", "133116.070000", "133116.076000", "133116.079000", "133116.081000", "133116.084000", "133116.086000", "133116.089000", "133116.091000", "133116.094000", "133116.096000", "133116.099000", "133116.101000", "133116.104000", "133116.107000", "133116.109000", "133116.111000", "133116.114000", "133116.117000", "133116.119000", "133116.122000", "133116.124000", "133116.127000", "133116.129000", "133116.132000", "133116.134000", "133116.137000", "133135.924000", "133135.927000", "133135.930000", "133135.932000", "133135.935000", "133135.937000", "133135.940000", "133135.942000", "133135.945000", "133135.947000", "133135.950000", "133135.952000", "133135.955000", "133135.957000", "133135.960000", "133135.962000", "133135.965000", "133135.967000", "133135.970000", "133135.976000", "133155.935000", "133155.938000", "133155.940000", "133155.943000", "133155.945000", "133155.948000", "133155.950000", "133155.953000", "133155.955000", "133155.958000", "133155.960000", "133155.963000", "133155.965000", "133155.968000", "133155.970000", "133155.973000", "133155.975000", "133155.978000", "133155.981000", "133155.983000", "133215.938000", "133215.941000", "133215.944000", "133215.946000", "133215.949000", "133215.951000", "133215.954000", "133215.956000", "133215.959000", "133215.961000", "133215.964000", "133215.966000", "133215.969000", "133215.971000", "133215.974000", "133215.977000", "133215.979000", "133215.982000", "133215.984000", "133215.987000", "133215.989000", "133255.997000", "133256.000000", "133256.003000", "133256.006000", "133256.008000", "133256.011000", "133256.013000", "133256.016000", "133256.018000", "133256.021000", "133256.023000", "133256.026000", "133256.028000", "133256.031000", "133256.033000", "133256.036000", "133256.038000", "133256.041000", "133256.043000", "133256.046000", "133256.048000", "133256.051000", "133256.053000", "133256.056000", "133256.058000", "133256.071000", "133256.073000", "133256.076000", "133256.078000", "133256.081000", "133336.588000", "133336.591000", "133336.593000", "133336.596000", "133336.598000", "133336.601000", "133336.603000", "133336.606000", "133336.608000", "133336.611000", "133336.613000", "133336.616000", "133336.619000", "133336.621000", "133336.624000", "133336.626000", "133336.629000", "133336.631000", "133336.634000", "133336.636000", "133336.639000", "133336.641000", "133336.644000", "133336.646000", "133336.649000", "133336.651000", "133336.654000", "133416.150000", "133416.153000", "133416.155000", "133416.158000", "133416.161000", "133416.163000", "133416.166000", "133416.168000", "133416.171000", "133416.173000", "133416.176000", "133416.178000", "133416.181000", "133416.183000", "133416.186000", "133416.188000", "133416.191000", "133416.193000", "133416.196000", "133416.199000", "133416.201000", "133416.204000", "133416.206000", "133416.209000", "133416.211000", "133416.214000", "133416.218000", "133428.437000", "133428.440000", "133428.442000", "133428.445000", "133428.448000", "133428.450000", "133428.453000", "133428.455000", "133428.458000"],
      "InstanceNumber": [1, 2, 3, 4, 5, 6, 7, 8, 9, 10, 11, 12, 13, 14, 15, 16, 17, 18, 19, 20, 21, 22, 23, 24, 25, 26, 27, 28, 29, 30, 31, 32, 33, 34, 35, 36, 37, 38, 39, 40, 41, 42, 43, 44, 45, 46, 47, 48, 49, 50, 51, 52, 53, 54, 55, 56, 57, 58, 59, 60, 61, 62, 63, 64, 65, 66, 67, 68, 69, 70, 71, 72, 73, 74, 75, 76, 77, 78, 79, 80, 81, 82, 83, 84, 85, 86, 87, 88, 89, 90, 91, 92, 93, 94, 95, 96, 97, 98, 99, 100, 101, 102, 103, 104, 105, 106, 107, 108, 109, 110, 111, 112, 113, 114, 115, 116, 117, 118, 119, 120, 121, 122, 123, 124, 125, 126, 127, 128, 129, 130, 131, 132, 133, 134, 135, 136, 137, 138, 139, 140, 141, 142, 143, 144, 145, 146, 147, 148, 149, 150, 151, 152, 153, 154, 155, 156, 157, 158, 159, 160, 161, 162, 163, 164, 165, 166, 167, 168, 169, 170, 171, 172, 173, 174, 175, 176, 177, 178, 179, 180, 181, 182, 183, 184, 185, 186, 187, 188, 189, 190],
      "WindowCenter": [4836.0, 4830.0, 4830.0, 4834.0, 4834.0, 4830.0, 4832.0, 4832.0, 4828.0, 4830.0, 4830.0, 4828.0, 4832.0, 4832.0, 4830.0, 4830.0, 4828.0, 4832.0, 4830.0, 4832.0, 4832.0, 4832.0, 4830.0, 4830.0, 4826.0, 4830.0, 4832.0, 4832.0, 4838.0, 4828.0, 4834.0, 4834.0, 4830.0, 4828.0, 4830.0, 4830.0, 4828.0, 4832.0, 4834.0, 4828.0, 4832.0, 4830.0, 4830.0, 4830.0, 4832.0, 4830.0, 4830.0, 4830.0, 4830.0, 4830.0, 4832.0, 4832.0, 4832.0, 4832.0, 4828.0, 4832.0, 4832.0, 4830.0, 4828.0, 4830.0, 4832.0, 4830.0, 4832.0, 4832.0, 4832.0, 4830.0, 4828.0, 4828.0, 4832.0, 4832.0, 4832.0, 4832.0, 4832.0, 4828.0, 4832.0, 4832.0, 4828.0, 4832.0, 4828.0, 4832.0, 4832.0, 4828.0, 4832.0, 4828.0, 4830.0, 4832.0, 4830.0, 4834.0, 4830.0, 4830.0, 4832.0, 4832.0, 4830.0, 4830.0, 4834.0, 4830.0, 4832.0, 4830.0, 4832.0, 4830.0, 4830.0, 4828.0, 4830.0, 4834.0, 4830.0, 4828.0, 4832.0, 4830.0, 4830.0, 4832.0, 4832.0, 4832.0, 4828.0, 4830.0, 4830.0, 4832.0, 4832.0, 4832.0, 4832.0, 4830.0, 4832.0, 4832.0, 4830.0, 4830.0, 4832.0, 4828.0, 4830.0, 4828.0, 4826.0, 4834.0, 4834.0, 4830.0, 4828.0, 4826.0, 4830.0, 4830.0, 4830.0, 4832.0, 4832.0, 4830.0, 4832.0, 4830.0, 4834.0, 4830.0, 4830.0, 4832.0, 4830.0, 4834.0, 4830.0, 4830.0, 4830.0, 4830.0, 4828.0, 4832.0, 4832.0, 4828.0, 4834.0, 4828.0, 4832.0, 4830.0, 4830.0, 4832.0, 4828.0, 4828.0, 4830.0, 4832.0, 4828.0, 4830.0, 4830.0, 4830.0, 4830.0, 4834.0, 4832.0, 4830.0, 4832.0, 4828.0, 4832.0, 4832.0, 4832.0, 4830.0, 4834.0, 4832.0, 4834.0, 4832.0, 4828.0, 4830.0, 4830.0, 4830.0, 4828.0, 4832.0],
      "WindowWidth": [18594.0, 18592.0, 18586.0, 18596.0, 18592.0, 18590.0, 18590.0, 18592.0, 18584.0, 18590.0, 18592.0, 18592.0, 18596.0, 18590.0, 18594.0, 18588.0, 18586.0, 18590.0, 18590.0, 18588.0, 18586.0, 18588.0, 18592.0, 18596.0, 18590.0, 18584.0, 18592.0, 18590.0, 18594.0, 18586.0, 18594.0, 18594.0, 18594.0, 18592.0, 18588.0, 18592.0, 18592.0, 18590.0, 18592.0, 18582.0, 18590.0, 18590.0, 18592.0, 18592.0, 18588.0, 18594.0, 18588.0, 18588.0, 18590.0, 18592.0, 18592.0, 18588.0, 18588.0, 18590.0, 18582.0, 18590.0, 18590.0, 18588.0, 18590.0, 18592.0, 18590.0, 18590.0, 18586.0, 18590.0, 18592.0, 18588.0, 18588.0, 18590.0, 18590.0, 18592.0, 18590.0, 18588.0, 18592.0, 18584.0, 18594.0, 18590.0, 18588.0, 18588.0, 18592.0, 18590.0, 18592.0, 18584.0, 18586.0, 18586.0, 18586.0, 18592.0, 18592.0, 18590.0, 18586.0, 18588.0, 18590.0, 18590.0, 18590.0, 18592.0, 18586.0, 18588.0, 18586.0, 18588.0, 18584.0, 18588.0, 18586.0, 18588.0, 18588.0, 18592.0, 18590.0, 18586.0, 18586.0, 18590.0, 18592.0, 18588.0, 18590.0, 18590.0, 18580.0, 18586.0, 18592.0, 18586.0, 18588.0, 18590.0, 18592.0, 18586.0, 18588.0, 18586.0, 18590.0, 18584.0, 18584.0, 18584.0, 18586.0, 18584.0, 18586.0, 18590.0, 18588.0, 18588.0, 18588.0, 18590.0, 18582.0, 18584.0, 18584.0, 18592.0, 18590.0, 18588.0, 18590.0, 18586.0, 18592.0, 18588.0, 18592.0, 18588.0, 18588.0, 18592.0, 18594.0, 18586.0, 18590.0, 18586.0, 18588.0, 18586.0, 18592.0, 18584.0, 18596.0, 18588.0, 18588.0, 18588.0, 18588.0, 18588.0, 18588.0, 18580.0, 18590.0, 18592.0, 18588.0, 18588.0, 18586.0, 18584.0, 18588.0, 18590.0, 18594.0, 18582.0, 18586.0, 18580.0, 18590.0, 18592.0, 18586.0, 18586.0, 18588.0, 18586.0, 18590.0, 18586.0, 18592.0, 18586.0, 18594.0, 18584.0, 18586.0, 18584.0]
    },
    "slices": {}
  }
}