{
  "AcquisitionMatrixPE": 104,
  "AcquisitionNumber": 1,
  "AcquisitionTime": "11:14:19.077500",
  "BandwidthPerPixelPhaseEncode": 17.17,
  "BaseResolution": 104,
  "BodyPartExamined": "BRAIN",
  "CoilString": "HC1-7;NC1_2",
  "ConsistencyInfo": "N4_VE11C_LATEST_20160120",
  "ConversionSoftware": "dcm2niix",
  "ConversionSoftwareVersion": "v1.0.20190902",
  "DerivedVendorReportedEchoSpacing": 0.000560011,
  "DeviceSerialNumber": "167006",
  "DwellTime": 2.1e-06,
  "EchoTime": 0.037,
  "EchoTrainLength": 104,
  "EffectiveEchoSpacing": 0.000560011,
  "FlipAngle": 52,
  "ImageComments": "Unaliased_MB4_PE3_LB",
  "ImageOrientationPatientDICOM": [0.999554, 0.0234144, 0.0185471, -0.0106421, 0.85933, -0.51131],
  "ImageType": [
    "ORIGINAL",
    "PRIMARY",
    "P",
    "MB",
    "ND",
    "MOSAIC"
],
  "ImagingFrequency": 123.259,
  "InPlanePhaseEncodingDirectionDICOM": "COL",
  "InstitutionAddress": "Chemin_Queen-Mary_4565_Montreal_District_CA_H3W_1W5",
  "InstitutionName": "IUGM",
  "InstitutionalDepartmentName": "Department",
  "MRAcquisitionType": "2D",
  "MagneticFieldStrength": 3,
  "Manufacturer": "Siemens",
  "ManufacturersModelName": "Prisma_fit",
  "Modality": "MR",
  "MultibandAccelerationFactor": 4,
  "PartialFourier": 1,
  "PatientPosition": "HFS",
  "PercentPhaseFOV": 100,
  "PhaseEncodingDirection": "j",
  "PhaseEncodingSteps": 104,
  "PhaseResolution": 1,
  "PixelBandwidth": 2290,
  "ProcedureStepDescription": "memory_things",
  "ProtocolName": "func_task-things_run-6",
  "PulseSequenceDetails": "%CustomerSeq%_cmrr_mbep2d_bold",
  "ReceiveCoilActiveElements": "HC1-7;NC1,2",
  "ReceiveCoilName": "HeadNeck_64",
  "ReconMatrixPE": 104,
  "RepetitionTime": 1.49,
  "SAR": 0.0559071,
  "ScanOptions": "FS",
  "ScanningSequence": "EP",
  "SequenceName": "epfid2d1_104",
  "SequenceVariant": "SK_SS",
  "SeriesDescription": "func_task-things_run-6",
  "SeriesNumber": 26,
  "ShimSetting": [618, -7166, -8863, 309, 14, -143, -67, -26],
  "SliceThickness": 2,
  "SliceTiming": [0, 0.785, 0.0975, 0.8825, 0.195, 0.98, 0.295, 1.0775, 0.3925, 1.175, 0.49, 1.275, 0.5875, 1.3725, 0.685, 0, 0.785, 0.0975, 0.8825, 0.195, 0.98, 0.295, 1.0775, 0.3925, 1.175, 0.49, 1.275, 0.5875, 1.3725, 0.685, 0, 0.785, 0.0975, 0.8825, 0.195, 0.98, 0.295, 1.0775, 0.3925, 1.175, 0.49, 1.275, 0.5875, 1.3725, 0.685, 0, 0.785, 0.0975, 0.8825, 0.195, 0.98, 0.295, 1.0775, 0.3925, 1.175, 0.49, 1.275, 0.5875, 1.3725, 0.685],
  "SoftwareVersions": "syngo_MR_E11",
  "SpacingBetweenSlices": 2,
  "StationName": "MRC35049",
  "TaskName": "things",
  "TotalReadoutTime": 0.0576811,
  "TxRefAmp": 288.077,
  "WipMemBlock": "5bfc56ff-54a4-4801-a37c-251799b60b7e||Sequence: R016 ve11c/master r/e634e98; Dec 19 2017 11:00:25 by eja",
  "dcmmeta_affine": [
    [-1.9991075992584229, -0.021284285932779312, 0.05582019314169884, 106.71036529541016],
    [-0.04682881757616997, 1.7186603546142578, -1.0217698812484741, -47.83966827392578],
    [0.037094153463840485, 1.0226209163665771, 1.7183918952941895, -98.86241912841797],
    [0.0, 0.0, 0.0, 1.0]
],
  "dcmmeta_reorient_transform": [
    [0.0, -1.0, 0.0, 103.0],
    [1.0, 0.0, 0.0, 0.0],
    [0.0, 0.0, 1.0, 0.0],
    [0.0, 0.0, 0.0, 1.0]
],
  "dcmmeta_shape": [104, 104, 60, 190],
  "dcmmeta_slice_dim": 2,
  "dcmmeta_version": 0.6,
  "global": {
    "const": {
      "AcquisitionMatrix": [104, 0, 0, 104],
      "AngioFlag": "N",
      "BitsAllocated": 16,
      "BitsStored": 16,
      "BodyPartExamined": "BRAIN",
      "Columns": 832,
      "EchoNumbers": 1,
      "EchoTime": 37.0,
      "EchoTrainLength": 104,
      "FlipAngle": 52.0,
      "HighBit": 15,
      "ImageOrientationPatient": [0.99955378612977, 0.02341440910115, 0.01854707740007, -0.0106421429619, 0.85933019063001, -0.511310442163],
      "ImagePositionPatient": [-824.44576320819, -771.82041813965, 365.1992618473],
      "ImageType": [
        "ORIGINAL",
        "PRIMARY",
        "P",
        "MB",
        "ND",
        "MOSAIC"
],
      "ImagedNucleus": "1H",
      "ImagingFrequency": 123.258958,
      "InPlanePhaseEncodingDirection": "COL",
      "LargestImagePixelValue": 4095,
      "MRAcquisitionType": "2D",
      "MagneticFieldStrength": 3.0,
      "Manufacturer": "SIEMENS",
      "ManufacturerModelName": "Prisma_fit",
      "Modality": "MR",
      "NumberOfAverages": 1.0,
      "NumberOfPhaseEncodingSteps": 104,
      "PercentPhaseFieldOfView": 100.0,
      "PercentSampling": 100.0,
      "PerformedProcedureStepStartTime": "102855.428000",
      "PhotometricInterpretation": "MONOCHROME2",
      "PixelBandwidth": 2290.0,
      "PixelRepresentation": 0,
      "PixelSpacing": [2.0, 2.0],
      "ProtocolName": "func_task-things_run-6",
      "RepetitionTime": 1490.0,
      "RescaleIntercept": -4096.0,
      "RescaleSlope": 2.0,
      "RescaleType": "US",
      "Rows": 832,
      "SAR": 0.05590707027027,
      "SamplesPerPixel": 1,
      "ScanOptions": "FS",
      "ScanningSequence": "EP",
      "SequenceName": "epfid2d1_104",
      "SequenceVariant": [
        "SK",
        "SS"
],
      "SeriesDescription": "func_task-things_run-6",
      "SeriesNumber": 26,
      "SeriesTime": "111549.044000",
      "SliceLocation": -57.523325540238,
      "SliceThickness": 2.0,
      "SmallestImagePixelValue": 0,
      "SoftwareVersions": "syngo MR E11",
      "SpacingBetweenSlices": 2.0000000257831,
      "SpecificCharacterSet": "ISO_IR 100",
      "StudyID": "1",
      "StudyTime": "102855.355000",
      "TransmitCoilName": "Body",
      "VariableFlipAngleFlag": "N",
      "WindowCenterWidthExplanation": "Algo1",
      "dBdt": 0.0},
    "slices": {}
  },
  "time": {
    "samples": {
      "AcquisitionNumber": [1, 2, 3, 4, 5, 6, 7, 8, 9, 10, 11, 12, 13, 14, 15, 16, 17, 18, 19, 20, 21, 22, 23, 24, 25, 26, 27, 28, 29, 30, 31, 32, 33, 34, 35, 36, 37, 38, 39, 40, 41, 42, 43, 44, 45, 46, 47, 48, 49, 50, 51, 52, 53, 54, 55, 56, 57, 58, 59, 60, 61, 62, 63, 64, 65, 66, 67, 68, 69, 70, 71, 72, 73, 74, 75, 76, 77, 78, 79, 80, 81, 82, 83, 84, 85, 86, 87, 88, 89, 90, 91, 92, 93, 94, 95, 96, 97, 98, 99, 100, 101, 102, 103, 104, 105, 106, 107, 108, 109, 110, 111, 112, 113, 114, 115, 116, 117, 118, 119, 120, 121, 122, 123, 124, 125, 126, 127, 128, 129, 130, 131, 132, 133, 134, 135, 136, 137, 138, 139, 140, 141, 142, 143, 144, 145, 146, 147, 148, 149, 150, 151, 152, 153, 154, 155, 156, 157, 158, 159, 160, 161, 162, 163, 164, 165, 166, 167, 168, 169, 170, 171, 172, 173, 174, 175, 176, 177, 178, 179, 180, 181, 182, 183, 184, 185, 186, 187, 188, 189, 190],
      "AcquisitionTime": ["111419.077500", "111420.567500", "111422.057500", "111423.547500", "111425.037500", "111426.527500", "111428.017500", "111429.507500", "111430.997500", "111432.487500", "111433.977500", "111435.467500", "111436.957500", "111438.447500", "111439.937500", "111441.427500", "111442.917500", "111444.407500", "111445.897500", "111447.387500", "111448.877500", "111450.367500", "111451.857500", "111453.347500", "111454.837500", "111456.327500", "111457.817500", "111459.307500", "111500.797500", "111502.287500", "111503.777500", "111505.267500", "111506.757500", "111508.247500", "111509.737500", "111511.227500", "111512.717500", "111514.207500", "111515.697500", "111517.187500", "111518.677500", "111520.167500", "111521.657500", "111523.147500", "111524.637500", "111526.127500", "111527.617500", "111529.107500", "111530.597500", "111532.087500", "111533.577500", "111535.067500", "111536.557500", "111538.047500", "111539.537500", "111541.027500", "111542.517500", "111544.007500", "111545.497500", "111546.987500", "111548.477500", "111549.967500", "111551.457500", "111552.947500", "111554.437500", "111555.927500", "111557.417500", "111558.907500", "111600.397500", "111601.887500", "111603.377500", "111604.867500", "111606.357500", "111607.847500", "111609.337500", "111610.827500", "111612.317500", "111613.807500", "111615.297500", "111616.787500", "111618.277500", "111619.767500", "111621.257500", "111622.747500", "111624.237500", "111625.727500", "111627.217500", "111628.707500", "111630.197500", "111631.687500", "111633.177500", "111634.667500", "111636.157500", "111637.647500", "111639.137500", "111640.627500", "111642.117500", "111643.607500", "111645.097500", "111646.587500", "111648.077500", "111649.567500", "111651.057500", "111652.547500", "111654.037500", "111655.527500", "111657.017500", "111658.507500", "111659.997500", "111701.487500", "111702.977500", "111704.467500", "111705.957500", "111707.447500", "111708.937500", "111710.427500", "111711.917500", "111713.407500", "111714.897500", "111716.387500", "111717.877500", "111719.367500", "111720.857500", "111722.347500", "111723.837500", "111725.327500", "111726.817500", "111728.307500", "111729.797500", "111731.287500", "111732.777500", "111734.267500", "111735.757500", "111737.247500", "111738.737500", "111740.227500", "111741.717500", "111743.207500", "111744.697500", "111746.187500", "111747.677500", "111749.167500", "111750.657500", "111752.147500", "111753.637500", "111755.127500", "111756.617500", "111758.107500", "111759.597500", "111801.087500", "111802.577500", "111804.067500", "111805.557500", "111807.047500", "111808.537500", "111810.027500", "111811.517500", "111813.007500", "111814.497500", "111815.987500", "111817.477500", "111818.967500", "111820.457500", "111821.947500", "111823.437500", "111824.927500", "111826.417500", "111827.907500", "111829.397500", "111830.887500", "111832.377500", "111833.867500", "111835.357500", "111836.847500", "111838.337500", "111839.827500", "111841.317500", "111842.807500", "111844.297500", "111845.787500", "111847.277500", "111848.767500", "111850.257500", "111851.747500", "111853.237500", "111854.727500", "111856.217500", "111857.707500", "111859.197500", "111900.687500"],
      "ContentTime": ["111549.046000", "111549.049000", "111549.051000", "111549.054000", "111549.063000", "111549.066000", "111549.068000", "111549.077000", "111549.079000", "111549.082000", "111549.084000", "111549.087000", "111549.090000", "111549.092000", "111549.095000", "111549.097000", "111549.100000", "111549.102000", "111549.105000", "111549.107000", "111549.110000", "111549.112000", "111549.115000", "111549.118000", "111549.120000", "111549.123000", "111549.125000", "111549.128000", "111549.130000", "111549.133000", "111549.135000", "111549.138000", "111549.141000", "111549.143000", "111549.146000", "111549.148000", "111608.940000", "111608.943000", "111608.946000", "111608.948000", "111608.951000", "111608.953000", "111608.956000", "111608.959000", "111608.961000", "111608.964000", "111608.966000", "111608.969000", "111608.971000", "111608.974000", "111608.977000", "111608.979000", "111608.982000", "111608.984000", "111608.987000", "111608.989000", "111608.992000", "111628.933000", "111628.936000", "111628.939000", "111628.941000", "111628.944000", "111628.947000", "111628.949000", "111628.952000", "111628.954000", "111628.957000", "111628.959000", "111628.962000", "111628.965000", "111628.967000", "111628.970000", "111628.972000", "111628.975000", "111628.978000", "111628.980000", "111628.983000", "111648.938000", "111648.941000", "111648.944000", "111648.946000", "111648.949000", "111648.951000", "111648.954000", "111648.957000", "111648.959000", "111648.962000", "111648.964000", "111648.967000", "111648.969000", "111648.972000", "111648.975000", "111648.977000", "111648.980000", "111648.982000", "111648.985000", "111648.988000", "111728.969000", "111728.972000", "111728.974000", "111728.977000", "111728.979000", "111728.982000", "111728.985000", "111728.987000", "111728.990000", "111728.992000", "111728.995000", "111728.997000", "111729.001000", "111729.004000", "111729.006000", "111729.009000", "111729.011000", "111729.014000", "111729.016000", "111729.019000", "111729.022000", "111729.024000", "111729.027000", "111729.029000", "111729.032000", "111729.035000", "111729.037000", "111729.040000", "111729.042000", "111808.971000", "111808.974000", "111808.977000", "111808.979000", "111808.982000", "111808.985000", "111808.987000", "111808.990000", "111808.992000", "111808.995000", "111808.997000", "111809.001000", "111809.004000", "111809.006000", "111809.009000", "111809.011000", "111809.014000", "111809.017000", "111809.019000", "111809.022000", "111809.024000", "111809.027000", "111809.029000", "111809.032000", "111809.035000", "111809.037000", "111809.040000", "111848.979000", "111848.982000", "111848.985000", "111848.987000", "111848.990000", "111848.992000", "111848.995000", "111848.997000", "111849.001000", "111849.004000", "111849.006000", "111849.009000", "111849.011000", "111849.014000", "111849.017000", "111849.019000", "111849.022000", "111849.024000", "111849.027000", "111849.030000", "111849.032000", "111849.035000", "111849.037000", "111849.040000", "111849.042000", "111849.045000", "111849.048000", "111903.193000", "111903.196000", "111903.198000", "111903.201000", "111903.203000", "111903.206000", "111903.208000", "111903.211000", "111903.214000", "111903.216000"],
      "InstanceCreationTime": ["111549.046000", "111549.049000", "111549.051000", "111549.054000", "111549.063000", "111549.066000", "111549.068000", "111549.077000", "111549.079000", "111549.082000", "111549.084000", "111549.087000", "111549.090000", "111549.092000", "111549.095000", "111549.097000", "111549.100000", "111549.102000", "111549.105000", "111549.107000", "111549.110000", "111549.112000", "111549.115000", "111549.118000", "111549.120000", "111549.123000", "111549.125000", "111549.128000", "111549.130000", "111549.133000", "111549.135000", "111549.138000", "111549.141000", "111549.143000", "111549.146000", "111549.148000", "111608.940000", "111608.943000", "111608.946000", "111608.948000", "111608.951000", "111608.953000", "111608.956000", "111608.959000", "111608.961000", "111608.964000", "111608.966000", "111608.969000", "111608.971000", "111608.974000", "111608.977000", "111608.979000", "111608.982000", "111608.984000", "111608.987000", "111608.989000", "111608.992000", "111628.933000", "111628.936000", "111628.939000", "111628.941000", "111628.944000", "111628.947000", "111628.949000", "111628.952000", "111628.954000", "111628.957000", "111628.959000", "111628.962000", "111628.965000", "111628.967000", "111628.970000", "111628.972000", "111628.975000", "111628.978000", "111628.980000", "111628.983000", "111648.938000", "111648.941000", "111648.944000", "111648.946000", "111648.949000", "111648.951000", "111648.954000", "111648.957000", "111648.959000", "111648.962000", "111648.964000", "111648.967000", "111648.969000", "111648.972000", "111648.975000", "111648.977000", "111648.980000", "111648.982000", "111648.985000", "111648.988000", "111728.969000", "111728.972000", "111728.974000", "111728.977000", "111728.979000", "111728.982000", "111728.985000", "111728.987000", "111728.990000", "111728.992000", "111728.995000", "111728.997000", "111729.001000", "111729.004000", "111729.006000", "111729.009000", "111729.011000", "111729.014000", "111729.016000", "111729.019000", "111729.022000", "111729.024000", "111729.027000", "111729.029000", "111729.032000", "111729.035000", "111729.037000", "111729.040000", "111729.042000", "111808.971000", "111808.974000", "111808.977000", "111808.979000", "111808.982000", "111808.985000", "111808.987000", "111808.990000", "111808.992000", "111808.995000", "111808.997000", "111809.001000", "111809.004000", "111809.006000", "111809.009000", "111809.011000", "111809.014000", "111809.017000", "111809.019000", "111809.022000", "111809.024000", "111809.027000", "111809.029000", "111809.032000", "111809.035000", "111809.037000", "111809.040000", "111848.979000", "111848.982000", "111848.985000", "111848.987000", "111848.990000", "111848.992000", "111848.995000", "111848.997000", "111849.001000", "111849.004000", "111849.006000", "111849.009000", "111849.011000", "111849.014000", "111849.017000", "111849.019000", "111849.022000", "111849.024000", "111849.027000", "111849.030000", "111849.032000", "111849.035000", "111849.037000", "111849.040000", "111849.042000", "111849.045000", "111849.048000", "111903.193000", "111903.196000", "111903.198000", "111903.201000", "111903.203000", "111903.206000", "111903.208000", "111903.211000", "111903.214000", "111903.216000"],
      "InstanceNumber": [1, 2, 3, 4, 5, 6, 7, 8, 9, 10, 11, 12, 13, 14, 15, 16, 17, 18, 19, 20, 21, 22, 23, 24, 25, 26, 27, 28, 29, 30, 31, 32, 33, 34, 35, 36, 37, 38, 39, 40, 41, 42, 43, 44, 45, 46, 47, 48, 49, 50, 51, 52, 53, 54, 55, 56, 57, 58, 59, 60, 61, 62, 63, 64, 65, 66, 67, 68, 69, 70, 71, 72, 73, 74, 75, 76, 77, 78, 79, 80, 81, 82, 83, 84, 85, 86, 87, 88, 89, 90, 91, 92, 93, 94, 95, 96, 97, 98, 99, 100, 101, 102, 103, 104, 105, 106, 107, 108, 109, 110, 111, 112, 113, 114, 115, 116, 117, 118, 119, 120, 121, 122, 123, 124, 125, 126, 127, 128, 129, 130, 131, 132, 133, 134, 135, 136, 137, 138, 139, 140, 141, 142, 143, 144, 145, 146, 147, 148, 149, 150, 151, 152, 153, 154, 155, 156, 157, 158, 159, 160, 161, 162, 163, 164, 165, 166, 167, 168, 169, 170, 171, 172, 173, 174, 175, 176, 177, 178, 179, 180, 181, 182, 183, 184, 185, 186, 187, 188, 189, 190],
      "WindowCenter": [4762.0, 4736.0, 4740.0, 4740.0, 4762.0, 4764.0, 4790.0, 4762.0, 4762.0, 4764.0, 4738.0, 4740.0, 4732.0, 4760.0, 4762.0, 4764.0, 4788.0, 4736.0, 4766.0, 4762.0, 4738.0, 4764.0, 4736.0, 4734.0, 4762.0, 4766.0, 4764.0, 4814.0, 4764.0, 4764.0, 4762.0, 4736.0, 4762.0, 4762.0, 4756.0, 4754.0, 4734.0, 4826.0, 4884.0, 4892.0, 4822.0, 4762.0, 4736.0, 4746.0, 4746.0, 4744.0, 4762.0, 4738.0, 4788.0, 4788.0, 4818.0, 4794.0, 4748.0, 4754.0, 4738.0, 4760.0, 4822.0, 4850.0, 4792.0, 4788.0, 4760.0, 4740.0, 4738.0, 4764.0, 4744.0, 4736.0, 4762.0, 4820.0, 4822.0, 4824.0, 4790.0, 4766.0, 4740.0, 4780.0, 4782.0, 4742.0, 4764.0, 4738.0, 4818.0, 4818.0, 4792.0, 4792.0, 4736.0, 4738.0, 4738.0, 4738.0, 4738.0, 4760.0, 4788.0, 4764.0, 4788.0, 4764.0, 4764.0, 4746.0, 4788.0, 4746.0, 4764.0, 4766.0, 4794.0, 4852.0, 4768.0, 4762.0, 4762.0, 4734.0, 4742.0, 4738.0, 4746.0, 4738.0, 4760.0, 4822.0, 4828.0, 4818.0, 4740.0, 4746.0, 4738.0, 4766.0, 4766.0, 4790.0, 4762.0, 4738.0, 4760.0, 4764.0, 4786.0, 4786.0, 4766.0, 4744.0, 4736.0, 4764.0, 4762.0, 4762.0, 4788.0, 4790.0, 4766.0, 4746.0, 4748.0, 4736.0, 4762.0, 4760.0, 4788.0, 4790.0, 4764.0, 4764.0, 4742.0, 4782.0, 4754.0, 4732.0, 4794.0, 4860.0, 4884.0, 4854.0, 4794.0, 4742.0, 4784.0, 4774.0, 4740.0, 4766.0, 4794.0, 4824.0, 4798.0, 4792.0, 4740.0, 4770.0, 4766.0, 4764.0, 4738.0, 4760.0, 4792.0, 4760.0, 4792.0, 4790.0, 4792.0, 4766.0, 4746.0, 4748.0, 4762.0, 4742.0, 4736.0, 4794.0, 4790.0, 4822.0, 4822.0, 4736.0, 4736.0, 4734.0, 4770.0, 4796.0, 4792.0, 4716.0, 4788.0, 4886.0],
      "WindowWidth": [18570.0, 18540.0, 18540.0, 18540.0, 18572.0, 18578.0, 18606.0, 18572.0, 18572.0, 18574.0, 18534.0, 18544.0, 18534.0, 18570.0, 18570.0, 18576.0, 18610.0, 18538.0, 18576.0, 18570.0, 18536.0, 18576.0, 18536.0, 18534.0, 18572.0, 18578.0, 18576.0, 18646.0, 18576.0, 18578.0, 18570.0, 18534.0, 18572.0, 18572.0, 18544.0, 18544.0, 18536.0, 18658.0, 18728.0, 18728.0, 18648.0, 18580.0, 18540.0, 18546.0, 18542.0, 18544.0, 18574.0, 18538.0, 18606.0, 18604.0, 18644.0, 18614.0, 18536.0, 18538.0, 18534.0, 18568.0, 18654.0, 18688.0, 18608.0, 18610.0, 18568.0, 18540.0, 18538.0, 18574.0, 18538.0, 18536.0, 18576.0, 18650.0, 18652.0, 18648.0, 18608.0, 18574.0, 18540.0, 18578.0, 18580.0, 18542.0, 18574.0, 18538.0, 18650.0, 18650.0, 18614.0, 18614.0, 18534.0, 18540.0, 18538.0, 18536.0, 18538.0, 18574.0, 18606.0, 18574.0, 18606.0, 18576.0, 18572.0, 18542.0, 18586.0, 18538.0, 18574.0, 18578.0, 18616.0, 18690.0, 18578.0, 18574.0, 18576.0, 18532.0, 18536.0, 18538.0, 18542.0, 18538.0, 18566.0, 18654.0, 18654.0, 18642.0, 18536.0, 18538.0, 18532.0, 18578.0, 18578.0, 18610.0, 18570.0, 18534.0, 18572.0, 18572.0, 18604.0, 18602.0, 18570.0, 18542.0, 18536.0, 18578.0, 18570.0, 18570.0, 18608.0, 18604.0, 18574.0, 18540.0, 18544.0, 18536.0, 18572.0, 18570.0, 18610.0, 18610.0, 18576.0, 18574.0, 18542.0, 18574.0, 18540.0, 18534.0, 18618.0, 18698.0, 18726.0, 18692.0, 18608.0, 18544.0, 18578.0, 18578.0, 18540.0, 18574.0, 18614.0, 18648.0, 18614.0, 18608.0, 18536.0, 18576.0, 18574.0, 18574.0, 18534.0, 18574.0, 18614.0, 18572.0, 18614.0, 18612.0, 18606.0, 18578.0, 18538.0, 18546.0, 18570.0, 18540.0, 18538.0, 18614.0, 18608.0, 18652.0, 18650.0, 18534.0, 18534.0, 18532.0, 18574.0, 18570.0, 18568.0, 18502.0, 18618.0, 18732.0]
    },
    "slices": {}
  }
}