{
  "AcquisitionMatrixPE": 104,
  "AcquisitionNumber": 1,
  "AcquisitionTime": "11:01:59.425000",
  "BandwidthPerPixelPhaseEncode": 17.17,
  "BaseResolution": 104,
  "BodyPartExamined": "BRAIN",
  "CoilString": "HC1-7;NC1_2",
  "ConsistencyInfo": "N4_VE11C_LATEST_20160120",
  "ConversionSoftware": "dcm2niix",
  "ConversionSoftwareVersion": "v1.0.20190902",
  "DerivedVendorReportedEchoSpacing": 0.000560011,
  "DeviceSerialNumber": "167006",
  "DwellTime": 2.1e-06,
  "EchoTime": 0.037,
  "EchoTrainLength": 104,
  "EffectiveEchoSpacing": 0.000560011,
  "FlipAngle": 52,
  "ImageComments": "Unaliased_MB4_PE3_LB",
  "ImageOrientationPatientDICOM": [0.999554, 0.0234144, 0.0185471, -0.0106421, 0.85933, -0.51131],
  "ImageType": [
    "ORIGINAL",
    "PRIMARY",
    "M",
    "MB",
    "ND",
    "MOSAIC"
],
  "ImagingFrequency": 123.259,
  "InPlanePhaseEncodingDirectionDICOM": "COL",
  "InstitutionAddress": "Chemin_Queen-Mary_4565_Montreal_District_CA_H3W_1W5",
  "InstitutionName": "IUGM",
  "InstitutionalDepartmentName": "Department",
  "MRAcquisitionType": "2D",
  "MagneticFieldStrength": 3,
  "Manufacturer": "Siemens",
  "ManufacturersModelName": "Prisma_fit",
  "Modality": "MR",
  "MultibandAccelerationFactor": 4,
  "PartialFourier": 1,
  "PatientPosition": "HFS",
  "PercentPhaseFOV": 100,
  "PhaseEncodingDirection": "j",
  "PhaseEncodingSteps": 104,
  "PhaseResolution": 1,
  "PixelBandwidth": 2290,
  "ProcedureStepDescription": "memory_things",
  "ProtocolName": "func_task-things_run-4",
  "PulseSequenceDetails": "%CustomerSeq%_cmrr_mbep2d_bold",
  "ReceiveCoilActiveElements": "HC1-7;NC1,2",
  "ReceiveCoilName": "HeadNeck_64",
  "ReconMatrixPE": 104,
  "RepetitionTime": 1.49,
  "SAR": 0.0559071,
  "ScanOptions": "FS",
  "ScanningSequence": "EP",
  "SequenceName": "epfid2d1_104",
  "SequenceVariant": "SK_SS",
  "SeriesDescription": "func_task-things_run-4",
  "SeriesNumber": 19,
  "ShimSetting": [618, -7166, -8863, 309, 14, -143, -67, -26],
  "SliceThickness": 2,
  "SliceTiming": [0, 0.7825, 0.0975, 0.8825, 0.195, 0.98, 0.2925, 1.0775, 0.3925, 1.175, 0.49, 1.2725, 0.5875, 1.37, 0.685, 0, 0.7825, 0.0975, 0.8825, 0.195, 0.98, 0.2925, 1.0775, 0.3925, 1.175, 0.49, 1.2725, 0.5875, 1.37, 0.685, 0, 0.7825, 0.0975, 0.8825, 0.195, 0.98, 0.2925, 1.0775, 0.3925, 1.175, 0.49, 1.2725, 0.5875, 1.37, 0.685, 0, 0.7825, 0.0975, 0.8825, 0.195, 0.98, 0.2925, 1.0775, 0.3925, 1.175, 0.49, 1.2725, 0.5875, 1.37, 0.685],
  "SoftwareVersions": "syngo_MR_E11",
  "SpacingBetweenSlices": 2,
  "StationName": "MRC35049",
  "TaskName": "things",
  "TotalReadoutTime": 0.0576811,
  "TxRefAmp": 288.077,
  "WipMemBlock": "323ad016-34cc-438e-8f50-59e0dd4bdeb4||Sequence: R016 ve11c/master r/e634e98; Dec 19 2017 11:00:25 by eja",
  "dcmmeta_affine": [
    [-1.9991075992584229, -0.021284285932779312, 0.05582019314169884, 106.71036529541016],
    [-0.04682881757616997, 1.7186603546142578, -1.0217698812484741, -47.83966827392578],
    [0.037094153463840485, 1.0226209163665771, 1.7183918952941895, -98.86241912841797],
    [0.0, 0.0, 0.0, 1.0]
],
  "dcmmeta_reorient_transform": [
    [0.0, -1.0, 0.0, 103.0],
    [1.0, 0.0, 0.0, 0.0],
    [0.0, 0.0, 1.0, 0.0],
    [0.0, 0.0, 0.0, 1.0]
],
  "dcmmeta_shape": [104, 104, 60, 190],
  "dcmmeta_slice_dim": 2,
  "dcmmeta_version": 0.6,
  "global": {
    "const": {
      "AcquisitionMatrix": [104, 0, 0, 104],
      "AngioFlag": "N",
      "BitsAllocated": 16,
      "BitsStored": 16,
      "BodyPartExamined": "BRAIN",
      "Columns": 832,
      "EchoNumbers": 1,
      "EchoTime": 37.0,
      "EchoTrainLength": 104,
      "FlipAngle": 52.0,
      "HighBit": 15,
      "ImageOrientationPatient": [0.99955378612977, 0.02341440910115, 0.01854707740007, -0.0106421429619, 0.85933019063001, -0.511310442163],
      "ImagePositionPatient": [-824.44576320819, -771.82041813965, 365.1992618473],
      "ImageType": [
        "ORIGINAL",
        "PRIMARY",
        "M",
        "MB",
        "ND",
        "MOSAIC"
],
      "ImagedNucleus": "1H",
      "ImagingFrequency": 123.258958,
      "InPlanePhaseEncodingDirection": "COL",
      "MRAcquisitionType": "2D",
      "MagneticFieldStrength": 3.0,
      "Manufacturer": "SIEMENS",
      "ManufacturerModelName": "Prisma_fit",
      "Modality": "MR",
      "NumberOfAverages": 1.0,
      "NumberOfPhaseEncodingSteps": 104,
      "PercentPhaseFieldOfView": 100.0,
      "PercentSampling": 100.0,
      "PerformedProcedureStepStartTime": "102855.428000",
      "PhotometricInterpretation": "MONOCHROME2",
      "PixelBandwidth": 2290.0,
      "PixelRepresentation": 0,
      "PixelSpacing": [2.0, 2.0],
      "ProtocolName": "func_task-things_run-4",
      "RepetitionTime": 1490.0,
      "Rows": 832,
      "SAR": 0.05590707027027,
      "SamplesPerPixel": 1,
      "ScanOptions": "FS",
      "ScanningSequence": "EP",
      "SequenceName": "epfid2d1_104",
      "SequenceVariant": [
        "SK",
        "SS"
],
      "SeriesDescription": "func_task-things_run-4",
      "SeriesNumber": 19,
      "SeriesTime": "110331.027000",
      "SliceLocation": -57.523325540238,
      "SliceThickness": 2.0,
      "SmallestImagePixelValue": 0,
      "SoftwareVersions": "syngo MR E11",
      "SpacingBetweenSlices": 2.0000000257831,
      "SpecificCharacterSet": "ISO_IR 100",
      "StudyID": "1",
      "StudyTime": "102855.355000",
      "TransmitCoilName": "Body",
      "VariableFlipAngleFlag": "N",
      "WindowCenterWidthExplanation": "Algo1",
      "dBdt": 0.0},
    "slices": {}
  },
  "time": {
    "samples": {
      "AcquisitionNumber": [1, 2, 3, 4, 5, 6, 7, 8, 9, 10, 11, 12, 13, 14, 15, 16, 17, 18, 19, 20, 21, 22, 23, 24, 25, 26, 27, 28, 29, 30, 31, 32, 33, 34, 35, 36, 37, 38, 39, 40, 41, 42, 43, 44, 45, 46, 47, 48, 49, 50, 51, 52, 53, 54, 55, 56, 57, 58, 59, 60, 61, 62, 63, 64, 65, 66, 67, 68, 69, 70, 71, 72, 73, 74, 75, 76, 77, 78, 79, 80, 81, 82, 83, 84, 85, 86, 87, 88, 89, 90, 91, 92, 93, 94, 95, 96, 97, 98, 99, 100, 101, 102, 103, 104, 105, 106, 107, 108, 109, 110, 111, 112, 113, 114, 115, 116, 117, 118, 119, 120, 121, 122, 123, 124, 125, 126, 127, 128, 129, 130, 131, 132, 133, 134, 135, 136, 137, 138, 139, 140, 141, 142, 143, 144, 145, 146, 147, 148, 149, 150, 151, 152, 153, 154, 155, 156, 157, 158, 159, 160, 161, 162, 163, 164, 165, 166, 167, 168, 169, 170, 171, 172, 173, 174, 175, 176, 177, 178, 179, 180, 181, 182, 183, 184, 185, 186, 187, 188, 189, 190],
      "AcquisitionTime": ["110159.425000", "110200.915000", "110202.405000", "110203.895000", "110205.385000", "110206.875000", "110208.365000", "110209.855000", "110211.345000", "110212.835000", "110214.325000", "110215.815000", "110217.305000", "110218.795000", "110220.285000", "110221.775000", "110223.265000", "110224.755000", "110226.245000", "110227.735000", "110229.225000", "110230.715000", "110232.205000", "110233.695000", "110235.185000", "110236.675000", "110238.165000", "110239.655000", "110241.145000", "110242.635000", "110244.125000", "110245.615000", "110247.105000", "110248.595000", "110250.085000", "110251.575000", "110253.065000", "110254.555000", "110256.045000", "110257.535000", "110259.025000", "110300.515000", "110302.005000", "110303.495000", "110304.985000", "110306.475000", "110307.965000", "110309.455000", "110310.945000", "110312.435000", "110313.925000", "110315.415000", "110316.905000", "110318.395000", "110319.885000", "110321.375000", "110322.865000", "110324.355000", "110325.845000", "110327.335000", "110328.825000", "110330.315000", "110331.805000", "110333.295000", "110334.785000", "110336.275000", "110337.765000", "110339.255000", "110340.745000", "110342.235000", "110343.725000", "110345.215000", "110346.705000", "110348.195000", "110349.685000", "110351.175000", "110352.665000", "110354.155000", "110355.645000", "110357.135000", "110358.625000", "110400.115000", "110401.605000", "110403.095000", "110404.585000", "110406.075000", "110407.565000", "110409.055000", "110410.545000", "110412.035000", "110413.525000", "110415.015000", "110416.505000", "110417.995000", "110419.485000", "110420.975000", "110422.465000", "110423.955000", "110425.445000", "110426.935000", "110428.425000", "110429.915000", "110431.405000", "110432.895000", "110434.385000", "110435.875000", "110437.365000", "110438.855000", "110440.345000", "110441.835000", "110443.325000", "110444.815000", "110446.305000", "110447.795000", "110449.285000", "110450.775000", "110452.265000", "110453.755000", "110455.245000", "110456.735000", "110458.225000", "110459.715000", "110501.205000", "110502.695000", "110504.185000", "110505.675000", "110507.165000", "110508.655000", "110510.145000", "110511.635000", "110513.125000", "110514.615000", "110516.105000", "110517.595000", "110519.085000", "110520.575000", "110522.065000", "110523.555000", "110525.045000", "110526.535000", "110528.025000", "110529.515000", "110531.005000", "110532.495000", "110533.985000", "110535.475000", "110536.965000", "110538.455000", "110539.945000", "110541.435000", "110542.925000", "110544.415000", "110545.905000", "110547.395000", "110548.885000", "110550.375000", "110551.865000", "110553.355000", "110554.845000", "110556.335000", "110557.825000", "110559.315000", "110600.805000", "110602.295000", "110603.785000", "110605.275000", "110606.765000", "110608.255000", "110609.745000", "110611.235000", "110612.725000", "110614.215000", "110615.705000", "110617.195000", "110618.685000", "110620.175000", "110621.665000", "110623.155000", "110624.645000", "110626.135000", "110627.625000", "110629.115000", "110630.605000", "110632.095000", "110633.585000", "110635.075000", "110636.565000", "110638.055000", "110639.545000", "110641.035000"],
      "ContentTime": ["110331.030000", "110331.034000", "110331.038000", "110331.041000", "110331.044000", "110331.048000", "110331.051000", "110331.055000", "110331.058000", "110331.062000", "110331.065000", "110331.068000", "110331.072000", "110331.075000", "110331.079000", "110331.082000", "110331.085000", "110331.089000", "110331.092000", "110331.096000", "110331.099000", "110331.103000", "110331.106000", "110331.109000", "110331.119000", "110331.123000", "110331.126000", "110331.130000", "110331.133000", "110331.137000", "110331.140000", "110331.144000", "110331.147000", "110331.155000", "110331.158000", "110331.161000", "110331.165000", "110350.990000", "110350.994000", "110350.998000", "110351.002000", "110351.005000", "110351.009000", "110351.012000", "110351.016000", "110351.019000", "110351.023000", "110351.026000", "110351.029000", "110351.033000", "110351.036000", "110351.040000", "110351.043000", "110351.047000", "110351.066000", "110351.070000", "110351.073000", "110410.989000", "110410.993000", "110410.997000", "110411.001000", "110411.004000", "110411.018000", "110411.021000", "110411.025000", "110411.028000", "110411.032000", "110411.035000", "110411.039000", "110411.044000", "110411.048000", "110411.051000", "110411.056000", "110411.059000", "110411.063000", "110411.067000", "110411.071000", "110430.989000", "110430.993000", "110430.997000", "110431.001000", "110431.004000", "110431.008000", "110431.011000", "110431.015000", "110431.018000", "110431.022000", "110431.025000", "110431.028000", "110431.032000", "110431.035000", "110431.039000", "110431.042000", "110431.046000", "110431.049000", "110431.053000", "110431.056000", "110431.059000", "110510.989000", "110510.993000", "110510.996000", "110511.001000", "110511.004000", "110511.009000", "110511.013000", "110511.016000", "110511.020000", "110511.023000", "110511.027000", "110511.030000", "110511.034000", "110511.037000", "110511.040000", "110511.044000", "110511.047000", "110511.051000", "110511.054000", "110511.058000", "110511.061000", "110511.065000", "110511.068000", "110511.072000", "110511.075000", "110511.078000", "110511.082000", "110511.085000", "110511.089000", "110550.989000", "110550.993000", "110550.997000", "110551.001000", "110551.005000", "110551.008000", "110551.012000", "110551.015000", "110551.018000", "110551.022000", "110551.025000", "110551.029000", "110551.032000", "110551.036000", "110551.039000", "110551.043000", "110551.046000", "110551.050000", "110551.053000", "110551.057000", "110551.060000", "110551.064000", "110551.067000", "110551.070000", "110551.074000", "110551.077000", "110551.081000", "110630.989000", "110630.993000", "110630.996000", "110631.001000", "110631.005000", "110631.008000", "110631.011000", "110631.015000", "110631.018000", "110631.022000", "110631.025000", "110631.029000", "110631.033000", "110631.036000", "110631.040000", "110631.043000", "110631.047000", "110631.050000", "110631.054000", "110631.057000", "110631.061000", "110631.064000", "110631.068000", "110631.071000", "110631.075000", "110631.078000", "110631.081000", "110643.573000", "110643.577000", "110643.581000", "110643.584000", "110643.588000", "110643.591000", "110643.595000", "110643.598000", "110643.602000"],
      "InstanceCreationTime": ["110331.030000", "110331.034000", "110331.038000", "110331.041000", "110331.044000", "110331.048000", "110331.051000", "110331.055000", "110331.058000", "110331.062000", "110331.065000", "110331.068000", "110331.072000", "110331.075000", "110331.079000", "110331.082000", "110331.085000", "110331.089000", "110331.092000", "110331.096000", "110331.099000", "110331.103000", "110331.106000", "110331.109000", "110331.119000", "110331.123000", "110331.126000", "110331.130000", "110331.133000", "110331.137000", "110331.140000", "110331.144000", "110331.147000", "110331.155000", "110331.158000", "110331.161000", "110331.165000", "110350.990000", "110350.994000", "110350.998000", "110351.002000", "110351.005000", "110351.009000", "110351.012000", "110351.016000", "110351.019000", "110351.023000", "110351.026000", "110351.029000", "110351.033000", "110351.036000", "110351.040000", "110351.043000", "110351.047000", "110351.066000", "110351.070000", "110351.073000", "110410.989000", "110410.993000", "110410.997000", "110411.001000", "110411.004000", "110411.018000", "110411.021000", "110411.025000", "110411.028000", "110411.032000", "110411.035000", "110411.039000", "110411.044000", "110411.048000", "110411.051000", "110411.056000", "110411.059000", "110411.063000", "110411.067000", "110411.071000", "110430.989000", "110430.993000", "110430.997000", "110431.001000", "110431.004000", "110431.008000", "110431.011000", "110431.015000", "110431.018000", "110431.022000", "110431.025000", "110431.028000", "110431.032000", "110431.035000", "110431.039000", "110431.042000", "110431.046000", "110431.049000", "110431.053000", "110431.056000", "110431.059000", "110510.989000", "110510.993000", "110510.996000", "110511.001000", "110511.004000", "110511.009000", "110511.013000", "110511.016000", "110511.020000", "110511.023000", "110511.027000", "110511.030000", "110511.034000", "110511.037000", "110511.040000", "110511.044000", "110511.047000", "110511.051000", "110511.054000", "110511.058000", "110511.061000", "110511.065000", "110511.068000", "110511.072000", "110511.075000", "110511.078000", "110511.082000", "110511.085000", "110511.089000", "110550.989000", "110550.993000", "110550.997000", "110551.001000", "110551.005000", "110551.008000", "110551.012000", "110551.015000", "110551.018000", "110551.022000", "110551.025000", "110551.029000", "110551.032000", "110551.036000", "110551.039000", "110551.043000", "110551.046000", "110551.050000", "110551.053000", "110551.057000", "110551.060000", "110551.064000", "110551.067000", "110551.070000", "110551.074000", "110551.077000", "110551.081000", "110630.989000", "110630.993000", "110630.996000", "110631.001000", "110631.005000", "110631.008000", "110631.011000", "110631.015000", "110631.018000", "110631.022000", "110631.025000", "110631.029000", "110631.033000", "110631.036000", "110631.040000", "110631.043000", "110631.047000", "110631.050000", "110631.054000", "110631.057000", "110631.061000", "110631.064000", "110631.068000", "110631.071000", "110631.075000", "110631.078000", "110631.081000", "110643.573000", "110643.577000", "110643.581000", "110643.584000", "110643.588000", "110643.591000", "110643.595000", "110643.598000", "110643.602000"],
      "InstanceNumber": [1, 2, 3, 4, 5, 6, 7, 8, 9, 10, 11, 12, 13, 14, 15, 16, 17, 18, 19, 20, 21, 22, 23, 24, 25, 26, 27, 28, 29, 30, 31, 32, 33, 34, 35, 36, 37, 38, 39, 40, 41, 42, 43, 44, 45, 46, 47, 48, 49, 50, 51, 52, 53, 54, 55, 56, 57, 58, 59, 60, 61, 62, 63, 64, 65, 66, 67, 68, 69, 70, 71, 72, 73, 74, 75, 76, 77, 78, 79, 80, 81, 82, 83, 84, 85, 86, 87, 88, 89, 90, 91, 92, 93, 94, 95, 96, 97, 98, 99, 100, 101, 102, 103, 104, 105, 106, 107, 108, 109, 110, 111, 112, 113, 114, 115, 116, 117, 118, 119, 120, 121, 122, 123, 124, 125, 126, 127, 128, 129, 130, 131, 132, 133, 134, 135, 136, 137, 138, 139, 140, 141, 142, 143, 144, 145, 146, 147, 148, 149, 150, 151, 152, 153, 154, 155, 156, 157, 158, 159, 160, 161, 162, 163, 164, 165, 166, 167, 168, 169, 170, 171, 172, 173, 174, 175, 176, 177, 178, 179, 180, 181, 182, 183, 184, 185, 186, 187, 188, 189, 190],
      "LargestImagePixelValue": [41926, 40997, 40126, 39909, 39448, 39458, 39849, 40429, 40406, 40625, 40778, 40636, 40651, 40184, 40768, 40630, 41226, 40910, 41297, 40449, 40441, 40565, 40587, 40539, 40248, 41185, 40334, 40954, 40999, 41005, 41016, 41218, 41108, 41214, 41034, 42149, 42174, 42324, 41554, 41215, 41506, 41158, 42614, 42317, 42200, 42781, 40538, 41067, 42519, 41859, 41248, 40488, 41043, 39865, 40953, 40529, 40746, 41427, 40965, 41245, 40822, 41577, 41490, 40911, 39411, 40218, 40618, 41403, 40785, 40409, 40592, 39892, 40279, 40410, 40200, 40264, 39553, 39907, 39821, 40348, 40567, 40795, 40889, 40561, 41021, 40829, 40709, 40896, 39596, 40733, 40435, 40639, 40757, 40107, 40863, 40810, 40057, 39516, 40265, 39975, 41005, 40497, 40704, 40823, 40520, 40353, 40397, 40688, 40651, 40177, 40158, 39636, 39924, 40545, 39874, 40357, 40387, 39689, 39784, 39703, 40294, 39706, 40411, 39896, 39842, 40772, 40654, 40469, 40648, 40557, 39435, 39760, 40374, 39980, 41034, 40017, 40172, 40234, 40469, 40715, 40500, 40491, 40027, 39352, 40598, 40193, 40004, 39789, 40746, 39993, 40183, 40561, 40674, 41006, 40581, 39434, 40244, 39726, 40042, 40019, 39167, 40186, 40084, 40047, 40316, 40421, 40500, 39487, 40854, 39574, 39729, 40331, 40049, 39316, 40089, 39163, 40057, 40393, 40471, 40416, 40536, 40387, 39494, 39571, 40603, 39957, 40551, 39722, 40099, 39974],
      "WindowCenter": [10942.0, 10865.0, 10853.0, 10877.0, 10853.0, 10847.0, 10819.0, 10817.0, 10789.0, 10793.0, 10799.0, 10810.0, 10812.0, 10802.0, 10784.0, 10790.0, 10811.0, 10815.0, 10843.0, 10850.0, 10846.0, 10821.0, 10831.0, 10847.0, 10816.0, 10810.0, 10785.0, 10804.0, 10837.0, 10856.0, 10865.0, 10854.0, 10848.0, 10848.0, 10831.0, 10864.0, 10858.0, 10835.0, 10813.0, 10818.0, 10830.0, 10825.0, 10825.0, 10817.0, 10810.0, 10820.0, 10806.0, 10814.0, 10881.0, 10890.0, 10849.0, 10798.0, 10783.0, 10775.0, 10809.0, 10786.0, 10773.0, 10769.0, 10771.0, 10788.0, 10784.0, 10780.0, 10790.0, 10813.0, 10806.0, 10797.0, 10767.0, 10779.0, 10793.0, 10815.0, 10843.0, 10833.0, 10826.0, 10812.0, 10795.0, 10794.0, 10805.0, 10803.0, 10776.0, 10752.0, 10755.0, 10764.0, 10764.0, 10763.0, 10771.0, 10774.0, 10777.0, 10771.0, 10771.0, 10800.0, 10834.0, 10843.0, 10828.0, 10817.0, 10820.0, 10820.0, 10817.0, 10799.0, 10782.0, 10773.0, 10763.0, 10753.0, 10753.0, 10780.0, 10804.0, 10807.0, 10800.0, 10778.0, 10758.0, 10755.0, 10780.0, 10793.0, 10810.0, 10815.0, 10787.0, 10800.0, 10805.0, 10795.0, 10798.0, 10783.0, 10784.0, 10793.0, 10818.0, 10794.0, 10781.0, 10805.0, 10791.0, 10773.0, 10745.0, 10760.0, 10775.0, 10777.0, 10762.0, 10746.0, 10781.0, 10792.0, 10787.0, 10770.0, 10761.0, 10767.0, 10777.0, 10769.0, 10762.0, 10748.0, 10775.0, 10769.0, 10781.0, 10794.0, 10783.0, 10744.0, 10720.0, 10730.0, 10767.0, 10746.0, 10810.0, 10808.0, 10800.0, 10748.0, 10752.0, 10720.0, 10749.0, 10755.0, 10730.0, 10713.0, 10729.0, 10722.0, 10736.0, 10746.0, 10835.0, 10756.0, 10725.0, 10733.0, 10768.0, 10776.0, 10777.0, 10747.0, 10746.0, 10726.0, 10715.0, 10722.0, 10763.0, 10804.0, 10790.0, 10770.0, 10760.0, 10763.0, 10833.0, 10826.0, 10813.0, 10811.0],
      "WindowWidth": [23521.0, 23312.0, 23266.0, 23310.0, 23256.0, 23234.0, 23160.0, 23158.0, 23094.0, 23101.0, 23108.0, 23135.0, 23141.0, 23122.0, 23078.0, 23094.0, 23138.0, 23148.0, 23209.0, 23230.0, 23224.0, 23157.0, 23185.0, 23223.0, 23153.0, 23143.0, 23084.0, 23124.0, 23204.0, 23243.0, 23267.0, 23240.0, 23226.0, 23224.0, 23186.0, 23251.0, 23241.0, 23189.0, 23142.0, 23151.0, 23188.0, 23167.0, 23163.0, 23146.0, 23128.0, 23147.0, 23122.0, 23139.0, 23293.0, 23321.0, 23232.0, 23121.0, 23081.0, 23059.0, 23139.0, 23083.0, 23050.0, 23036.0, 23045.0, 23080.0, 23080.0, 23063.0, 23081.0, 23133.0, 23128.0, 23102.0, 23039.0, 23064.0, 23099.0, 23149.0, 23214.0, 23191.0, 23176.0, 23140.0, 23101.0, 23099.0, 23139.0, 23124.0, 23059.0, 23008.0, 23007.0, 23029.0, 23031.0, 23027.0, 23043.0, 23057.0, 23061.0, 23042.0, 23050.0, 23110.0, 23190.0, 23212.0, 23174.0, 23156.0, 23163.0, 23155.0, 23151.0, 23119.0, 23071.0, 23050.0, 23024.0, 23001.0, 23003.0, 23064.0, 23116.0, 23126.0, 23113.0, 23063.0, 23016.0, 23008.0, 23072.0, 23106.0, 23140.0, 23151.0, 23092.0, 23120.0, 23128.0, 23108.0, 23125.0, 23079.0, 23087.0, 23101.0, 23156.0, 23103.0, 23069.0, 23121.0, 23093.0, 23054.0, 22988.0, 23017.0, 23059.0, 23065.0, 23026.0, 22998.0, 23065.0, 23099.0, 23084.0, 23046.0, 23030.0, 23038.0, 23059.0, 23045.0, 23032.0, 22997.0, 23052.0, 23047.0, 23071.0, 23102.0, 23073.0, 22986.0, 22932.0, 22956.0, 23038.0, 22991.0, 23145.0, 23141.0, 23117.0, 23012.0, 23006.0, 22938.0, 23003.0, 23011.0, 22958.0, 22917.0, 22950.0, 22942.0, 22971.0, 22993.0, 23196.0, 23022.0, 22951.0, 22962.0, 23047.0, 23062.0, 23065.0, 23001.0, 22989.0, 22953.0, 22930.0, 22936.0, 23031.0, 23123.0, 23097.0, 23048.0, 23026.0, 23029.0, 23195.0, 23181.0, 23150.0, 23148.0]
    },
    "slices": {}
  }
}