{
  "AcquisitionMatrixPE": 104,
  "AcquisitionNumber": 1,
  "AcquisitionTime": "10:49:47.472500",
  "BandwidthPerPixelPhaseEncode": 17.17,
  "BaseResolution": 104,
  "BodyPartExamined": "BRAIN",
  "CoilString": "HC1-7;NC1_2",
  "ConsistencyInfo": "N4_VE11C_LATEST_20160120",
  "ConversionSoftware": "dcm2niix",
  "ConversionSoftwareVersion": "v1.0.20190902",
  "DerivedVendorReportedEchoSpacing": 0.000560011,
  "DeviceSerialNumber": "167006",
  "DwellTime": 2.1e-06,
  "EchoTime": 0.037,
  "EchoTrainLength": 104,
  "EffectiveEchoSpacing": 0.000560011,
  "FlipAngle": 52,
  "ImageComments": "Unaliased_MB4_PE3_LB",
  "ImageOrientationPatientDICOM": [0.999554, 0.0234144, 0.0185471, -0.0106421, 0.85933, -0.51131],
  "ImageType": [
    "ORIGINAL",
    "PRIMARY",
    "M",
    "MB",
    "ND",
    "MOSAIC"
],
  "ImagingFrequency": 123.259,
  "InPlanePhaseEncodingDirectionDICOM": "COL",
  "InstitutionAddress": "Chemin_Queen-Mary_4565_Montreal_District_CA_H3W_1W5",
  "InstitutionName": "IUGM",
  "InstitutionalDepartmentName": "Department",
  "MRAcquisitionType": "2D",
  "MagneticFieldStrength": 3,
  "Manufacturer": "Siemens",
  "ManufacturersModelName": "Prisma_fit",
  "Modality": "MR",
  "MultibandAccelerationFactor": 4,
  "PartialFourier": 1,
  "PatientPosition": "HFS",
  "PercentPhaseFOV": 100,
  "PhaseEncodingDirection": "j",
  "PhaseEncodingSteps": 104,
  "PhaseResolution": 1,
  "PixelBandwidth": 2290,
  "ProcedureStepDescription": "memory_things",
  "ProtocolName": "func_task-things_run-2",
  "PulseSequenceDetails": "%CustomerSeq%_cmrr_mbep2d_bold",
  "ReceiveCoilActiveElements": "HC1-7;NC1,2",
  "ReceiveCoilName": "HeadNeck_64",
  "ReconMatrixPE": 104,
  "RepetitionTime": 1.49,
  "SAR": 0.0559071,
  "ScanOptions": "FS",
  "ScanningSequence": "EP",
  "SequenceName": "epfid2d1_104",
  "SequenceVariant": "SK_SS",
  "SeriesDescription": "func_task-things_run-2",
  "SeriesNumber": 13,
  "ShimSetting": [618, -7166, -8863, 309, 14, -143, -67, -26],
  "SliceThickness": 2,
  "SliceTiming": [0, 0.7825, 0.0975, 0.8825, 0.195, 0.98, 0.2925, 1.0775, 0.3925, 1.175, 0.49, 1.2725, 0.5875, 1.3725, 0.685, 0, 0.7825, 0.0975, 0.8825, 0.195, 0.98, 0.2925, 1.0775, 0.3925, 1.175, 0.49, 1.2725, 0.5875, 1.3725, 0.685, 0, 0.7825, 0.0975, 0.8825, 0.195, 0.98, 0.2925, 1.0775, 0.3925, 1.175, 0.49, 1.2725, 0.5875, 1.3725, 0.685, 0, 0.7825, 0.0975, 0.8825, 0.195, 0.98, 0.2925, 1.0775, 0.3925, 1.175, 0.49, 1.2725, 0.5875, 1.3725, 0.685],
  "SoftwareVersions": "syngo_MR_E11",
  "SpacingBetweenSlices": 2,
  "StationName": "MRC35049",
  "TaskName": "things",
  "TotalReadoutTime": 0.0576811,
  "TxRefAmp": 288.077,
  "WipMemBlock": "b12c3f60-43de-40b0-b71f-ae993c25042d||Sequence: R016 ve11c/master r/e634e98; Dec 19 2017 11:00:25 by eja",
  "dcmmeta_affine": [
    [-1.9991075992584229, -0.021284285932779312, 0.05582019314169884, 106.71036529541016],
    [-0.04682881757616997, 1.7186603546142578, -1.0217698812484741, -47.83966827392578],
    [0.037094153463840485, 1.0226209163665771, 1.7183918952941895, -98.86241912841797],
    [0.0, 0.0, 0.0, 1.0]
],
  "dcmmeta_reorient_transform": [
    [0.0, -1.0, 0.0, 103.0],
    [1.0, 0.0, 0.0, 0.0],
    [0.0, 0.0, 1.0, 0.0],
    [0.0, 0.0, 0.0, 1.0]
],
  "dcmmeta_shape": [104, 104, 60, 190],
  "dcmmeta_slice_dim": 2,
  "dcmmeta_version": 0.6,
  "global": {
    "const": {
      "AcquisitionMatrix": [104, 0, 0, 104],
      "AngioFlag": "N",
      "BitsAllocated": 16,
      "BitsStored": 16,
      "BodyPartExamined": "BRAIN",
      "Columns": 832,
      "EchoNumbers": 1,
      "EchoTime": 37.0,
      "EchoTrainLength": 104,
      "FlipAngle": 52.0,
      "HighBit": 15,
      "ImageOrientationPatient": [0.99955378612977, 0.02341440910115, 0.01854707740007, -0.0106421429619, 0.85933019063001, -0.511310442163],
      "ImagePositionPatient": [-824.44576320819, -771.82041813965, 365.1992618473],
      "ImageType": [
        "ORIGINAL",
        "PRIMARY",
        "M",
        "MB",
        "ND",
        "MOSAIC"
],
      "ImagedNucleus": "1H",
      "ImagingFrequency": 123.258949,
      "InPlanePhaseEncodingDirection": "COL",
      "MRAcquisitionType": "2D",
      "MagneticFieldStrength": 3.0,
      "Manufacturer": "SIEMENS",
      "ManufacturerModelName": "Prisma_fit",
      "Modality": "MR",
      "NumberOfAverages": 1.0,
      "NumberOfPhaseEncodingSteps": 104,
      "PercentPhaseFieldOfView": 100.0,
      "PercentSampling": 100.0,
      "PerformedProcedureStepStartTime": "102855.428000",
      "PhotometricInterpretation": "MONOCHROME2",
      "PixelBandwidth": 2290.0,
      "PixelRepresentation": 0,
      "PixelSpacing": [2.0, 2.0],
      "ProtocolName": "func_task-things_run-2",
      "RepetitionTime": 1490.0,
      "Rows": 832,
      "SAR": 0.05590707027027,
      "SamplesPerPixel": 1,
      "ScanOptions": "FS",
      "ScanningSequence": "EP",
      "SequenceName": "epfid2d1_104",
      "SequenceVariant": [
        "SK",
        "SS"
],
      "SeriesDescription": "func_task-things_run-2",
      "SeriesNumber": 13,
      "SeriesTime": "105108.824000",
      "SliceLocation": -57.523325540238,
      "SliceThickness": 2.0,
      "SmallestImagePixelValue": 0,
      "SoftwareVersions": "syngo MR E11",
      "SpacingBetweenSlices": 2.0000000257831,
      "SpecificCharacterSet": "ISO_IR 100",
      "StudyID": "1",
      "StudyTime": "102855.355000",
      "TransmitCoilName": "Body",
      "VariableFlipAngleFlag": "N",
      "WindowCenterWidthExplanation": "Algo1",
      "dBdt": 0.0},
    "slices": {}
  },
  "time": {
    "samples": {
      "AcquisitionNumber": [1, 2, 3, 4, 5, 6, 7, 8, 9, 10, 11, 12, 13, 14, 15, 16, 17, 18, 19, 20, 21, 22, 23, 24, 25, 26, 27, 28, 29, 30, 31, 32, 33, 34, 35, 36, 37, 38, 39, 40, 41, 42, 43, 44, 45, 46, 47, 48, 49, 50, 51, 52, 53, 54, 55, 56, 57, 58, 59, 60, 61, 62, 63, 64, 65, 66, 67, 68, 69, 70, 71, 72, 73, 74, 75, 76, 77, 78, 79, 80, 81, 82, 83, 84, 85, 86, 87, 88, 89, 90, 91, 92, 93, 94, 95, 96, 97, 98, 99, 100, 101, 102, 103, 104, 105, 106, 107, 108, 109, 110, 111, 112, 113, 114, 115, 116, 117, 118, 119, 120, 121, 122, 123, 124, 125, 126, 127, 128, 129, 130, 131, 132, 133, 134, 135, 136, 137, 138, 139, 140, 141, 142, 143, 144, 145, 146, 147, 148, 149, 150, 151, 152, 153, 154, 155, 156, 157, 158, 159, 160, 161, 162, 163, 164, 165, 166, 167, 168, 169, 170, 171, 172, 173, 174, 175, 176, 177, 178, 179, 180, 181, 182, 183, 184, 185, 186, 187, 188, 189, 190],
      "AcquisitionTime": ["104947.472500", "104948.962500", "104950.452500", "104951.942500", "104953.432500", "104954.922500", "104956.412500", "104957.902500", "104959.392500", "105000.882500", "105002.372500", "105003.862500", "105005.352500", "105006.842500", "105008.332500", "105009.822500", "105011.312500", "105012.802500", "105014.292500", "105015.782500", "105017.272500", "105018.762500", "105020.252500", "105021.742500", "105023.232500", "105024.722500", "105026.212500", "105027.702500", "105029.192500", "105030.682500", "105032.172500", "105033.662500", "105035.152500", "105036.642500", "105038.132500", "105039.622500", "105041.112500", "105042.602500", "105044.092500", "105045.582500", "105047.072500", "105048.562500", "105050.052500", "105051.542500", "105053.032500", "105054.522500", "105056.012500", "105057.502500", "105058.992500", "105100.482500", "105101.972500", "105103.462500", "105104.952500", "105106.442500", "105107.932500", "105109.422500", "105110.912500", "105112.402500", "105113.892500", "105115.382500", "105116.872500", "105118.362500", "105119.852500", "105121.342500", "105122.832500", "105124.322500", "105125.812500", "105127.302500", "105128.792500", "105130.282500", "105131.772500", "105133.262500", "105134.752500", "105136.242500", "105137.732500", "105139.222500", "105140.712500", "105142.202500", "105143.692500", "105145.182500", "105146.672500", "105148.162500", "105149.652500", "105151.142500", "105152.632500", "105154.122500", "105155.612500", "105157.102500", "105158.592500", "105200.082500", "105201.572500", "105203.062500", "105204.552500", "105206.042500", "105207.532500", "105209.022500", "105210.512500", "105212.002500", "105213.492500", "105214.982500", "105216.472500", "105217.962500", "105219.452500", "105220.942500", "105222.432500", "105223.922500", "105225.412500", "105226.902500", "105228.392500", "105229.882500", "105231.372500", "105232.862500", "105234.352500", "105235.842500", "105237.332500", "105238.822500", "105240.312500", "105241.802500", "105243.292500", "105244.782500", "105246.272500", "105247.762500", "105249.252500", "105250.742500", "105252.232500", "105253.722500", "105255.212500", "105256.702500", "105258.192500", "105259.682500", "105301.172500", "105302.662500", "105304.152500", "105305.642500", "105307.132500", "105308.622500", "105310.112500", "105311.602500", "105313.092500", "105314.582500", "105316.072500", "105317.562500", "105319.052500", "105320.542500", "105322.032500", "105323.522500", "105325.012500", "105326.502500", "105327.992500", "105329.482500", "105330.972500", "105332.462500", "105333.952500", "105335.442500", "105336.932500", "105338.422500", "105339.912500", "105341.402500", "105342.892500", "105344.382500", "105345.872500", "105347.362500", "105348.852500", "105350.342500", "105351.832500", "105353.322500", "105354.812500", "105356.302500", "105357.792500", "105359.282500", "105400.772500", "105402.262500", "105403.752500", "105405.242500", "105406.732500", "105408.222500", "105409.712500", "105411.202500", "105412.692500", "105414.182500", "105415.672500", "105417.162500", "105418.652500", "105420.142500", "105421.632500", "105423.122500", "105424.612500", "105426.102500", "105427.592500", "105429.082500"],
      "ContentTime": ["105108.827000", "105108.831000", "105108.834000", "105108.838000", "105108.841000", "105108.845000", "105108.848000", "105108.852000", "105108.855000", "105108.859000", "105108.862000", "105108.865000", "105108.869000", "105108.872000", "105108.876000", "105108.879000", "105108.883000", "105108.886000", "105108.889000", "105108.893000", "105108.896000", "105108.902000", "105108.906000", "105108.909000", "105108.912000", "105108.916000", "105108.919000", "105108.923000", "105128.774000", "105128.778000", "105128.781000", "105128.785000", "105128.788000", "105128.792000", "105128.795000", "105128.799000", "105128.802000", "105128.805000", "105128.809000", "105128.812000", "105128.827000", "105128.830000", "105128.834000", "105128.837000", "105128.841000", "105128.844000", "105128.847000", "105128.851000", "105148.773000", "105148.777000", "105148.781000", "105148.784000", "105148.788000", "105148.791000", "105148.794000", "105148.798000", "105148.801000", "105148.805000", "105148.808000", "105148.812000", "105148.822000", "105148.825000", "105148.829000", "105148.832000", "105148.836000", "105148.839000", "105148.842000", "105148.846000", "105148.849000", "105208.773000", "105208.777000", "105208.780000", "105208.784000", "105208.787000", "105208.791000", "105208.794000", "105208.797000", "105208.801000", "105208.804000", "105208.808000", "105208.811000", "105208.815000", "105208.824000", "105208.828000", "105208.831000", "105208.835000", "105208.838000", "105208.841000", "105208.845000", "105248.774000", "105248.778000", "105248.782000", "105248.785000", "105248.788000", "105248.792000", "105248.795000", "105248.799000", "105248.802000", "105248.806000", "105248.809000", "105248.813000", "105248.816000", "105248.820000", "105248.823000", "105248.826000", "105248.830000", "105248.833000", "105248.837000", "105248.840000", "105248.843000", "105248.847000", "105248.850000", "105248.854000", "105248.857000", "105248.861000", "105248.864000", "105248.868000", "105248.871000", "105248.875000", "105248.878000", "105248.881000", "105328.774000", "105328.778000", "105328.782000", "105328.785000", "105328.788000", "105328.792000", "105328.795000", "105328.799000", "105328.802000", "105328.806000", "105328.809000", "105328.813000", "105328.816000", "105328.820000", "105328.823000", "105328.826000", "105328.830000", "105328.833000", "105328.837000", "105328.840000", "105328.843000", "105328.847000", "105328.850000", "105328.854000", "105328.857000", "105328.861000", "105328.864000", "105408.773000", "105408.797000", "105408.800000", "105408.804000", "105408.807000", "105408.811000", "105408.814000", "105408.818000", "105408.821000", "105408.824000", "105408.828000", "105408.831000", "105408.835000", "105408.838000", "105408.842000", "105408.850000", "105408.853000", "105408.856000", "105408.860000", "105408.873000", "105408.876000", "105408.880000", "105408.883000", "105408.887000", "105408.890000", "105408.893000", "105408.897000", "105431.092000", "105431.096000", "105431.099000", "105431.102000", "105431.106000", "105431.109000", "105431.113000", "105431.116000", "105431.120000", "105431.123000", "105431.127000", "105431.130000", "105431.134000", "105431.137000", "105431.141000"],
      "InstanceCreationTime": ["105108.827000", "105108.831000", "105108.834000", "105108.838000", "105108.841000", "105108.845000", "105108.848000", "105108.852000", "105108.855000", "105108.859000", "105108.862000", "105108.865000", "105108.869000", "105108.872000", "105108.876000", "105108.879000", "105108.883000", "105108.886000", "105108.889000", "105108.893000", "105108.896000", "105108.902000", "105108.906000", "105108.909000", "105108.912000", "105108.916000", "105108.919000", "105108.923000", "105128.774000", "105128.778000", "105128.781000", "105128.785000", "105128.788000", "105128.792000", "105128.795000", "105128.799000", "105128.802000", "105128.805000", "105128.809000", "105128.812000", "105128.827000", "105128.830000", "105128.834000", "105128.837000", "105128.841000", "105128.844000", "105128.847000", "105128.851000", "105148.773000", "105148.777000", "105148.781000", "105148.784000", "105148.788000", "105148.791000", "105148.794000", "105148.798000", "105148.801000", "105148.805000", "105148.808000", "105148.812000", "105148.822000", "105148.825000", "105148.829000", "105148.832000", "105148.836000", "105148.839000", "105148.842000", "105148.846000", "105148.849000", "105208.773000", "105208.777000", "105208.780000", "105208.784000", "105208.787000", "105208.791000", "105208.794000", "105208.797000", "105208.801000", "105208.804000", "105208.808000", "105208.811000", "105208.815000", "105208.824000", "105208.828000", "105208.831000", "105208.835000", "105208.838000", "105208.841000", "105208.845000", "105248.774000", "105248.778000", "105248.782000", "105248.785000", "105248.788000", "105248.792000", "105248.795000", "105248.799000", "105248.802000", "105248.806000", "105248.809000", "105248.813000", "105248.816000", "105248.820000", "105248.823000", "105248.826000", "105248.830000", "105248.833000", "105248.837000", "105248.840000", "105248.843000", "105248.847000", "105248.850000", "105248.854000", "105248.857000", "105248.861000", "105248.864000", "105248.868000", "105248.871000", "105248.875000", "105248.878000", "105248.881000", "105328.774000", "105328.778000", "105328.782000", "105328.785000", "105328.788000", "105328.792000", "105328.795000", "105328.799000", "105328.802000", "105328.806000", "105328.809000", "105328.813000", "105328.816000", "105328.820000", "105328.823000", "105328.826000", "105328.830000", "105328.833000", "105328.837000", "105328.840000", "105328.843000", "105328.847000", "105328.850000", "105328.854000", "105328.857000", "105328.861000", "105328.864000", "105408.773000", "105408.797000", "105408.800000", "105408.804000", "105408.807000", "105408.811000", "105408.814000", "105408.818000", "105408.821000", "105408.824000", "105408.828000", "105408.831000", "105408.835000", "105408.838000", "105408.842000", "105408.850000", "105408.853000", "105408.856000", "105408.860000", "105408.873000", "105408.876000", "105408.880000", "105408.883000", "105408.887000", "105408.890000", "105408.893000", "105408.897000", "105431.092000", "105431.096000", "105431.099000", "105431.102000", "105431.106000", "105431.109000", "105431.113000", "105431.116000", "105431.120000", "105431.123000", "105431.127000", "105431.130000", "105431.134000", "105431.137000", "105431.141000"],
      "InstanceNumber": [1, 2, 3, 4, 5, 6, 7, 8, 9, 10, 11, 12, 13, 14, 15, 16, 17, 18, 19, 20, 21, 22, 23, 24, 25, 26, 27, 28, 29, 30, 31, 32, 33, 34, 35, 36, 37, 38, 39, 40, 41, 42, 43, 44, 45, 46, 47, 48, 49, 50, 51, 52, 53, 54, 55, 56, 57, 58, 59, 60, 61, 62, 63, 64, 65, 66, 67, 68, 69, 70, 71, 72, 73, 74, 75, 76, 77, 78, 79, 80, 81, 82, 83, 84, 85, 86, 87, 88, 89, 90, 91, 92, 93, 94, 95, 96, 97, 98, 99, 100, 101, 102, 103, 104, 105, 106, 107, 108, 109, 110, 111, 112, 113, 114, 115, 116, 117, 118, 119, 120, 121, 122, 123, 124, 125, 126, 127, 128, 129, 130, 131, 132, 133, 134, 135, 136, 137, 138, 139, 140, 141, 142, 143, 144, 145, 146, 147, 148, 149, 150, 151, 152, 153, 154, 155, 156, 157, 158, 159, 160, 161, 162, 163, 164, 165, 166, 167, 168, 169, 170, 171, 172, 173, 174, 175, 176, 177, 178, 179, 180, 181, 182, 183, 184, 185, 186, 187, 188, 189, 190],
      "LargestImagePixelValue": [43390, 42326, 41965, 41675, 41693, 41946, 42023, 42380, 41405, 41197, 41680, 41865, 42680, 41624, 41195, 40606, 41357, 42107, 40992, 42071, 40620, 43015, 41041, 41612, 41585, 41528, 41548, 42077, 42433, 41625, 41953, 42337, 42986, 41801, 43154, 42261, 41564, 41885, 42393, 40796, 43013, 42539, 42516, 42717, 40714, 42561, 42184, 41769, 41639, 42037, 42401, 41681, 42143, 42944, 42440, 41137, 43834, 42562, 43946, 43300, 43000, 43019, 41342, 43479, 41399, 42696, 41287, 43277, 42286, 43472, 42588, 43629, 41794, 43854, 42946, 43778, 43227, 43087, 42385, 42417, 43073, 44122, 42505, 43678, 42135, 44125, 41647, 43308, 41258, 42481, 42163, 43977, 43438, 43577, 43317, 42574, 42745, 43521, 43303, 43597, 44005, 42520, 43660, 42467, 42801, 43139, 44031, 43532, 44014, 44009, 41811, 43797, 43009, 44416, 43254, 43852, 42500, 44622, 44056, 42935, 42354, 43213, 43993, 42532, 44795, 43041, 41386, 43452, 41987, 42670, 43126, 42882, 44503, 43670, 43262, 42922, 42938, 42863, 42791, 44052, 42362, 41315, 43658, 41811, 41420, 42367, 41238, 42106, 42155, 41610, 43842, 42354, 43380, 42840, 43638, 41605, 41985, 42755, 41973, 44123, 42292, 42983, 42094, 43783, 41822, 43486, 41947, 41808, 41261, 42592, 40976, 42299, 43227, 41416, 44026, 43286, 40542, 43163, 41839, 40435, 42960, 40830, 42815, 43109, 43243, 44291, 42054, 43570, 45344, 42019],
      "WindowCenter": [11144.0, 11069.0, 11014.0, 10977.0, 10942.0, 10933.0, 10935.0, 10953.0, 10962.0, 10962.0, 10969.0, 10961.0, 10997.0, 11005.0, 11026.0, 11018.0, 11002.0, 11009.0, 11010.0, 11022.0, 10990.0, 11020.0, 11002.0, 11000.0, 10991.0, 10978.0, 10984.0, 10993.0, 11006.0, 10997.0, 10993.0, 10972.0, 10983.0, 10989.0, 11002.0, 10981.0, 10968.0, 10973.0, 11006.0, 10994.0, 10999.0, 10988.0, 11006.0, 11019.0, 10991.0, 10998.0, 10984.0, 11000.0, 11015.0, 10999.0, 10983.0, 10972.0, 10996.0, 11038.0, 11040.0, 11013.0, 10994.0, 10955.0, 10968.0, 11009.0, 11034.0, 11032.0, 11003.0, 11036.0, 11011.0, 11020.0, 10992.0, 10995.0, 10973.0, 10990.0, 10981.0, 10998.0, 10976.0, 10995.0, 10975.0, 10979.0, 10966.0, 10963.0, 10994.0, 11015.0, 11031.0, 11047.0, 11004.0, 11012.0, 10975.0, 10988.0, 10970.0, 11003.0, 10973.0, 10970.0, 10938.0, 10982.0, 10999.0, 11004.0, 10982.0, 10954.0, 10934.0, 10953.0, 10955.0, 10984.0, 11004.0, 10971.0, 10974.0, 10969.0, 10981.0, 10993.0, 11000.0, 10976.0, 10987.0, 11003.0, 10981.0, 10974.0, 10960.0, 10973.0, 10983.0, 10983.0, 10955.0, 10988.0, 11013.0, 10999.0, 10978.0, 10954.0, 10972.0, 10982.0, 11007.0, 10990.0, 10976.0, 10986.0, 10978.0, 10968.0, 10954.0, 10938.0, 10950.0, 10957.0, 10953.0, 10940.0, 10933.0, 10935.0, 10958.0, 10978.0, 10986.0, 10977.0, 11000.0, 10943.0, 10961.0, 10999.0, 11000.0, 11014.0, 11018.0, 10973.0, 10963.0, 10915.0, 10902.0, 10929.0, 10959.0, 10956.0, 10949.0, 10932.0, 10917.0, 10945.0, 10950.0, 10953.0, 10972.0, 10978.0, 10957.0, 10989.0, 10982.0, 10975.0, 10971.0, 10979.0, 10964.0, 10973.0, 10975.0, 10952.0, 10984.0, 10991.0, 10948.0, 10975.0, 10956.0, 10936.0, 10987.0, 10948.0, 10940.0, 10925.0, 10918.0, 10944.0, 10926.0, 10932.0, 10953.0, 10950.0],
      "WindowWidth": [23980.0, 23782.0, 23627.0, 23537.0, 23447.0, 23418.0, 23423.0, 23462.0, 23488.0, 23488.0, 23505.0, 23478.0, 23562.0, 23585.0, 23634.0, 23622.0, 23584.0, 23591.0, 23600.0, 23626.0, 23555.0, 23613.0, 23581.0, 23574.0, 23552.0, 23521.0, 23533.0, 23552.0, 23579.0, 23561.0, 23550.0, 23500.0, 23522.0, 23541.0, 23568.0, 23522.0, 23495.0, 23505.0, 23578.0, 23560.0, 23562.0, 23537.0, 23579.0, 23610.0, 23557.0, 23561.0, 23531.0, 23565.0, 23604.0, 23567.0, 23525.0, 23506.0, 23557.0, 23650.0, 23659.0, 23598.0, 23545.0, 23460.0, 23486.0, 23581.0, 23643.0, 23636.0, 23578.0, 23645.0, 23597.0, 23613.0, 23553.0, 23555.0, 23501.0, 23537.0, 23519.0, 23554.0, 23511.0, 23544.0, 23502.0, 23508.0, 23481.0, 23472.0, 23552.0, 23600.0, 23631.0, 23665.0, 23569.0, 23585.0, 23507.0, 23529.0, 23499.0, 23574.0, 23507.0, 23496.0, 23423.0, 23516.0, 23556.0, 23570.0, 23519.0, 23455.0, 23410.0, 23454.0, 23453.0, 23526.0, 23569.0, 23496.0, 23500.0, 23489.0, 23520.0, 23541.0, 23557.0, 23504.0, 23528.0, 23562.0, 23521.0, 23499.0, 23470.0, 23491.0, 23520.0, 23519.0, 23455.0, 23527.0, 23586.0, 23561.0, 23513.0, 23455.0, 23492.0, 23523.0, 23573.0, 23538.0, 23514.0, 23527.0, 23517.0, 23491.0, 23453.0, 23418.0, 23438.0, 23460.0, 23451.0, 23425.0, 23407.0, 23411.0, 23467.0, 23510.0, 23533.0, 23517.0, 23573.0, 23436.0, 23483.0, 23567.0, 23573.0, 23596.0, 23606.0, 23507.0, 23474.0, 23368.0, 23329.0, 23400.0, 23464.0, 23464.0, 23457.0, 23405.0, 23372.0, 23429.0, 23448.0, 23450.0, 23503.0, 23509.0, 23468.0, 23536.0, 23528.0, 23511.0, 23508.0, 23518.0, 23491.0, 23508.0, 23507.0, 23462.0, 23523.0, 23545.0, 23455.0, 23514.0, 23471.0, 23425.0, 23538.0, 23456.0, 23426.0, 23384.0, 23370.0, 23423.0, 23392.0, 23402.0, 23441.0, 23444.0]
    },
    "slices": {}
  }
}