{
  "AcquisitionMatrixPE": 104,
  "AcquisitionNumber": 1,
  "AcquisitionTime": "10:43:47.330000",
  "BandwidthPerPixelPhaseEncode": 17.17,
  "BaseResolution": 104,
  "BodyPartExamined": "BRAIN",
  "CoilString": "HC1-7;NC1_2",
  "ConsistencyInfo": "N4_VE11C_LATEST_20160120",
  "ConversionSoftware": "dcm2niix",
  "ConversionSoftwareVersion": "v1.0.20190902",
  "DerivedVendorReportedEchoSpacing": 0.000560011,
  "DeviceSerialNumber": "167006",
  "DwellTime": 2.1e-06,
  "EchoTime": 0.037,
  "EchoTrainLength": 104,
  "EffectiveEchoSpacing": 0.000560011,
  "FlipAngle": 52,
  "ImageComments": "Unaliased_MB4_PE3_LB",
  "ImageOrientationPatientDICOM": [0.999554, 0.0234144, 0.0185471, -0.0106421, 0.85933, -0.51131],
  "ImageType": [
    "ORIGINAL",
    "PRIMARY",
    "P",
    "MB",
    "ND",
    "MOSAIC"
],
  "ImagingFrequency": 123.259,
  "InPlanePhaseEncodingDirectionDICOM": "COL",
  "InstitutionAddress": "Chemin_Queen-Mary_4565_Montreal_District_CA_H3W_1W5",
  "InstitutionName": "IUGM",
  "InstitutionalDepartmentName": "Department",
  "MRAcquisitionType": "2D",
  "MagneticFieldStrength": 3,
  "Manufacturer": "Siemens",
  "ManufacturersModelName": "Prisma_fit",
  "Modality": "MR",
  "MultibandAccelerationFactor": 4,
  "PartialFourier": 1,
  "PatientPosition": "HFS",
  "PercentPhaseFOV": 100,
  "PhaseEncodingDirection": "j",
  "PhaseEncodingSteps": 104,
  "PhaseResolution": 1,
  "PixelBandwidth": 2290,
  "ProcedureStepDescription": "memory_things",
  "ProtocolName": "func_task-things_run-1",
  "PulseSequenceDetails": "%CustomerSeq%_cmrr_mbep2d_bold",
  "ReceiveCoilActiveElements": "HC1-7;NC1,2",
  "ReceiveCoilName": "HeadNeck_64",
  "ReconMatrixPE": 104,
  "RepetitionTime": 1.49,
  "SAR": 0.0559071,
  "ScanOptions": "FS",
  "ScanningSequence": "EP",
  "SequenceName": "epfid2d1_104",
  "SequenceVariant": "SK_SS",
  "SeriesDescription": "func_task-things_run-1",
  "SeriesNumber": 11,
  "ShimSetting": [618, -7166, -8863, 309, 14, -143, -67, -26],
  "SliceThickness": 2,
  "SliceTiming": [0, 0.785, 0.0975, 0.8825, 0.1975, 0.98, 0.295, 1.0775, 0.3925, 1.175, 0.49, 1.275, 0.5875, 1.3725, 0.685, 0, 0.785, 0.0975, 0.8825, 0.1975, 0.98, 0.295, 1.0775, 0.3925, 1.175, 0.49, 1.275, 0.5875, 1.3725, 0.685, 0, 0.785, 0.0975, 0.8825, 0.1975, 0.98, 0.295, 1.0775, 0.3925, 1.175, 0.49, 1.275, 0.5875, 1.3725, 0.685, 0, 0.785, 0.0975, 0.8825, 0.1975, 0.98, 0.295, 1.0775, 0.3925, 1.175, 0.49, 1.275, 0.5875, 1.3725, 0.685],
  "SoftwareVersions": "syngo_MR_E11",
  "SpacingBetweenSlices": 2,
  "StationName": "MRC35049",
  "TaskName": "things",
  "TotalReadoutTime": 0.0576811,
  "TxRefAmp": 288.077,
  "WipMemBlock": "34f3747d-932b-431c-b3a3-077fd2a91311||Sequence: R016 ve11c/master r/e634e98; Dec 19 2017 11:00:25 by eja",
  "dcmmeta_affine": [
    [-1.9991075992584229, -0.021284285932779312, 0.05582019314169884, 106.71036529541016],
    [-0.04682881757616997, 1.7186603546142578, -1.0217698812484741, -47.83966827392578],
    [0.037094153463840485, 1.0226209163665771, 1.7183918952941895, -98.86241912841797],
    [0.0, 0.0, 0.0, 1.0]
],
  "dcmmeta_reorient_transform": [
    [0.0, -1.0, 0.0, 103.0],
    [1.0, 0.0, 0.0, 0.0],
    [0.0, 0.0, 1.0, 0.0],
    [0.0, 0.0, 0.0, 1.0]
],
  "dcmmeta_shape": [104, 104, 60, 190],
  "dcmmeta_slice_dim": 2,
  "dcmmeta_version": 0.6,
  "global": {
    "const": {
      "AcquisitionMatrix": [104, 0, 0, 104],
      "AngioFlag": "N",
      "BitsAllocated": 16,
      "BitsStored": 16,
      "BodyPartExamined": "BRAIN",
      "Columns": 832,
      "EchoNumbers": 1,
      "EchoTime": 37.0,
      "EchoTrainLength": 104,
      "FlipAngle": 52.0,
      "HighBit": 15,
      "ImageOrientationPatient": [0.99955378612977, 0.02341440910115, 0.01854707740007, -0.0106421429619, 0.85933019063001, -0.511310442163],
      "ImagePositionPatient": [-824.44576320819, -771.82041813965, 365.1992618473],
      "ImageType": [
        "ORIGINAL",
        "PRIMARY",
        "P",
        "MB",
        "ND",
        "MOSAIC"
],
      "ImagedNucleus": "1H",
      "ImagingFrequency": 123.258942,
      "InPlanePhaseEncodingDirection": "COL",
      "LargestImagePixelValue": 4095,
      "MRAcquisitionType": "2D",
      "MagneticFieldStrength": 3.0,
      "Manufacturer": "SIEMENS",
      "ManufacturerModelName": "Prisma_fit",
      "Modality": "MR",
      "NumberOfAverages": 1.0,
      "NumberOfPhaseEncodingSteps": 104,
      "PercentPhaseFieldOfView": 100.0,
      "PercentSampling": 100.0,
      "PerformedProcedureStepStartTime": "102855.428000",
      "PhotometricInterpretation": "MONOCHROME2",
      "PixelBandwidth": 2290.0,
      "PixelRepresentation": 0,
      "PixelSpacing": [2.0, 2.0],
      "ProtocolName": "func_task-things_run-1",
      "RepetitionTime": 1490.0,
      "RescaleIntercept": -4096.0,
      "RescaleSlope": 2.0,
      "RescaleType": "US",
      "Rows": 832,
      "SAR": 0.05590707027027,
      "SamplesPerPixel": 1,
      "ScanOptions": "FS",
      "ScanningSequence": "EP",
      "SequenceName": "epfid2d1_104",
      "SequenceVariant": [
        "SK",
        "SS"
],
      "SeriesDescription": "func_task-things_run-1",
      "SeriesNumber": 11,
      "SeriesTime": "104511.694000",
      "SliceLocation": -57.523325540238,
      "SliceThickness": 2.0,
      "SmallestImagePixelValue": 0,
      "SoftwareVersions": "syngo MR E11",
      "SpacingBetweenSlices": 2.0000000257831,
      "SpecificCharacterSet": "ISO_IR 100",
      "StudyID": "1",
      "StudyTime": "102855.355000",
      "TransmitCoilName": "Body",
      "VariableFlipAngleFlag": "N",
      "WindowCenterWidthExplanation": "Algo1",
      "dBdt": 0.0},
    "slices": {}
  },
  "time": {
    "samples": {
      "AcquisitionNumber": [1, 2, 3, 4, 5, 6, 7, 8, 9, 10, 11, 12, 13, 14, 15, 16, 17, 18, 19, 20, 21, 22, 23, 24, 25, 26, 27, 28, 29, 30, 31, 32, 33, 34, 35, 36, 37, 38, 39, 40, 41, 42, 43, 44, 45, 46, 47, 48, 49, 50, 51, 52, 53, 54, 55, 56, 57, 58, 59, 60, 61, 62, 63, 64, 65, 66, 67, 68, 69, 70, 71, 72, 73, 74, 75, 76, 77, 78, 79, 80, 81, 82, 83, 84, 85, 86, 87, 88, 89, 90, 91, 92, 93, 94, 95, 96, 97, 98, 99, 100, 101, 102, 103, 104, 105, 106, 107, 108, 109, 110, 111, 112, 113, 114, 115, 116, 117, 118, 119, 120, 121, 122, 123, 124, 125, 126, 127, 128, 129, 130, 131, 132, 133, 134, 135, 136, 137, 138, 139, 140, 141, 142, 143, 144, 145, 146, 147, 148, 149, 150, 151, 152, 153, 154, 155, 156, 157, 158, 159, 160, 161, 162, 163, 164, 165, 166, 167, 168, 169, 170, 171, 172, 173, 174, 175, 176, 177, 178, 179, 180, 181, 182, 183, 184, 185, 186, 187, 188, 189, 190],
      "AcquisitionTime": ["104347.330000", "104348.820000", "104350.310000", "104351.800000", "104353.290000", "104354.780000", "104356.270000", "104357.760000", "104359.250000", "104400.740000", "104402.230000", "104403.720000", "104405.210000", "104406.700000", "104408.190000", "104409.680000", "104411.170000", "104412.660000", "104414.150000", "104415.640000", "104417.130000", "104418.620000", "104420.110000", "104421.600000", "104423.090000", "104424.580000", "104426.070000", "104427.560000", "104429.050000", "104430.540000", "104432.030000", "104433.520000", "104435.010000", "104436.500000", "104437.990000", "104439.480000", "104440.970000", "104442.460000", "104443.950000", "104445.440000", "104446.930000", "104448.420000", "104449.910000", "104451.400000", "104452.890000", "104454.380000", "104455.870000", "104457.360000", "104458.850000", "104500.340000", "104501.830000", "104503.320000", "104504.810000", "104506.300000", "104507.790000", "104509.280000", "104510.770000", "104512.260000", "104513.750000", "104515.240000", "104516.730000", "104518.220000", "104519.710000", "104521.200000", "104522.690000", "104524.180000", "104525.670000", "104527.160000", "104528.650000", "104530.140000", "104531.630000", "104533.120000", "104534.610000", "104536.100000", "104537.590000", "104539.080000", "104540.570000", "104542.060000", "104543.550000", "104545.040000", "104546.530000", "104548.020000", "104549.510000", "104551.000000", "104552.490000", "104553.980000", "104555.470000", "104556.960000", "104558.450000", "104559.940000", "104601.430000", "104602.920000", "104604.410000", "104605.900000", "104607.390000", "104608.880000", "104610.370000", "104611.860000", "104613.350000", "104614.840000", "104616.330000", "104617.820000", "104619.310000", "104620.800000", "104622.290000", "104623.780000", "104625.270000", "104626.760000", "104628.250000", "104629.740000", "104631.230000", "104632.720000", "104634.210000", "104635.700000", "104637.190000", "104638.680000", "104640.170000", "104641.660000", "104643.150000", "104644.640000", "104646.130000", "104647.620000", "104649.110000", "104650.600000", "104652.090000", "104653.580000", "104655.070000", "104656.560000", "104658.050000", "104659.540000", "104701.030000", "104702.520000", "104704.010000", "104705.500000", "104706.990000", "104708.480000", "104709.970000", "104711.460000", "104712.950000", "104714.440000", "104715.930000", "104717.420000", "104718.910000", "104720.400000", "104721.890000", "104723.380000", "104724.870000", "104726.360000", "104727.850000", "104729.340000", "104730.830000", "104732.320000", "104733.810000", "104735.300000", "104736.790000", "104738.280000", "104739.770000", "104741.260000", "104742.750000", "104744.240000", "104745.730000", "104747.220000", "104748.710000", "104750.200000", "104751.690000", "104753.180000", "104754.670000", "104756.160000", "104757.650000", "104759.140000", "104800.630000", "104802.120000", "104803.610000", "104805.100000", "104806.590000", "104808.080000", "104809.570000", "104811.060000", "104812.550000", "104814.040000", "104815.530000", "104817.020000", "104818.510000", "104820.000000", "104821.490000", "104822.980000", "104824.470000", "104825.960000", "104827.450000", "104828.940000"],
      "ContentTime": ["104511.697000", "104511.700000", "104511.702000", "104511.705000", "104511.707000", "104511.710000", "104511.712000", "104511.715000", "104511.718000", "104511.720000", "104511.723000", "104511.725000", "104511.728000", "104511.730000", "104511.733000", "104511.736000", "104511.738000", "104511.741000", "104511.743000", "104511.746000", "104511.748000", "104511.751000", "104511.753000", "104511.756000", "104511.759000", "104511.761000", "104511.764000", "104531.105000", "104531.108000", "104531.110000", "104531.113000", "104531.116000", "104531.118000", "104531.121000", "104531.123000", "104531.126000", "104531.128000", "104531.131000", "104531.134000", "104531.136000", "104531.139000", "104531.141000", "104531.144000", "104531.146000", "104531.151000", "104531.153000", "104531.156000", "104551.093000", "104551.096000", "104551.098000", "104551.107000", "104551.110000", "104551.113000", "104551.115000", "104551.119000", "104551.122000", "104551.125000", "104551.129000", "104551.131000", "104551.134000", "104551.137000", "104551.140000", "104551.143000", "104551.145000", "104551.148000", "104551.150000", "104551.153000", "104611.115000", "104611.117000", "104611.120000", "104611.123000", "104611.125000", "104611.128000", "104611.130000", "104611.133000", "104611.135000", "104611.138000", "104611.141000", "104611.143000", "104611.146000", "104611.148000", "104611.151000", "104611.154000", "104611.156000", "104611.159000", "104611.161000", "104611.164000", "104611.166000", "104631.102000", "104631.105000", "104631.108000", "104631.110000", "104631.113000", "104631.115000", "104631.118000", "104631.120000", "104631.123000", "104631.136000", "104631.139000", "104631.141000", "104631.144000", "104631.147000", "104631.149000", "104631.152000", "104631.154000", "104631.157000", "104631.160000", "104631.162000", "104711.150000", "104711.152000", "104711.155000", "104711.158000", "104711.160000", "104711.163000", "104711.166000", "104711.168000", "104711.171000", "104711.173000", "104711.176000", "104711.179000", "104711.181000", "104711.184000", "104711.186000", "104711.189000", "104711.191000", "104711.194000", "104711.197000", "104711.199000", "104711.202000", "104711.205000", "104711.207000", "104711.210000", "104711.212000", "104711.215000", "104711.218000", "104711.220000", "104751.130000", "104751.132000", "104751.144000", "104751.146000", "104751.149000", "104751.152000", "104751.154000", "104751.157000", "104751.159000", "104751.162000", "104751.164000", "104751.167000", "104751.170000", "104751.172000", "104751.175000", "104751.177000", "104751.180000", "104751.182000", "104751.185000", "104751.188000", "104751.190000", "104751.193000", "104751.196000", "104751.198000", "104751.201000", "104751.203000", "104751.206000", "104831.135000", "104831.138000", "104831.144000", "104831.147000", "104831.150000", "104831.154000", "104831.156000", "104831.159000", "104831.162000", "104831.165000", "104831.167000", "104831.170000", "104831.173000", "104831.177000", "104831.179000", "104831.182000", "104831.185000", "104831.188000", "104831.193000", "104831.197000", "104831.200000", "104831.203000", "104831.207000", "104831.210000", "104831.213000", "104831.215000", "104831.332000"],
      "InstanceCreationTime": ["104511.697000", "104511.700000", "104511.702000", "104511.705000", "104511.707000", "104511.710000", "104511.712000", "104511.715000", "104511.718000", "104511.720000", "104511.723000", "104511.725000", "104511.728000", "104511.730000", "104511.733000", "104511.736000", "104511.738000", "104511.741000", "104511.743000", "104511.746000", "104511.748000", "104511.751000", "104511.753000", "104511.756000", "104511.759000", "104511.761000", "104511.764000", "104531.105000", "104531.108000", "104531.110000", "104531.113000", "104531.116000", "104531.118000", "104531.121000", "104531.123000", "104531.126000", "104531.128000", "104531.131000", "104531.134000", "104531.136000", "104531.139000", "104531.141000", "104531.144000", "104531.146000", "104531.151000", "104531.153000", "104531.156000", "104551.093000", "104551.096000", "104551.098000", "104551.107000", "104551.110000", "104551.113000", "104551.115000", "104551.119000", "104551.122000", "104551.125000", "104551.129000", "104551.131000", "104551.134000", "104551.137000", "104551.140000", "104551.143000", "104551.145000", "104551.148000", "104551.150000", "104551.153000", "104611.115000", "104611.117000", "104611.120000", "104611.123000", "104611.125000", "104611.128000", "104611.130000", "104611.133000", "104611.135000", "104611.138000", "104611.141000", "104611.143000", "104611.146000", "104611.148000", "104611.151000", "104611.154000", "104611.156000", "104611.159000", "104611.161000", "104611.164000", "104611.166000", "104631.102000", "104631.105000", "104631.108000", "104631.110000", "104631.113000", "104631.115000", "104631.118000", "104631.120000", "104631.123000", "104631.136000", "104631.139000", "104631.141000", "104631.144000", "104631.147000", "104631.149000", "104631.152000", "104631.154000", "104631.157000", "104631.160000", "104631.162000", "104711.150000", "104711.152000", "104711.155000", "104711.158000", "104711.160000", "104711.163000", "104711.166000", "104711.168000", "104711.171000", "104711.173000", "104711.176000", "104711.179000", "104711.181000", "104711.184000", "104711.186000", "104711.189000", "104711.191000", "104711.194000", "104711.197000", "104711.199000", "104711.202000", "104711.205000", "104711.207000", "104711.210000", "104711.212000", "104711.215000", "104711.218000", "104711.220000", "104751.130000", "104751.132000", "104751.144000", "104751.146000", "104751.149000", "104751.152000", "104751.154000", "104751.157000", "104751.159000", "104751.162000", "104751.164000", "104751.167000", "104751.170000", "104751.172000", "104751.175000", "104751.177000", "104751.180000", "104751.182000", "104751.185000", "104751.188000", "104751.190000", "104751.193000", "104751.196000", "104751.198000", "104751.201000", "104751.203000", "104751.206000", "104831.135000", "104831.138000", "104831.144000", "104831.147000", "104831.150000", "104831.154000", "104831.156000", "104831.159000", "104831.162000", "104831.165000", "104831.167000", "104831.170000", "104831.173000", "104831.177000", "104831.179000", "104831.182000", "104831.185000", "104831.188000", "104831.193000", "104831.197000", "104831.200000", "104831.203000", "104831.207000", "104831.210000", "104831.213000", "104831.215000", "104831.332000"],
      "InstanceNumber": [1, 2, 3, 4, 5, 6, 7, 8, 9, 10, 11, 12, 13, 14, 15, 16, 17, 18, 19, 20, 21, 22, 23, 24, 25, 26, 27, 28, 29, 30, 31, 32, 33, 34, 35, 36, 37, 38, 39, 40, 41, 42, 43, 44, 45, 46, 47, 48, 49, 50, 51, 52, 53, 54, 55, 56, 57, 58, 59, 60, 61, 62, 63, 64, 65, 66, 67, 68, 69, 70, 71, 72, 73, 74, 75, 76, 77, 78, 79, 80, 81, 82, 83, 84, 85, 86, 87, 88, 89, 90, 91, 92, 93, 94, 95, 96, 97, 98, 99, 100, 101, 102, 103, 104, 105, 106, 107, 108, 109, 110, 111, 112, 113, 114, 115, 116, 117, 118, 119, 120, 121, 122, 123, 124, 125, 126, 127, 128, 129, 130, 131, 132, 133, 134, 135, 136, 137, 138, 139, 140, 141, 142, 143, 144, 145, 146, 147, 148, 149, 150, 151, 152, 153, 154, 155, 156, 157, 158, 159, 160, 161, 162, 163, 164, 165, 166, 167, 168, 169, 170, 171, 172, 173, 174, 175, 176, 177, 178, 179, 180, 181, 182, 183, 184, 185, 186, 187, 188, 189, 190],
      "WindowCenter": [4786.0, 4788.0, 4784.0, 4786.0, 4788.0, 4804.0, 4798.0, 4788.0, 4784.0, 4776.0, 4772.0, 4786.0, 4788.0, 4796.0, 4792.0, 4788.0, 4816.0, 4788.0, 4780.0, 4782.0, 4786.0, 4812.0, 4794.0, 4786.0, 4788.0, 4778.0, 4780.0, 4778.0, 4822.0, 4784.0, 4816.0, 4796.0, 4784.0, 4782.0, 4776.0, 4786.0, 4784.0, 4788.0, 4806.0, 4784.0, 4806.0, 4814.0, 4808.0, 4796.0, 4818.0, 4782.0, 4796.0, 4788.0, 4778.0, 4774.0, 4776.0, 4774.0, 4790.0, 4798.0, 4796.0, 4794.0, 4792.0, 4788.0, 4786.0, 4780.0, 4776.0, 4778.0, 4784.0, 4814.0, 4790.0, 4816.0, 4812.0, 4810.0, 4792.0, 4782.0, 4784.0, 4790.0, 4776.0, 4812.0, 4788.0, 4784.0, 4814.0, 4780.0, 4788.0, 4778.0, 4786.0, 4810.0, 4812.0, 4790.0, 4808.0, 4790.0, 4806.0, 4808.0, 4804.0, 4780.0, 4782.0, 4786.0, 4790.0, 4784.0, 4788.0, 4808.0, 4792.0, 4786.0, 4784.0, 4804.0, 4790.0, 4794.0, 4784.0, 4798.0, 4780.0, 4778.0, 4810.0, 4806.0, 4790.0, 4806.0, 4786.0, 4806.0, 4784.0, 4784.0, 4782.0, 4790.0, 4802.0, 4784.0, 4808.0, 4802.0, 4802.0, 4804.0, 4788.0, 4808.0, 4790.0, 4804.0, 4810.0, 4802.0, 4808.0, 4804.0, 4784.0, 4806.0, 4808.0, 4800.0, 4806.0, 4802.0, 4788.0, 4788.0, 4810.0, 4788.0, 4806.0, 4806.0, 4806.0, 4808.0, 4786.0, 4810.0, 4784.0, 4810.0, 4808.0, 4798.0, 4808.0, 4780.0, 4806.0, 4784.0, 4788.0, 4806.0, 4810.0, 4806.0, 4806.0, 4802.0, 4806.0, 4806.0, 4784.0, 4790.0, 4804.0, 4786.0, 4804.0, 4802.0, 4800.0, 4806.0, 4810.0, 4782.0, 4812.0, 4804.0, 4788.0, 4780.0, 4780.0, 4800.0, 4804.0, 4806.0, 4802.0, 4790.0, 4810.0, 4786.0, 4792.0, 4790.0, 4796.0, 4782.0, 4776.0, 4794.0],
      "WindowWidth": [18590.0, 18594.0, 18594.0, 18590.0, 18594.0, 18578.0, 18584.0, 18590.0, 18588.0, 18580.0, 18578.0, 18586.0, 18590.0, 18592.0, 18592.0, 18590.0, 18624.0, 18592.0, 18582.0, 18590.0, 18590.0, 18624.0, 18588.0, 18592.0, 18590.0, 18584.0, 18588.0, 18586.0, 18622.0, 18588.0, 18622.0, 18592.0, 18592.0, 18590.0, 18586.0, 18592.0, 18590.0, 18594.0, 18624.0, 18594.0, 18622.0, 18624.0, 18622.0, 18592.0, 18624.0, 18592.0, 18592.0, 18588.0, 18584.0, 18580.0, 18584.0, 18582.0, 18594.0, 18596.0, 18598.0, 18598.0, 18594.0, 18592.0, 18588.0, 18586.0, 18580.0, 18586.0, 18588.0, 18628.0, 18594.0, 18630.0, 18624.0, 18626.0, 18592.0, 18594.0, 18590.0, 18596.0, 18586.0, 18624.0, 18596.0, 18592.0, 18626.0, 18588.0, 18596.0, 18588.0, 18596.0, 18624.0, 18624.0, 18596.0, 18628.0, 18598.0, 18620.0, 18624.0, 18624.0, 18588.0, 18596.0, 18598.0, 18594.0, 18600.0, 18600.0, 18628.0, 18602.0, 18598.0, 18594.0, 18628.0, 18594.0, 18592.0, 18596.0, 18618.0, 18590.0, 18594.0, 18626.0, 18626.0, 18600.0, 18630.0, 18598.0, 18632.0, 18596.0, 18596.0, 18594.0, 18594.0, 18622.0, 18596.0, 18630.0, 18626.0, 18624.0, 18628.0, 18602.0, 18632.0, 18596.0, 18628.0, 18632.0, 18630.0, 18630.0, 18626.0, 18594.0, 18628.0, 18634.0, 18626.0, 18628.0, 18626.0, 18598.0, 18598.0, 18630.0, 18596.0, 18628.0, 18630.0, 18626.0, 18626.0, 18600.0, 18626.0, 18596.0, 18630.0, 18628.0, 18626.0, 18626.0, 18592.0, 18630.0, 18598.0, 18594.0, 18628.0, 18632.0, 18630.0, 18630.0, 18630.0, 18632.0, 18630.0, 18598.0, 18598.0, 18628.0, 18598.0, 18630.0, 18632.0, 18622.0, 18630.0, 18634.0, 18602.0, 18628.0, 18630.0, 18600.0, 18598.0, 18596.0, 18628.0, 18630.0, 18628.0, 18628.0, 18596.0, 18636.0, 18588.0, 18576.0, 18600.0, 18616.0, 18596.0, 18592.0, 18616.0]
    },
    "slices": {}
  }
}