{
  "AcquisitionMatrixPE": 104,
  "AcquisitionNumber": 1,
  "AcquisitionTime": "10:55:45.750000",
  "BandwidthPerPixelPhaseEncode": 17.17,
  "BaseResolution": 104,
  "BodyPartExamined": "BRAIN",
  "CoilString": "HC1-7;NC1_2",
  "ConsistencyInfo": "N4_VE11C_LATEST_20160120",
  "ConversionSoftware": "dcm2niix",
  "ConversionSoftwareVersion": "v1.0.20190902",
  "DerivedVendorReportedEchoSpacing": 0.000560011,
  "DeviceSerialNumber": "167006",
  "DwellTime": 2.1e-06,
  "EchoTime": 0.037,
  "EchoTrainLength": 104,
  "EffectiveEchoSpacing": 0.000560011,
  "FlipAngle": 52,
  "ImageComments": "Unaliased_MB4_PE3_LB",
  "ImageOrientationPatientDICOM": [0.999554, 0.0234144, 0.0185471, -0.0106421, 0.85933, -0.51131],
  "ImageType": [
    "ORIGINAL",
    "PRIMARY",
    "M",
    "MB",
    "ND",
    "MOSAIC"
],
  "ImagingFrequency": 123.259,
  "InPlanePhaseEncodingDirectionDICOM": "COL",
  "InstitutionAddress": "Chemin_Queen-Mary_4565_Montreal_District_CA_H3W_1W5",
  "InstitutionName": "IUGM",
  "InstitutionalDepartmentName": "Department",
  "MRAcquisitionType": "2D",
  "MagneticFieldStrength": 3,
  "Manufacturer": "Siemens",
  "ManufacturersModelName": "Prisma_fit",
  "Modality": "MR",
  "MultibandAccelerationFactor": 4,
  "PartialFourier": 1,
  "PatientPosition": "HFS",
  "PercentPhaseFOV": 100,
  "PhaseEncodingDirection": "j",
  "PhaseEncodingSteps": 104,
  "PhaseResolution": 1,
  "PixelBandwidth": 2290,
  "ProcedureStepDescription": "memory_things",
  "ProtocolName": "func_task-things_run-3",
  "PulseSequenceDetails": "%CustomerSeq%_cmrr_mbep2d_bold",
  "ReceiveCoilActiveElements": "HC1-7;NC1,2",
  "ReceiveCoilName": "HeadNeck_64",
  "ReconMatrixPE": 104,
  "RepetitionTime": 1.49,
  "SAR": 0.0559071,
  "ScanOptions": "FS",
  "ScanningSequence": "EP",
  "SequenceName": "epfid2d1_104",
  "SequenceVariant": "SK_SS",
  "SeriesDescription": "func_task-things_run-3",
  "SeriesNumber": 16,
  "ShimSetting": [618, -7166, -8863, 309, 14, -143, -67, -26],
  "SliceThickness": 2,
  "SliceTiming": [0, 0.7825, 0.0975, 0.8825, 0.195, 0.98, 0.2925, 1.0775, 0.3925, 1.175, 0.49, 1.2725, 0.5875, 1.3725, 0.685, 0, 0.7825, 0.0975, 0.8825, 0.195, 0.98, 0.2925, 1.0775, 0.3925, 1.175, 0.49, 1.2725, 0.5875, 1.3725, 0.685, 0, 0.7825, 0.0975, 0.8825, 0.195, 0.98, 0.2925, 1.0775, 0.3925, 1.175, 0.49, 1.2725, 0.5875, 1.3725, 0.685, 0, 0.7825, 0.0975, 0.8825, 0.195, 0.98, 0.2925, 1.0775, 0.3925, 1.175, 0.49, 1.2725, 0.5875, 1.3725, 0.685],
  "SoftwareVersions": "syngo_MR_E11",
  "SpacingBetweenSlices": 2,
  "StationName": "MRC35049",
  "TaskName": "things",
  "TotalReadoutTime": 0.0576811,
  "TxRefAmp": 288.077,
  "WipMemBlock": "2216efaa-12b5-4c62-84b1-a8302724edf2||Sequence: R016 ve11c/master r/e634e98; Dec 19 2017 11:00:25 by eja",
  "dcmmeta_affine": [
    [-1.9991075992584229, -0.021284285932779312, 0.05582019314169884, 106.71036529541016],
    [-0.04682881757616997, 1.7186603546142578, -1.0217698812484741, -47.83966827392578],
    [0.037094153463840485, 1.0226209163665771, 1.7183918952941895, -98.86241912841797],
    [0.0, 0.0, 0.0, 1.0]
],
  "dcmmeta_reorient_transform": [
    [0.0, -1.0, 0.0, 103.0],
    [1.0, 0.0, 0.0, 0.0],
    [0.0, 0.0, 1.0, 0.0],
    [0.0, 0.0, 0.0, 1.0]
],
  "dcmmeta_shape": [104, 104, 60, 190],
  "dcmmeta_slice_dim": 2,
  "dcmmeta_version": 0.6,
  "global": {
    "const": {
      "AcquisitionMatrix": [104, 0, 0, 104],
      "AngioFlag": "N",
      "BitsAllocated": 16,
      "BitsStored": 16,
      "BodyPartExamined": "BRAIN",
      "Columns": 832,
      "EchoNumbers": 1,
      "EchoTime": 37.0,
      "EchoTrainLength": 104,
      "FlipAngle": 52.0,
      "HighBit": 15,
      "ImageOrientationPatient": [0.99955378612977, 0.02341440910115, 0.01854707740007, -0.0106421429619, 0.85933019063001, -0.511310442163],
      "ImagePositionPatient": [-824.44576320819, -771.82041813965, 365.1992618473],
      "ImageType": [
        "ORIGINAL",
        "PRIMARY",
        "M",
        "MB",
        "ND",
        "MOSAIC"
],
      "ImagedNucleus": "1H",
      "ImagingFrequency": 123.258952,
      "InPlanePhaseEncodingDirection": "COL",
      "MRAcquisitionType": "2D",
      "MagneticFieldStrength": 3.0,
      "Manufacturer": "SIEMENS",
      "ManufacturerModelName": "Prisma_fit",
      "Modality": "MR",
      "NumberOfAverages": 1.0,
      "NumberOfPhaseEncodingSteps": 104,
      "PercentPhaseFieldOfView": 100.0,
      "PercentSampling": 100.0,
      "PerformedProcedureStepStartTime": "102855.428000",
      "PhotometricInterpretation": "MONOCHROME2",
      "PixelBandwidth": 2290.0,
      "PixelRepresentation": 0,
      "PixelSpacing": [2.0, 2.0],
      "ProtocolName": "func_task-things_run-3",
      "RepetitionTime": 1490.0,
      "Rows": 832,
      "SAR": 0.05590707027027,
      "SamplesPerPixel": 1,
      "ScanOptions": "FS",
      "ScanningSequence": "EP",
      "SequenceName": "epfid2d1_104",
      "SequenceVariant": [
        "SK",
        "SS"
],
      "SeriesDescription": "func_task-things_run-3",
      "SeriesNumber": 16,
      "SeriesTime": "105648.864000",
      "SliceLocation": -57.523325540238,
      "SliceThickness": 2.0,
      "SmallestImagePixelValue": 0,
      "SoftwareVersions": "syngo MR E11",
      "SpacingBetweenSlices": 2.0000000257831,
      "SpecificCharacterSet": "ISO_IR 100",
      "StudyID": "1",
      "StudyTime": "102855.355000",
      "TransmitCoilName": "Body",
      "VariableFlipAngleFlag": "N",
      "WindowCenterWidthExplanation": "Algo1",
      "dBdt": 0.0},
    "slices": {}
  },
  "time": {
    "samples": {
      "AcquisitionNumber": [1, 2, 3, 4, 5, 6, 7, 8, 9, 10, 11, 12, 13, 14, 15, 16, 17, 18, 19, 20, 21, 22, 23, 24, 25, 26, 27, 28, 29, 30, 31, 32, 33, 34, 35, 36, 37, 38, 39, 40, 41, 42, 43, 44, 45, 46, 47, 48, 49, 50, 51, 52, 53, 54, 55, 56, 57, 58, 59, 60, 61, 62, 63, 64, 65, 66, 67, 68, 69, 70, 71, 72, 73, 74, 75, 76, 77, 78, 79, 80, 81, 82, 83, 84, 85, 86, 87, 88, 89, 90, 91, 92, 93, 94, 95, 96, 97, 98, 99, 100, 101, 102, 103, 104, 105, 106, 107, 108, 109, 110, 111, 112, 113, 114, 115, 116, 117, 118, 119, 120, 121, 122, 123, 124, 125, 126, 127, 128, 129, 130, 131, 132, 133, 134, 135, 136, 137, 138, 139, 140, 141, 142, 143, 144, 145, 146, 147, 148, 149, 150, 151, 152, 153, 154, 155, 156, 157, 158, 159, 160, 161, 162, 163, 164, 165, 166, 167, 168, 169, 170, 171, 172, 173, 174, 175, 176, 177, 178, 179, 180, 181, 182, 183, 184, 185, 186, 187, 188, 189, 190],
      "AcquisitionTime": ["105545.750000", "105547.240000", "105548.730000", "105550.220000", "105551.710000", "105553.200000", "105554.690000", "105556.180000", "105557.670000", "105559.160000", "105600.650000", "105602.140000", "105603.630000", "105605.120000", "105606.610000", "105608.100000", "105609.590000", "105611.080000", "105612.570000", "105614.060000", "105615.550000", "105617.040000", "105618.530000", "105620.020000", "105621.510000", "105623.000000", "105624.490000", "105625.980000", "105627.470000", "105628.960000", "105630.450000", "105631.940000", "105633.430000", "105634.920000", "105636.410000", "105637.900000", "105639.390000", "105640.880000", "105642.370000", "105643.860000", "105645.350000", "105646.840000", "105648.330000", "105649.820000", "105651.310000", "105652.800000", "105654.290000", "105655.780000", "105657.270000", "105658.760000", "105700.250000", "105701.740000", "105703.230000", "105704.720000", "105706.210000", "105707.700000", "105709.190000", "105710.680000", "105712.170000", "105713.660000", "105715.150000", "105716.640000", "105718.130000", "105719.620000", "105721.110000", "105722.600000", "105724.090000", "105725.580000", "105727.070000", "105728.560000", "105730.050000", "105731.540000", "105733.030000", "105734.520000", "105736.010000", "105737.500000", "105738.990000", "105740.480000", "105741.970000", "105743.460000", "105744.950000", "105746.440000", "105747.930000", "105749.420000", "105750.910000", "105752.400000", "105753.890000", "105755.380000", "105756.870000", "105758.360000", "105759.850000", "105801.340000", "105802.830000", "105804.320000", "105805.810000", "105807.300000", "105808.790000", "105810.280000", "105811.770000", "105813.260000", "105814.750000", "105816.240000", "105817.730000", "105819.220000", "105820.710000", "105822.200000", "105823.690000", "105825.180000", "105826.670000", "105828.160000", "105829.650000", "105831.140000", "105832.630000", "105834.120000", "105835.610000", "105837.100000", "105838.590000", "105840.080000", "105841.570000", "105843.060000", "105844.550000", "105846.040000", "105847.530000", "105849.020000", "105850.510000", "105852.000000", "105853.490000", "105854.980000", "105856.470000", "105857.960000", "105859.450000", "105900.940000", "105902.430000", "105903.920000", "105905.410000", "105906.900000", "105908.390000", "105909.880000", "105911.370000", "105912.860000", "105914.350000", "105915.840000", "105917.330000", "105918.820000", "105920.310000", "105921.800000", "105923.290000", "105924.780000", "105926.270000", "105927.760000", "105929.250000", "105930.740000", "105932.230000", "105933.720000", "105935.210000", "105936.700000", "105938.190000", "105939.680000", "105941.170000", "105942.660000", "105944.150000", "105945.640000", "105947.130000", "105948.620000", "105950.110000", "105951.600000", "105953.090000", "105954.580000", "105956.070000", "105957.560000", "105959.050000", "110000.540000", "110002.030000", "110003.520000", "110005.010000", "110006.500000", "110007.990000", "110009.480000", "110010.970000", "110012.460000", "110013.950000", "110015.440000", "110016.930000", "110018.420000", "110019.910000", "110021.400000", "110022.890000", "110024.380000", "110025.870000", "110027.360000"],
      "ContentTime": ["105648.867000", "105648.871000", "105648.874000", "105648.878000", "105648.889000", "105648.893000", "105648.896000", "105648.900000", "105648.903000", "105648.906000", "105708.823000", "105708.827000", "105708.831000", "105708.834000", "105708.837000", "105708.846000", "105708.849000", "105708.852000", "105708.856000", "105708.859000", "105708.863000", "105708.866000", "105708.869000", "105708.873000", "105708.876000", "105708.880000", "105708.883000", "105708.887000", "105708.890000", "105708.893000", "105728.823000", "105728.827000", "105728.831000", "105728.834000", "105728.837000", "105728.841000", "105728.844000", "105728.848000", "105728.851000", "105728.855000", "105728.858000", "105728.861000", "105728.865000", "105728.868000", "105728.872000", "105728.875000", "105728.878000", "105728.882000", "105728.886000", "105728.889000", "105748.823000", "105748.827000", "105748.840000", "105748.844000", "105748.847000", "105748.850000", "105748.854000", "105748.857000", "105748.865000", "105748.869000", "105748.872000", "105748.875000", "105748.879000", "105748.882000", "105748.886000", "105748.889000", "105748.892000", "105748.896000", "105748.899000", "105748.903000", "105748.906000", "105808.823000", "105808.903000", "105808.906000", "105808.909000", "105808.913000", "105808.916000", "105808.920000", "105808.923000", "105808.927000", "105808.930000", "105808.933000", "105808.937000", "105808.940000", "105808.944000", "105808.947000", "105808.950000", "105808.954000", "105808.957000", "105808.961000", "105808.964000", "105848.822000", "105848.826000", "105848.830000", "105848.833000", "105848.837000", "105848.840000", "105848.843000", "105848.847000", "105848.850000", "105848.854000", "105848.857000", "105848.861000", "105848.864000", "105848.868000", "105848.871000", "105848.875000", "105848.878000", "105848.881000", "105848.885000", "105848.888000", "105848.892000", "105848.895000", "105848.898000", "105848.902000", "105848.905000", "105848.909000", "105848.912000", "105848.916000", "105848.919000", "105848.922000", "105848.926000", "105928.823000", "105928.827000", "105928.831000", "105928.834000", "105928.838000", "105928.841000", "105928.845000", "105928.848000", "105928.851000", "105928.855000", "105928.858000", "105928.862000", "105928.865000", "105928.869000", "105928.872000", "105928.876000", "105928.879000", "105928.883000", "105928.886000", "105928.889000", "105928.893000", "105928.896000", "105928.900000", "105928.903000", "105928.906000", "105928.910000", "105928.913000", "110008.823000", "110008.827000", "110008.830000", "110008.856000", "110008.859000", "110008.862000", "110008.866000", "110008.869000", "110008.873000", "110008.876000", "110008.889000", "110008.893000", "110008.896000", "110008.900000", "110008.903000", "110008.907000", "110008.910000", "110008.914000", "110008.917000", "110008.921000", "110008.924000", "110008.927000", "110008.931000", "110008.934000", "110008.938000", "110008.941000", "110008.945000", "110029.287000", "110029.291000", "110029.294000", "110029.298000", "110029.301000", "110029.305000", "110029.308000", "110029.312000", "110029.315000", "110029.319000", "110029.322000", "110029.326000", "110029.329000", "110029.333000"],
      "InstanceCreationTime": ["105648.867000", "105648.871000", "105648.874000", "105648.878000", "105648.889000", "105648.893000", "105648.896000", "105648.900000", "105648.903000", "105648.906000", "105708.823000", "105708.827000", "105708.831000", "105708.834000", "105708.837000", "105708.846000", "105708.849000", "105708.852000", "105708.856000", "105708.859000", "105708.863000", "105708.866000", "105708.869000", "105708.873000", "105708.876000", "105708.880000", "105708.883000", "105708.887000", "105708.890000", "105708.893000", "105728.823000", "105728.827000", "105728.831000", "105728.834000", "105728.837000", "105728.841000", "105728.844000", "105728.848000", "105728.851000", "105728.855000", "105728.858000", "105728.861000", "105728.865000", "105728.868000", "105728.872000", "105728.875000", "105728.878000", "105728.882000", "105728.886000", "105728.889000", "105748.823000", "105748.827000", "105748.840000", "105748.844000", "105748.847000", "105748.850000", "105748.854000", "105748.857000", "105748.865000", "105748.869000", "105748.872000", "105748.875000", "105748.879000", "105748.882000", "105748.886000", "105748.889000", "105748.892000", "105748.896000", "105748.899000", "105748.903000", "105748.906000", "105808.823000", "105808.903000", "105808.906000", "105808.909000", "105808.913000", "105808.916000", "105808.920000", "105808.923000", "105808.927000", "105808.930000", "105808.933000", "105808.937000", "105808.940000", "105808.944000", "105808.947000", "105808.950000", "105808.954000", "105808.957000", "105808.961000", "105808.964000", "105848.822000", "105848.826000", "105848.830000", "105848.833000", "105848.837000", "105848.840000", "105848.843000", "105848.847000", "105848.850000", "105848.854000", "105848.857000", "105848.861000", "105848.864000", "105848.868000", "105848.871000", "105848.875000", "105848.878000", "105848.881000", "105848.885000", "105848.888000", "105848.892000", "105848.895000", "105848.898000", "105848.902000", "105848.905000", "105848.909000", "105848.912000", "105848.916000", "105848.919000", "105848.922000", "105848.926000", "105928.823000", "105928.827000", "105928.831000", "105928.834000", "105928.838000", "105928.841000", "105928.845000", "105928.848000", "105928.851000", "105928.855000", "105928.858000", "105928.862000", "105928.865000", "105928.869000", "105928.872000", "105928.876000", "105928.879000", "105928.883000", "105928.886000", "105928.889000", "105928.893000", "105928.896000", "105928.900000", "105928.903000", "105928.906000", "105928.910000", "105928.913000", "110008.823000", "110008.827000", "110008.830000", "110008.856000", "110008.859000", "110008.862000", "110008.866000", "110008.869000", "110008.873000", "110008.876000", "110008.889000", "110008.893000", "110008.896000", "110008.900000", "110008.903000", "110008.907000", "110008.910000", "110008.914000", "110008.917000", "110008.921000", "110008.924000", "110008.927000", "110008.931000", "110008.934000", "110008.938000", "110008.941000", "110008.945000", "110029.287000", "110029.291000", "110029.294000", "110029.298000", "110029.301000", "110029.305000", "110029.308000", "110029.312000", "110029.315000", "110029.319000", "110029.322000", "110029.326000", "110029.329000", "110029.333000"],
      "InstanceNumber": [1, 2, 3, 4, 5, 6, 7, 8, 9, 10, 11, 12, 13, 14, 15, 16, 17, 18, 19, 20, 21, 22, 23, 24, 25, 26, 27, 28, 29, 30, 31, 32, 33, 34, 35, 36, 37, 38, 39, 40, 41, 42, 43, 44, 45, 46, 47, 48, 49, 50, 51, 52, 53, 54, 55, 56, 57, 58, 59, 60, 61, 62, 63, 64, 65, 66, 67, 68, 69, 70, 71, 72, 73, 74, 75, 76, 77, 78, 79, 80, 81, 82, 83, 84, 85, 86, 87, 88, 89, 90, 91, 92, 93, 94, 95, 96, 97, 98, 99, 100, 101, 102, 103, 104, 105, 106, 107, 108, 109, 110, 111, 112, 113, 114, 115, 116, 117, 118, 119, 120, 121, 122, 123, 124, 125, 126, 127, 128, 129, 130, 131, 132, 133, 134, 135, 136, 137, 138, 139, 140, 141, 142, 143, 144, 145, 146, 147, 148, 149, 150, 151, 152, 153, 154, 155, 156, 157, 158, 159, 160, 161, 162, 163, 164, 165, 166, 167, 168, 169, 170, 171, 172, 173, 174, 175, 176, 177, 178, 179, 180, 181, 182, 183, 184, 185, 186, 187, 188, 189, 190],
      "LargestImagePixelValue": [42978, 41910, 41295, 41546, 41280, 41017, 41036, 41696, 40521, 41036, 39999, 40718, 42637, 40148, 41402, 41684, 40139, 40864, 41228, 40277, 41754, 41480, 40682, 41819, 39835, 40981, 40835, 40824, 40619, 40474, 40511, 40372, 40434, 41228, 41068, 41235, 41473, 41439, 41605, 42207, 40545, 41251, 41514, 40935, 40920, 41709, 41068, 40945, 41240, 40711, 40587, 40747, 41168, 41869, 40889, 40986, 41193, 41215, 41881, 40741, 41285, 41005, 40833, 41379, 41480, 41301, 40876, 41256, 41320, 40726, 41395, 40661, 40913, 41073, 40828, 40904, 41142, 40809, 40797, 41007, 41454, 41082, 40434, 41577, 40827, 41039, 40523, 40728, 41181, 40648, 41530, 40612, 40765, 41606, 40878, 41453, 40847, 41058, 40532, 41327, 40120, 40643, 40846, 40598, 41409, 40618, 41243, 40846, 40928, 40173, 41680, 40406, 41121, 41197, 40492, 40725, 40497, 40819, 41261, 40994, 40836, 41065, 40530, 41051, 41424, 40386, 40485, 41113, 40821, 41249, 40854, 41536, 40728, 40422, 39976, 40386, 41179, 40253, 39490, 40239, 41418, 40061, 40047, 39780, 40145, 39864, 40404, 39686, 39647, 40532, 39572, 40578, 40039, 40227, 40408, 40108, 39611, 40499, 40685, 40240, 40640, 39738, 40920, 40123, 41207, 39740, 40225, 39840, 39860, 39741, 39945, 40118, 39851, 40173, 39975, 40115, 40119, 39854, 40125, 40037, 39947, 39934, 39911, 39696, 39880, 40596, 42467, 43042, 42261, 41003],
      "WindowCenter": [11069.0, 10982.0, 10984.0, 10996.0, 10960.0, 10958.0, 10932.0, 10949.0, 10926.0, 10913.0, 10873.0, 10888.0, 10911.0, 10893.0, 10910.0, 10889.0, 10840.0, 10855.0, 10889.0, 10869.0, 10896.0, 10891.0, 10867.0, 10875.0, 10857.0, 10859.0, 10867.0, 10857.0, 10837.0, 10857.0, 10872.0, 10863.0, 10860.0, 10885.0, 10861.0, 10897.0, 10911.0, 10908.0, 10943.0, 10948.0, 10920.0, 10932.0, 10940.0, 10899.0, 10853.0, 10867.0, 10884.0, 10931.0, 10904.0, 10867.0, 10859.0, 10904.0, 10922.0, 10903.0, 10877.0, 10857.0, 10871.0, 10928.0, 10906.0, 10908.0, 10883.0, 10892.0, 10915.0, 10909.0, 10896.0, 10869.0, 10873.0, 10880.0, 10910.0, 10889.0, 10904.0, 10864.0, 10871.0, 10858.0, 10887.0, 10910.0, 10862.0, 10856.0, 10890.0, 10896.0, 10934.0, 10927.0, 10925.0, 10917.0, 10875.0, 10839.0, 10820.0, 10841.0, 10859.0, 10871.0, 10909.0, 10869.0, 10872.0, 10874.0, 10860.0, 10862.0, 10878.0, 10827.0, 10846.0, 10894.0, 10851.0, 10853.0, 10850.0, 10853.0, 10878.0, 10875.0, 10885.0, 10881.0, 10861.0, 10858.0, 10891.0, 10856.0, 10860.0, 10859.0, 10851.0, 10851.0, 10862.0, 10882.0, 10854.0, 10859.0, 10837.0, 10873.0, 10873.0, 10870.0, 10877.0, 10849.0, 10829.0, 10844.0, 10860.0, 10862.0, 10859.0, 10856.0, 10829.0, 10790.0, 10824.0, 10839.0, 10817.0, 10796.0, 10806.0, 10828.0, 10818.0, 10806.0, 10767.0, 10773.0, 10781.0, 10797.0, 10813.0, 10816.0, 10814.0, 10839.0, 10834.0, 10811.0, 10802.0, 10791.0, 10784.0, 10792.0, 10807.0, 10808.0, 10799.0, 10780.0, 10791.0, 10800.0, 10821.0, 10831.0, 10857.0, 10830.0, 10825.0, 10817.0, 10812.0, 10793.0, 10789.0, 10777.0, 10773.0, 10777.0, 10772.0, 10766.0, 10770.0, 10769.0, 10773.0, 10771.0, 10774.0, 10768.0, 10780.0, 10774.0, 10792.0, 10863.0, 10860.0, 10831.0, 10786.0, 10775.0],
      "WindowWidth": [23807.0, 23572.0, 23556.0, 23569.0, 23482.0, 23473.0, 23414.0, 23455.0, 23401.0, 23366.0, 23277.0, 23310.0, 23359.0, 23329.0, 23364.0, 23314.0, 23214.0, 23241.0, 23318.0, 23278.0, 23330.0, 23319.0, 23267.0, 23279.0, 23246.0, 23246.0, 23263.0, 23241.0, 23195.0, 23241.0, 23277.0, 23256.0, 23249.0, 23305.0, 23250.0, 23331.0, 23368.0, 23357.0, 23441.0, 23451.0, 23392.0, 23413.0, 23434.0, 23339.0, 23234.0, 23256.0, 23301.0, 23407.0, 23347.0, 23263.0, 23246.0, 23349.0, 23387.0, 23342.0, 23287.0, 23241.0, 23271.0, 23401.0, 23348.0, 23357.0, 23303.0, 23316.0, 23372.0, 23361.0, 23327.0, 23268.0, 23280.0, 23294.0, 23360.0, 23315.0, 23347.0, 23259.0, 23273.0, 23245.0, 23307.0, 23369.0, 23248.0, 23234.0, 23315.0, 23327.0, 23414.0, 23405.0, 23400.0, 23375.0, 23285.0, 23197.0, 23155.0, 23203.0, 23238.0, 23271.0, 23355.0, 23268.0, 23274.0, 23276.0, 23247.0, 23248.0, 23289.0, 23172.0, 23213.0, 23322.0, 23233.0, 23231.0, 23226.0, 23235.0, 23289.0, 23290.0, 23307.0, 23294.0, 23247.0, 23247.0, 23313.0, 23241.0, 23243.0, 23242.0, 23225.0, 23226.0, 23255.0, 23299.0, 23229.0, 23246.0, 23192.0, 23272.0, 23276.0, 23269.0, 23288.0, 23231.0, 23179.0, 23210.0, 23249.0, 23252.0, 23248.0, 23236.0, 23181.0, 23093.0, 23168.0, 23211.0, 23149.0, 23103.0, 23133.0, 23180.0, 23149.0, 23131.0, 23038.0, 23054.0, 23070.0, 23110.0, 23140.0, 23158.0, 23152.0, 23197.0, 23195.0, 23145.0, 23123.0, 23100.0, 23080.0, 23099.0, 23139.0, 23135.0, 23114.0, 23077.0, 23096.0, 23122.0, 23166.0, 23196.0, 23246.0, 23189.0, 23179.0, 23158.0, 23149.0, 23104.0, 23090.0, 23064.0, 23058.0, 23064.0, 23061.0, 23047.0, 23051.0, 23047.0, 23061.0, 23051.0, 23066.0, 23046.0, 23074.0, 23060.0, 23103.0, 23262.0, 23254.0, 23181.0, 23078.0, 23058.0]
    },
    "slices": {}
  }
}