{
  "AcquisitionMatrixPE": 104,
  "AcquisitionNumber": 1,
  "AcquisitionTime": "10:55:45.750000",
  "BandwidthPerPixelPhaseEncode": 17.17,
  "BaseResolution": 104,
  "BodyPartExamined": "BRAIN",
  "CoilString": "HC1-7;NC1_2",
  "ConsistencyInfo": "N4_VE11C_LATEST_20160120",
  "ConversionSoftware": "dcm2niix",
  "ConversionSoftwareVersion": "v1.0.20190902",
  "DerivedVendorReportedEchoSpacing": 0.000560011,
  "DeviceSerialNumber": "167006",
  "DwellTime": 2.1e-06,
  "EchoTime": 0.037,
  "EchoTrainLength": 104,
  "EffectiveEchoSpacing": 0.000560011,
  "FlipAngle": 52,
  "ImageComments": "Unaliased_MB4_PE3_LB",
  "ImageOrientationPatientDICOM": [0.999554, 0.0234144, 0.0185471, -0.0106421, 0.85933, -0.51131],
  "ImageType": [
    "ORIGINAL",
    "PRIMARY",
    "P",
    "MB",
    "ND",
    "MOSAIC"
],
  "ImagingFrequency": 123.259,
  "InPlanePhaseEncodingDirectionDICOM": "COL",
  "InstitutionAddress": "Chemin_Queen-Mary_4565_Montreal_District_CA_H3W_1W5",
  "InstitutionName": "IUGM",
  "InstitutionalDepartmentName": "Department",
  "MRAcquisitionType": "2D",
  "MagneticFieldStrength": 3,
  "Manufacturer": "Siemens",
  "ManufacturersModelName": "Prisma_fit",
  "Modality": "MR",
  "MultibandAccelerationFactor": 4,
  "PartialFourier": 1,
  "PatientPosition": "HFS",
  "PercentPhaseFOV": 100,
  "PhaseEncodingDirection": "j",
  "PhaseEncodingSteps": 104,
  "PhaseResolution": 1,
  "PixelBandwidth": 2290,
  "ProcedureStepDescription": "memory_things",
  "ProtocolName": "func_task-things_run-3",
  "PulseSequenceDetails": "%CustomerSeq%_cmrr_mbep2d_bold",
  "ReceiveCoilActiveElements": "HC1-7;NC1,2",
  "ReceiveCoilName": "HeadNeck_64",
  "ReconMatrixPE": 104,
  "RepetitionTime": 1.49,
  "SAR": 0.0559071,
  "ScanOptions": "FS",
  "ScanningSequence": "EP",
  "SequenceName": "epfid2d1_104",
  "SequenceVariant": "SK_SS",
  "SeriesDescription": "func_task-things_run-3",
  "SeriesNumber": 17,
  "ShimSetting": [618, -7166, -8863, 309, 14, -143, -67, -26],
  "SliceThickness": 2,
  "SliceTiming": [0, 0.7825, 0.0975, 0.8825, 0.195, 0.98, 0.2925, 1.0775, 0.3925, 1.175, 0.49, 1.2725, 0.5875, 1.3725, 0.685, 0, 0.7825, 0.0975, 0.8825, 0.195, 0.98, 0.2925, 1.0775, 0.3925, 1.175, 0.49, 1.2725, 0.5875, 1.3725, 0.685, 0, 0.7825, 0.0975, 0.8825, 0.195, 0.98, 0.2925, 1.0775, 0.3925, 1.175, 0.49, 1.2725, 0.5875, 1.3725, 0.685, 0, 0.7825, 0.0975, 0.8825, 0.195, 0.98, 0.2925, 1.0775, 0.3925, 1.175, 0.49, 1.2725, 0.5875, 1.3725, 0.685],
  "SoftwareVersions": "syngo_MR_E11",
  "SpacingBetweenSlices": 2,
  "StationName": "MRC35049",
  "TaskName": "things",
  "TotalReadoutTime": 0.0576811,
  "TxRefAmp": 288.077,
  "WipMemBlock": "2216efaa-12b5-4c62-84b1-a8302724edf2||Sequence: R016 ve11c/master r/e634e98; Dec 19 2017 11:00:25 by eja",
  "dcmmeta_affine": [
    [-1.9991075992584229, -0.021284285932779312, 0.05582019314169884, 106.71036529541016],
    [-0.04682881757616997, 1.7186603546142578, -1.0217698812484741, -47.83966827392578],
    [0.037094153463840485, 1.0226209163665771, 1.7183918952941895, -98.86241912841797],
    [0.0, 0.0, 0.0, 1.0]
],
  "dcmmeta_reorient_transform": [
    [0.0, -1.0, 0.0, 103.0],
    [1.0, 0.0, 0.0, 0.0],
    [0.0, 0.0, 1.0, 0.0],
    [0.0, 0.0, 0.0, 1.0]
],
  "dcmmeta_shape": [104, 104, 60, 190],
  "dcmmeta_slice_dim": 2,
  "dcmmeta_version": 0.6,
  "global": {
    "const": {
      "AcquisitionMatrix": [104, 0, 0, 104],
      "AngioFlag": "N",
      "BitsAllocated": 16,
      "BitsStored": 16,
      "BodyPartExamined": "BRAIN",
      "Columns": 832,
      "EchoNumbers": 1,
      "EchoTime": 37.0,
      "EchoTrainLength": 104,
      "FlipAngle": 52.0,
      "HighBit": 15,
      "ImageOrientationPatient": [0.99955378612977, 0.02341440910115, 0.01854707740007, -0.0106421429619, 0.85933019063001, -0.511310442163],
      "ImagePositionPatient": [-824.44576320819, -771.82041813965, 365.1992618473],
      "ImageType": [
        "ORIGINAL",
        "PRIMARY",
        "P",
        "MB",
        "ND",
        "MOSAIC"
],
      "ImagedNucleus": "1H",
      "ImagingFrequency": 123.258952,
      "InPlanePhaseEncodingDirection": "COL",
      "LargestImagePixelValue": 4095,
      "MRAcquisitionType": "2D",
      "MagneticFieldStrength": 3.0,
      "Manufacturer": "SIEMENS",
      "ManufacturerModelName": "Prisma_fit",
      "Modality": "MR",
      "NumberOfAverages": 1.0,
      "NumberOfPhaseEncodingSteps": 104,
      "PercentPhaseFieldOfView": 100.0,
      "PercentSampling": 100.0,
      "PerformedProcedureStepStartTime": "102855.428000",
      "PhotometricInterpretation": "MONOCHROME2",
      "PixelBandwidth": 2290.0,
      "PixelRepresentation": 0,
      "PixelSpacing": [2.0, 2.0],
      "ProtocolName": "func_task-things_run-3",
      "RepetitionTime": 1490.0,
      "RescaleIntercept": -4096.0,
      "RescaleSlope": 2.0,
      "RescaleType": "US",
      "Rows": 832,
      "SAR": 0.05590707027027,
      "SamplesPerPixel": 1,
      "ScanOptions": "FS",
      "ScanningSequence": "EP",
      "SequenceName": "epfid2d1_104",
      "SequenceVariant": [
        "SK",
        "SS"
],
      "SeriesDescription": "func_task-things_run-3",
      "SeriesNumber": 17,
      "SeriesTime": "105648.933000",
      "SliceLocation": -57.523325540238,
      "SliceThickness": 2.0,
      "SmallestImagePixelValue": 0,
      "SoftwareVersions": "syngo MR E11",
      "SpacingBetweenSlices": 2.0000000257831,
      "SpecificCharacterSet": "ISO_IR 100",
      "StudyID": "1",
      "StudyTime": "102855.355000",
      "TransmitCoilName": "Body",
      "VariableFlipAngleFlag": "N",
      "WindowCenterWidthExplanation": "Algo1",
      "dBdt": 0.0},
    "slices": {}
  },
  "time": {
    "samples": {
      "AcquisitionNumber": [1, 2, 3, 4, 5, 6, 7, 8, 9, 10, 11, 12, 13, 14, 15, 16, 17, 18, 19, 20, 21, 22, 23, 24, 25, 26, 27, 28, 29, 30, 31, 32, 33, 34, 35, 36, 37, 38, 39, 40, 41, 42, 43, 44, 45, 46, 47, 48, 49, 50, 51, 52, 53, 54, 55, 56, 57, 58, 59, 60, 61, 62, 63, 64, 65, 66, 67, 68, 69, 70, 71, 72, 73, 74, 75, 76, 77, 78, 79, 80, 81, 82, 83, 84, 85, 86, 87, 88, 89, 90, 91, 92, 93, 94, 95, 96, 97, 98, 99, 100, 101, 102, 103, 104, 105, 106, 107, 108, 109, 110, 111, 112, 113, 114, 115, 116, 117, 118, 119, 120, 121, 122, 123, 124, 125, 126, 127, 128, 129, 130, 131, 132, 133, 134, 135, 136, 137, 138, 139, 140, 141, 142, 143, 144, 145, 146, 147, 148, 149, 150, 151, 152, 153, 154, 155, 156, 157, 158, 159, 160, 161, 162, 163, 164, 165, 166, 167, 168, 169, 170, 171, 172, 173, 174, 175, 176, 177, 178, 179, 180, 181, 182, 183, 184, 185, 186, 187, 188, 189, 190],
      "AcquisitionTime": ["105545.750000", "105547.240000", "105548.730000", "105550.220000", "105551.710000", "105553.200000", "105554.690000", "105556.180000", "105557.670000", "105559.160000", "105600.650000", "105602.140000", "105603.630000", "105605.120000", "105606.610000", "105608.100000", "105609.590000", "105611.080000", "105612.570000", "105614.060000", "105615.550000", "105617.040000", "105618.530000", "105620.020000", "105621.510000", "105623.000000", "105624.490000", "105625.980000", "105627.470000", "105628.960000", "105630.450000", "105631.940000", "105633.430000", "105634.920000", "105636.410000", "105637.900000", "105639.390000", "105640.880000", "105642.370000", "105643.860000", "105645.350000", "105646.840000", "105648.330000", "105649.820000", "105651.310000", "105652.800000", "105654.290000", "105655.780000", "105657.270000", "105658.760000", "105700.250000", "105701.740000", "105703.230000", "105704.720000", "105706.210000", "105707.700000", "105709.190000", "105710.680000", "105712.170000", "105713.660000", "105715.150000", "105716.640000", "105718.130000", "105719.620000", "105721.110000", "105722.600000", "105724.090000", "105725.580000", "105727.070000", "105728.560000", "105730.050000", "105731.540000", "105733.030000", "105734.520000", "105736.010000", "105737.500000", "105738.990000", "105740.480000", "105741.970000", "105743.460000", "105744.950000", "105746.440000", "105747.930000", "105749.420000", "105750.910000", "105752.400000", "105753.890000", "105755.380000", "105756.870000", "105758.360000", "105759.850000", "105801.340000", "105802.830000", "105804.320000", "105805.810000", "105807.300000", "105808.790000", "105810.280000", "105811.770000", "105813.260000", "105814.750000", "105816.240000", "105817.730000", "105819.220000", "105820.710000", "105822.200000", "105823.690000", "105825.180000", "105826.670000", "105828.160000", "105829.650000", "105831.140000", "105832.630000", "105834.120000", "105835.610000", "105837.100000", "105838.590000", "105840.080000", "105841.570000", "105843.060000", "105844.550000", "105846.040000", "105847.530000", "105849.020000", "105850.510000", "105852.000000", "105853.490000", "105854.980000", "105856.470000", "105857.960000", "105859.450000", "105900.940000", "105902.430000", "105903.920000", "105905.410000", "105906.900000", "105908.390000", "105909.880000", "105911.370000", "105912.860000", "105914.350000", "105915.840000", "105917.330000", "105918.820000", "105920.310000", "105921.800000", "105923.290000", "105924.780000", "105926.270000", "105927.760000", "105929.250000", "105930.740000", "105932.230000", "105933.720000", "105935.210000", "105936.700000", "105938.190000", "105939.680000", "105941.170000", "105942.660000", "105944.150000", "105945.640000", "105947.130000", "105948.620000", "105950.110000", "105951.600000", "105953.090000", "105954.580000", "105956.070000", "105957.560000", "105959.050000", "110000.540000", "110002.030000", "110003.520000", "110005.010000", "110006.500000", "110007.990000", "110009.480000", "110010.970000", "110012.460000", "110013.950000", "110015.440000", "110016.930000", "110018.420000", "110019.910000", "110021.400000", "110022.890000", "110024.380000", "110025.870000", "110027.360000"],
      "ContentTime": ["105648.935000", "105648.938000", "105648.941000", "105648.943000", "105648.946000", "105648.948000", "105648.951000", "105648.953000", "105648.956000", "105648.958000", "105708.945000", "105708.948000", "105708.950000", "105708.953000", "105708.955000", "105708.958000", "105708.961000", "105708.963000", "105708.966000", "105708.968000", "105708.971000", "105708.973000", "105708.976000", "105708.979000", "105708.981000", "105708.984000", "105708.987000", "105708.989000", "105708.992000", "105708.994000", "105728.927000", "105728.930000", "105728.932000", "105728.935000", "105728.937000", "105728.940000", "105728.943000", "105728.945000", "105728.948000", "105728.950000", "105728.953000", "105728.955000", "105728.958000", "105728.961000", "105728.963000", "105728.966000", "105728.968000", "105728.971000", "105728.973000", "105728.976000", "105748.949000", "105748.952000", "105748.954000", "105748.957000", "105748.959000", "105748.962000", "105748.965000", "105748.967000", "105748.970000", "105748.972000", "105748.975000", "105748.977000", "105748.980000", "105748.982000", "105748.985000", "105748.987000", "105748.990000", "105748.993000", "105748.995000", "105748.998000", "105749.001000", "105809.017000", "105809.020000", "105809.022000", "105809.031000", "105809.034000", "105809.037000", "105809.039000", "105809.042000", "105809.044000", "105809.047000", "105809.049000", "105809.052000", "105809.055000", "105809.057000", "105809.060000", "105809.062000", "105809.065000", "105809.068000", "105809.070000", "105809.073000", "105848.985000", "105848.987000", "105848.990000", "105848.993000", "105848.995000", "105848.998000", "105849.001000", "105849.003000", "105849.006000", "105849.008000", "105849.011000", "105849.013000", "105849.016000", "105849.019000", "105849.021000", "105849.024000", "105849.026000", "105849.029000", "105849.032000", "105849.034000", "105849.037000", "105849.039000", "105849.042000", "105849.044000", "105849.047000", "105849.050000", "105849.052000", "105849.055000", "105849.057000", "105849.060000", "105849.062000", "105928.970000", "105928.972000", "105928.975000", "105928.978000", "105928.980000", "105928.983000", "105928.986000", "105928.988000", "105928.991000", "105928.993000", "105928.996000", "105928.998000", "105929.002000", "105929.004000", "105929.007000", "105929.010000", "105929.012000", "105929.015000", "105929.018000", "105929.020000", "105929.023000", "105929.025000", "105929.028000", "105929.030000", "105929.033000", "105929.036000", "105929.038000", "110008.994000", "110008.997000", "110009.001000", "110009.003000", "110009.006000", "110009.009000", "110009.011000", "110009.014000", "110009.016000", "110009.019000", "110009.021000", "110009.024000", "110009.027000", "110009.029000", "110009.032000", "110009.034000", "110009.037000", "110009.039000", "110009.042000", "110009.045000", "110009.047000", "110009.050000", "110009.052000", "110009.055000", "110009.058000", "110009.060000", "110009.063000", "110029.392000", "110029.395000", "110029.397000", "110029.412000", "110029.415000", "110029.417000", "110029.420000", "110029.422000", "110029.425000", "110029.428000", "110029.430000", "110029.433000", "110029.435000", "110029.438000"],
      "InstanceCreationTime": ["105648.935000", "105648.938000", "105648.941000", "105648.943000", "105648.946000", "105648.948000", "105648.951000", "105648.953000", "105648.956000", "105648.958000", "105708.945000", "105708.948000", "105708.950000", "105708.953000", "105708.955000", "105708.958000", "105708.961000", "105708.963000", "105708.966000", "105708.968000", "105708.971000", "105708.973000", "105708.976000", "105708.979000", "105708.981000", "105708.984000", "105708.987000", "105708.989000", "105708.992000", "105708.994000", "105728.927000", "105728.930000", "105728.932000", "105728.935000", "105728.937000", "105728.940000", "105728.943000", "105728.945000", "105728.948000", "105728.950000", "105728.953000", "105728.955000", "105728.958000", "105728.961000", "105728.963000", "105728.966000", "105728.968000", "105728.971000", "105728.973000", "105728.976000", "105748.949000", "105748.952000", "105748.954000", "105748.957000", "105748.959000", "105748.962000", "105748.965000", "105748.967000", "105748.970000", "105748.972000", "105748.975000", "105748.977000", "105748.980000", "105748.982000", "105748.985000", "105748.987000", "105748.990000", "105748.993000", "105748.995000", "105748.998000", "105749.001000", "105809.017000", "105809.020000", "105809.022000", "105809.031000", "105809.034000", "105809.037000", "105809.039000", "105809.042000", "105809.044000", "105809.047000", "105809.049000", "105809.052000", "105809.055000", "105809.057000", "105809.060000", "105809.062000", "105809.065000", "105809.068000", "105809.070000", "105809.073000", "105848.985000", "105848.987000", "105848.990000", "105848.993000", "105848.995000", "105848.998000", "105849.001000", "105849.003000", "105849.006000", "105849.008000", "105849.011000", "105849.013000", "105849.016000", "105849.019000", "105849.021000", "105849.024000", "105849.026000", "105849.029000", "105849.032000", "105849.034000", "105849.037000", "105849.039000", "105849.042000", "105849.044000", "105849.047000", "105849.050000", "105849.052000", "105849.055000", "105849.057000", "105849.060000", "105849.062000", "105928.970000", "105928.972000", "105928.975000", "105928.978000", "105928.980000", "105928.983000", "105928.986000", "105928.988000", "105928.991000", "105928.993000", "105928.996000", "105928.998000", "105929.002000", "105929.004000", "105929.007000", "105929.010000", "105929.012000", "105929.015000", "105929.018000", "105929.020000", "105929.023000", "105929.025000", "105929.028000", "105929.030000", "105929.033000", "105929.036000", "105929.038000", "110008.994000", "110008.997000", "110009.001000", "110009.003000", "110009.006000", "110009.009000", "110009.011000", "110009.014000", "110009.016000", "110009.019000", "110009.021000", "110009.024000", "110009.027000", "110009.029000", "110009.032000", "110009.034000", "110009.037000", "110009.039000", "110009.042000", "110009.045000", "110009.047000", "110009.050000", "110009.052000", "110009.055000", "110009.058000", "110009.060000", "110009.063000", "110029.392000", "110029.395000", "110029.397000", "110029.412000", "110029.415000", "110029.417000", "110029.420000", "110029.422000", "110029.425000", "110029.428000", "110029.430000", "110029.433000", "110029.435000", "110029.438000"],
      "InstanceNumber": [1, 2, 3, 4, 5, 6, 7, 8, 9, 10, 11, 12, 13, 14, 15, 16, 17, 18, 19, 20, 21, 22, 23, 24, 25, 26, 27, 28, 29, 30, 31, 32, 33, 34, 35, 36, 37, 38, 39, 40, 41, 42, 43, 44, 45, 46, 47, 48, 49, 50, 51, 52, 53, 54, 55, 56, 57, 58, 59, 60, 61, 62, 63, 64, 65, 66, 67, 68, 69, 70, 71, 72, 73, 74, 75, 76, 77, 78, 79, 80, 81, 82, 83, 84, 85, 86, 87, 88, 89, 90, 91, 92, 93, 94, 95, 96, 97, 98, 99, 100, 101, 102, 103, 104, 105, 106, 107, 108, 109, 110, 111, 112, 113, 114, 115, 116, 117, 118, 119, 120, 121, 122, 123, 124, 125, 126, 127, 128, 129, 130, 131, 132, 133, 134, 135, 136, 137, 138, 139, 140, 141, 142, 143, 144, 145, 146, 147, 148, 149, 150, 151, 152, 153, 154, 155, 156, 157, 158, 159, 160, 161, 162, 163, 164, 165, 166, 167, 168, 169, 170, 171, 172, 173, 174, 175, 176, 177, 178, 179, 180, 181, 182, 183, 184, 185, 186, 187, 188, 189, 190],
      "WindowCenter": [4768.0, 4768.0, 4768.0, 4766.0, 4766.0, 4770.0, 4766.0, 4770.0, 4766.0, 4768.0, 4772.0, 4772.0, 4768.0, 4766.0, 4766.0, 4790.0, 4764.0, 4766.0, 4768.0, 4768.0, 4764.0, 4766.0, 4768.0, 4766.0, 4770.0, 4766.0, 4768.0, 4766.0, 4762.0, 4766.0, 4768.0, 4768.0, 4768.0, 4768.0, 4768.0, 4766.0, 4766.0, 4768.0, 4742.0, 4766.0, 4792.0, 4766.0, 4790.0, 4766.0, 4764.0, 4764.0, 4768.0, 4770.0, 4766.0, 4768.0, 4768.0, 4770.0, 4766.0, 4764.0, 4770.0, 4762.0, 4766.0, 4764.0, 4766.0, 4766.0, 4766.0, 4792.0, 4770.0, 4768.0, 4768.0, 4772.0, 4766.0, 4762.0, 4768.0, 4766.0, 4766.0, 4788.0, 4766.0, 4768.0, 4766.0, 4768.0, 4768.0, 4768.0, 4768.0, 4764.0, 4766.0, 4790.0, 4766.0, 4766.0, 4766.0, 4762.0, 4790.0, 4774.0, 4792.0, 4766.0, 4766.0, 4770.0, 4766.0, 4790.0, 4766.0, 4766.0, 4768.0, 4768.0, 4766.0, 4766.0, 4768.0, 4766.0, 4764.0, 4762.0, 4766.0, 4768.0, 4762.0, 4768.0, 4766.0, 4768.0, 4764.0, 4768.0, 4764.0, 4770.0, 4768.0, 4764.0, 4766.0, 4760.0, 4764.0, 4790.0, 4766.0, 4766.0, 4768.0, 4768.0, 4766.0, 4768.0, 4766.0, 4792.0, 4766.0, 4792.0, 4766.0, 4768.0, 4768.0, 4766.0, 4766.0, 4768.0, 4766.0, 4794.0, 4770.0, 4766.0, 4790.0, 4768.0, 4768.0, 4766.0, 4794.0, 4770.0, 4766.0, 4770.0, 4766.0, 4764.0, 4766.0, 4790.0, 4770.0, 4766.0, 4768.0, 4768.0, 4766.0, 4770.0, 4770.0, 4770.0, 4764.0, 4768.0, 4794.0, 4766.0, 4788.0, 4768.0, 4766.0, 4772.0, 4768.0, 4772.0, 4768.0, 4768.0, 4770.0, 4768.0, 4770.0, 4766.0, 4792.0, 4768.0, 4772.0, 4768.0, 4770.0, 4772.0, 4766.0, 4770.0, 4778.0, 4796.0, 4782.0, 4740.0, 4822.0, 4894.0],
      "WindowWidth": [18574.0, 18576.0, 18574.0, 18578.0, 18574.0, 18574.0, 18574.0, 18582.0, 18572.0, 18580.0, 18582.0, 18580.0, 18574.0, 18570.0, 18574.0, 18606.0, 18572.0, 18574.0, 18576.0, 18576.0, 18574.0, 18572.0, 18574.0, 18574.0, 18578.0, 18576.0, 18580.0, 18570.0, 18568.0, 18576.0, 18578.0, 18578.0, 18578.0, 18578.0, 18574.0, 18572.0, 18576.0, 18572.0, 18542.0, 18570.0, 18604.0, 18574.0, 18606.0, 18574.0, 18574.0, 18572.0, 18576.0, 18584.0, 18578.0, 18576.0, 18578.0, 18578.0, 18572.0, 18572.0, 18578.0, 18572.0, 18574.0, 18572.0, 18574.0, 18574.0, 18572.0, 18606.0, 18578.0, 18576.0, 18574.0, 18582.0, 18576.0, 18570.0, 18580.0, 18576.0, 18576.0, 18604.0, 18570.0, 18578.0, 18578.0, 18578.0, 18578.0, 18578.0, 18578.0, 18574.0, 18574.0, 18606.0, 18572.0, 18576.0, 18572.0, 18570.0, 18610.0, 18580.0, 18608.0, 18576.0, 18572.0, 18578.0, 18576.0, 18606.0, 18578.0, 18572.0, 18578.0, 18576.0, 18578.0, 18576.0, 18580.0, 18574.0, 18578.0, 18570.0, 18578.0, 18576.0, 18572.0, 18580.0, 18576.0, 18574.0, 18570.0, 18578.0, 18572.0, 18574.0, 18574.0, 18572.0, 18578.0, 18574.0, 18572.0, 18604.0, 18574.0, 18568.0, 18578.0, 18578.0, 18576.0, 18576.0, 18578.0, 18610.0, 18574.0, 18606.0, 18574.0, 18578.0, 18578.0, 18578.0, 18580.0, 18578.0, 18580.0, 18610.0, 18576.0, 18576.0, 18608.0, 18578.0, 18576.0, 18574.0, 18610.0, 18578.0, 18576.0, 18580.0, 18574.0, 18578.0, 18576.0, 18610.0, 18584.0, 18574.0, 18574.0, 18578.0, 18576.0, 18576.0, 18586.0, 18576.0, 18574.0, 18576.0, 18608.0, 18574.0, 18602.0, 18578.0, 18574.0, 18578.0, 18574.0, 18578.0, 18580.0, 18580.0, 18576.0, 18578.0, 18580.0, 18574.0, 18606.0, 18572.0, 18580.0, 18578.0, 18578.0, 18578.0, 18576.0, 18578.0, 18586.0, 18582.0, 18578.0, 18542.0, 18650.0, 18724.0]
    },
    "slices": {}
  }
}