{
  "AcquisitionMatrixPE": 104,
  "AcquisitionNumber": 1,
  "AcquisitionTime": "11:07:59.660000",
  "BandwidthPerPixelPhaseEncode": 17.17,
  "BaseResolution": 104,
  "BodyPartExamined": "BRAIN",
  "CoilString": "HC1-7;NC1_2",
  "ConsistencyInfo": "N4_VE11C_LATEST_20160120",
  "ConversionSoftware": "dcm2niix",
  "ConversionSoftwareVersion": "v1.0.20190902",
  "DerivedVendorReportedEchoSpacing": 0.000560011,
  "DeviceSerialNumber": "167006",
  "DwellTime": 2.1e-06,
  "EchoTime": 0.037,
  "EchoTrainLength": 104,
  "EffectiveEchoSpacing": 0.000560011,
  "FlipAngle": 52,
  "ImageComments": "Unaliased_MB4_PE3_LB",
  "ImageOrientationPatientDICOM": [0.999554, 0.0234144, 0.0185471, -0.0106421, 0.85933, -0.51131],
  "ImageType": [
    "ORIGINAL",
    "PRIMARY",
    "M",
    "MB",
    "ND",
    "MOSAIC"
],
  "ImagingFrequency": 123.259,
  "InPlanePhaseEncodingDirectionDICOM": "COL",
  "InstitutionAddress": "Chemin_Queen-Mary_4565_Montreal_District_CA_H3W_1W5",
  "InstitutionName": "IUGM",
  "InstitutionalDepartmentName": "Department",
  "MRAcquisitionType": "2D",
  "MagneticFieldStrength": 3,
  "Manufacturer": "Siemens",
  "ManufacturersModelName": "Prisma_fit",
  "Modality": "MR",
  "MultibandAccelerationFactor": 4,
  "PartialFourier": 1,
  "PatientPosition": "HFS",
  "PercentPhaseFOV": 100,
  "PhaseEncodingDirection": "j",
  "PhaseEncodingSteps": 104,
  "PhaseResolution": 1,
  "PixelBandwidth": 2290,
  "ProcedureStepDescription": "memory_things",
  "ProtocolName": "func_task-things_run-5",
  "PulseSequenceDetails": "%CustomerSeq%_cmrr_mbep2d_bold",
  "ReceiveCoilActiveElements": "HC1-7;NC1,2",
  "ReceiveCoilName": "HeadNeck_64",
  "ReconMatrixPE": 104,
  "RepetitionTime": 1.49,
  "SAR": 0.0559071,
  "ScanOptions": "FS",
  "ScanningSequence": "EP",
  "SequenceName": "epfid2d1_104",
  "SequenceVariant": "SK_SS",
  "SeriesDescription": "func_task-things_run-5",
  "SeriesNumber": 22,
  "ShimSetting": [618, -7166, -8863, 309, 14, -143, -67, -26],
  "SliceThickness": 2,
  "SliceTiming": [0, 0.7825, 0.0975, 0.88, 0.195, 0.98, 0.2925, 1.0775, 0.39, 1.175, 0.49, 1.2725, 0.5875, 1.37, 0.685, 0, 0.7825, 0.0975, 0.88, 0.195, 0.98, 0.2925, 1.0775, 0.39, 1.175, 0.49, 1.2725, 0.5875, 1.37, 0.685, 0, 0.7825, 0.0975, 0.88, 0.195, 0.98, 0.2925, 1.0775, 0.39, 1.175, 0.49, 1.2725, 0.5875, 1.37, 0.685, 0, 0.7825, 0.0975, 0.88, 0.195, 0.98, 0.2925, 1.0775, 0.39, 1.175, 0.49, 1.2725, 0.5875, 1.37, 0.685],
  "SoftwareVersions": "syngo_MR_E11",
  "SpacingBetweenSlices": 2,
  "StationName": "MRC35049",
  "TaskName": "things",
  "TotalReadoutTime": 0.0576811,
  "TxRefAmp": 288.077,
  "WipMemBlock": "20d59b62-c464-4876-b74f-3c8535a30d42||Sequence: R016 ve11c/master r/e634e98; Dec 19 2017 11:00:25 by eja",
  "dcmmeta_affine": [
    [-1.9991075992584229, -0.021284285932779312, 0.05582019314169884, 106.71036529541016],
    [-0.04682881757616997, 1.7186603546142578, -1.0217698812484741, -47.83966827392578],
    [0.037094153463840485, 1.0226209163665771, 1.7183918952941895, -98.86241912841797],
    [0.0, 0.0, 0.0, 1.0]
],
  "dcmmeta_reorient_transform": [
    [0.0, -1.0, 0.0, 103.0],
    [1.0, 0.0, 0.0, 0.0],
    [0.0, 0.0, 1.0, 0.0],
    [0.0, 0.0, 0.0, 1.0]
],
  "dcmmeta_shape": [104, 104, 60, 190],
  "dcmmeta_slice_dim": 2,
  "dcmmeta_version": 0.6,
  "global": {
    "const": {
      "AcquisitionMatrix": [104, 0, 0, 104],
      "AngioFlag": "N",
      "BitsAllocated": 16,
      "BitsStored": 16,
      "BodyPartExamined": "BRAIN",
      "Columns": 832,
      "EchoNumbers": 1,
      "EchoTime": 37.0,
      "EchoTrainLength": 104,
      "FlipAngle": 52.0,
      "HighBit": 15,
      "ImageOrientationPatient": [0.99955378612977, 0.02341440910115, 0.01854707740007, -0.0106421429619, 0.85933019063001, -0.511310442163],
      "ImagePositionPatient": [-824.44576320819, -771.82041813965, 365.1992618473],
      "ImageType": [
        "ORIGINAL",
        "PRIMARY",
        "M",
        "MB",
        "ND",
        "MOSAIC"
],
      "ImagedNucleus": "1H",
      "ImagingFrequency": 123.258955,
      "InPlanePhaseEncodingDirection": "COL",
      "MRAcquisitionType": "2D",
      "MagneticFieldStrength": 3.0,
      "Manufacturer": "SIEMENS",
      "ManufacturerModelName": "Prisma_fit",
      "Modality": "MR",
      "NumberOfAverages": 1.0,
      "NumberOfPhaseEncodingSteps": 104,
      "PercentPhaseFieldOfView": 100.0,
      "PercentSampling": 100.0,
      "PerformedProcedureStepStartTime": "102855.428000",
      "PhotometricInterpretation": "MONOCHROME2",
      "PixelBandwidth": 2290.0,
      "PixelRepresentation": 0,
      "PixelSpacing": [2.0, 2.0],
      "ProtocolName": "func_task-things_run-5",
      "RepetitionTime": 1490.0,
      "Rows": 832,
      "SAR": 0.05590707027027,
      "SamplesPerPixel": 1,
      "ScanOptions": "FS",
      "ScanningSequence": "EP",
      "SequenceName": "epfid2d1_104",
      "SequenceVariant": [
        "SK",
        "SS"
],
      "SeriesDescription": "func_task-things_run-5",
      "SeriesNumber": 22,
      "SeriesTime": "110928.807000",
      "SliceLocation": -57.523325540238,
      "SliceThickness": 2.0,
      "SmallestImagePixelValue": 0,
      "SoftwareVersions": "syngo MR E11",
      "SpacingBetweenSlices": 2.0000000257831,
      "SpecificCharacterSet": "ISO_IR 100",
      "StudyID": "1",
      "StudyTime": "102855.355000",
      "TransmitCoilName": "Body",
      "VariableFlipAngleFlag": "N",
      "WindowCenterWidthExplanation": "Algo1",
      "dBdt": 0.0},
    "slices": {}
  },
  "time": {
    "samples": {
      "AcquisitionNumber": [1, 2, 3, 4, 5, 6, 7, 8, 9, 10, 11, 12, 13, 14, 15, 16, 17, 18, 19, 20, 21, 22, 23, 24, 25, 26, 27, 28, 29, 30, 31, 32, 33, 34, 35, 36, 37, 38, 39, 40, 41, 42, 43, 44, 45, 46, 47, 48, 49, 50, 51, 52, 53, 54, 55, 56, 57, 58, 59, 60, 61, 62, 63, 64, 65, 66, 67, 68, 69, 70, 71, 72, 73, 74, 75, 76, 77, 78, 79, 80, 81, 82, 83, 84, 85, 86, 87, 88, 89, 90, 91, 92, 93, 94, 95, 96, 97, 98, 99, 100, 101, 102, 103, 104, 105, 106, 107, 108, 109, 110, 111, 112, 113, 114, 115, 116, 117, 118, 119, 120, 121, 122, 123, 124, 125, 126, 127, 128, 129, 130, 131, 132, 133, 134, 135, 136, 137, 138, 139, 140, 141, 142, 143, 144, 145, 146, 147, 148, 149, 150, 151, 152, 153, 154, 155, 156, 157, 158, 159, 160, 161, 162, 163, 164, 165, 166, 167, 168, 169, 170, 171, 172, 173, 174, 175, 176, 177, 178, 179, 180, 181, 182, 183, 184, 185, 186, 187, 188, 189, 190],
      "AcquisitionTime": ["110759.660000", "110801.150000", "110802.640000", "110804.130000", "110805.620000", "110807.110000", "110808.600000", "110810.090000", "110811.580000", "110813.070000", "110814.560000", "110816.050000", "110817.540000", "110819.030000", "110820.520000", "110822.010000", "110823.500000", "110824.990000", "110826.480000", "110827.970000", "110829.460000", "110830.950000", "110832.440000", "110833.930000", "110835.420000", "110836.910000", "110838.400000", "110839.890000", "110841.380000", "110842.870000", "110844.360000", "110845.850000", "110847.340000", "110848.830000", "110850.320000", "110851.810000", "110853.300000", "110854.790000", "110856.280000", "110857.770000", "110859.260000", "110900.750000", "110902.240000", "110903.730000", "110905.220000", "110906.710000", "110908.200000", "110909.690000", "110911.180000", "110912.670000", "110914.160000", "110915.650000", "110917.140000", "110918.630000", "110920.120000", "110921.610000", "110923.100000", "110924.590000", "110926.080000", "110927.570000", "110929.060000", "110930.550000", "110932.040000", "110933.530000", "110935.020000", "110936.510000", "110938.000000", "110939.490000", "110940.980000", "110942.470000", "110943.960000", "110945.450000", "110946.940000", "110948.430000", "110949.920000", "110951.410000", "110952.900000", "110954.390000", "110955.880000", "110957.370000", "110958.860000", "111000.350000", "111001.840000", "111003.330000", "111004.820000", "111006.310000", "111007.800000", "111009.290000", "111010.780000", "111012.270000", "111013.760000", "111015.250000", "111016.740000", "111018.230000", "111019.720000", "111021.210000", "111022.700000", "111024.190000", "111025.680000", "111027.170000", "111028.660000", "111030.150000", "111031.640000", "111033.130000", "111034.620000", "111036.110000", "111037.600000", "111039.090000", "111040.580000", "111042.070000", "111043.560000", "111045.050000", "111046.540000", "111048.030000", "111049.520000", "111051.010000", "111052.500000", "111053.990000", "111055.480000", "111056.970000", "111058.460000", "111059.950000", "111101.440000", "111102.930000", "111104.420000", "111105.910000", "111107.400000", "111108.890000", "111110.380000", "111111.870000", "111113.360000", "111114.850000", "111116.340000", "111117.830000", "111119.320000", "111120.810000", "111122.300000", "111123.790000", "111125.280000", "111126.770000", "111128.260000", "111129.750000", "111131.240000", "111132.730000", "111134.220000", "111135.710000", "111137.200000", "111138.690000", "111140.180000", "111141.670000", "111143.160000", "111144.650000", "111146.140000", "111147.630000", "111149.120000", "111150.610000", "111152.100000", "111153.590000", "111155.080000", "111156.570000", "111158.060000", "111159.550000", "111201.040000", "111202.530000", "111204.020000", "111205.510000", "111207.000000", "111208.490000", "111209.980000", "111211.470000", "111212.960000", "111214.450000", "111215.940000", "111217.430000", "111218.920000", "111220.410000", "111221.900000", "111223.390000", "111224.880000", "111226.370000", "111227.860000", "111229.350000", "111230.840000", "111232.330000", "111233.820000", "111235.310000", "111236.800000", "111238.290000", "111239.780000", "111241.270000"],
      "ContentTime": ["110928.810000", "110928.814000", "110928.817000", "110928.821000", "110928.824000", "110928.827000", "110928.831000", "110928.834000", "110928.838000", "110928.841000", "110928.845000", "110928.848000", "110928.851000", "110928.855000", "110928.858000", "110928.862000", "110928.865000", "110928.869000", "110928.872000", "110928.887000", "110928.890000", "110928.893000", "110928.897000", "110928.900000", "110928.904000", "110928.907000", "110928.910000", "110928.914000", "110928.917000", "110928.921000", "110928.924000", "110928.927000", "110928.931000", "110928.934000", "110928.937000", "110948.774000", "110948.778000", "110948.781000", "110948.785000", "110948.788000", "110948.792000", "110948.795000", "110948.799000", "110948.802000", "110948.806000", "110948.809000", "110948.813000", "110948.817000", "110948.820000", "110948.824000", "110948.827000", "110948.831000", "110948.834000", "110948.837000", "110948.841000", "111008.774000", "111008.778000", "111008.781000", "111008.785000", "111008.802000", "111008.805000", "111008.809000", "111008.812000", "111008.816000", "111008.819000", "111008.823000", "111008.826000", "111008.830000", "111008.833000", "111008.836000", "111008.840000", "111008.843000", "111008.847000", "111008.850000", "111008.854000", "111008.857000", "111028.773000", "111028.915000", "111028.919000", "111028.922000", "111028.926000", "111028.930000", "111028.933000", "111028.937000", "111028.940000", "111028.944000", "111028.947000", "111028.951000", "111028.954000", "111028.957000", "111028.961000", "111028.964000", "111028.968000", "111028.971000", "111028.975000", "111028.978000", "111108.774000", "111108.948000", "111108.951000", "111108.955000", "111108.958000", "111108.962000", "111108.965000", "111108.968000", "111108.972000", "111108.975000", "111108.979000", "111108.982000", "111108.986000", "111108.989000", "111108.993000", "111108.996000", "111109.000000", "111109.004000", "111109.008000", "111109.011000", "111109.014000", "111109.018000", "111109.021000", "111109.025000", "111109.028000", "111109.032000", "111109.035000", "111109.039000", "111109.042000", "111109.046000", "111148.774000", "111148.803000", "111148.807000", "111148.810000", "111148.814000", "111148.817000", "111148.821000", "111148.824000", "111148.828000", "111148.831000", "111148.835000", "111148.838000", "111148.841000", "111148.845000", "111148.848000", "111148.852000", "111148.855000", "111148.859000", "111148.862000", "111148.866000", "111148.869000", "111148.873000", "111148.876000", "111148.879000", "111148.883000", "111148.886000", "111148.890000", "111228.774000", "111228.778000", "111228.781000", "111228.790000", "111228.793000", "111228.797000", "111228.800000", "111228.804000", "111228.807000", "111228.811000", "111228.814000", "111228.818000", "111228.821000", "111228.824000", "111228.841000", "111228.853000", "111228.856000", "111228.860000", "111228.863000", "111228.867000", "111228.870000", "111228.873000", "111228.877000", "111228.880000", "111228.884000", "111228.887000", "111228.891000", "111243.734000", "111243.738000", "111243.742000", "111243.745000", "111243.749000", "111243.753000", "111243.756000", "111243.759000", "111243.763000", "111243.767000"],
      "InstanceCreationTime": ["110928.810000", "110928.814000", "110928.817000", "110928.821000", "110928.824000", "110928.827000", "110928.831000", "110928.834000", "110928.838000", "110928.841000", "110928.845000", "110928.848000", "110928.851000", "110928.855000", "110928.858000", "110928.862000", "110928.865000", "110928.869000", "110928.872000", "110928.887000", "110928.890000", "110928.893000", "110928.897000", "110928.900000", "110928.904000", "110928.907000", "110928.910000", "110928.914000", "110928.917000", "110928.921000", "110928.924000", "110928.927000", "110928.931000", "110928.934000", "110928.937000", "110948.774000", "110948.778000", "110948.781000", "110948.785000", "110948.788000", "110948.792000", "110948.795000", "110948.799000", "110948.802000", "110948.806000", "110948.809000", "110948.813000", "110948.817000", "110948.820000", "110948.824000", "110948.827000", "110948.831000", "110948.834000", "110948.837000", "110948.841000", "111008.774000", "111008.778000", "111008.781000", "111008.785000", "111008.802000", "111008.805000", "111008.809000", "111008.812000", "111008.816000", "111008.819000", "111008.823000", "111008.826000", "111008.830000", "111008.833000", "111008.836000", "111008.840000", "111008.843000", "111008.847000", "111008.850000", "111008.854000", "111008.857000", "111028.773000", "111028.915000", "111028.919000", "111028.922000", "111028.926000", "111028.930000", "111028.933000", "111028.937000", "111028.940000", "111028.944000", "111028.947000", "111028.951000", "111028.954000", "111028.957000", "111028.961000", "111028.964000", "111028.968000", "111028.971000", "111028.975000", "111028.978000", "111108.774000", "111108.948000", "111108.951000", "111108.955000", "111108.958000", "111108.962000", "111108.965000", "111108.968000", "111108.972000", "111108.975000", "111108.979000", "111108.982000", "111108.986000", "111108.989000", "111108.993000", "111108.996000", "111109.000000", "111109.004000", "111109.008000", "111109.011000", "111109.014000", "111109.018000", "111109.021000", "111109.025000", "111109.028000", "111109.032000", "111109.035000", "111109.039000", "111109.042000", "111109.046000", "111148.774000", "111148.803000", "111148.807000", "111148.810000", "111148.814000", "111148.817000", "111148.821000", "111148.824000", "111148.828000", "111148.831000", "111148.835000", "111148.838000", "111148.841000", "111148.845000", "111148.848000", "111148.852000", "111148.855000", "111148.859000", "111148.862000", "111148.866000", "111148.869000", "111148.873000", "111148.876000", "111148.879000", "111148.883000", "111148.886000", "111148.890000", "111228.774000", "111228.778000", "111228.781000", "111228.790000", "111228.793000", "111228.797000", "111228.800000", "111228.804000", "111228.807000", "111228.811000", "111228.814000", "111228.818000", "111228.821000", "111228.824000", "111228.841000", "111228.853000", "111228.856000", "111228.860000", "111228.863000", "111228.867000", "111228.870000", "111228.873000", "111228.877000", "111228.880000", "111228.884000", "111228.887000", "111228.891000", "111243.734000", "111243.738000", "111243.742000", "111243.745000", "111243.749000", "111243.753000", "111243.756000", "111243.759000", "111243.763000", "111243.767000"],
      "InstanceNumber": [1, 2, 3, 4, 5, 6, 7, 8, 9, 10, 11, 12, 13, 14, 15, 16, 17, 18, 19, 20, 21, 22, 23, 24, 25, 26, 27, 28, 29, 30, 31, 32, 33, 34, 35, 36, 37, 38, 39, 40, 41, 42, 43, 44, 45, 46, 47, 48, 49, 50, 51, 52, 53, 54, 55, 56, 57, 58, 59, 60, 61, 62, 63, 64, 65, 66, 67, 68, 69, 70, 71, 72, 73, 74, 75, 76, 77, 78, 79, 80, 81, 82, 83, 84, 85, 86, 87, 88, 89, 90, 91, 92, 93, 94, 95, 96, 97, 98, 99, 100, 101, 102, 103, 104, 105, 106, 107, 108, 109, 110, 111, 112, 113, 114, 115, 116, 117, 118, 119, 120, 121, 122, 123, 124, 125, 126, 127, 128, 129, 130, 131, 132, 133, 134, 135, 136, 137, 138, 139, 140, 141, 142, 143, 144, 145, 146, 147, 148, 149, 150, 151, 152, 153, 154, 155, 156, 157, 158, 159, 160, 161, 162, 163, 164, 165, 166, 167, 168, 169, 170, 171, 172, 173, 174, 175, 176, 177, 178, 179, 180, 181, 182, 183, 184, 185, 186, 187, 188, 189, 190],
      "LargestImagePixelValue": [41847, 41367, 40710, 41097, 40306, 40275, 41267, 39761, 40623, 40108, 39521, 40004, 39931, 40253, 39548, 39468, 40420, 40146, 40277, 40354, 39757, 39283, 39675, 39980, 39919, 40271, 39892, 40137, 39439, 40215, 39940, 40207, 40072, 39285, 39666, 39806, 39337, 39732, 39886, 39456, 39717, 39756, 39479, 39972, 39698, 39636, 39903, 40082, 40674, 39523, 39755, 39721, 39579, 40521, 39628, 39878, 39949, 39690, 40219, 40341, 39615, 40522, 39704, 39974, 39927, 39983, 40019, 39913, 40276, 39659, 39870, 40087, 40592, 40117, 40749, 39678, 39107, 39488, 40467, 40523, 39493, 40557, 39751, 39627, 40135, 39769, 40050, 40463, 40009, 40219, 40135, 40542, 40138, 40407, 40269, 40133, 40591, 40074, 40015, 40627, 39867, 40315, 40641, 41072, 39651, 39477, 40033, 39803, 40390, 40502, 40873, 40249, 40016, 40375, 40140, 40105, 40051, 40635, 40199, 40676, 40344, 40354, 40616, 41182, 40438, 40190, 40408, 40493, 40634, 40242, 41061, 39828, 40822, 40568, 39954, 39840, 40158, 39867, 40726, 40243, 40532, 40508, 40335, 40066, 40612, 40247, 40161, 40374, 40524, 39926, 40019, 40772, 40129, 40101, 40122, 40153, 39722, 40292, 40405, 39903, 39906, 40181, 40186, 40128, 40367, 40301, 40309, 40574, 40361, 39661, 39684, 40380, 40033, 40119, 40441, 40220, 40040, 39688, 40383, 40077, 39907, 40443, 39871, 40923, 40446, 39828, 40501, 40690, 39808, 40339],
      "WindowCenter": [10892.0, 10861.0, 10812.0, 10847.0, 10822.0, 10802.0, 10857.0, 10866.0, 10866.0, 10791.0, 10765.0, 10822.0, 10828.0, 10853.0, 10840.0, 10789.0, 10780.0, 10776.0, 10794.0, 10822.0, 10829.0, 10795.0, 10783.0, 10780.0, 10824.0, 10863.0, 10870.0, 10859.0, 10799.0, 10768.0, 10732.0, 10773.0, 10804.0, 10839.0, 10833.0, 10822.0, 10814.0, 10818.0, 10817.0, 10804.0, 10808.0, 10825.0, 10824.0, 10806.0, 10783.0, 10782.0, 10793.0, 10823.0, 10869.0, 10871.0, 10846.0, 10815.0, 10785.0, 10762.0, 10786.0, 10825.0, 10843.0, 10825.0, 10806.0, 10780.0, 10773.0, 10781.0, 10790.0, 10793.0, 10787.0, 10809.0, 10805.0, 10791.0, 10795.0, 10753.0, 10742.0, 10728.0, 10727.0, 10771.0, 10800.0, 10798.0, 10760.0, 10745.0, 10781.0, 10829.0, 10852.0, 10835.0, 10817.0, 10810.0, 10802.0, 10787.0, 10796.0, 10808.0, 10808.0, 10808.0, 10771.0, 10777.0, 10779.0, 10778.0, 10772.0, 10771.0, 10774.0, 10769.0, 10769.0, 10777.0, 10771.0, 10778.0, 10800.0, 10818.0, 10818.0, 10809.0, 10783.0, 10774.0, 10768.0, 10774.0, 10806.0, 10818.0, 10822.0, 10809.0, 10789.0, 10765.0, 10763.0, 10746.0, 10765.0, 10800.0, 10818.0, 10817.0, 10797.0, 10781.0, 10761.0, 10758.0, 10766.0, 10774.0, 10776.0, 10776.0, 10791.0, 10782.0, 10802.0, 10802.0, 10840.0, 10815.0, 10803.0, 10784.0, 10748.0, 10722.0, 10724.0, 10746.0, 10749.0, 10720.0, 10737.0, 10737.0, 10763.0, 10782.0, 10760.0, 10765.0, 10748.0, 10727.0, 10739.0, 10784.0, 10825.0, 10848.0, 10829.0, 10803.0, 10819.0, 10768.0, 10807.0, 10798.0, 10783.0, 10765.0, 10754.0, 10770.0, 10786.0, 10793.0, 10843.0, 10843.0, 10825.0, 10804.0, 10798.0, 10807.0, 10830.0, 10838.0, 10822.0, 10822.0, 10822.0, 10828.0, 10811.0, 10794.0, 10781.0, 10803.0, 10816.0, 10813.0, 10794.0, 10798.0, 10838.0, 10858.0],
      "WindowWidth": [23406.0, 23294.0, 23157.0, 23229.0, 23177.0, 23118.0, 23236.0, 23269.0, 23266.0, 23095.0, 23041.0, 23166.0, 23182.0, 23237.0, 23212.0, 23097.0, 23071.0, 23057.0, 23098.0, 23165.0, 23181.0, 23106.0, 23081.0, 23072.0, 23168.0, 23256.0, 23274.0, 23249.0, 23118.0, 23044.0, 22961.0, 23053.0, 23123.0, 23206.0, 23203.0, 23170.0, 23154.0, 23158.0, 23155.0, 23133.0, 23136.0, 23170.0, 23173.0, 23127.0, 23079.0, 23075.0, 23100.0, 23165.0, 23269.0, 23279.0, 23219.0, 23148.0, 23087.0, 23021.0, 23081.0, 23170.0, 23207.0, 23175.0, 23126.0, 23067.0, 23057.0, 23065.0, 23089.0, 23091.0, 23081.0, 23134.0, 23123.0, 23093.0, 23096.0, 23005.0, 22981.0, 22946.0, 22938.0, 23040.0, 23106.0, 23107.0, 23025.0, 22990.0, 23066.0, 23175.0, 23236.0, 23192.0, 23165.0, 23139.0, 23123.0, 23091.0, 23105.0, 23124.0, 23127.0, 23125.0, 23043.0, 23059.0, 23063.0, 23064.0, 23055.0, 23048.0, 23052.0, 23040.0, 23038.0, 23054.0, 23045.0, 23057.0, 23104.0, 23147.0, 23159.0, 23141.0, 23075.0, 23058.0, 23035.0, 23051.0, 23117.0, 23152.0, 23159.0, 23122.0, 23086.0, 23029.0, 23024.0, 22983.0, 23026.0, 23101.0, 23144.0, 23146.0, 23099.0, 23064.0, 23023.0, 23013.0, 23028.0, 23046.0, 23054.0, 23054.0, 23086.0, 23071.0, 23110.0, 23110.0, 23203.0, 23143.0, 23115.0, 23074.0, 22986.0, 22932.0, 22928.0, 22978.0, 22990.0, 22920.0, 22963.0, 22961.0, 23012.0, 23065.0, 23012.0, 23028.0, 22999.0, 22943.0, 22965.0, 23066.0, 23161.0, 23212.0, 23168.0, 23107.0, 23144.0, 23026.0, 23128.0, 23093.0, 23060.0, 23020.0, 22996.0, 23030.0, 23068.0, 23079.0, 23206.0, 23207.0, 23165.0, 23111.0, 23101.0, 23123.0, 23171.0, 23191.0, 23154.0, 23159.0, 23154.0, 23171.0, 23136.0, 23093.0, 23064.0, 23106.0, 23143.0, 23142.0, 23088.0, 23096.0, 23193.0, 23230.0]
    },
    "slices": {}
  }
}