{
  "AcquisitionMatrixPE": 104,
  "AcquisitionNumber": 1,
  "AcquisitionTime": "15:44:9.182500",
  "BandwidthPerPixelPhaseEncode": 17.17,
  "BaseResolution": 104,
  "BodyPartExamined": "BRAIN",
  "CoilString": "HC1-7;NC1_2",
  "ConsistencyInfo": "N4_VE11C_LATEST_20160120",
  "ConversionSoftware": "dcm2niix",
  "ConversionSoftwareVersion": "v1.0.20190902",
  "DerivedVendorReportedEchoSpacing": 0.000560011,
  "DeviceSerialNumber": "167006",
  "DwellTime": 2.1e-06,
  "EchoTime": 0.037,
  "EchoTrainLength": 104,
  "EffectiveEchoSpacing": 0.000560011,
  "FlipAngle": 52,
  "ImageComments": "Unaliased_MB4_PE3_LB",
  "ImageOrientationPatientDICOM": [0.998822, -0.0479137, 0.00766763, 0.0479769, 0.951515, -0.303836],
  "ImageType": [
    "ORIGINAL",
    "PRIMARY",
    "P",
    "MB",
    "ND",
    "MOSAIC"
],
  "ImagingFrequency": 123.259,
  "InPlanePhaseEncodingDirectionDICOM": "COL",
  "InstitutionAddress": "Chemin_Queen-Mary_4565_Montreal_District_CA_H3W_1W5",
  "InstitutionName": "IUGM",
  "InstitutionalDepartmentName": "Department",
  "MRAcquisitionType": "2D",
  "MagneticFieldStrength": 3,
  "Manufacturer": "Siemens",
  "ManufacturersModelName": "Prisma_fit",
  "Modality": "MR",
  "MultibandAccelerationFactor": 4,
  "PartialFourier": 1,
  "PatientPosition": "HFS",
  "PercentPhaseFOV": 100,
  "PhaseEncodingDirection": "j",
  "PhaseEncodingSteps": 104,
  "PhaseResolution": 1,
  "PixelBandwidth": 2290,
  "ProcedureStepDescription": "memory_things",
  "ProtocolName": "func_task-things_run-4",
  "PulseSequenceDetails": "%CustomerSeq%_cmrr_mbep2d_bold",
  "ReceiveCoilActiveElements": "HC1-7;NC1,2",
  "ReceiveCoilName": "HeadNeck_64",
  "ReconMatrixPE": 104,
  "RepetitionTime": 1.49,
  "SAR": 0.0402753,
  "ScanOptions": "FS",
  "ScanningSequence": "EP",
  "SequenceName": "epfid2d1_104",
  "SequenceVariant": "SK_SS",
  "SeriesDescription": "func_task-things_run-4",
  "SeriesNumber": 20,
  "ShimSetting": [627, -7264, -8819, 584, -11, -226, 13, -21],
  "SliceThickness": 2,
  "SliceTiming": [0, 0.7825, 0.0975, 0.8825, 0.195, 0.98, 0.2925, 1.0775, 0.3925, 1.175, 0.49, 1.2725, 0.5875, 1.3725, 0.685, 0, 0.7825, 0.0975, 0.8825, 0.195, 0.98, 0.2925, 1.0775, 0.3925, 1.175, 0.49, 1.2725, 0.5875, 1.3725, 0.685, 0, 0.7825, 0.0975, 0.8825, 0.195, 0.98, 0.2925, 1.0775, 0.3925, 1.175, 0.49, 1.2725, 0.5875, 1.3725, 0.685, 0, 0.7825, 0.0975, 0.8825, 0.195, 0.98, 0.2925, 1.0775, 0.3925, 1.175, 0.49, 1.2725, 0.5875, 1.3725, 0.685],
  "SoftwareVersions": "syngo_MR_E11",
  "SpacingBetweenSlices": 2,
  "StationName": "MRC35049",
  "TaskName": "things",
  "TotalReadoutTime": 0.0576811,
  "TxRefAmp": 241.197,
  "WipMemBlock": "873b1a93-e792-4319-8f3f-6dd7613a788a||Sequence: R016 ve11c/master r/e634e98; Dec 19 2017 11:00:25 by eja",
  "dcmmeta_affine": [
    [-1.997644066810608, 0.09595374763011932, -0.014524119906127453, 102.53569793701172],
    [0.09582746028900146, 1.9030309915542603, -0.607692301273346, -72.80683898925781],
    [0.01533525250852108, 0.607672393321991, 1.9053869247436523, -61.064117431640625],
    [0.0, 0.0, 0.0, 1.0]
],
  "dcmmeta_reorient_transform": [
    [0.0, -1.0, 0.0, 103.0],
    [1.0, 0.0, 0.0, 0.0],
    [0.0, 0.0, 1.0, 0.0],
    [0.0, 0.0, 0.0, 1.0]
],
  "dcmmeta_shape": [104, 104, 60, 190],
  "dcmmeta_slice_dim": 2,
  "dcmmeta_version": 0.6,
  "global": {
    "const": {
      "AcquisitionMatrix": [104, 0, 0, 104],
      "AngioFlag": "N",
      "BitsAllocated": 16,
      "BitsStored": 16,
      "BodyPartExamined": "BRAIN",
      "Columns": 832,
      "EchoNumbers": 1,
      "EchoTime": 37.0,
      "EchoTrainLength": 104,
      "FlipAngle": 52.0,
      "HighBit": 15,
      "ImageOrientationPatient": [0.99882204716277, -0.0479137308818, 0.00766762639743, 0.04797687553348, 0.95151552154906, -0.3038361921583],
      "ImagePositionPatient": [-874.48855018749, -781.02745994626, 217.13685227337],
      "ImageType": [
        "ORIGINAL",
        "PRIMARY",
        "P",
        "MB",
        "ND",
        "MOSAIC"
],
      "ImagedNucleus": "1H",
      "ImagingFrequency": 123.258901,
      "InPlanePhaseEncodingDirection": "COL",
      "LargestImagePixelValue": 4095,
      "MRAcquisitionType": "2D",
      "MagneticFieldStrength": 3.0,
      "Manufacturer": "SIEMENS",
      "ManufacturerModelName": "Prisma_fit",
      "Modality": "MR",
      "NumberOfAverages": 1.0,
      "NumberOfPhaseEncodingSteps": 104,
      "PercentPhaseFieldOfView": 100.0,
      "PercentSampling": 100.0,
      "PerformedProcedureStepStartTime": "150704.209000",
      "PhotometricInterpretation": "MONOCHROME2",
      "PixelBandwidth": 2290.0,
      "PixelRepresentation": 0,
      "PixelSpacing": [2.0, 2.0],
      "ProtocolName": "func_task-things_run-4",
      "RepetitionTime": 1490.0,
      "RescaleIntercept": -4096.0,
      "RescaleSlope": 2.0,
      "RescaleType": "US",
      "Rows": 832,
      "SAR": 0.04027532596652,
      "SamplesPerPixel": 1,
      "ScanOptions": "FS",
      "ScanningSequence": "EP",
      "SequenceName": "epfid2d1_104",
      "SequenceVariant": [
        "SK",
        "SS"
],
      "SeriesDescription": "func_task-things_run-4",
      "SeriesNumber": 20,
      "SeriesTime": "154531.251000",
      "SliceLocation": -36.797926872852,
      "SliceThickness": 2.0,
      "SmallestImagePixelValue": 0,
      "SoftwareVersions": "syngo MR E11",
      "SpacingBetweenSlices": 2.0000000402152,
      "SpecificCharacterSet": "ISO_IR 100",
      "StudyID": "1",
      "StudyTime": "150704.154000",
      "TransmitCoilName": "Body",
      "VariableFlipAngleFlag": "N",
      "WindowCenterWidthExplanation": "Algo1",
      "dBdt": 0.0},
    "slices": {}
  },
  "time": {
    "samples": {
      "AcquisitionNumber": [1, 2, 3, 4, 5, 6, 7, 8, 9, 10, 11, 12, 13, 14, 15, 16, 17, 18, 19, 20, 21, 22, 23, 24, 25, 26, 27, 28, 29, 30, 31, 32, 33, 34, 35, 36, 37, 38, 39, 40, 41, 42, 43, 44, 45, 46, 47, 48, 49, 50, 51, 52, 53, 54, 55, 56, 57, 58, 59, 60, 61, 62, 63, 64, 65, 66, 67, 68, 69, 70, 71, 72, 73, 74, 75, 76, 77, 78, 79, 80, 81, 82, 83, 84, 85, 86, 87, 88, 89, 90, 91, 92, 93, 94, 95, 96, 97, 98, 99, 100, 101, 102, 103, 104, 105, 106, 107, 108, 109, 110, 111, 112, 113, 114, 115, 116, 117, 118, 119, 120, 121, 122, 123, 124, 125, 126, 127, 128, 129, 130, 131, 132, 133, 134, 135, 136, 137, 138, 139, 140, 141, 142, 143, 144, 145, 146, 147, 148, 149, 150, 151, 152, 153, 154, 155, 156, 157, 158, 159, 160, 161, 162, 163, 164, 165, 166, 167, 168, 169, 170, 171, 172, 173, 174, 175, 176, 177, 178, 179, 180, 181, 182, 183, 184, 185, 186, 187, 188, 189, 190],
      "AcquisitionTime": ["154409.182500", "154410.672500", "154412.162500", "154413.652500", "154415.142500", "154416.632500", "154418.122500", "154419.612500", "154421.102500", "154422.592500", "154424.082500", "154425.572500", "154427.062500", "154428.552500", "154430.042500", "154431.532500", "154433.022500", "154434.512500", "154436.002500", "154437.492500", "154438.982500", "154440.472500", "154441.962500", "154443.452500", "154444.942500", "154446.432500", "154447.922500", "154449.412500", "154450.902500", "154452.392500", "154453.882500", "154455.372500", "154456.862500", "154458.352500", "154459.842500", "154501.332500", "154502.822500", "154504.312500", "154505.802500", "154507.292500", "154508.782500", "154510.272500", "154511.762500", "154513.252500", "154514.742500", "154516.232500", "154517.722500", "154519.212500", "154520.702500", "154522.192500", "154523.682500", "154525.172500", "154526.662500", "154528.152500", "154529.642500", "154531.132500", "154532.622500", "154534.112500", "154535.602500", "154537.092500", "154538.582500", "154540.072500", "154541.562500", "154543.052500", "154544.542500", "154546.032500", "154547.522500", "154549.012500", "154550.502500", "154551.992500", "154553.482500", "154554.972500", "154556.462500", "154557.952500", "154559.442500", "154600.932500", "154602.422500", "154603.912500", "154605.402500", "154606.892500", "154608.382500", "154609.872500", "154611.362500", "154612.852500", "154614.342500", "154615.832500", "154617.322500", "154618.812500", "154620.302500", "154621.792500", "154623.282500", "154624.772500", "154626.262500", "154627.752500", "154629.242500", "154630.732500", "154632.222500", "154633.712500", "154635.202500", "154636.692500", "154638.182500", "154639.672500", "154641.162500", "154642.652500", "154644.142500", "154645.632500", "154647.122500", "154648.612500", "154650.102500", "154651.592500", "154653.082500", "154654.572500", "154656.062500", "154657.552500", "154659.042500", "154700.532500", "154702.022500", "154703.512500", "154705.002500", "154706.492500", "154707.982500", "154709.472500", "154710.962500", "154712.452500", "154713.942500", "154715.432500", "154716.922500", "154718.412500", "154719.902500", "154721.392500", "154722.882500", "154724.372500", "154725.862500", "154727.352500", "154728.842500", "154730.332500", "154731.822500", "154733.312500", "154734.802500", "154736.292500", "154737.782500", "154739.272500", "154740.762500", "154742.252500", "154743.742500", "154745.232500", "154746.722500", "154748.212500", "154749.702500", "154751.192500", "154752.682500", "154754.172500", "154755.662500", "154757.152500", "154758.642500", "154800.132500", "154801.622500", "154803.112500", "154804.602500", "154806.092500", "154807.582500", "154809.072500", "154810.562500", "154812.052500", "154813.542500", "154815.032500", "154816.522500", "154818.012500", "154819.502500", "154820.992500", "154822.482500", "154823.972500", "154825.462500", "154826.952500", "154828.442500", "154829.932500", "154831.422500", "154832.912500", "154834.402500", "154835.892500", "154837.382500", "154838.872500", "154840.362500", "154841.852500", "154843.342500", "154844.832500", "154846.322500", "154847.812500", "154849.302500", "154850.792500"],
      "ContentTime": ["154531.253000", "154531.256000", "154531.259000", "154531.261000", "154531.264000", "154531.266000", "154531.269000", "154531.271000", "154531.273000", "154531.276000", "154531.278000", "154531.281000", "154531.283000", "154531.286000", "154531.288000", "154531.291000", "154531.293000", "154531.296000", "154531.298000", "154531.300000", "154531.303000", "154531.305000", "154531.308000", "154531.310000", "154531.313000", "154531.315000", "154531.318000", "154531.320000", "154551.171000", "154551.176000", "154551.179000", "154551.181000", "154551.184000", "154551.186000", "154551.189000", "154551.191000", "154551.194000", "154551.196000", "154551.199000", "154551.202000", "154551.205000", "154551.207000", "154551.209000", "154551.212000", "154551.214000", "154551.217000", "154551.219000", "154551.222000", "154611.181000", "154611.184000", "154611.186000", "154611.189000", "154611.191000", "154611.194000", "154611.196000", "154611.199000", "154611.201000", "154611.203000", "154611.206000", "154611.208000", "154611.211000", "154611.213000", "154611.216000", "154611.218000", "154611.221000", "154611.223000", "154611.226000", "154611.228000", "154631.152000", "154631.154000", "154631.157000", "154631.159000", "154631.162000", "154631.164000", "154631.167000", "154631.169000", "154631.171000", "154631.174000", "154631.177000", "154631.179000", "154631.181000", "154631.184000", "154631.186000", "154631.189000", "154631.191000", "154631.194000", "154631.196000", "154631.199000", "154651.162000", "154651.165000", "154651.167000", "154651.170000", "154651.172000", "154651.174000", "154651.177000", "154651.179000", "154651.182000", "154651.184000", "154651.187000", "154651.189000", "154651.192000", "154651.194000", "154651.197000", "154651.199000", "154651.202000", "154651.204000", "154651.207000", "154651.209000", "154731.194000", "154731.197000", "154731.200000", "154731.203000", "154731.205000", "154731.209000", "154731.212000", "154731.214000", "154731.217000", "154731.220000", "154731.227000", "154731.230000", "154731.233000", "154731.236000", "154731.238000", "154731.241000", "154731.244000", "154731.247000", "154731.250000", "154731.253000", "154731.256000", "154731.258000", "154731.261000", "154731.264000", "154731.267000", "154731.270000", "154811.205000", "154811.208000", "154811.210000", "154811.213000", "154811.215000", "154811.217000", "154811.220000", "154811.222000", "154811.225000", "154811.227000", "154811.230000", "154811.232000", "154811.235000", "154811.237000", "154811.240000", "154811.242000", "154811.245000", "154811.247000", "154811.250000", "154811.252000", "154811.255000", "154811.257000", "154811.261000", "154811.264000", "154811.266000", "154811.269000", "154811.271000", "154851.184000", "154851.187000", "154851.190000", "154851.192000", "154851.194000", "154851.197000", "154851.199000", "154851.202000", "154851.204000", "154851.207000", "154851.209000", "154851.212000", "154851.214000", "154851.217000", "154851.219000", "154851.222000", "154851.224000", "154851.227000", "154851.229000", "154851.232000", "154851.234000", "154851.237000", "154851.239000", "154851.241000", "154851.244000", "154851.246000", "154851.249000", "154853.233000", "154853.236000"],
      "InstanceCreationTime": ["154531.253000", "154531.256000", "154531.259000", "154531.261000", "154531.264000", "154531.266000", "154531.269000", "154531.271000", "154531.273000", "154531.276000", "154531.278000", "154531.281000", "154531.283000", "154531.286000", "154531.288000", "154531.291000", "154531.293000", "154531.296000", "154531.298000", "154531.300000", "154531.303000", "154531.305000", "154531.308000", "154531.310000", "154531.313000", "154531.315000", "154531.318000", "154531.320000", "154551.171000", "154551.176000", "154551.179000", "154551.181000", "154551.184000", "154551.186000", "154551.189000", "154551.191000", "154551.194000", "154551.196000", "154551.199000", "154551.202000", "154551.205000", "154551.207000", "154551.209000", "154551.212000", "154551.214000", "154551.217000", "154551.219000", "154551.222000", "154611.181000", "154611.184000", "154611.186000", "154611.189000", "154611.191000", "154611.194000", "154611.196000", "154611.199000", "154611.201000", "154611.203000", "154611.206000", "154611.208000", "154611.211000", "154611.213000", "154611.216000", "154611.218000", "154611.221000", "154611.223000", "154611.226000", "154611.228000", "154631.152000", "154631.154000", "154631.157000", "154631.159000", "154631.162000", "154631.164000", "154631.167000", "154631.169000", "154631.171000", "154631.174000", "154631.177000", "154631.179000", "154631.181000", "154631.184000", "154631.186000", "154631.189000", "154631.191000", "154631.194000", "154631.196000", "154631.199000", "154651.162000", "154651.165000", "154651.167000", "154651.170000", "154651.172000", "154651.174000", "154651.177000", "154651.179000", "154651.182000", "154651.184000", "154651.187000", "154651.189000", "154651.192000", "154651.194000", "154651.197000", "154651.199000", "154651.202000", "154651.204000", "154651.207000", "154651.209000", "154731.194000", "154731.197000", "154731.200000", "154731.203000", "154731.205000", "154731.209000", "154731.212000", "154731.214000", "154731.217000", "154731.220000", "154731.227000", "154731.230000", "154731.233000", "154731.236000", "154731.238000", "154731.241000", "154731.244000", "154731.247000", "154731.250000", "154731.253000", "154731.256000", "154731.258000", "154731.261000", "154731.264000", "154731.267000", "154731.270000", "154811.205000", "154811.208000", "154811.210000", "154811.213000", "154811.215000", "154811.217000", "154811.220000", "154811.222000", "154811.225000", "154811.227000", "154811.230000", "154811.232000", "154811.235000", "154811.237000", "154811.240000", "154811.242000", "154811.245000", "154811.247000", "154811.250000", "154811.252000", "154811.255000", "154811.257000", "154811.261000", "154811.264000", "154811.266000", "154811.269000", "154811.271000", "154851.184000", "154851.187000", "154851.190000", "154851.192000", "154851.194000", "154851.197000", "154851.199000", "154851.202000", "154851.204000", "154851.207000", "154851.209000", "154851.212000", "154851.214000", "154851.217000", "154851.219000", "154851.222000", "154851.224000", "154851.227000", "154851.229000", "154851.232000", "154851.234000", "154851.237000", "154851.239000", "154851.241000", "154851.244000", "154851.246000", "154851.249000", "154853.233000", "154853.236000"],
      "InstanceNumber": [1, 2, 3, 4, 5, 6, 7, 8, 9, 10, 11, 12, 13, 14, 15, 16, 17, 18, 19, 20, 21, 22, 23, 24, 25, 26, 27, 28, 29, 30, 31, 32, 33, 34, 35, 36, 37, 38, 39, 40, 41, 42, 43, 44, 45, 46, 47, 48, 49, 50, 51, 52, 53, 54, 55, 56, 57, 58, 59, 60, 61, 62, 63, 64, 65, 66, 67, 68, 69, 70, 71, 72, 73, 74, 75, 76, 77, 78, 79, 80, 81, 82, 83, 84, 85, 86, 87, 88, 89, 90, 91, 92, 93, 94, 95, 96, 97, 98, 99, 100, 101, 102, 103, 104, 105, 106, 107, 108, 109, 110, 111, 112, 113, 114, 115, 116, 117, 118, 119, 120, 121, 122, 123, 124, 125, 126, 127, 128, 129, 130, 131, 132, 133, 134, 135, 136, 137, 138, 139, 140, 141, 142, 143, 144, 145, 146, 147, 148, 149, 150, 151, 152, 153, 154, 155, 156, 157, 158, 159, 160, 161, 162, 163, 164, 165, 166, 167, 168, 169, 170, 171, 172, 173, 174, 175, 176, 177, 178, 179, 180, 181, 182, 183, 184, 185, 186, 187, 188, 189, 190],
      "WindowCenter": [4790.0, 4792.0, 4784.0, 4786.0, 4790.0, 4798.0, 4798.0, 4794.0, 4792.0, 4786.0, 4784.0, 4784.0, 4788.0, 4788.0, 4786.0, 4790.0, 4792.0, 4792.0, 4794.0, 4796.0, 4824.0, 4794.0, 4790.0, 4814.0, 4814.0, 4788.0, 4786.0, 4790.0, 4798.0, 4832.0, 4824.0, 4822.0, 4788.0, 4788.0, 4786.0, 4808.0, 4788.0, 4782.0, 4788.0, 4794.0, 4796.0, 4822.0, 4826.0, 4824.0, 4790.0, 4788.0, 4816.0, 4840.0, 4808.0, 4790.0, 4790.0, 4822.0, 4800.0, 4822.0, 4824.0, 4794.0, 4786.0, 4808.0, 4784.0, 4784.0, 4782.0, 4792.0, 4790.0, 4800.0, 4796.0, 4794.0, 4790.0, 4784.0, 4784.0, 4784.0, 4786.0, 4786.0, 4784.0, 4794.0, 4788.0, 4790.0, 4788.0, 4790.0, 4794.0, 4784.0, 4786.0, 4784.0, 4790.0, 4790.0, 4788.0, 4790.0, 4786.0, 4792.0, 4794.0, 4786.0, 4794.0, 4792.0, 4786.0, 4788.0, 4782.0, 4784.0, 4782.0, 4782.0, 4788.0, 4788.0, 4796.0, 4788.0, 4790.0, 4788.0, 4784.0, 4784.0, 4782.0, 4782.0, 4786.0, 4786.0, 4794.0, 4794.0, 4792.0, 4790.0, 4788.0, 4788.0, 4784.0, 4788.0, 4786.0, 4790.0, 4786.0, 4788.0, 4790.0, 4784.0, 4788.0, 4792.0, 4788.0, 4790.0, 4784.0, 4784.0, 4786.0, 4786.0, 4790.0, 4790.0, 4794.0, 4802.0, 4790.0, 4782.0, 4780.0, 4786.0, 4786.0, 4788.0, 4788.0, 4788.0, 4792.0, 4794.0, 4796.0, 4800.0, 4786.0, 4786.0, 4788.0, 4782.0, 4784.0, 4782.0, 4792.0, 4790.0, 4790.0, 4798.0, 4826.0, 4826.0, 4798.0, 4788.0, 4784.0, 4784.0, 4786.0, 4788.0, 4790.0, 4856.0, 4800.0, 4786.0, 4786.0, 4810.0, 4786.0, 4786.0, 4786.0, 4790.0, 4794.0, 4794.0, 4792.0, 4788.0, 4798.0, 4796.0, 4788.0, 4782.0, 4786.0, 4788.0, 4786.0, 4820.0, 4850.0, 4800.0],
      "WindowWidth": [18558.0, 18546.0, 18550.0, 18552.0, 18552.0, 18554.0, 18546.0, 18548.0, 18552.0, 18548.0, 18552.0, 18552.0, 18556.0, 18546.0, 18550.0, 18548.0, 18550.0, 18550.0, 18550.0, 18552.0, 18584.0, 18548.0, 18556.0, 18612.0, 18616.0, 18562.0, 18558.0, 18552.0, 18550.0, 18588.0, 18578.0, 18578.0, 18548.0, 18560.0, 18570.0, 18610.0, 18574.0, 18556.0, 18544.0, 18548.0, 18548.0, 18582.0, 18586.0, 18582.0, 18540.0, 18568.0, 18632.0, 18658.0, 18598.0, 18552.0, 18544.0, 18580.0, 18550.0, 18578.0, 18582.0, 18546.0, 18564.0, 18602.0, 18566.0, 18566.0, 18554.0, 18550.0, 18550.0, 18550.0, 18550.0, 18548.0, 18552.0, 18554.0, 18552.0, 18562.0, 18560.0, 18552.0, 18550.0, 18548.0, 18552.0, 18552.0, 18552.0, 18552.0, 18552.0, 18552.0, 18560.0, 18556.0, 18548.0, 18554.0, 18552.0, 18550.0, 18552.0, 18550.0, 18552.0, 18556.0, 18552.0, 18548.0, 18550.0, 18554.0, 18556.0, 18552.0, 18552.0, 18552.0, 18548.0, 18546.0, 18548.0, 18546.0, 18546.0, 18548.0, 18552.0, 18554.0, 18556.0, 18544.0, 18550.0, 18556.0, 18554.0, 18554.0, 18552.0, 18546.0, 18554.0, 18550.0, 18558.0, 18556.0, 18554.0, 18556.0, 18548.0, 18554.0, 18552.0, 18548.0, 18548.0, 18546.0, 18554.0, 18552.0, 18544.0, 18554.0, 18550.0, 18558.0, 18546.0, 18546.0, 18542.0, 18556.0, 18544.0, 18560.0, 18562.0, 18560.0, 18550.0, 18548.0, 18552.0, 18546.0, 18550.0, 18546.0, 18552.0, 18548.0, 18542.0, 18554.0, 18564.0, 18558.0, 18556.0, 18554.0, 18548.0, 18556.0, 18546.0, 18548.0, 18584.0, 18588.0, 18548.0, 18556.0, 18578.0, 18578.0, 18556.0, 18552.0, 18544.0, 18628.0, 18558.0, 18548.0, 18556.0, 18592.0, 18558.0, 18554.0, 18546.0, 18544.0, 18550.0, 18554.0, 18552.0, 18548.0, 18548.0, 18548.0, 18550.0, 18564.0, 18550.0, 18544.0, 18552.0, 18582.0, 18612.0, 18546.0]
    },
    "slices": {}
  }
}