{
  "AcquisitionMatrixPE": 104,
  "AcquisitionNumber": 1,
  "AcquisitionTime": "15:31:42.617500",
  "BandwidthPerPixelPhaseEncode": 17.17,
  "BaseResolution": 104,
  "BodyPartExamined": "BRAIN",
  "CoilString": "HC1-7;NC1_2",
  "ConsistencyInfo": "N4_VE11C_LATEST_20160120",
  "ConversionSoftware": "dcm2niix",
  "ConversionSoftwareVersion": "v1.0.20190902",
  "DerivedVendorReportedEchoSpacing": 0.000560011,
  "DeviceSerialNumber": "167006",
  "DwellTime": 2.1e-06,
  "EchoTime": 0.037,
  "EchoTrainLength": 104,
  "EffectiveEchoSpacing": 0.000560011,
  "FlipAngle": 52,
  "ImageComments": "Unaliased_MB4_PE3_LB",
  "ImageOrientationPatientDICOM": [0.998822, -0.0479137, 0.00766763, 0.0479769, 0.951515, -0.303836],
  "ImageType": [
    "ORIGINAL",
    "PRIMARY",
    "P",
    "MB",
    "ND",
    "MOSAIC"
],
  "ImagingFrequency": 123.259,
  "InPlanePhaseEncodingDirectionDICOM": "COL",
  "InstitutionAddress": "Chemin_Queen-Mary_4565_Montreal_District_CA_H3W_1W5",
  "InstitutionName": "IUGM",
  "InstitutionalDepartmentName": "Department",
  "MRAcquisitionType": "2D",
  "MagneticFieldStrength": 3,
  "Manufacturer": "Siemens",
  "ManufacturersModelName": "Prisma_fit",
  "Modality": "MR",
  "MultibandAccelerationFactor": 4,
  "PartialFourier": 1,
  "PatientPosition": "HFS",
  "PercentPhaseFOV": 100,
  "PhaseEncodingDirection": "j",
  "PhaseEncodingSteps": 104,
  "PhaseResolution": 1,
  "PixelBandwidth": 2290,
  "ProcedureStepDescription": "memory_things",
  "ProtocolName": "func_task-things_run-2",
  "PulseSequenceDetails": "%CustomerSeq%_cmrr_mbep2d_bold",
  "ReceiveCoilActiveElements": "HC1-7;NC1,2",
  "ReceiveCoilName": "HeadNeck_64",
  "ReconMatrixPE": 104,
  "RepetitionTime": 1.49,
  "SAR": 0.0402753,
  "ScanOptions": "FS",
  "ScanningSequence": "EP",
  "SequenceName": "epfid2d1_104",
  "SequenceVariant": "SK_SS",
  "SeriesDescription": "func_task-things_run-2",
  "SeriesNumber": 14,
  "ShimSetting": [627, -7264, -8819, 584, -11, -226, 13, -21],
  "SliceThickness": 2,
  "SliceTiming": [0, 0.785, 0.0975, 0.8825, 0.195, 0.98, 0.295, 1.0775, 0.3925, 1.175, 0.49, 1.275, 0.5875, 1.3725, 0.685, 0, 0.785, 0.0975, 0.8825, 0.195, 0.98, 0.295, 1.0775, 0.3925, 1.175, 0.49, 1.275, 0.5875, 1.3725, 0.685, 0, 0.785, 0.0975, 0.8825, 0.195, 0.98, 0.295, 1.0775, 0.3925, 1.175, 0.49, 1.275, 0.5875, 1.3725, 0.685, 0, 0.785, 0.0975, 0.8825, 0.195, 0.98, 0.295, 1.0775, 0.3925, 1.175, 0.49, 1.275, 0.5875, 1.3725, 0.685],
  "SoftwareVersions": "syngo_MR_E11",
  "SpacingBetweenSlices": 2,
  "StationName": "MRC35049",
  "TaskName": "things",
  "TotalReadoutTime": 0.0576811,
  "TxRefAmp": 241.197,
  "WipMemBlock": "d1662a6b-7b93-43e8-bae3-26143bab8786||Sequence: R016 ve11c/master r/e634e98; Dec 19 2017 11:00:25 by eja",
  "dcmmeta_affine": [
    [-1.997644066810608, 0.09595374763011932, -0.014524119906127453, 102.53569793701172],
    [0.09582746028900146, 1.9030309915542603, -0.607692301273346, -72.80683898925781],
    [0.01533525250852108, 0.607672393321991, 1.9053869247436523, -61.064117431640625],
    [0.0, 0.0, 0.0, 1.0]
],
  "dcmmeta_reorient_transform": [
    [0.0, -1.0, 0.0, 103.0],
    [1.0, 0.0, 0.0, 0.0],
    [0.0, 0.0, 1.0, 0.0],
    [0.0, 0.0, 0.0, 1.0]
],
  "dcmmeta_shape": [104, 104, 60, 190],
  "dcmmeta_slice_dim": 2,
  "dcmmeta_version": 0.6,
  "global": {
    "const": {
      "AcquisitionMatrix": [104, 0, 0, 104],
      "AngioFlag": "N",
      "BitsAllocated": 16,
      "BitsStored": 16,
      "BodyPartExamined": "BRAIN",
      "Columns": 832,
      "EchoNumbers": 1,
      "EchoTime": 37.0,
      "EchoTrainLength": 104,
      "FlipAngle": 52.0,
      "HighBit": 15,
      "ImageOrientationPatient": [0.99882204716277, -0.0479137308818, 0.00766762639743, 0.04797687553348, 0.95151552154906, -0.3038361921583],
      "ImagePositionPatient": [-874.48855018749, -781.02745994626, 217.13685227337],
      "ImageType": [
        "ORIGINAL",
        "PRIMARY",
        "P",
        "MB",
        "ND",
        "MOSAIC"
],
      "ImagedNucleus": "1H",
      "ImagingFrequency": 123.258895,
      "InPlanePhaseEncodingDirection": "COL",
      "LargestImagePixelValue": 4095,
      "MRAcquisitionType": "2D",
      "MagneticFieldStrength": 3.0,
      "Manufacturer": "SIEMENS",
      "ManufacturerModelName": "Prisma_fit",
      "Modality": "MR",
      "NumberOfAverages": 1.0,
      "NumberOfPhaseEncodingSteps": 104,
      "PercentPhaseFieldOfView": 100.0,
      "PercentSampling": 100.0,
      "PerformedProcedureStepStartTime": "150704.209000",
      "PhotometricInterpretation": "MONOCHROME2",
      "PixelBandwidth": 2290.0,
      "PixelRepresentation": 0,
      "PixelSpacing": [2.0, 2.0],
      "ProtocolName": "func_task-things_run-2",
      "RepetitionTime": 1490.0,
      "RescaleIntercept": -4096.0,
      "RescaleSlope": 2.0,
      "RescaleType": "US",
      "Rows": 832,
      "SAR": 0.04027532596652,
      "SamplesPerPixel": 1,
      "ScanOptions": "FS",
      "ScanningSequence": "EP",
      "SequenceName": "epfid2d1_104",
      "SequenceVariant": [
        "SK",
        "SS"
],
      "SeriesDescription": "func_task-things_run-2",
      "SeriesNumber": 14,
      "SeriesTime": "153313.229000",
      "SliceLocation": -36.797926872852,
      "SliceThickness": 2.0,
      "SmallestImagePixelValue": 0,
      "SoftwareVersions": "syngo MR E11",
      "SpacingBetweenSlices": 2.0000000402152,
      "SpecificCharacterSet": "ISO_IR 100",
      "StudyID": "1",
      "StudyTime": "150704.154000",
      "TransmitCoilName": "Body",
      "VariableFlipAngleFlag": "N",
      "WindowCenterWidthExplanation": "Algo1",
      "dBdt": 0.0},
    "slices": {}
  },
  "time": {
    "samples": {
      "AcquisitionNumber": [1, 2, 3, 4, 5, 6, 7, 8, 9, 10, 11, 12, 13, 14, 15, 16, 17, 18, 19, 20, 21, 22, 23, 24, 25, 26, 27, 28, 29, 30, 31, 32, 33, 34, 35, 36, 37, 38, 39, 40, 41, 42, 43, 44, 45, 46, 47, 48, 49, 50, 51, 52, 53, 54, 55, 56, 57, 58, 59, 60, 61, 62, 63, 64, 65, 66, 67, 68, 69, 70, 71, 72, 73, 74, 75, 76, 77, 78, 79, 80, 81, 82, 83, 84, 85, 86, 87, 88, 89, 90, 91, 92, 93, 94, 95, 96, 97, 98, 99, 100, 101, 102, 103, 104, 105, 106, 107, 108, 109, 110, 111, 112, 113, 114, 115, 116, 117, 118, 119, 120, 121, 122, 123, 124, 125, 126, 127, 128, 129, 130, 131, 132, 133, 134, 135, 136, 137, 138, 139, 140, 141, 142, 143, 144, 145, 146, 147, 148, 149, 150, 151, 152, 153, 154, 155, 156, 157, 158, 159, 160, 161, 162, 163, 164, 165, 166, 167, 168, 169, 170, 171, 172, 173, 174, 175, 176, 177, 178, 179, 180, 181, 182, 183, 184, 185, 186, 187, 188, 189, 190],
      "AcquisitionTime": ["153142.617500", "153144.107500", "153145.597500", "153147.087500", "153148.577500", "153150.067500", "153151.557500", "153153.047500", "153154.537500", "153156.027500", "153157.517500", "153159.007500", "153200.497500", "153201.987500", "153203.477500", "153204.967500", "153206.457500", "153207.947500", "153209.437500", "153210.927500", "153212.417500", "153213.907500", "153215.397500", "153216.887500", "153218.377500", "153219.867500", "153221.357500", "153222.847500", "153224.337500", "153225.827500", "153227.317500", "153228.807500", "153230.297500", "153231.787500", "153233.277500", "153234.767500", "153236.257500", "153237.747500", "153239.237500", "153240.727500", "153242.217500", "153243.707500", "153245.197500", "153246.687500", "153248.177500", "153249.667500", "153251.157500", "153252.647500", "153254.137500", "153255.627500", "153257.117500", "153258.607500", "153300.097500", "153301.587500", "153303.077500", "153304.567500", "153306.057500", "153307.547500", "153309.037500", "153310.527500", "153312.017500", "153313.507500", "153314.997500", "153316.487500", "153317.977500", "153319.467500", "153320.957500", "153322.447500", "153323.937500", "153325.427500", "153326.917500", "153328.407500", "153329.897500", "153331.387500", "153332.877500", "153334.367500", "153335.857500", "153337.347500", "153338.837500", "153340.327500", "153341.817500", "153343.307500", "153344.797500", "153346.287500", "153347.777500", "153349.267500", "153350.757500", "153352.247500", "153353.737500", "153355.227500", "153356.717500", "153358.207500", "153359.697500", "153401.187500", "153402.677500", "153404.167500", "153405.657500", "153407.147500", "153408.637500", "153410.127500", "153411.617500", "153413.107500", "153414.597500", "153416.087500", "153417.577500", "153419.067500", "153420.557500", "153422.047500", "153423.537500", "153425.027500", "153426.517500", "153428.007500", "153429.497500", "153430.987500", "153432.477500", "153433.967500", "153435.457500", "153436.947500", "153438.437500", "153439.927500", "153441.417500", "153442.907500", "153444.397500", "153445.887500", "153447.377500", "153448.867500", "153450.357500", "153451.847500", "153453.337500", "153454.827500", "153456.317500", "153457.807500", "153459.297500", "153500.787500", "153502.277500", "153503.767500", "153505.257500", "153506.747500", "153508.237500", "153509.727500", "153511.217500", "153512.707500", "153514.197500", "153515.687500", "153517.177500", "153518.667500", "153520.157500", "153521.647500", "153523.137500", "153524.627500", "153526.117500", "153527.607500", "153529.097500", "153530.587500", "153532.077500", "153533.567500", "153535.057500", "153536.547500", "153538.037500", "153539.527500", "153541.017500", "153542.507500", "153543.997500", "153545.487500", "153546.977500", "153548.467500", "153549.957500", "153551.447500", "153552.937500", "153554.427500", "153555.917500", "153557.407500", "153558.897500", "153600.387500", "153601.877500", "153603.367500", "153604.857500", "153606.347500", "153607.837500", "153609.327500", "153610.817500", "153612.307500", "153613.797500", "153615.287500", "153616.777500", "153618.267500", "153619.757500", "153621.247500", "153622.737500", "153624.227500"],
      "ContentTime": ["153313.231000", "153313.234000", "153313.237000", "153313.239000", "153313.242000", "153313.244000", "153313.247000", "153313.249000", "153313.252000", "153313.254000", "153313.257000", "153313.259000", "153313.262000", "153313.264000", "153313.266000", "153313.269000", "153313.271000", "153313.274000", "153313.276000", "153313.279000", "153313.281000", "153313.284000", "153313.286000", "153313.289000", "153313.297000", "153313.300000", "153313.302000", "153313.305000", "153313.307000", "153313.310000", "153313.312000", "153313.315000", "153313.317000", "153313.320000", "153313.322000", "153313.325000", "153333.137000", "153333.140000", "153333.142000", "153333.151000", "153333.154000", "153333.156000", "153333.159000", "153333.161000", "153333.164000", "153333.166000", "153333.169000", "153333.171000", "153333.173000", "153333.176000", "153333.178000", "153333.181000", "153333.183000", "153333.186000", "153333.189000", "153333.191000", "153353.123000", "153353.126000", "153353.128000", "153353.131000", "153353.133000", "153353.136000", "153353.138000", "153353.141000", "153353.143000", "153353.146000", "153353.148000", "153353.151000", "153353.153000", "153353.156000", "153353.158000", "153353.161000", "153353.163000", "153353.165000", "153353.168000", "153353.170000", "153413.134000", "153413.136000", "153413.139000", "153413.141000", "153413.144000", "153413.146000", "153413.149000", "153413.151000", "153413.154000", "153413.156000", "153413.159000", "153413.161000", "153413.164000", "153413.166000", "153413.169000", "153413.171000", "153413.173000", "153413.176000", "153413.178000", "153413.181000", "153453.171000", "153453.173000", "153453.176000", "153453.178000", "153453.181000", "153453.183000", "153453.186000", "153453.188000", "153453.191000", "153453.193000", "153453.196000", "153453.198000", "153453.201000", "153453.210000", "153453.212000", "153453.215000", "153453.217000", "153453.220000", "153453.222000", "153453.225000", "153453.227000", "153453.230000", "153453.232000", "153453.235000", "153453.237000", "153453.240000", "153453.242000", "153453.245000", "153453.247000", "153453.250000", "153453.252000", "153533.173000", "153533.176000", "153533.178000", "153533.181000", "153533.183000", "153533.186000", "153533.188000", "153533.191000", "153533.193000", "153533.196000", "153533.198000", "153533.201000", "153533.203000", "153533.206000", "153533.208000", "153533.211000", "153533.213000", "153533.216000", "153533.218000", "153533.221000", "153533.223000", "153533.226000", "153533.228000", "153533.231000", "153533.233000", "153533.236000", "153533.238000", "153553.097000", "153553.102000", "153553.105000", "153553.107000", "153553.110000", "153553.112000", "153553.115000", "153553.117000", "153553.119000", "153553.122000", "153553.124000", "153553.127000", "153553.129000", "153626.284000", "153626.287000", "153626.289000", "153626.292000", "153626.294000", "153626.297000", "153626.299000", "153626.302000", "153626.304000", "153626.307000", "153626.310000", "153626.312000", "153626.315000", "153626.317000", "153626.320000", "153626.323000", "153626.326000", "153626.328000", "153626.331000", "153626.333000", "153626.336000", "153626.339000", "153626.342000"],
      "InstanceCreationTime": ["153313.231000", "153313.234000", "153313.237000", "153313.239000", "153313.242000", "153313.244000", "153313.247000", "153313.249000", "153313.252000", "153313.254000", "153313.257000", "153313.259000", "153313.262000", "153313.264000", "153313.266000", "153313.269000", "153313.271000", "153313.274000", "153313.276000", "153313.279000", "153313.281000", "153313.284000", "153313.286000", "153313.289000", "153313.297000", "153313.300000", "153313.302000", "153313.305000", "153313.307000", "153313.310000", "153313.312000", "153313.315000", "153313.317000", "153313.320000", "153313.322000", "153313.325000", "153333.137000", "153333.140000", "153333.142000", "153333.151000", "153333.154000", "153333.156000", "153333.159000", "153333.161000", "153333.164000", "153333.166000", "153333.169000", "153333.171000", "153333.173000", "153333.176000", "153333.178000", "153333.181000", "153333.183000", "153333.186000", "153333.189000", "153333.191000", "153353.123000", "153353.126000", "153353.128000", "153353.131000", "153353.133000", "153353.136000", "153353.138000", "153353.141000", "153353.143000", "153353.146000", "153353.148000", "153353.151000", "153353.153000", "153353.156000", "153353.158000", "153353.161000", "153353.163000", "153353.165000", "153353.168000", "153353.170000", "153413.134000", "153413.136000", "153413.139000", "153413.141000", "153413.144000", "153413.146000", "153413.149000", "153413.151000", "153413.154000", "153413.156000", "153413.159000", "153413.161000", "153413.164000", "153413.166000", "153413.169000", "153413.171000", "153413.173000", "153413.176000", "153413.178000", "153413.181000", "153453.171000", "153453.173000", "153453.176000", "153453.178000", "153453.181000", "153453.183000", "153453.186000", "153453.188000", "153453.191000", "153453.193000", "153453.196000", "153453.198000", "153453.201000", "153453.210000", "153453.212000", "153453.215000", "153453.217000", "153453.220000", "153453.222000", "153453.225000", "153453.227000", "153453.230000", "153453.232000", "153453.235000", "153453.237000", "153453.240000", "153453.242000", "153453.245000", "153453.247000", "153453.250000", "153453.252000", "153533.173000", "153533.176000", "153533.178000", "153533.181000", "153533.183000", "153533.186000", "153533.188000", "153533.191000", "153533.193000", "153533.196000", "153533.198000", "153533.201000", "153533.203000", "153533.206000", "153533.208000", "153533.211000", "153533.213000", "153533.216000", "153533.218000", "153533.221000", "153533.223000", "153533.226000", "153533.228000", "153533.231000", "153533.233000", "153533.236000", "153533.238000", "153553.097000", "153553.102000", "153553.105000", "153553.107000", "153553.110000", "153553.112000", "153553.115000", "153553.117000", "153553.119000", "153553.122000", "153553.124000", "153553.127000", "153553.129000", "153626.284000", "153626.287000", "153626.289000", "153626.292000", "153626.294000", "153626.297000", "153626.299000", "153626.302000", "153626.304000", "153626.307000", "153626.310000", "153626.312000", "153626.315000", "153626.317000", "153626.320000", "153626.323000", "153626.326000", "153626.328000", "153626.331000", "153626.333000", "153626.336000", "153626.339000", "153626.342000"],
      "InstanceNumber": [1, 2, 3, 4, 5, 6, 7, 8, 9, 10, 11, 12, 13, 14, 15, 16, 17, 18, 19, 20, 21, 22, 23, 24, 25, 26, 27, 28, 29, 30, 31, 32, 33, 34, 35, 36, 37, 38, 39, 40, 41, 42, 43, 44, 45, 46, 47, 48, 49, 50, 51, 52, 53, 54, 55, 56, 57, 58, 59, 60, 61, 62, 63, 64, 65, 66, 67, 68, 69, 70, 71, 72, 73, 74, 75, 76, 77, 78, 79, 80, 81, 82, 83, 84, 85, 86, 87, 88, 89, 90, 91, 92, 93, 94, 95, 96, 97, 98, 99, 100, 101, 102, 103, 104, 105, 106, 107, 108, 109, 110, 111, 112, 113, 114, 115, 116, 117, 118, 119, 120, 121, 122, 123, 124, 125, 126, 127, 128, 129, 130, 131, 132, 133, 134, 135, 136, 137, 138, 139, 140, 141, 142, 143, 144, 145, 146, 147, 148, 149, 150, 151, 152, 153, 154, 155, 156, 157, 158, 159, 160, 161, 162, 163, 164, 165, 166, 167, 168, 169, 170, 171, 172, 173, 174, 175, 176, 177, 178, 179, 180, 181, 182, 183, 184, 185, 186, 187, 188, 189, 190],
      "WindowCenter": [4786.0, 4794.0, 4790.0, 4790.0, 4792.0, 4796.0, 4788.0, 4812.0, 4788.0, 4788.0, 4788.0, 4790.0, 4790.0, 4794.0, 4796.0, 4788.0, 4788.0, 4788.0, 4790.0, 4792.0, 4788.0, 4784.0, 4786.0, 4786.0, 4790.0, 4786.0, 4788.0, 4796.0, 4832.0, 4830.0, 4786.0, 4812.0, 4816.0, 4820.0, 4818.0, 4786.0, 4794.0, 4798.0, 4820.0, 4796.0, 4794.0, 4794.0, 4788.0, 4810.0, 4816.0, 4814.0, 4810.0, 4786.0, 4794.0, 4794.0, 4796.0, 4796.0, 4790.0, 4794.0, 4792.0, 4812.0, 4812.0, 4812.0, 4788.0, 4788.0, 4788.0, 4798.0, 4794.0, 4786.0, 4792.0, 4790.0, 4786.0, 4786.0, 4790.0, 4786.0, 4794.0, 4792.0, 4788.0, 4790.0, 4784.0, 4786.0, 4792.0, 4788.0, 4788.0, 4788.0, 4786.0, 4788.0, 4788.0, 4790.0, 4788.0, 4788.0, 4790.0, 4788.0, 4788.0, 4788.0, 4788.0, 4794.0, 4790.0, 4788.0, 4788.0, 4792.0, 4792.0, 4788.0, 4788.0, 4792.0, 4784.0, 4790.0, 4792.0, 4788.0, 4788.0, 4786.0, 4790.0, 4788.0, 4792.0, 4794.0, 4788.0, 4790.0, 4784.0, 4786.0, 4790.0, 4784.0, 4790.0, 4794.0, 4788.0, 4794.0, 4790.0, 4792.0, 4792.0, 4790.0, 4790.0, 4790.0, 4788.0, 4810.0, 4788.0, 4790.0, 4788.0, 4790.0, 4794.0, 4790.0, 4786.0, 4788.0, 4784.0, 4788.0, 4786.0, 4788.0, 4792.0, 4788.0, 4788.0, 4786.0, 4798.0, 4788.0, 4786.0, 4788.0, 4784.0, 4786.0, 4788.0, 4788.0, 4792.0, 4792.0, 4786.0, 4788.0, 4790.0, 4796.0, 4794.0, 4790.0, 4810.0, 4810.0, 4812.0, 4792.0, 4786.0, 4822.0, 4824.0, 4792.0, 4790.0, 4792.0, 4788.0, 4786.0, 4788.0, 4786.0, 4786.0, 4790.0, 4786.0, 4794.0, 4786.0, 4794.0, 4794.0, 4794.0, 4786.0, 4788.0, 4784.0, 4784.0, 4784.0, 4788.0, 4796.0, 4794.0],
      "WindowWidth": [18556.0, 18548.0, 18550.0, 18556.0, 18546.0, 18548.0, 18562.0, 18604.0, 18558.0, 18566.0, 18550.0, 18548.0, 18554.0, 18546.0, 18548.0, 18550.0, 18552.0, 18562.0, 18564.0, 18554.0, 18534.0, 18552.0, 18560.0, 18560.0, 18552.0, 18554.0, 18552.0, 18544.0, 18584.0, 18592.0, 18538.0, 18606.0, 18624.0, 18630.0, 18614.0, 18558.0, 18556.0, 18554.0, 18582.0, 18550.0, 18546.0, 18546.0, 18546.0, 18606.0, 18616.0, 18606.0, 18600.0, 18552.0, 18554.0, 18552.0, 18546.0, 18554.0, 18550.0, 18542.0, 18556.0, 18602.0, 18604.0, 18590.0, 18558.0, 18554.0, 18552.0, 18546.0, 18550.0, 18544.0, 18548.0, 18556.0, 18558.0, 18554.0, 18570.0, 18554.0, 18546.0, 18550.0, 18550.0, 18542.0, 18548.0, 18548.0, 18548.0, 18558.0, 18552.0, 18558.0, 18558.0, 18546.0, 18550.0, 18552.0, 18548.0, 18554.0, 18548.0, 18550.0, 18548.0, 18550.0, 18552.0, 18550.0, 18552.0, 18548.0, 18546.0, 18552.0, 18546.0, 18554.0, 18550.0, 18550.0, 18554.0, 18550.0, 18552.0, 18552.0, 18548.0, 18556.0, 18552.0, 18552.0, 18552.0, 18548.0, 18552.0, 18542.0, 18546.0, 18550.0, 18548.0, 18550.0, 18552.0, 18554.0, 18546.0, 18552.0, 18552.0, 18546.0, 18548.0, 18552.0, 18542.0, 18542.0, 18564.0, 18598.0, 18564.0, 18548.0, 18552.0, 18548.0, 18548.0, 18554.0, 18544.0, 18546.0, 18552.0, 18550.0, 18554.0, 18552.0, 18544.0, 18552.0, 18560.0, 18550.0, 18542.0, 18548.0, 18558.0, 18554.0, 18552.0, 18556.0, 18548.0, 18550.0, 18548.0, 18548.0, 18546.0, 18548.0, 18546.0, 18548.0, 18542.0, 18552.0, 18604.0, 18602.0, 18600.0, 18554.0, 18542.0, 18580.0, 18580.0, 18544.0, 18550.0, 18546.0, 18556.0, 18560.0, 18548.0, 18556.0, 18548.0, 18550.0, 18548.0, 18546.0, 18548.0, 18548.0, 18544.0, 18552.0, 18558.0, 18558.0, 18556.0, 18558.0, 18556.0, 18552.0, 18548.0, 18548.0]
    },
    "slices": {}
  }
}