{
  "AcquisitionMatrixPE": 104,
  "AcquisitionNumber": 1,
  "AcquisitionTime": "15:50:20.422500",
  "BandwidthPerPixelPhaseEncode": 17.17,
  "BaseResolution": 104,
  "BodyPartExamined": "BRAIN",
  "CoilString": "HC1-7;NC1_2",
  "ConsistencyInfo": "N4_VE11C_LATEST_20160120",
  "ConversionSoftware": "dcm2niix",
  "ConversionSoftwareVersion": "v1.0.20190902",
  "DerivedVendorReportedEchoSpacing": 0.000560011,
  "DeviceSerialNumber": "167006",
  "DwellTime": 2.1e-06,
  "EchoTime": 0.037,
  "EchoTrainLength": 104,
  "EffectiveEchoSpacing": 0.000560011,
  "FlipAngle": 52,
  "ImageComments": "Unaliased_MB4_PE3_LB",
  "ImageOrientationPatientDICOM": [0.998822, -0.0479137, 0.00766763, 0.0479769, 0.951515, -0.303836],
  "ImageType": [
    "ORIGINAL",
    "PRIMARY",
    "P",
    "MB",
    "ND",
    "MOSAIC"
],
  "ImagingFrequency": 123.259,
  "InPlanePhaseEncodingDirectionDICOM": "COL",
  "InstitutionAddress": "Chemin_Queen-Mary_4565_Montreal_District_CA_H3W_1W5",
  "InstitutionName": "IUGM",
  "InstitutionalDepartmentName": "Department",
  "MRAcquisitionType": "2D",
  "MagneticFieldStrength": 3,
  "Manufacturer": "Siemens",
  "ManufacturersModelName": "Prisma_fit",
  "Modality": "MR",
  "MultibandAccelerationFactor": 4,
  "PartialFourier": 1,
  "PatientPosition": "HFS",
  "PercentPhaseFOV": 100,
  "PhaseEncodingDirection": "j",
  "PhaseEncodingSteps": 104,
  "PhaseResolution": 1,
  "PixelBandwidth": 2290,
  "ProcedureStepDescription": "memory_things",
  "ProtocolName": "func_task-things_run-5",
  "PulseSequenceDetails": "%CustomerSeq%_cmrr_mbep2d_bold",
  "ReceiveCoilActiveElements": "HC1-7;NC1,2",
  "ReceiveCoilName": "HeadNeck_64",
  "ReconMatrixPE": 104,
  "RepetitionTime": 1.49,
  "SAR": 0.0402753,
  "ScanOptions": "FS",
  "ScanningSequence": "EP",
  "SequenceName": "epfid2d1_104",
  "SequenceVariant": "SK_SS",
  "SeriesDescription": "func_task-things_run-5",
  "SeriesNumber": 23,
  "ShimSetting": [627, -7264, -8819, 584, -11, -226, 13, -21],
  "SliceThickness": 2,
  "SliceTiming": [0, 0.7825, 0.0975, 0.8825, 0.195, 0.98, 0.2925, 1.0775, 0.3925, 1.175, 0.49, 1.2725, 0.5875, 1.3725, 0.685, 0, 0.7825, 0.0975, 0.8825, 0.195, 0.98, 0.2925, 1.0775, 0.3925, 1.175, 0.49, 1.2725, 0.5875, 1.3725, 0.685, 0, 0.7825, 0.0975, 0.8825, 0.195, 0.98, 0.2925, 1.0775, 0.3925, 1.175, 0.49, 1.2725, 0.5875, 1.3725, 0.685, 0, 0.7825, 0.0975, 0.8825, 0.195, 0.98, 0.2925, 1.0775, 0.3925, 1.175, 0.49, 1.2725, 0.5875, 1.3725, 0.685],
  "SoftwareVersions": "syngo_MR_E11",
  "SpacingBetweenSlices": 2,
  "StationName": "MRC35049",
  "TaskName": "things",
  "TotalReadoutTime": 0.0576811,
  "TxRefAmp": 241.197,
  "WipMemBlock": "ad58b75d-ad9a-4aa5-9725-334c845b7637||Sequence: R016 ve11c/master r/e634e98; Dec 19 2017 11:00:25 by eja",
  "dcmmeta_affine": [
    [-1.997644066810608, 0.09595374763011932, -0.014524119906127453, 102.53569793701172],
    [0.09582746028900146, 1.9030309915542603, -0.607692301273346, -72.80683898925781],
    [0.01533525250852108, 0.607672393321991, 1.9053869247436523, -61.064117431640625],
    [0.0, 0.0, 0.0, 1.0]
],
  "dcmmeta_reorient_transform": [
    [0.0, -1.0, 0.0, 103.0],
    [1.0, 0.0, 0.0, 0.0],
    [0.0, 0.0, 1.0, 0.0],
    [0.0, 0.0, 0.0, 1.0]
],
  "dcmmeta_shape": [104, 104, 60, 190],
  "dcmmeta_slice_dim": 2,
  "dcmmeta_version": 0.6,
  "global": {
    "const": {
      "AcquisitionMatrix": [104, 0, 0, 104],
      "AngioFlag": "N",
      "BitsAllocated": 16,
      "BitsStored": 16,
      "BodyPartExamined": "BRAIN",
      "Columns": 832,
      "EchoNumbers": 1,
      "EchoTime": 37.0,
      "EchoTrainLength": 104,
      "FlipAngle": 52.0,
      "HighBit": 15,
      "ImageOrientationPatient": [0.99882204716277, -0.0479137308818, 0.00766762639743, 0.04797687553348, 0.95151552154906, -0.3038361921583],
      "ImagePositionPatient": [-874.48855018749, -781.02745994626, 217.13685227337],
      "ImageType": [
        "ORIGINAL",
        "PRIMARY",
        "P",
        "MB",
        "ND",
        "MOSAIC"
],
      "ImagedNucleus": "1H",
      "ImagingFrequency": 123.258905,
      "InPlanePhaseEncodingDirection": "COL",
      "LargestImagePixelValue": 4095,
      "MRAcquisitionType": "2D",
      "MagneticFieldStrength": 3.0,
      "Manufacturer": "SIEMENS",
      "ManufacturerModelName": "Prisma_fit",
      "Modality": "MR",
      "NumberOfAverages": 1.0,
      "NumberOfPhaseEncodingSteps": 104,
      "PercentPhaseFieldOfView": 100.0,
      "PercentSampling": 100.0,
      "PerformedProcedureStepStartTime": "150704.209000",
      "PhotometricInterpretation": "MONOCHROME2",
      "PixelBandwidth": 2290.0,
      "PixelRepresentation": 0,
      "PixelSpacing": [2.0, 2.0],
      "ProtocolName": "func_task-things_run-5",
      "RepetitionTime": 1490.0,
      "RescaleIntercept": -4096.0,
      "RescaleSlope": 2.0,
      "RescaleType": "US",
      "Rows": 832,
      "SAR": 0.04027532596652,
      "SamplesPerPixel": 1,
      "ScanOptions": "FS",
      "ScanningSequence": "EP",
      "SequenceName": "epfid2d1_104",
      "SequenceVariant": [
        "SK",
        "SS"
],
      "SeriesDescription": "func_task-things_run-5",
      "SeriesNumber": 23,
      "SeriesTime": "155133.175000",
      "SliceLocation": -36.797926872852,
      "SliceThickness": 2.0,
      "SmallestImagePixelValue": 0,
      "SoftwareVersions": "syngo MR E11",
      "SpacingBetweenSlices": 2.0000000402152,
      "SpecificCharacterSet": "ISO_IR 100",
      "StudyID": "1",
      "StudyTime": "150704.154000",
      "TransmitCoilName": "Body",
      "VariableFlipAngleFlag": "N",
      "WindowCenterWidthExplanation": "Algo1",
      "dBdt": 0.0},
    "slices": {}
  },
  "time": {
    "samples": {
      "AcquisitionNumber": [1, 2, 3, 4, 5, 6, 7, 8, 9, 10, 11, 12, 13, 14, 15, 16, 17, 18, 19, 20, 21, 22, 23, 24, 25, 26, 27, 28, 29, 30, 31, 32, 33, 34, 35, 36, 37, 38, 39, 40, 41, 42, 43, 44, 45, 46, 47, 48, 49, 50, 51, 52, 53, 54, 55, 56, 57, 58, 59, 60, 61, 62, 63, 64, 65, 66, 67, 68, 69, 70, 71, 72, 73, 74, 75, 76, 77, 78, 79, 80, 81, 82, 83, 84, 85, 86, 87, 88, 89, 90, 91, 92, 93, 94, 95, 96, 97, 98, 99, 100, 101, 102, 103, 104, 105, 106, 107, 108, 109, 110, 111, 112, 113, 114, 115, 116, 117, 118, 119, 120, 121, 122, 123, 124, 125, 126, 127, 128, 129, 130, 131, 132, 133, 134, 135, 136, 137, 138, 139, 140, 141, 142, 143, 144, 145, 146, 147, 148, 149, 150, 151, 152, 153, 154, 155, 156, 157, 158, 159, 160, 161, 162, 163, 164, 165, 166, 167, 168, 169, 170, 171, 172, 173, 174, 175, 176, 177, 178, 179, 180, 181, 182, 183, 184, 185, 186, 187, 188, 189, 190],
      "AcquisitionTime": ["155020.422500", "155021.912500", "155023.402500", "155024.892500", "155026.382500", "155027.872500", "155029.362500", "155030.852500", "155032.342500", "155033.832500", "155035.322500", "155036.812500", "155038.302500", "155039.792500", "155041.282500", "155042.772500", "155044.262500", "155045.752500", "155047.242500", "155048.732500", "155050.222500", "155051.712500", "155053.202500", "155054.692500", "155056.182500", "155057.672500", "155059.162500", "155100.652500", "155102.142500", "155103.632500", "155105.122500", "155106.612500", "155108.102500", "155109.592500", "155111.082500", "155112.572500", "155114.062500", "155115.552500", "155117.042500", "155118.532500", "155120.022500", "155121.512500", "155123.002500", "155124.492500", "155125.982500", "155127.472500", "155128.962500", "155130.452500", "155131.942500", "155133.432500", "155134.922500", "155136.412500", "155137.902500", "155139.392500", "155140.882500", "155142.372500", "155143.862500", "155145.352500", "155146.842500", "155148.332500", "155149.822500", "155151.312500", "155152.802500", "155154.292500", "155155.782500", "155157.272500", "155158.762500", "155200.252500", "155201.742500", "155203.232500", "155204.722500", "155206.212500", "155207.702500", "155209.192500", "155210.682500", "155212.172500", "155213.662500", "155215.152500", "155216.642500", "155218.132500", "155219.622500", "155221.112500", "155222.602500", "155224.092500", "155225.582500", "155227.072500", "155228.562500", "155230.052500", "155231.542500", "155233.032500", "155234.522500", "155236.012500", "155237.502500", "155238.992500", "155240.482500", "155241.972500", "155243.462500", "155244.952500", "155246.442500", "155247.932500", "155249.422500", "155250.912500", "155252.402500", "155253.892500", "155255.382500", "155256.872500", "155258.362500", "155259.852500", "155301.342500", "155302.832500", "155304.322500", "155305.812500", "155307.302500", "155308.792500", "155310.282500", "155311.772500", "155313.262500", "155314.752500", "155316.242500", "155317.732500", "155319.222500", "155320.712500", "155322.202500", "155323.692500", "155325.182500", "155326.672500", "155328.162500", "155329.652500", "155331.142500", "155332.632500", "155334.122500", "155335.612500", "155337.102500", "155338.592500", "155340.082500", "155341.572500", "155343.062500", "155344.552500", "155346.042500", "155347.532500", "155349.022500", "155350.512500", "155352.002500", "155353.492500", "155354.982500", "155356.472500", "155357.962500", "155359.452500", "155400.942500", "155402.432500", "155403.922500", "155405.412500", "155406.902500", "155408.392500", "155409.882500", "155411.372500", "155412.862500", "155414.352500", "155415.842500", "155417.332500", "155418.822500", "155420.312500", "155421.802500", "155423.292500", "155424.782500", "155426.272500", "155427.762500", "155429.252500", "155430.742500", "155432.232500", "155433.722500", "155435.212500", "155436.702500", "155438.192500", "155439.682500", "155441.172500", "155442.662500", "155444.152500", "155445.642500", "155447.132500", "155448.622500", "155450.112500", "155451.602500", "155453.092500", "155454.582500", "155456.072500", "155457.562500", "155459.052500", "155500.542500", "155502.032500"],
      "ContentTime": ["155133.177000", "155133.180000", "155133.183000", "155133.208000", "155133.210000", "155133.213000", "155133.215000", "155133.218000", "155133.220000", "155133.222000", "155133.225000", "155133.227000", "155133.230000", "155133.232000", "155133.235000", "155133.237000", "155133.240000", "155133.242000", "155133.245000", "155133.247000", "155153.152000", "155153.155000", "155153.157000", "155153.160000", "155153.162000", "155153.165000", "155153.167000", "155153.170000", "155153.172000", "155153.175000", "155153.177000", "155153.180000", "155153.182000", "155153.185000", "155153.187000", "155153.190000", "155153.192000", "155153.195000", "155153.197000", "155153.200000", "155153.202000", "155213.151000", "155213.154000", "155213.156000", "155213.159000", "155213.166000", "155213.168000", "155213.170000", "155213.173000", "155213.175000", "155213.178000", "155213.180000", "155213.183000", "155213.185000", "155213.188000", "155213.190000", "155213.193000", "155213.195000", "155213.197000", "155213.200000", "155213.202000", "155233.121000", "155233.124000", "155233.127000", "155233.129000", "155233.132000", "155233.134000", "155233.139000", "155233.142000", "155233.144000", "155233.147000", "155233.149000", "155233.152000", "155233.154000", "155233.157000", "155233.159000", "155233.162000", "155233.164000", "155233.166000", "155233.169000", "155233.172000", "155253.138000", "155253.140000", "155253.143000", "155253.145000", "155253.148000", "155253.150000", "155253.153000", "155253.155000", "155253.158000", "155253.160000", "155253.163000", "155253.165000", "155253.168000", "155253.170000", "155253.173000", "155253.175000", "155253.178000", "155253.180000", "155253.183000", "155253.185000", "155333.151000", "155333.154000", "155333.156000", "155333.165000", "155333.167000", "155333.170000", "155333.172000", "155333.175000", "155333.177000", "155333.180000", "155333.182000", "155333.185000", "155333.187000", "155333.190000", "155333.192000", "155333.195000", "155333.197000", "155333.200000", "155333.202000", "155333.205000", "155333.207000", "155333.210000", "155333.212000", "155333.215000", "155333.217000", "155333.220000", "155333.222000", "155333.225000", "155413.171000", "155413.174000", "155413.176000", "155413.179000", "155413.181000", "155413.184000", "155413.186000", "155413.189000", "155413.191000", "155413.194000", "155413.196000", "155413.199000", "155413.201000", "155413.204000", "155413.206000", "155413.209000", "155413.211000", "155413.214000", "155413.216000", "155413.219000", "155413.221000", "155413.224000", "155413.226000", "155413.229000", "155413.231000", "155413.234000", "155413.236000", "155453.162000", "155453.164000", "155453.167000", "155453.169000", "155453.172000", "155453.174000", "155453.177000", "155453.179000", "155453.182000", "155453.184000", "155453.187000", "155453.189000", "155453.192000", "155453.194000", "155453.196000", "155453.199000", "155453.202000", "155453.205000", "155453.207000", "155453.210000", "155453.212000", "155453.215000", "155453.218000", "155453.220000", "155453.223000", "155453.225000", "155503.771000", "155503.774000", "155503.776000", "155503.779000", "155503.782000", "155503.784000", "155503.787000", "155503.789000"],
      "InstanceCreationTime": ["155133.177000", "155133.180000", "155133.183000", "155133.208000", "155133.210000", "155133.213000", "155133.215000", "155133.218000", "155133.220000", "155133.222000", "155133.225000", "155133.227000", "155133.230000", "155133.232000", "155133.235000", "155133.237000", "155133.240000", "155133.242000", "155133.245000", "155133.247000", "155153.152000", "155153.155000", "155153.157000", "155153.160000", "155153.162000", "155153.165000", "155153.167000", "155153.170000", "155153.172000", "155153.175000", "155153.177000", "155153.180000", "155153.182000", "155153.185000", "155153.187000", "155153.190000", "155153.192000", "155153.195000", "155153.197000", "155153.200000", "155153.202000", "155213.151000", "155213.154000", "155213.156000", "155213.159000", "155213.166000", "155213.168000", "155213.170000", "155213.173000", "155213.175000", "155213.178000", "155213.180000", "155213.183000", "155213.185000", "155213.188000", "155213.190000", "155213.193000", "155213.195000", "155213.197000", "155213.200000", "155213.202000", "155233.121000", "155233.124000", "155233.127000", "155233.129000", "155233.132000", "155233.134000", "155233.139000", "155233.142000", "155233.144000", "155233.147000", "155233.149000", "155233.152000", "155233.154000", "155233.157000", "155233.159000", "155233.162000", "155233.164000", "155233.166000", "155233.169000", "155233.172000", "155253.138000", "155253.140000", "155253.143000", "155253.145000", "155253.148000", "155253.150000", "155253.153000", "155253.155000", "155253.158000", "155253.160000", "155253.163000", "155253.165000", "155253.168000", "155253.170000", "155253.173000", "155253.175000", "155253.178000", "155253.180000", "155253.183000", "155253.185000", "155333.151000", "155333.154000", "155333.156000", "155333.165000", "155333.167000", "155333.170000", "155333.172000", "155333.175000", "155333.177000", "155333.180000", "155333.182000", "155333.185000", "155333.187000", "155333.190000", "155333.192000", "155333.195000", "155333.197000", "155333.200000", "155333.202000", "155333.205000", "155333.207000", "155333.210000", "155333.212000", "155333.215000", "155333.217000", "155333.220000", "155333.222000", "155333.225000", "155413.171000", "155413.174000", "155413.176000", "155413.179000", "155413.181000", "155413.184000", "155413.186000", "155413.189000", "155413.191000", "155413.194000", "155413.196000", "155413.199000", "155413.201000", "155413.204000", "155413.206000", "155413.209000", "155413.211000", "155413.214000", "155413.216000", "155413.219000", "155413.221000", "155413.224000", "155413.226000", "155413.229000", "155413.231000", "155413.234000", "155413.236000", "155453.162000", "155453.164000", "155453.167000", "155453.169000", "155453.172000", "155453.174000", "155453.177000", "155453.179000", "155453.182000", "155453.184000", "155453.187000", "155453.189000", "155453.192000", "155453.194000", "155453.196000", "155453.199000", "155453.202000", "155453.205000", "155453.207000", "155453.210000", "155453.212000", "155453.215000", "155453.218000", "155453.220000", "155453.223000", "155453.225000", "155503.771000", "155503.774000", "155503.776000", "155503.779000", "155503.782000", "155503.784000", "155503.787000", "155503.789000"],
      "InstanceNumber": [1, 2, 3, 4, 5, 6, 7, 8, 9, 10, 11, 12, 13, 14, 15, 16, 17, 18, 19, 20, 21, 22, 23, 24, 25, 26, 27, 28, 29, 30, 31, 32, 33, 34, 35, 36, 37, 38, 39, 40, 41, 42, 43, 44, 45, 46, 47, 48, 49, 50, 51, 52, 53, 54, 55, 56, 57, 58, 59, 60, 61, 62, 63, 64, 65, 66, 67, 68, 69, 70, 71, 72, 73, 74, 75, 76, 77, 78, 79, 80, 81, 82, 83, 84, 85, 86, 87, 88, 89, 90, 91, 92, 93, 94, 95, 96, 97, 98, 99, 100, 101, 102, 103, 104, 105, 106, 107, 108, 109, 110, 111, 112, 113, 114, 115, 116, 117, 118, 119, 120, 121, 122, 123, 124, 125, 126, 127, 128, 129, 130, 131, 132, 133, 134, 135, 136, 137, 138, 139, 140, 141, 142, 143, 144, 145, 146, 147, 148, 149, 150, 151, 152, 153, 154, 155, 156, 157, 158, 159, 160, 161, 162, 163, 164, 165, 166, 167, 168, 169, 170, 171, 172, 173, 174, 175, 176, 177, 178, 179, 180, 181, 182, 183, 184, 185, 186, 187, 188, 189, 190],
      "WindowCenter": [4782.0, 4782.0, 4784.0, 4786.0, 4794.0, 4788.0, 4786.0, 4792.0, 4812.0, 4814.0, 4812.0, 4814.0, 4792.0, 4792.0, 4790.0, 4790.0, 4788.0, 4784.0, 4786.0, 4786.0, 4786.0, 4782.0, 4812.0, 4786.0, 4788.0, 4788.0, 4782.0, 4786.0, 4784.0, 4784.0, 4786.0, 4782.0, 4808.0, 4784.0, 4784.0, 4786.0, 4784.0, 4790.0, 4790.0, 4788.0, 4810.0, 4788.0, 4792.0, 4790.0, 4786.0, 4792.0, 4788.0, 4788.0, 4786.0, 4790.0, 4788.0, 4810.0, 4812.0, 4812.0, 4790.0, 4788.0, 4784.0, 4790.0, 4794.0, 4786.0, 4786.0, 4812.0, 4812.0, 4808.0, 4786.0, 4790.0, 4788.0, 4794.0, 4788.0, 4788.0, 4784.0, 4784.0, 4784.0, 4784.0, 4784.0, 4786.0, 4782.0, 4786.0, 4786.0, 4786.0, 4786.0, 4784.0, 4784.0, 4792.0, 4788.0, 4808.0, 4782.0, 4808.0, 4788.0, 4784.0, 4784.0, 4786.0, 4784.0, 4788.0, 4786.0, 4780.0, 4786.0, 4784.0, 4786.0, 4784.0, 4786.0, 4788.0, 4784.0, 4788.0, 4790.0, 4784.0, 4788.0, 4786.0, 4786.0, 4786.0, 4782.0, 4790.0, 4788.0, 4786.0, 4786.0, 4784.0, 4784.0, 4786.0, 4782.0, 4784.0, 4780.0, 4786.0, 4784.0, 4782.0, 4784.0, 4788.0, 4784.0, 4784.0, 4806.0, 4786.0, 4786.0, 4784.0, 4784.0, 4784.0, 4792.0, 4790.0, 4782.0, 4786.0, 4782.0, 4808.0, 4782.0, 4782.0, 4786.0, 4784.0, 4788.0, 4784.0, 4784.0, 4788.0, 4784.0, 4780.0, 4780.0, 4786.0, 4782.0, 4786.0, 4784.0, 4784.0, 4790.0, 4784.0, 4786.0, 4784.0, 4786.0, 4782.0, 4784.0, 4784.0, 4784.0, 4786.0, 4786.0, 4786.0, 4780.0, 4782.0, 4790.0, 4784.0, 4784.0, 4792.0, 4790.0, 4786.0, 4786.0, 4786.0, 4782.0, 4784.0, 4784.0, 4784.0, 4782.0, 4784.0, 4786.0, 4782.0, 4784.0, 4782.0, 4784.0, 4790.0],
      "WindowWidth": [18562.0, 18560.0, 18560.0, 18554.0, 18546.0, 18550.0, 18562.0, 18564.0, 18604.0, 18612.0, 18608.0, 18596.0, 18544.0, 18550.0, 18550.0, 18550.0, 18552.0, 18564.0, 18568.0, 18560.0, 18564.0, 18568.0, 18604.0, 18560.0, 18540.0, 18556.0, 18558.0, 18554.0, 18546.0, 18566.0, 18564.0, 18568.0, 18596.0, 18552.0, 18554.0, 18556.0, 18558.0, 18550.0, 18558.0, 18568.0, 18602.0, 18562.0, 18560.0, 18566.0, 18558.0, 18562.0, 18558.0, 18554.0, 18560.0, 18554.0, 18556.0, 18598.0, 18606.0, 18596.0, 18548.0, 18558.0, 18556.0, 18546.0, 18550.0, 18546.0, 18570.0, 18616.0, 18620.0, 18608.0, 18550.0, 18550.0, 18552.0, 18546.0, 18550.0, 18560.0, 18552.0, 18570.0, 18574.0, 18556.0, 18568.0, 18558.0, 18550.0, 18562.0, 18548.0, 18560.0, 18556.0, 18556.0, 18554.0, 18542.0, 18554.0, 18600.0, 18558.0, 18604.0, 18562.0, 18558.0, 18556.0, 18556.0, 18556.0, 18552.0, 18552.0, 18556.0, 18556.0, 18562.0, 18558.0, 18564.0, 18562.0, 18560.0, 18560.0, 18552.0, 18550.0, 18562.0, 18554.0, 18556.0, 18572.0, 18562.0, 18562.0, 18550.0, 18552.0, 18560.0, 18566.0, 18558.0, 18562.0, 18566.0, 18550.0, 18562.0, 18554.0, 18556.0, 18560.0, 18562.0, 18550.0, 18550.0, 18546.0, 18572.0, 18604.0, 18576.0, 18568.0, 18554.0, 18552.0, 18554.0, 18548.0, 18550.0, 18558.0, 18560.0, 18562.0, 18604.0, 18566.0, 18564.0, 18554.0, 18556.0, 18554.0, 18548.0, 18552.0, 18554.0, 18560.0, 18564.0, 18558.0, 18572.0, 18570.0, 18556.0, 18562.0, 18554.0, 18554.0, 18552.0, 18548.0, 18558.0, 18552.0, 18558.0, 18556.0, 18566.0, 18564.0, 18562.0, 18550.0, 18560.0, 18562.0, 18558.0, 18556.0, 18552.0, 18546.0, 18550.0, 18556.0, 18560.0, 18564.0, 18566.0, 18542.0, 18556.0, 18558.0, 18554.0, 18558.0, 18558.0, 18560.0, 18556.0, 18554.0, 18558.0, 18554.0, 18548.0]
    },
    "slices": {}
  }
}