{
  "AcquisitionMatrixPE": 104,
  "AcquisitionNumber": 1,
  "AcquisitionTime": "15:31:42.617500",
  "BandwidthPerPixelPhaseEncode": 17.17,
  "BaseResolution": 104,
  "BodyPartExamined": "BRAIN",
  "CoilString": "HC1-7;NC1_2",
  "ConsistencyInfo": "N4_VE11C_LATEST_20160120",
  "ConversionSoftware": "dcm2niix",
  "ConversionSoftwareVersion": "v1.0.20190902",
  "DerivedVendorReportedEchoSpacing": 0.000560011,
  "DeviceSerialNumber": "167006",
  "DwellTime": 2.1e-06,
  "EchoTime": 0.037,
  "EchoTrainLength": 104,
  "EffectiveEchoSpacing": 0.000560011,
  "FlipAngle": 52,
  "ImageComments": "Unaliased_MB4_PE3_LB",
  "ImageOrientationPatientDICOM": [0.998822, -0.0479137, 0.00766763, 0.0479769, 0.951515, -0.303836],
  "ImageType": [
    "ORIGINAL",
    "PRIMARY",
    "M",
    "MB",
    "ND",
    "MOSAIC"
],
  "ImagingFrequency": 123.259,
  "InPlanePhaseEncodingDirectionDICOM": "COL",
  "InstitutionAddress": "Chemin_Queen-Mary_4565_Montreal_District_CA_H3W_1W5",
  "InstitutionName": "IUGM",
  "InstitutionalDepartmentName": "Department",
  "MRAcquisitionType": "2D",
  "MagneticFieldStrength": 3,
  "Manufacturer": "Siemens",
  "ManufacturersModelName": "Prisma_fit",
  "Modality": "MR",
  "MultibandAccelerationFactor": 4,
  "PartialFourier": 1,
  "PatientPosition": "HFS",
  "PercentPhaseFOV": 100,
  "PhaseEncodingDirection": "j",
  "PhaseEncodingSteps": 104,
  "PhaseResolution": 1,
  "PixelBandwidth": 2290,
  "ProcedureStepDescription": "memory_things",
  "ProtocolName": "func_task-things_run-2",
  "PulseSequenceDetails": "%CustomerSeq%_cmrr_mbep2d_bold",
  "ReceiveCoilActiveElements": "HC1-7;NC1,2",
  "ReceiveCoilName": "HeadNeck_64",
  "ReconMatrixPE": 104,
  "RepetitionTime": 1.49,
  "SAR": 0.0402753,
  "ScanOptions": "FS",
  "ScanningSequence": "EP",
  "SequenceName": "epfid2d1_104",
  "SequenceVariant": "SK_SS",
  "SeriesDescription": "func_task-things_run-2",
  "SeriesNumber": 13,
  "ShimSetting": [627, -7264, -8819, 584, -11, -226, 13, -21],
  "SliceThickness": 2,
  "SliceTiming": [0, 0.785, 0.0975, 0.8825, 0.195, 0.98, 0.295, 1.0775, 0.3925, 1.175, 0.49, 1.275, 0.5875, 1.3725, 0.685, 0, 0.785, 0.0975, 0.8825, 0.195, 0.98, 0.295, 1.0775, 0.3925, 1.175, 0.49, 1.275, 0.5875, 1.3725, 0.685, 0, 0.785, 0.0975, 0.8825, 0.195, 0.98, 0.295, 1.0775, 0.3925, 1.175, 0.49, 1.275, 0.5875, 1.3725, 0.685, 0, 0.785, 0.0975, 0.8825, 0.195, 0.98, 0.295, 1.0775, 0.3925, 1.175, 0.49, 1.275, 0.5875, 1.3725, 0.685],
  "SoftwareVersions": "syngo_MR_E11",
  "SpacingBetweenSlices": 2,
  "StationName": "MRC35049",
  "TaskName": "things",
  "TotalReadoutTime": 0.0576811,
  "TxRefAmp": 241.197,
  "WipMemBlock": "d1662a6b-7b93-43e8-bae3-26143bab8786||Sequence: R016 ve11c/master r/e634e98; Dec 19 2017 11:00:25 by eja",
  "dcmmeta_affine": [
    [-1.997644066810608, 0.09595374763011932, -0.014524119906127453, 102.53569793701172],
    [0.09582746028900146, 1.9030309915542603, -0.607692301273346, -72.80683898925781],
    [0.01533525250852108, 0.607672393321991, 1.9053869247436523, -61.064117431640625],
    [0.0, 0.0, 0.0, 1.0]
],
  "dcmmeta_reorient_transform": [
    [0.0, -1.0, 0.0, 103.0],
    [1.0, 0.0, 0.0, 0.0],
    [0.0, 0.0, 1.0, 0.0],
    [0.0, 0.0, 0.0, 1.0]
],
  "dcmmeta_shape": [104, 104, 60, 190],
  "dcmmeta_slice_dim": 2,
  "dcmmeta_version": 0.6,
  "global": {
    "const": {
      "AcquisitionMatrix": [104, 0, 0, 104],
      "AngioFlag": "N",
      "BitsAllocated": 16,
      "BitsStored": 16,
      "BodyPartExamined": "BRAIN",
      "Columns": 832,
      "EchoNumbers": 1,
      "EchoTime": 37.0,
      "EchoTrainLength": 104,
      "FlipAngle": 52.0,
      "HighBit": 15,
      "ImageOrientationPatient": [0.99882204716277, -0.0479137308818, 0.00766762639743, 0.04797687553348, 0.95151552154906, -0.3038361921583],
      "ImagePositionPatient": [-874.48855018749, -781.02745994626, 217.13685227337],
      "ImageType": [
        "ORIGINAL",
        "PRIMARY",
        "M",
        "MB",
        "ND",
        "MOSAIC"
],
      "ImagedNucleus": "1H",
      "ImagingFrequency": 123.258895,
      "InPlanePhaseEncodingDirection": "COL",
      "MRAcquisitionType": "2D",
      "MagneticFieldStrength": 3.0,
      "Manufacturer": "SIEMENS",
      "ManufacturerModelName": "Prisma_fit",
      "Modality": "MR",
      "NumberOfAverages": 1.0,
      "NumberOfPhaseEncodingSteps": 104,
      "PercentPhaseFieldOfView": 100.0,
      "PercentSampling": 100.0,
      "PerformedProcedureStepStartTime": "150704.209000",
      "PhotometricInterpretation": "MONOCHROME2",
      "PixelBandwidth": 2290.0,
      "PixelRepresentation": 0,
      "PixelSpacing": [2.0, 2.0],
      "ProtocolName": "func_task-things_run-2",
      "RepetitionTime": 1490.0,
      "Rows": 832,
      "SAR": 0.04027532596652,
      "SamplesPerPixel": 1,
      "ScanOptions": "FS",
      "ScanningSequence": "EP",
      "SequenceName": "epfid2d1_104",
      "SequenceVariant": [
        "SK",
        "SS"
],
      "SeriesDescription": "func_task-things_run-2",
      "SeriesNumber": 13,
      "SeriesTime": "153313.058000",
      "SliceLocation": -36.797926872852,
      "SliceThickness": 2.0,
      "SmallestImagePixelValue": 0,
      "SoftwareVersions": "syngo MR E11",
      "SpacingBetweenSlices": 2.0000000402152,
      "SpecificCharacterSet": "ISO_IR 100",
      "StudyID": "1",
      "StudyTime": "150704.154000",
      "TransmitCoilName": "Body",
      "VariableFlipAngleFlag": "N",
      "WindowCenterWidthExplanation": "Algo1",
      "dBdt": 0.0},
    "slices": {}
  },
  "time": {
    "samples": {
      "AcquisitionNumber": [1, 2, 3, 4, 5, 6, 7, 8, 9, 10, 11, 12, 13, 14, 15, 16, 17, 18, 19, 20, 21, 22, 23, 24, 25, 26, 27, 28, 29, 30, 31, 32, 33, 34, 35, 36, 37, 38, 39, 40, 41, 42, 43, 44, 45, 46, 47, 48, 49, 50, 51, 52, 53, 54, 55, 56, 57, 58, 59, 60, 61, 62, 63, 64, 65, 66, 67, 68, 69, 70, 71, 72, 73, 74, 75, 76, 77, 78, 79, 80, 81, 82, 83, 84, 85, 86, 87, 88, 89, 90, 91, 92, 93, 94, 95, 96, 97, 98, 99, 100, 101, 102, 103, 104, 105, 106, 107, 108, 109, 110, 111, 112, 113, 114, 115, 116, 117, 118, 119, 120, 121, 122, 123, 124, 125, 126, 127, 128, 129, 130, 131, 132, 133, 134, 135, 136, 137, 138, 139, 140, 141, 142, 143, 144, 145, 146, 147, 148, 149, 150, 151, 152, 153, 154, 155, 156, 157, 158, 159, 160, 161, 162, 163, 164, 165, 166, 167, 168, 169, 170, 171, 172, 173, 174, 175, 176, 177, 178, 179, 180, 181, 182, 183, 184, 185, 186, 187, 188, 189, 190],
      "AcquisitionTime": ["153142.617500", "153144.107500", "153145.597500", "153147.087500", "153148.577500", "153150.067500", "153151.557500", "153153.047500", "153154.537500", "153156.027500", "153157.517500", "153159.007500", "153200.497500", "153201.987500", "153203.477500", "153204.967500", "153206.457500", "153207.947500", "153209.437500", "153210.927500", "153212.417500", "153213.907500", "153215.397500", "153216.887500", "153218.377500", "153219.867500", "153221.357500", "153222.847500", "153224.337500", "153225.827500", "153227.317500", "153228.807500", "153230.297500", "153231.787500", "153233.277500", "153234.767500", "153236.257500", "153237.747500", "153239.237500", "153240.727500", "153242.217500", "153243.707500", "153245.197500", "153246.687500", "153248.177500", "153249.667500", "153251.157500", "153252.647500", "153254.137500", "153255.627500", "153257.117500", "153258.607500", "153300.097500", "153301.587500", "153303.077500", "153304.567500", "153306.057500", "153307.547500", "153309.037500", "153310.527500", "153312.017500", "153313.507500", "153314.997500", "153316.487500", "153317.977500", "153319.467500", "153320.957500", "153322.447500", "153323.937500", "153325.427500", "153326.917500", "153328.407500", "153329.897500", "153331.387500", "153332.877500", "153334.367500", "153335.857500", "153337.347500", "153338.837500", "153340.327500", "153341.817500", "153343.307500", "153344.797500", "153346.287500", "153347.777500", "153349.267500", "153350.757500", "153352.247500", "153353.737500", "153355.227500", "153356.717500", "153358.207500", "153359.697500", "153401.187500", "153402.677500", "153404.167500", "153405.657500", "153407.147500", "153408.637500", "153410.127500", "153411.617500", "153413.107500", "153414.597500", "153416.087500", "153417.577500", "153419.067500", "153420.557500", "153422.047500", "153423.537500", "153425.027500", "153426.517500", "153428.007500", "153429.497500", "153430.987500", "153432.477500", "153433.967500", "153435.457500", "153436.947500", "153438.437500", "153439.927500", "153441.417500", "153442.907500", "153444.397500", "153445.887500", "153447.377500", "153448.867500", "153450.357500", "153451.847500", "153453.337500", "153454.827500", "153456.317500", "153457.807500", "153459.297500", "153500.787500", "153502.277500", "153503.767500", "153505.257500", "153506.747500", "153508.237500", "153509.727500", "153511.217500", "153512.707500", "153514.197500", "153515.687500", "153517.177500", "153518.667500", "153520.157500", "153521.647500", "153523.137500", "153524.627500", "153526.117500", "153527.607500", "153529.097500", "153530.587500", "153532.077500", "153533.567500", "153535.057500", "153536.547500", "153538.037500", "153539.527500", "153541.017500", "153542.507500", "153543.997500", "153545.487500", "153546.977500", "153548.467500", "153549.957500", "153551.447500", "153552.937500", "153554.427500", "153555.917500", "153557.407500", "153558.897500", "153600.387500", "153601.877500", "153603.367500", "153604.857500", "153606.347500", "153607.837500", "153609.327500", "153610.817500", "153612.307500", "153613.797500", "153615.287500", "153616.777500", "153618.267500", "153619.757500", "153621.247500", "153622.737500", "153624.227500"],
      "ContentTime": ["153313.062000", "153313.066000", "153313.069000", "153313.072000", "153313.076000", "153313.079000", "153313.086000", "153313.089000", "153313.092000", "153313.096000", "153313.099000", "153313.102000", "153313.106000", "153313.109000", "153313.112000", "153313.115000", "153313.119000", "153313.122000", "153313.125000", "153313.128000", "153313.132000", "153313.135000", "153313.138000", "153313.142000", "153313.145000", "153313.148000", "153313.152000", "153313.155000", "153313.158000", "153313.161000", "153313.165000", "153313.168000", "153313.171000", "153313.174000", "153313.178000", "153313.181000", "153333.016000", "153333.020000", "153333.034000", "153333.038000", "153333.041000", "153333.044000", "153333.047000", "153333.050000", "153333.054000", "153333.057000", "153333.060000", "153333.064000", "153333.067000", "153333.070000", "153333.073000", "153333.077000", "153333.080000", "153333.083000", "153333.086000", "153333.090000", "153353.016000", "153353.020000", "153353.023000", "153353.026000", "153353.030000", "153353.033000", "153353.036000", "153353.039000", "153353.043000", "153353.046000", "153353.049000", "153353.053000", "153353.056000", "153353.059000", "153353.062000", "153353.066000", "153353.069000", "153353.072000", "153353.076000", "153353.079000", "153413.016000", "153413.020000", "153413.023000", "153413.026000", "153413.030000", "153413.033000", "153413.036000", "153413.039000", "153413.043000", "153413.046000", "153413.049000", "153413.052000", "153413.056000", "153413.059000", "153413.062000", "153413.065000", "153413.069000", "153413.072000", "153413.075000", "153413.079000", "153453.016000", "153453.020000", "153453.023000", "153453.026000", "153453.030000", "153453.033000", "153453.036000", "153453.040000", "153453.043000", "153453.046000", "153453.049000", "153453.053000", "153453.056000", "153453.059000", "153453.063000", "153453.066000", "153453.069000", "153453.072000", "153453.076000", "153453.079000", "153453.082000", "153453.086000", "153453.089000", "153453.092000", "153453.095000", "153453.099000", "153453.102000", "153453.105000", "153453.108000", "153453.112000", "153453.115000", "153533.016000", "153533.020000", "153533.023000", "153533.027000", "153533.030000", "153533.033000", "153533.036000", "153533.040000", "153533.043000", "153533.057000", "153533.061000", "153533.064000", "153533.067000", "153533.070000", "153533.074000", "153533.077000", "153533.080000", "153533.084000", "153533.087000", "153533.090000", "153533.093000", "153533.097000", "153533.100000", "153533.103000", "153533.107000", "153533.110000", "153533.113000", "153553.016000", "153553.020000", "153553.023000", "153553.027000", "153553.030000", "153553.033000", "153553.036000", "153553.040000", "153553.043000", "153553.046000", "153553.050000", "153553.053000", "153553.056000", "153626.160000", "153626.164000", "153626.167000", "153626.171000", "153626.174000", "153626.177000", "153626.181000", "153626.184000", "153626.188000", "153626.191000", "153626.195000", "153626.198000", "153626.202000", "153626.205000", "153626.209000", "153626.212000", "153626.215000", "153626.219000", "153626.223000", "153626.226000", "153626.229000", "153626.233000", "153626.236000"],
      "InstanceCreationTime": ["153313.062000", "153313.066000", "153313.069000", "153313.072000", "153313.076000", "153313.079000", "153313.086000", "153313.089000", "153313.092000", "153313.096000", "153313.099000", "153313.102000", "153313.106000", "153313.109000", "153313.112000", "153313.115000", "153313.119000", "153313.122000", "153313.125000", "153313.128000", "153313.132000", "153313.135000", "153313.138000", "153313.142000", "153313.145000", "153313.148000", "153313.152000", "153313.155000", "153313.158000", "153313.161000", "153313.165000", "153313.168000", "153313.171000", "153313.174000", "153313.178000", "153313.181000", "153333.016000", "153333.020000", "153333.034000", "153333.038000", "153333.041000", "153333.044000", "153333.047000", "153333.050000", "153333.054000", "153333.057000", "153333.060000", "153333.064000", "153333.067000", "153333.070000", "153333.073000", "153333.077000", "153333.080000", "153333.083000", "153333.086000", "153333.090000", "153353.016000", "153353.020000", "153353.023000", "153353.026000", "153353.030000", "153353.033000", "153353.036000", "153353.039000", "153353.043000", "153353.046000", "153353.049000", "153353.053000", "153353.056000", "153353.059000", "153353.062000", "153353.066000", "153353.069000", "153353.072000", "153353.076000", "153353.079000", "153413.016000", "153413.020000", "153413.023000", "153413.026000", "153413.030000", "153413.033000", "153413.036000", "153413.039000", "153413.043000", "153413.046000", "153413.049000", "153413.052000", "153413.056000", "153413.059000", "153413.062000", "153413.065000", "153413.069000", "153413.072000", "153413.075000", "153413.079000", "153453.016000", "153453.020000", "153453.023000", "153453.026000", "153453.030000", "153453.033000", "153453.036000", "153453.040000", "153453.043000", "153453.046000", "153453.049000", "153453.053000", "153453.056000", "153453.059000", "153453.063000", "153453.066000", "153453.069000", "153453.072000", "153453.076000", "153453.079000", "153453.082000", "153453.086000", "153453.089000", "153453.092000", "153453.095000", "153453.099000", "153453.102000", "153453.105000", "153453.108000", "153453.112000", "153453.115000", "153533.016000", "153533.020000", "153533.023000", "153533.027000", "153533.030000", "153533.033000", "153533.036000", "153533.040000", "153533.043000", "153533.057000", "153533.061000", "153533.064000", "153533.067000", "153533.070000", "153533.074000", "153533.077000", "153533.080000", "153533.084000", "153533.087000", "153533.090000", "153533.093000", "153533.097000", "153533.100000", "153533.103000", "153533.107000", "153533.110000", "153533.113000", "153553.016000", "153553.020000", "153553.023000", "153553.027000", "153553.030000", "153553.033000", "153553.036000", "153553.040000", "153553.043000", "153553.046000", "153553.050000", "153553.053000", "153553.056000", "153626.160000", "153626.164000", "153626.167000", "153626.171000", "153626.174000", "153626.177000", "153626.181000", "153626.184000", "153626.188000", "153626.191000", "153626.195000", "153626.198000", "153626.202000", "153626.205000", "153626.209000", "153626.212000", "153626.215000", "153626.219000", "153626.223000", "153626.226000", "153626.229000", "153626.233000", "153626.236000"],
      "InstanceNumber": [1, 2, 3, 4, 5, 6, 7, 8, 9, 10, 11, 12, 13, 14, 15, 16, 17, 18, 19, 20, 21, 22, 23, 24, 25, 26, 27, 28, 29, 30, 31, 32, 33, 34, 35, 36, 37, 38, 39, 40, 41, 42, 43, 44, 45, 46, 47, 48, 49, 50, 51, 52, 53, 54, 55, 56, 57, 58, 59, 60, 61, 62, 63, 64, 65, 66, 67, 68, 69, 70, 71, 72, 73, 74, 75, 76, 77, 78, 79, 80, 81, 82, 83, 84, 85, 86, 87, 88, 89, 90, 91, 92, 93, 94, 95, 96, 97, 98, 99, 100, 101, 102, 103, 104, 105, 106, 107, 108, 109, 110, 111, 112, 113, 114, 115, 116, 117, 118, 119, 120, 121, 122, 123, 124, 125, 126, 127, 128, 129, 130, 131, 132, 133, 134, 135, 136, 137, 138, 139, 140, 141, 142, 143, 144, 145, 146, 147, 148, 149, 150, 151, 152, 153, 154, 155, 156, 157, 158, 159, 160, 161, 162, 163, 164, 165, 166, 167, 168, 169, 170, 171, 172, 173, 174, 175, 176, 177, 178, 179, 180, 181, 182, 183, 184, 185, 186, 187, 188, 189, 190],
      "LargestImagePixelValue": [44171, 42568, 42132, 42236, 41615, 42108, 41731, 41573, 41119, 40985, 40743, 41173, 40404, 41751, 41586, 41045, 41420, 40995, 41115, 41184, 41114, 40865, 40953, 41050, 40625, 40760, 40953, 40746, 40792, 41415, 41407, 40719, 40843, 40521, 39853, 40204, 40165, 40092, 40439, 40825, 41349, 40616, 40781, 40834, 40748, 39675, 39904, 39447, 39618, 40533, 39790, 40463, 40437, 40310, 40710, 40407, 40110, 40137, 40087, 40121, 40030, 40205, 40398, 40706, 40016, 40391, 40237, 40286, 40011, 40201, 39724, 40283, 40411, 40224, 40020, 40358, 40074, 40419, 40112, 40170, 40354, 39977, 40614, 40407, 39939, 40324, 39983, 40620, 40054, 40132, 40312, 39991, 40249, 40078, 40163, 40203, 40217, 40272, 40180, 39884, 39997, 39696, 40109, 40060, 39628, 40144, 39918, 40375, 39617, 40039, 40463, 39843, 40274, 40504, 40034, 39794, 39737, 39694, 39906, 39698, 40091, 39886, 40219, 40113, 39779, 39823, 40210, 39882, 39628, 39971, 39484, 39912, 39652, 39803, 39583, 40346, 40352, 39861, 39905, 40083, 39562, 40096, 39934, 39670, 40240, 39621, 39471, 40462, 39919, 39871, 40083, 40041, 40201, 40774, 39867, 39755, 40036, 40288, 39882, 39520, 40184, 40299, 40221, 40176, 40416, 40776, 40785, 40627, 40608, 40398, 40387, 40509, 40813, 40066, 40463, 40614, 39661, 40374, 40346, 40487, 40807, 40393, 40083, 40878, 40453, 40525, 40241, 40607, 40963, 40303],
      "WindowCenter": [10470.0, 10397.0, 10372.0, 10366.0, 10363.0, 10383.0, 10379.0, 10355.0, 10340.0, 10338.0, 10334.0, 10332.0, 10318.0, 10332.0, 10350.0, 10358.0, 10354.0, 10333.0, 10324.0, 10336.0, 10358.0, 10372.0, 10358.0, 10342.0, 10324.0, 10324.0, 10331.0, 10326.0, 10353.0, 10381.0, 10359.0, 10323.0, 10306.0, 10298.0, 10277.0, 10274.0, 10269.0, 10257.0, 10264.0, 10284.0, 10304.0, 10323.0, 10366.0, 10365.0, 10352.0, 10344.0, 10358.0, 10357.0, 10356.0, 10353.0, 10347.0, 10354.0, 10353.0, 10351.0, 10360.0, 10354.0, 10331.0, 10321.0, 10320.0, 10322.0, 10307.0, 10311.0, 10327.0, 10351.0, 10342.0, 10339.0, 10332.0, 10324.0, 10327.0, 10330.0, 10336.0, 10350.0, 10346.0, 10336.0, 10323.0, 10327.0, 10328.0, 10337.0, 10329.0, 10321.0, 10320.0, 10313.0, 10325.0, 10333.0, 10323.0, 10321.0, 10320.0, 10319.0, 10328.0, 10330.0, 10329.0, 10326.0, 10336.0, 10345.0, 10337.0, 10315.0, 10311.0, 10327.0, 10343.0, 10338.0, 10332.0, 10324.0, 10323.0, 10314.0, 10302.0, 10297.0, 10306.0, 10319.0, 10316.0, 10315.0, 10319.0, 10327.0, 10327.0, 10327.0, 10301.0, 10299.0, 10314.0, 10316.0, 10314.0, 10303.0, 10299.0, 10305.0, 10311.0, 10305.0, 10313.0, 10339.0, 10340.0, 10324.0, 10301.0, 10297.0, 10300.0, 10313.0, 10309.0, 10315.0, 10316.0, 10329.0, 10337.0, 10333.0, 10325.0, 10323.0, 10318.0, 10332.0, 10334.0, 10343.0, 10370.0, 10360.0, 10316.0, 10291.0, 10281.0, 10305.0, 10315.0, 10322.0, 10341.0, 10347.0, 10331.0, 10320.0, 10319.0, 10344.0, 10356.0, 10319.0, 10298.0, 10281.0, 10279.0, 10288.0, 10289.0, 10289.0, 10282.0, 10288.0, 10288.0, 10289.0, 10305.0, 10314.0, 10317.0, 10315.0, 10330.0, 10340.0, 10333.0, 10338.0, 10337.0, 10352.0, 10371.0, 10370.0, 10336.0, 10311.0, 10287.0, 10291.0, 10289.0, 10292.0, 10298.0, 10303.0],
      "WindowWidth": [22701.0, 22493.0, 22408.0, 22382.0, 22370.0, 22408.0, 22400.0, 22341.0, 22305.0, 22299.0, 22294.0, 22286.0, 22261.0, 22286.0, 22326.0, 22350.0, 22340.0, 22293.0, 22272.0, 22296.0, 22349.0, 22385.0, 22352.0, 22313.0, 22272.0, 22271.0, 22286.0, 22278.0, 22343.0, 22410.0, 22360.0, 22274.0, 22232.0, 22211.0, 22162.0, 22153.0, 22145.0, 22120.0, 22135.0, 22178.0, 22225.0, 22272.0, 22373.0, 22372.0, 22339.0, 22321.0, 22348.0, 22349.0, 22345.0, 22334.0, 22324.0, 22342.0, 22341.0, 22338.0, 22361.0, 22345.0, 22294.0, 22267.0, 22263.0, 22269.0, 22235.0, 22242.0, 22282.0, 22338.0, 22321.0, 22313.0, 22300.0, 22280.0, 22281.0, 22289.0, 22301.0, 22334.0, 22324.0, 22300.0, 22275.0, 22283.0, 22283.0, 22305.0, 22287.0, 22267.0, 22265.0, 22251.0, 22273.0, 22291.0, 22272.0, 22267.0, 22264.0, 22262.0, 22285.0, 22290.0, 22286.0, 22277.0, 22302.0, 22322.0, 22302.0, 22253.0, 22243.0, 22281.0, 22317.0, 22305.0, 22291.0, 22275.0, 22272.0, 22255.0, 22228.0, 22213.0, 22232.0, 22261.0, 22260.0, 22255.0, 22261.0, 22280.0, 22282.0, 22281.0, 22228.0, 22219.0, 22254.0, 22256.0, 22249.0, 22228.0, 22218.0, 22231.0, 22242.0, 22234.0, 22252.0, 22313.0, 22314.0, 22274.0, 22224.0, 22211.0, 22220.0, 22247.0, 22241.0, 22253.0, 22260.0, 22283.0, 22304.0, 22297.0, 22276.0, 22273.0, 22262.0, 22294.0, 22299.0, 22317.0, 22378.0, 22362.0, 22262.0, 22199.0, 22176.0, 22226.0, 22257.0, 22265.0, 22308.0, 22323.0, 22293.0, 22268.0, 22265.0, 22319.0, 22350.0, 22268.0, 22213.0, 22176.0, 22167.0, 22187.0, 22189.0, 22189.0, 22173.0, 22186.0, 22188.0, 22192.0, 22230.0, 22247.0, 22250.0, 22248.0, 22287.0, 22304.0, 22291.0, 22301.0, 22298.0, 22334.0, 22374.0, 22378.0, 22302.0, 22241.0, 22182.0, 22192.0, 22191.0, 22192.0, 22201.0, 22218.0]
    },
    "slices": {}
  }
}