{
  "AcquisitionMatrixPE": 104,
  "AcquisitionNumber": 1,
  "AcquisitionTime": "15:44:9.182500",
  "BandwidthPerPixelPhaseEncode": 17.17,
  "BaseResolution": 104,
  "BodyPartExamined": "BRAIN",
  "CoilString": "HC1-7;NC1_2",
  "ConsistencyInfo": "N4_VE11C_LATEST_20160120",
  "ConversionSoftware": "dcm2niix",
  "ConversionSoftwareVersion": "v1.0.20190902",
  "DerivedVendorReportedEchoSpacing": 0.000560011,
  "DeviceSerialNumber": "167006",
  "DwellTime": 2.1e-06,
  "EchoTime": 0.037,
  "EchoTrainLength": 104,
  "EffectiveEchoSpacing": 0.000560011,
  "FlipAngle": 52,
  "ImageComments": "Unaliased_MB4_PE3_LB",
  "ImageOrientationPatientDICOM": [0.998822, -0.0479137, 0.00766763, 0.0479769, 0.951515, -0.303836],
  "ImageType": [
    "ORIGINAL",
    "PRIMARY",
    "M",
    "MB",
    "ND",
    "MOSAIC"
],
  "ImagingFrequency": 123.259,
  "InPlanePhaseEncodingDirectionDICOM": "COL",
  "InstitutionAddress": "Chemin_Queen-Mary_4565_Montreal_District_CA_H3W_1W5",
  "InstitutionName": "IUGM",
  "InstitutionalDepartmentName": "Department",
  "MRAcquisitionType": "2D",
  "MagneticFieldStrength": 3,
  "Manufacturer": "Siemens",
  "ManufacturersModelName": "Prisma_fit",
  "Modality": "MR",
  "MultibandAccelerationFactor": 4,
  "PartialFourier": 1,
  "PatientPosition": "HFS",
  "PercentPhaseFOV": 100,
  "PhaseEncodingDirection": "j",
  "PhaseEncodingSteps": 104,
  "PhaseResolution": 1,
  "PixelBandwidth": 2290,
  "ProcedureStepDescription": "memory_things",
  "ProtocolName": "func_task-things_run-4",
  "PulseSequenceDetails": "%CustomerSeq%_cmrr_mbep2d_bold",
  "ReceiveCoilActiveElements": "HC1-7;NC1,2",
  "ReceiveCoilName": "HeadNeck_64",
  "ReconMatrixPE": 104,
  "RepetitionTime": 1.49,
  "SAR": 0.0402753,
  "ScanOptions": "FS",
  "ScanningSequence": "EP",
  "SequenceName": "epfid2d1_104",
  "SequenceVariant": "SK_SS",
  "SeriesDescription": "func_task-things_run-4",
  "SeriesNumber": 19,
  "ShimSetting": [627, -7264, -8819, 584, -11, -226, 13, -21],
  "SliceThickness": 2,
  "SliceTiming": [0, 0.7825, 0.0975, 0.8825, 0.195, 0.98, 0.2925, 1.0775, 0.3925, 1.175, 0.49, 1.2725, 0.5875, 1.3725, 0.685, 0, 0.7825, 0.0975, 0.8825, 0.195, 0.98, 0.2925, 1.0775, 0.3925, 1.175, 0.49, 1.2725, 0.5875, 1.3725, 0.685, 0, 0.7825, 0.0975, 0.8825, 0.195, 0.98, 0.2925, 1.0775, 0.3925, 1.175, 0.49, 1.2725, 0.5875, 1.3725, 0.685, 0, 0.7825, 0.0975, 0.8825, 0.195, 0.98, 0.2925, 1.0775, 0.3925, 1.175, 0.49, 1.2725, 0.5875, 1.3725, 0.685],
  "SoftwareVersions": "syngo_MR_E11",
  "SpacingBetweenSlices": 2,
  "StationName": "MRC35049",
  "TaskName": "things",
  "TotalReadoutTime": 0.0576811,
  "TxRefAmp": 241.197,
  "WipMemBlock": "873b1a93-e792-4319-8f3f-6dd7613a788a||Sequence: R016 ve11c/master r/e634e98; Dec 19 2017 11:00:25 by eja",
  "dcmmeta_affine": [
    [-1.997644066810608, 0.09595374763011932, -0.014524119906127453, 102.53569793701172],
    [0.09582746028900146, 1.9030309915542603, -0.607692301273346, -72.80683898925781],
    [0.01533525250852108, 0.607672393321991, 1.9053869247436523, -61.064117431640625],
    [0.0, 0.0, 0.0, 1.0]
],
  "dcmmeta_reorient_transform": [
    [0.0, -1.0, 0.0, 103.0],
    [1.0, 0.0, 0.0, 0.0],
    [0.0, 0.0, 1.0, 0.0],
    [0.0, 0.0, 0.0, 1.0]
],
  "dcmmeta_shape": [104, 104, 60, 190],
  "dcmmeta_slice_dim": 2,
  "dcmmeta_version": 0.6,
  "global": {
    "const": {
      "AcquisitionMatrix": [104, 0, 0, 104],
      "AngioFlag": "N",
      "BitsAllocated": 16,
      "BitsStored": 16,
      "BodyPartExamined": "BRAIN",
      "Columns": 832,
      "EchoNumbers": 1,
      "EchoTime": 37.0,
      "EchoTrainLength": 104,
      "FlipAngle": 52.0,
      "HighBit": 15,
      "ImageOrientationPatient": [0.99882204716277, -0.0479137308818, 0.00766762639743, 0.04797687553348, 0.95151552154906, -0.3038361921583],
      "ImagePositionPatient": [-874.48855018749, -781.02745994626, 217.13685227337],
      "ImageType": [
        "ORIGINAL",
        "PRIMARY",
        "M",
        "MB",
        "ND",
        "MOSAIC"
],
      "ImagedNucleus": "1H",
      "ImagingFrequency": 123.258901,
      "InPlanePhaseEncodingDirection": "COL",
      "MRAcquisitionType": "2D",
      "MagneticFieldStrength": 3.0,
      "Manufacturer": "SIEMENS",
      "ManufacturerModelName": "Prisma_fit",
      "Modality": "MR",
      "NumberOfAverages": 1.0,
      "NumberOfPhaseEncodingSteps": 104,
      "PercentPhaseFieldOfView": 100.0,
      "PercentSampling": 100.0,
      "PerformedProcedureStepStartTime": "150704.209000",
      "PhotometricInterpretation": "MONOCHROME2",
      "PixelBandwidth": 2290.0,
      "PixelRepresentation": 0,
      "PixelSpacing": [2.0, 2.0],
      "ProtocolName": "func_task-things_run-4",
      "RepetitionTime": 1490.0,
      "Rows": 832,
      "SAR": 0.04027532596652,
      "SamplesPerPixel": 1,
      "ScanOptions": "FS",
      "ScanningSequence": "EP",
      "SequenceName": "epfid2d1_104",
      "SequenceVariant": [
        "SK",
        "SS"
],
      "SeriesDescription": "func_task-things_run-4",
      "SeriesNumber": 19,
      "SeriesTime": "154531.076000",
      "SliceLocation": -36.797926872852,
      "SliceThickness": 2.0,
      "SmallestImagePixelValue": 0,
      "SoftwareVersions": "syngo MR E11",
      "SpacingBetweenSlices": 2.0000000402152,
      "SpecificCharacterSet": "ISO_IR 100",
      "StudyID": "1",
      "StudyTime": "150704.154000",
      "TransmitCoilName": "Body",
      "VariableFlipAngleFlag": "N",
      "WindowCenterWidthExplanation": "Algo1",
      "dBdt": 0.0},
    "slices": {}
  },
  "time": {
    "samples": {
      "AcquisitionNumber": [1, 2, 3, 4, 5, 6, 7, 8, 9, 10, 11, 12, 13, 14, 15, 16, 17, 18, 19, 20, 21, 22, 23, 24, 25, 26, 27, 28, 29, 30, 31, 32, 33, 34, 35, 36, 37, 38, 39, 40, 41, 42, 43, 44, 45, 46, 47, 48, 49, 50, 51, 52, 53, 54, 55, 56, 57, 58, 59, 60, 61, 62, 63, 64, 65, 66, 67, 68, 69, 70, 71, 72, 73, 74, 75, 76, 77, 78, 79, 80, 81, 82, 83, 84, 85, 86, 87, 88, 89, 90, 91, 92, 93, 94, 95, 96, 97, 98, 99, 100, 101, 102, 103, 104, 105, 106, 107, 108, 109, 110, 111, 112, 113, 114, 115, 116, 117, 118, 119, 120, 121, 122, 123, 124, 125, 126, 127, 128, 129, 130, 131, 132, 133, 134, 135, 136, 137, 138, 139, 140, 141, 142, 143, 144, 145, 146, 147, 148, 149, 150, 151, 152, 153, 154, 155, 156, 157, 158, 159, 160, 161, 162, 163, 164, 165, 166, 167, 168, 169, 170, 171, 172, 173, 174, 175, 176, 177, 178, 179, 180, 181, 182, 183, 184, 185, 186, 187, 188, 189, 190],
      "AcquisitionTime": ["154409.182500", "154410.672500", "154412.162500", "154413.652500", "154415.142500", "154416.632500", "154418.122500", "154419.612500", "154421.102500", "154422.592500", "154424.082500", "154425.572500", "154427.062500", "154428.552500", "154430.042500", "154431.532500", "154433.022500", "154434.512500", "154436.002500", "154437.492500", "154438.982500", "154440.472500", "154441.962500", "154443.452500", "154444.942500", "154446.432500", "154447.922500", "154449.412500", "154450.902500", "154452.392500", "154453.882500", "154455.372500", "154456.862500", "154458.352500", "154459.842500", "154501.332500", "154502.822500", "154504.312500", "154505.802500", "154507.292500", "154508.782500", "154510.272500", "154511.762500", "154513.252500", "154514.742500", "154516.232500", "154517.722500", "154519.212500", "154520.702500", "154522.192500", "154523.682500", "154525.172500", "154526.662500", "154528.152500", "154529.642500", "154531.132500", "154532.622500", "154534.112500", "154535.602500", "154537.092500", "154538.582500", "154540.072500", "154541.562500", "154543.052500", "154544.542500", "154546.032500", "154547.522500", "154549.012500", "154550.502500", "154551.992500", "154553.482500", "154554.972500", "154556.462500", "154557.952500", "154559.442500", "154600.932500", "154602.422500", "154603.912500", "154605.402500", "154606.892500", "154608.382500", "154609.872500", "154611.362500", "154612.852500", "154614.342500", "154615.832500", "154617.322500", "154618.812500", "154620.302500", "154621.792500", "154623.282500", "154624.772500", "154626.262500", "154627.752500", "154629.242500", "154630.732500", "154632.222500", "154633.712500", "154635.202500", "154636.692500", "154638.182500", "154639.672500", "154641.162500", "154642.652500", "154644.142500", "154645.632500", "154647.122500", "154648.612500", "154650.102500", "154651.592500", "154653.082500", "154654.572500", "154656.062500", "154657.552500", "154659.042500", "154700.532500", "154702.022500", "154703.512500", "154705.002500", "154706.492500", "154707.982500", "154709.472500", "154710.962500", "154712.452500", "154713.942500", "154715.432500", "154716.922500", "154718.412500", "154719.902500", "154721.392500", "154722.882500", "154724.372500", "154725.862500", "154727.352500", "154728.842500", "154730.332500", "154731.822500", "154733.312500", "154734.802500", "154736.292500", "154737.782500", "154739.272500", "154740.762500", "154742.252500", "154743.742500", "154745.232500", "154746.722500", "154748.212500", "154749.702500", "154751.192500", "154752.682500", "154754.172500", "154755.662500", "154757.152500", "154758.642500", "154800.132500", "154801.622500", "154803.112500", "154804.602500", "154806.092500", "154807.582500", "154809.072500", "154810.562500", "154812.052500", "154813.542500", "154815.032500", "154816.522500", "154818.012500", "154819.502500", "154820.992500", "154822.482500", "154823.972500", "154825.462500", "154826.952500", "154828.442500", "154829.932500", "154831.422500", "154832.912500", "154834.402500", "154835.892500", "154837.382500", "154838.872500", "154840.362500", "154841.852500", "154843.342500", "154844.832500", "154846.322500", "154847.812500", "154849.302500", "154850.792500"],
      "ContentTime": ["154531.080000", "154531.084000", "154531.087000", "154531.090000", "154531.094000", "154531.097000", "154531.100000", "154531.104000", "154531.107000", "154531.110000", "154531.113000", "154531.117000", "154531.120000", "154531.123000", "154531.126000", "154531.129000", "154531.133000", "154531.136000", "154531.139000", "154531.142000", "154531.146000", "154531.149000", "154531.152000", "154531.160000", "154531.163000", "154531.166000", "154531.169000", "154531.173000", "154551.050000", "154551.054000", "154551.057000", "154551.060000", "154551.064000", "154551.067000", "154551.070000", "154551.073000", "154551.077000", "154551.080000", "154551.083000", "154551.102000", "154551.105000", "154551.109000", "154551.112000", "154551.115000", "154551.118000", "154551.121000", "154551.125000", "154551.128000", "154611.050000", "154611.054000", "154611.057000", "154611.060000", "154611.063000", "154611.067000", "154611.070000", "154611.073000", "154611.076000", "154611.080000", "154611.083000", "154611.099000", "154611.102000", "154611.105000", "154611.109000", "154611.112000", "154611.115000", "154611.118000", "154611.122000", "154611.125000", "154631.050000", "154631.054000", "154631.057000", "154631.060000", "154631.063000", "154631.067000", "154631.070000", "154631.073000", "154631.077000", "154631.080000", "154631.083000", "154631.087000", "154631.090000", "154631.093000", "154631.096000", "154631.100000", "154631.103000", "154631.106000", "154631.109000", "154631.113000", "154651.049000", "154651.053000", "154651.056000", "154651.059000", "154651.062000", "154651.066000", "154651.069000", "154651.072000", "154651.075000", "154651.079000", "154651.082000", "154651.085000", "154651.089000", "154651.092000", "154651.095000", "154651.099000", "154651.102000", "154651.105000", "154651.108000", "154651.112000", "154731.050000", "154731.054000", "154731.058000", "154731.062000", "154731.065000", "154731.069000", "154731.073000", "154731.076000", "154731.080000", "154731.084000", "154731.088000", "154731.092000", "154731.095000", "154731.099000", "154731.102000", "154731.106000", "154731.110000", "154731.114000", "154731.117000", "154731.121000", "154731.125000", "154731.129000", "154731.132000", "154731.136000", "154731.140000", "154731.143000", "154811.050000", "154811.068000", "154811.071000", "154811.074000", "154811.078000", "154811.081000", "154811.084000", "154811.087000", "154811.091000", "154811.094000", "154811.097000", "154811.101000", "154811.104000", "154811.107000", "154811.110000", "154811.114000", "154811.117000", "154811.120000", "154811.124000", "154811.127000", "154811.130000", "154811.133000", "154811.137000", "154811.140000", "154811.143000", "154811.146000", "154811.150000", "154851.050000", "154851.054000", "154851.058000", "154851.061000", "154851.065000", "154851.068000", "154851.071000", "154851.074000", "154851.078000", "154851.081000", "154851.084000", "154851.087000", "154851.091000", "154851.094000", "154851.097000", "154851.101000", "154851.104000", "154851.107000", "154851.110000", "154851.114000", "154851.117000", "154851.120000", "154851.123000", "154851.127000", "154851.130000", "154851.133000", "154851.136000", "154853.192000", "154853.195000"],
      "InstanceCreationTime": ["154531.080000", "154531.084000", "154531.087000", "154531.090000", "154531.094000", "154531.097000", "154531.100000", "154531.104000", "154531.107000", "154531.110000", "154531.113000", "154531.117000", "154531.120000", "154531.123000", "154531.126000", "154531.129000", "154531.133000", "154531.136000", "154531.139000", "154531.142000", "154531.146000", "154531.149000", "154531.152000", "154531.160000", "154531.163000", "154531.166000", "154531.169000", "154531.173000", "154551.050000", "154551.054000", "154551.057000", "154551.060000", "154551.064000", "154551.067000", "154551.070000", "154551.073000", "154551.077000", "154551.080000", "154551.083000", "154551.102000", "154551.105000", "154551.109000", "154551.112000", "154551.115000", "154551.118000", "154551.121000", "154551.125000", "154551.128000", "154611.050000", "154611.054000", "154611.057000", "154611.060000", "154611.063000", "154611.067000", "154611.070000", "154611.073000", "154611.076000", "154611.080000", "154611.083000", "154611.099000", "154611.102000", "154611.105000", "154611.109000", "154611.112000", "154611.115000", "154611.118000", "154611.122000", "154611.125000", "154631.050000", "154631.054000", "154631.057000", "154631.060000", "154631.063000", "154631.067000", "154631.070000", "154631.073000", "154631.077000", "154631.080000", "154631.083000", "154631.087000", "154631.090000", "154631.093000", "154631.096000", "154631.100000", "154631.103000", "154631.106000", "154631.109000", "154631.113000", "154651.049000", "154651.053000", "154651.056000", "154651.059000", "154651.062000", "154651.066000", "154651.069000", "154651.072000", "154651.075000", "154651.079000", "154651.082000", "154651.085000", "154651.089000", "154651.092000", "154651.095000", "154651.099000", "154651.102000", "154651.105000", "154651.108000", "154651.112000", "154731.050000", "154731.054000", "154731.058000", "154731.062000", "154731.065000", "154731.069000", "154731.073000", "154731.076000", "154731.080000", "154731.084000", "154731.088000", "154731.092000", "154731.095000", "154731.099000", "154731.102000", "154731.106000", "154731.110000", "154731.114000", "154731.117000", "154731.121000", "154731.125000", "154731.129000", "154731.132000", "154731.136000", "154731.140000", "154731.143000", "154811.050000", "154811.068000", "154811.071000", "154811.074000", "154811.078000", "154811.081000", "154811.084000", "154811.087000", "154811.091000", "154811.094000", "154811.097000", "154811.101000", "154811.104000", "154811.107000", "154811.110000", "154811.114000", "154811.117000", "154811.120000", "154811.124000", "154811.127000", "154811.130000", "154811.133000", "154811.137000", "154811.140000", "154811.143000", "154811.146000", "154811.150000", "154851.050000", "154851.054000", "154851.058000", "154851.061000", "154851.065000", "154851.068000", "154851.071000", "154851.074000", "154851.078000", "154851.081000", "154851.084000", "154851.087000", "154851.091000", "154851.094000", "154851.097000", "154851.101000", "154851.104000", "154851.107000", "154851.110000", "154851.114000", "154851.117000", "154851.120000", "154851.123000", "154851.127000", "154851.130000", "154851.133000", "154851.136000", "154853.192000", "154853.195000"],
      "InstanceNumber": [1, 2, 3, 4, 5, 6, 7, 8, 9, 10, 11, 12, 13, 14, 15, 16, 17, 18, 19, 20, 21, 22, 23, 24, 25, 26, 27, 28, 29, 30, 31, 32, 33, 34, 35, 36, 37, 38, 39, 40, 41, 42, 43, 44, 45, 46, 47, 48, 49, 50, 51, 52, 53, 54, 55, 56, 57, 58, 59, 60, 61, 62, 63, 64, 65, 66, 67, 68, 69, 70, 71, 72, 73, 74, 75, 76, 77, 78, 79, 80, 81, 82, 83, 84, 85, 86, 87, 88, 89, 90, 91, 92, 93, 94, 95, 96, 97, 98, 99, 100, 101, 102, 103, 104, 105, 106, 107, 108, 109, 110, 111, 112, 113, 114, 115, 116, 117, 118, 119, 120, 121, 122, 123, 124, 125, 126, 127, 128, 129, 130, 131, 132, 133, 134, 135, 136, 137, 138, 139, 140, 141, 142, 143, 144, 145, 146, 147, 148, 149, 150, 151, 152, 153, 154, 155, 156, 157, 158, 159, 160, 161, 162, 163, 164, 165, 166, 167, 168, 169, 170, 171, 172, 173, 174, 175, 176, 177, 178, 179, 180, 181, 182, 183, 184, 185, 186, 187, 188, 189, 190],
      "LargestImagePixelValue": [43885, 42423, 41147, 40526, 40725, 42255, 41766, 42130, 41822, 41749, 41501, 42024, 42042, 41960, 42055, 40125, 41984, 41806, 42188, 41987, 41810, 41695, 40620, 41732, 41640, 41803, 42038, 41817, 41394, 42344, 41819, 42193, 41221, 41382, 41498, 41723, 42201, 41813, 41876, 42430, 41771, 41900, 41616, 41411, 40572, 39998, 40716, 41299, 41456, 42069, 41793, 41811, 41903, 41884, 42561, 41505, 41639, 42230, 42235, 42004, 42023, 41903, 41911, 42014, 41807, 42038, 42102, 42207, 42189, 41885, 41792, 42188, 41867, 42123, 41892, 42280, 42039, 42029, 41966, 41620, 41449, 41721, 41706, 41400, 41604, 42358, 41881, 42397, 41982, 41783, 42081, 42518, 41707, 42189, 41769, 41750, 41131, 41512, 41507, 41833, 41797, 41291, 42585, 42500, 41750, 41701, 40930, 41507, 41388, 42047, 42494, 40547, 41108, 41669, 40730, 41069, 40719, 41398, 41504, 41853, 42031, 41809, 41814, 40921, 41357, 41682, 41543, 41836, 41634, 41129, 41647, 40406, 40840, 41171, 41087, 41575, 40077, 40167, 40037, 41140, 40815, 40267, 40274, 40399, 40029, 40518, 41371, 41964, 41337, 41486, 41600, 41604, 41890, 41485, 42451, 41940, 41798, 42154, 41338, 41049, 40307, 40171, 39864, 41122, 41458, 41134, 41554, 40975, 40610, 40471, 40011, 39642, 39620, 39578, 40062, 39836, 39479, 39902, 40348, 40278, 40520, 40772, 39768, 40124, 39515, 40201, 40196, 39439, 41035, 39956],
      "WindowCenter": [10396.0, 10371.0, 10343.0, 10313.0, 10285.0, 10301.0, 10325.0, 10334.0, 10321.0, 10299.0, 10290.0, 10296.0, 10304.0, 10313.0, 10313.0, 10299.0, 10330.0, 10340.0, 10346.0, 10353.0, 10393.0, 10389.0, 10345.0, 10327.0, 10305.0, 10316.0, 10328.0, 10315.0, 10300.0, 10320.0, 10341.0, 10349.0, 10318.0, 10278.0, 10264.0, 10261.0, 10276.0, 10284.0, 10290.0, 10302.0, 10293.0, 10313.0, 10352.0, 10381.0, 10356.0, 10315.0, 10281.0, 10266.0, 10274.0, 10293.0, 10306.0, 10299.0, 10281.0, 10289.0, 10320.0, 10337.0, 10333.0, 10300.0, 10273.0, 10271.0, 10280.0, 10282.0, 10291.0, 10301.0, 10301.0, 10293.0, 10291.0, 10296.0, 10304.0, 10299.0, 10300.0, 10299.0, 10286.0, 10290.0, 10297.0, 10300.0, 10292.0, 10290.0, 10306.0, 10294.0, 10256.0, 10229.0, 10241.0, 10273.0, 10294.0, 10284.0, 10266.0, 10264.0, 10262.0, 10279.0, 10308.0, 10320.0, 10288.0, 10259.0, 10239.0, 10245.0, 10249.0, 10234.0, 10224.0, 10237.0, 10256.0, 10267.0, 10286.0, 10287.0, 10268.0, 10248.0, 10239.0, 10271.0, 10298.0, 10304.0, 10288.0, 10269.0, 10277.0, 10275.0, 10256.0, 10252.0, 10253.0, 10280.0, 10289.0, 10290.0, 10280.0, 10258.0, 10256.0, 10257.0, 10273.0, 10302.0, 10307.0, 10296.0, 10261.0, 10236.0, 10230.0, 10240.0, 10280.0, 10293.0, 10274.0, 10258.0, 10237.0, 10224.0, 10200.0, 10211.0, 10221.0, 10212.0, 10193.0, 10176.0, 10183.0, 10211.0, 10252.0, 10289.0, 10279.0, 10255.0, 10244.0, 10241.0, 10255.0, 10256.0, 10286.0, 10298.0, 10294.0, 10297.0, 10297.0, 10317.0, 10296.0, 10255.0, 10213.0, 10210.0, 10199.0, 10201.0, 10204.0, 10205.0, 10190.0, 10168.0, 10157.0, 10158.0, 10177.0, 10175.0, 10153.0, 10141.0, 10147.0, 10162.0, 10192.0, 10212.0, 10234.0, 10265.0, 10264.0, 10258.0, 10247.0, 10262.0, 10266.0, 10253.0, 10289.0, 10275.0],
      "WindowWidth": [22520.0, 22428.0, 22352.0, 22271.0, 22196.0, 22216.0, 22272.0, 22294.0, 22264.0, 22215.0, 22193.0, 22204.0, 22223.0, 22242.0, 22242.0, 22224.0, 22287.0, 22308.0, 22318.0, 22335.0, 22428.0, 22426.0, 22328.0, 22276.0, 22225.0, 22243.0, 22274.0, 22247.0, 22211.0, 22251.0, 22306.0, 22327.0, 22262.0, 22173.0, 22136.0, 22125.0, 22158.0, 22177.0, 22195.0, 22225.0, 22205.0, 22246.0, 22340.0, 22409.0, 22357.0, 22263.0, 22178.0, 22137.0, 22150.0, 22197.0, 22228.0, 22210.0, 22170.0, 22190.0, 22260.0, 22303.0, 22295.0, 22219.0, 22155.0, 22147.0, 22168.0, 22174.0, 22192.0, 22216.0, 22217.0, 22201.0, 22196.0, 22207.0, 22226.0, 22216.0, 22218.0, 22213.0, 22183.0, 22191.0, 22207.0, 22219.0, 22204.0, 22195.0, 22230.0, 22207.0, 22120.0, 22058.0, 22083.0, 22157.0, 22207.0, 22182.0, 22137.0, 22135.0, 22133.0, 22169.0, 22238.0, 22263.0, 22193.0, 22124.0, 22077.0, 22087.0, 22097.0, 22064.0, 22040.0, 22069.0, 22114.0, 22143.0, 22182.0, 22183.0, 22144.0, 22104.0, 22084.0, 22149.0, 22211.0, 22219.0, 22184.0, 22152.0, 22167.0, 22162.0, 22122.0, 22112.0, 22114.0, 22173.0, 22192.0, 22193.0, 22169.0, 22121.0, 22114.0, 22121.0, 22159.0, 22222.0, 22235.0, 22208.0, 22132.0, 22076.0, 22057.0, 22088.0, 22173.0, 22204.0, 22158.0, 22113.0, 22072.0, 22039.0, 21983.0, 22003.0, 22033.0, 22012.0, 21963.0, 21927.0, 21943.0, 22004.0, 22098.0, 22178.0, 22162.0, 22107.0, 22081.0, 22073.0, 22099.0, 22105.0, 22170.0, 22202.0, 22194.0, 22205.0, 22200.0, 22249.0, 22205.0, 22108.0, 22012.0, 21995.0, 21973.0, 21976.0, 21982.0, 21995.0, 21962.0, 21912.0, 21884.0, 21885.0, 21924.0, 21925.0, 21876.0, 21847.0, 21862.0, 21897.0, 21960.0, 22006.0, 22056.0, 22131.0, 22131.0, 22115.0, 22088.0, 22114.0, 22126.0, 22095.0, 22179.0, 22174.0]
    },
    "slices": {}
  }
}