{
  "AcquisitionMatrixPE": 104,
  "AcquisitionNumber": 1,
  "AcquisitionTime": "15:57:33.472500",
  "BandwidthPerPixelPhaseEncode": 17.17,
  "BaseResolution": 104,
  "BodyPartExamined": "BRAIN",
  "CoilString": "HC1-7;NC1_2",
  "ConsistencyInfo": "N4_VE11C_LATEST_20160120",
  "ConversionSoftware": "dcm2niix",
  "ConversionSoftwareVersion": "v1.0.20190902",
  "DerivedVendorReportedEchoSpacing": 0.000560011,
  "DeviceSerialNumber": "167006",
  "DwellTime": 2.1e-06,
  "EchoTime": 0.037,
  "EchoTrainLength": 104,
  "EffectiveEchoSpacing": 0.000560011,
  "FlipAngle": 52,
  "ImageComments": "Unaliased_MB4_PE3_LB",
  "ImageOrientationPatientDICOM": [0.998822, -0.0479137, 0.00766763, 0.0479769, 0.951515, -0.303836],
  "ImageType": [
    "ORIGINAL",
    "PRIMARY",
    "P",
    "MB",
    "ND",
    "MOSAIC"
],
  "ImagingFrequency": 123.259,
  "InPlanePhaseEncodingDirectionDICOM": "COL",
  "InstitutionAddress": "Chemin_Queen-Mary_4565_Montreal_District_CA_H3W_1W5",
  "InstitutionName": "IUGM",
  "InstitutionalDepartmentName": "Department",
  "MRAcquisitionType": "2D",
  "MagneticFieldStrength": 3,
  "Manufacturer": "Siemens",
  "ManufacturersModelName": "Prisma_fit",
  "Modality": "MR",
  "MultibandAccelerationFactor": 4,
  "PartialFourier": 1,
  "PatientPosition": "HFS",
  "PercentPhaseFOV": 100,
  "PhaseEncodingDirection": "j",
  "PhaseEncodingSteps": 104,
  "PhaseResolution": 1,
  "PixelBandwidth": 2290,
  "ProcedureStepDescription": "memory_things",
  "ProtocolName": "func_task-things_run-6",
  "PulseSequenceDetails": "%CustomerSeq%_cmrr_mbep2d_bold",
  "ReceiveCoilActiveElements": "HC1-7;NC1,2",
  "ReceiveCoilName": "HeadNeck_64",
  "ReconMatrixPE": 104,
  "RepetitionTime": 1.49,
  "SAR": 0.0402753,
  "ScanOptions": "FS",
  "ScanningSequence": "EP",
  "SequenceName": "epfid2d1_104",
  "SequenceVariant": "SK_SS",
  "SeriesDescription": "func_task-things_run-6",
  "SeriesNumber": 26,
  "ShimSetting": [627, -7264, -8819, 584, -11, -226, 13, -21],
  "SliceThickness": 2,
  "SliceTiming": [0, 0.785, 0.0975, 0.8825, 0.1975, 0.98, 0.295, 1.0775, 0.3925, 1.1775, 0.49, 1.275, 0.5875, 1.3725, 0.6875, 0, 0.785, 0.0975, 0.8825, 0.1975, 0.98, 0.295, 1.0775, 0.3925, 1.1775, 0.49, 1.275, 0.5875, 1.3725, 0.6875, 0, 0.785, 0.0975, 0.8825, 0.1975, 0.98, 0.295, 1.0775, 0.3925, 1.1775, 0.49, 1.275, 0.5875, 1.3725, 0.6875, 0, 0.785, 0.0975, 0.8825, 0.1975, 0.98, 0.295, 1.0775, 0.3925, 1.1775, 0.49, 1.275, 0.5875, 1.3725, 0.6875],
  "SoftwareVersions": "syngo_MR_E11",
  "SpacingBetweenSlices": 2,
  "StationName": "MRC35049",
  "TaskName": "things",
  "TotalReadoutTime": 0.0576811,
  "TxRefAmp": 241.197,
  "WipMemBlock": "1d5a8c1f-a50d-4703-bbb9-c8233f2bf94c||Sequence: R016 ve11c/master r/e634e98; Dec 19 2017 11:00:25 by eja",
  "dcmmeta_affine": [
    [-1.997644066810608, 0.09595374763011932, -0.014524119906127453, 102.53569793701172],
    [0.09582746028900146, 1.9030309915542603, -0.607692301273346, -72.80683898925781],
    [0.01533525250852108, 0.607672393321991, 1.9053869247436523, -61.064117431640625],
    [0.0, 0.0, 0.0, 1.0]
],
  "dcmmeta_reorient_transform": [
    [0.0, -1.0, 0.0, 103.0],
    [1.0, 0.0, 0.0, 0.0],
    [0.0, 0.0, 1.0, 0.0],
    [0.0, 0.0, 0.0, 1.0]
],
  "dcmmeta_shape": [104, 104, 60, 190],
  "dcmmeta_slice_dim": 2,
  "dcmmeta_version": 0.6,
  "global": {
    "const": {
      "AcquisitionMatrix": [104, 0, 0, 104],
      "AngioFlag": "N",
      "BitsAllocated": 16,
      "BitsStored": 16,
      "BodyPartExamined": "BRAIN",
      "Columns": 832,
      "EchoNumbers": 1,
      "EchoTime": 37.0,
      "EchoTrainLength": 104,
      "FlipAngle": 52.0,
      "HighBit": 15,
      "ImageOrientationPatient": [0.99882204716277, -0.0479137308818, 0.00766762639743, 0.04797687553348, 0.95151552154906, -0.3038361921583],
      "ImagePositionPatient": [-874.48855018749, -781.02745994626, 217.13685227337],
      "ImageType": [
        "ORIGINAL",
        "PRIMARY",
        "P",
        "MB",
        "ND",
        "MOSAIC"
],
      "ImagedNucleus": "1H",
      "ImagingFrequency": 123.258907,
      "InPlanePhaseEncodingDirection": "COL",
      "LargestImagePixelValue": 4095,
      "MRAcquisitionType": "2D",
      "MagneticFieldStrength": 3.0,
      "Manufacturer": "SIEMENS",
      "ManufacturerModelName": "Prisma_fit",
      "Modality": "MR",
      "NumberOfAverages": 1.0,
      "NumberOfPhaseEncodingSteps": 104,
      "PercentPhaseFieldOfView": 100.0,
      "PercentSampling": 100.0,
      "PerformedProcedureStepStartTime": "150704.209000",
      "PhotometricInterpretation": "MONOCHROME2",
      "PixelBandwidth": 2290.0,
      "PixelRepresentation": 0,
      "PixelSpacing": [2.0, 2.0],
      "ProtocolName": "func_task-things_run-6",
      "RepetitionTime": 1490.0,
      "RescaleIntercept": -4096.0,
      "RescaleSlope": 2.0,
      "RescaleType": "US",
      "Rows": 832,
      "SAR": 0.04027532596652,
      "SamplesPerPixel": 1,
      "ScanOptions": "FS",
      "ScanningSequence": "EP",
      "SequenceName": "epfid2d1_104",
      "SequenceVariant": [
        "SK",
        "SS"
],
      "SeriesDescription": "func_task-things_run-6",
      "SeriesNumber": 26,
      "SeriesTime": "155837.204000",
      "SliceLocation": -36.797926872852,
      "SliceThickness": 2.0,
      "SmallestImagePixelValue": 0,
      "SoftwareVersions": "syngo MR E11",
      "SpacingBetweenSlices": 2.0000000402152,
      "SpecificCharacterSet": "ISO_IR 100",
      "StudyID": "1",
      "StudyTime": "150704.154000",
      "TransmitCoilName": "Body",
      "VariableFlipAngleFlag": "N",
      "WindowCenterWidthExplanation": "Algo1",
      "dBdt": 0.0},
    "slices": {}
  },
  "time": {
    "samples": {
      "AcquisitionNumber": [1, 2, 3, 4, 5, 6, 7, 8, 9, 10, 11, 12, 13, 14, 15, 16, 17, 18, 19, 20, 21, 22, 23, 24, 25, 26, 27, 28, 29, 30, 31, 32, 33, 34, 35, 36, 37, 38, 39, 40, 41, 42, 43, 44, 45, 46, 47, 48, 49, 50, 51, 52, 53, 54, 55, 56, 57, 58, 59, 60, 61, 62, 63, 64, 65, 66, 67, 68, 69, 70, 71, 72, 73, 74, 75, 76, 77, 78, 79, 80, 81, 82, 83, 84, 85, 86, 87, 88, 89, 90, 91, 92, 93, 94, 95, 96, 97, 98, 99, 100, 101, 102, 103, 104, 105, 106, 107, 108, 109, 110, 111, 112, 113, 114, 115, 116, 117, 118, 119, 120, 121, 122, 123, 124, 125, 126, 127, 128, 129, 130, 131, 132, 133, 134, 135, 136, 137, 138, 139, 140, 141, 142, 143, 144, 145, 146, 147, 148, 149, 150, 151, 152, 153, 154, 155, 156, 157, 158, 159, 160, 161, 162, 163, 164, 165, 166, 167, 168, 169, 170, 171, 172, 173, 174, 175, 176, 177, 178, 179, 180, 181, 182, 183, 184, 185, 186, 187, 188, 189, 190],
      "AcquisitionTime": ["155733.472500", "155734.962500", "155736.452500", "155737.942500", "155739.432500", "155740.922500", "155742.412500", "155743.902500", "155745.392500", "155746.882500", "155748.372500", "155749.862500", "155751.352500", "155752.842500", "155754.332500", "155755.822500", "155757.312500", "155758.802500", "155800.292500", "155801.782500", "155803.272500", "155804.762500", "155806.252500", "155807.742500", "155809.232500", "155810.722500", "155812.212500", "155813.702500", "155815.192500", "155816.682500", "155818.172500", "155819.662500", "155821.152500", "155822.642500", "155824.132500", "155825.622500", "155827.112500", "155828.602500", "155830.092500", "155831.582500", "155833.072500", "155834.562500", "155836.052500", "155837.542500", "155839.032500", "155840.522500", "155842.012500", "155843.502500", "155844.992500", "155846.482500", "155847.972500", "155849.462500", "155850.952500", "155852.442500", "155853.932500", "155855.422500", "155856.912500", "155858.402500", "155859.892500", "155901.382500", "155902.872500", "155904.362500", "155905.852500", "155907.342500", "155908.832500", "155910.322500", "155911.812500", "155913.302500", "155914.792500", "155916.282500", "155917.772500", "155919.262500", "155920.752500", "155922.242500", "155923.732500", "155925.222500", "155926.712500", "155928.202500", "155929.692500", "155931.182500", "155932.672500", "155934.162500", "155935.652500", "155937.142500", "155938.632500", "155940.122500", "155941.612500", "155943.102500", "155944.592500", "155946.082500", "155947.572500", "155949.062500", "155950.552500", "155952.042500", "155953.532500", "155955.022500", "155956.512500", "155958.002500", "155959.492500", "160000.982500", "160002.472500", "160003.962500", "160005.452500", "160006.942500", "160008.432500", "160009.922500", "160011.412500", "160012.902500", "160014.392500", "160015.882500", "160017.372500", "160018.862500", "160020.352500", "160021.842500", "160023.332500", "160024.822500", "160026.312500", "160027.802500", "160029.292500", "160030.782500", "160032.272500", "160033.762500", "160035.252500", "160036.742500", "160038.232500", "160039.722500", "160041.212500", "160042.702500", "160044.192500", "160045.682500", "160047.172500", "160048.662500", "160050.152500", "160051.642500", "160053.132500", "160054.622500", "160056.112500", "160057.602500", "160059.092500", "160100.582500", "160102.072500", "160103.562500", "160105.052500", "160106.542500", "160108.032500", "160109.522500", "160111.012500", "160112.502500", "160113.992500", "160115.482500", "160116.972500", "160118.462500", "160119.952500", "160121.442500", "160122.932500", "160124.422500", "160125.912500", "160127.402500", "160128.892500", "160130.382500", "160131.872500", "160133.362500", "160134.852500", "160136.342500", "160137.832500", "160139.322500", "160140.812500", "160142.302500", "160143.792500", "160145.282500", "160146.772500", "160148.262500", "160149.752500", "160151.242500", "160152.732500", "160154.222500", "160155.712500", "160157.202500", "160158.692500", "160200.182500", "160201.672500", "160203.162500", "160204.652500", "160206.142500", "160207.632500", "160209.122500", "160210.612500", "160212.102500", "160213.592500", "160215.082500"],
      "ContentTime": ["155837.206000", "155837.208000", "155837.211000", "155837.213000", "155837.216000", "155837.218000", "155837.221000", "155837.223000", "155837.226000", "155837.238000", "155856.747000", "155856.750000", "155856.752000", "155856.755000", "155856.757000", "155856.760000", "155856.762000", "155856.765000", "155856.767000", "155856.769000", "155856.772000", "155856.774000", "155856.777000", "155856.779000", "155856.782000", "155856.784000", "155856.787000", "155856.789000", "155856.792000", "155856.794000", "155916.769000", "155916.771000", "155916.774000", "155916.776000", "155916.779000", "155916.781000", "155916.784000", "155916.787000", "155916.790000", "155916.792000", "155916.795000", "155916.797000", "155916.799000", "155916.802000", "155916.804000", "155916.807000", "155916.809000", "155916.812000", "155916.814000", "155916.817000", "155936.739000", "155936.744000", "155936.747000", "155936.749000", "155936.752000", "155936.754000", "155936.757000", "155936.759000", "155936.762000", "155936.764000", "155936.767000", "155936.769000", "155936.771000", "155936.774000", "155936.776000", "155936.779000", "155936.781000", "155936.784000", "155936.787000", "155936.789000", "155956.749000", "155956.752000", "155956.755000", "155956.757000", "155956.760000", "155956.762000", "155956.765000", "155956.767000", "155956.770000", "155956.772000", "155956.775000", "155956.778000", "155956.780000", "155956.783000", "155956.852000", "155956.854000", "155956.857000", "155956.859000", "155956.862000", "155956.864000", "160036.817000", "160036.819000", "160036.822000", "160036.824000", "160036.827000", "160036.829000", "160036.832000", "160036.834000", "160036.837000", "160036.839000", "160036.841000", "160036.844000", "160036.847000", "160036.849000", "160036.851000", "160036.854000", "160036.856000", "160036.859000", "160036.861000", "160036.864000", "160036.866000", "160036.869000", "160036.871000", "160036.874000", "160036.876000", "160036.879000", "160036.881000", "160036.884000", "160036.886000", "160036.889000", "160036.891000", "160036.893000", "160116.813000", "160116.816000", "160116.818000", "160116.821000", "160116.823000", "160116.826000", "160116.828000", "160116.830000", "160116.833000", "160116.835000", "160116.838000", "160116.840000", "160116.843000", "160116.845000", "160116.848000", "160116.850000", "160116.853000", "160116.855000", "160116.858000", "160116.860000", "160116.863000", "160116.865000", "160116.868000", "160116.870000", "160116.873000", "160116.875000", "160116.878000", "160156.786000", "160156.788000", "160156.791000", "160156.793000", "160156.796000", "160156.798000", "160156.809000", "160156.811000", "160156.814000", "160156.816000", "160156.819000", "160156.821000", "160156.824000", "160156.826000", "160156.829000", "160156.831000", "160156.834000", "160156.836000", "160156.839000", "160156.841000", "160156.844000", "160156.846000", "160156.849000", "160156.851000", "160156.853000", "160156.856000", "160156.858000", "160217.359000", "160217.362000", "160217.365000", "160217.367000", "160217.370000", "160217.379000", "160217.382000", "160217.384000", "160217.387000", "160217.390000", "160217.392000", "160217.395000", "160217.397000", "160217.399000"],
      "InstanceCreationTime": ["155837.206000", "155837.208000", "155837.211000", "155837.213000", "155837.216000", "155837.218000", "155837.221000", "155837.223000", "155837.226000", "155837.238000", "155856.747000", "155856.750000", "155856.752000", "155856.755000", "155856.757000", "155856.760000", "155856.762000", "155856.765000", "155856.767000", "155856.769000", "155856.772000", "155856.774000", "155856.777000", "155856.779000", "155856.782000", "155856.784000", "155856.787000", "155856.789000", "155856.792000", "155856.794000", "155916.769000", "155916.771000", "155916.774000", "155916.776000", "155916.779000", "155916.781000", "155916.784000", "155916.787000", "155916.790000", "155916.792000", "155916.795000", "155916.797000", "155916.799000", "155916.802000", "155916.804000", "155916.807000", "155916.809000", "155916.812000", "155916.814000", "155916.817000", "155936.739000", "155936.744000", "155936.747000", "155936.749000", "155936.752000", "155936.754000", "155936.757000", "155936.759000", "155936.762000", "155936.764000", "155936.767000", "155936.769000", "155936.771000", "155936.774000", "155936.776000", "155936.779000", "155936.781000", "155936.784000", "155936.787000", "155936.789000", "155956.749000", "155956.752000", "155956.755000", "155956.757000", "155956.760000", "155956.762000", "155956.765000", "155956.767000", "155956.770000", "155956.772000", "155956.775000", "155956.778000", "155956.780000", "155956.783000", "155956.852000", "155956.854000", "155956.857000", "155956.859000", "155956.862000", "155956.864000", "160036.817000", "160036.819000", "160036.822000", "160036.824000", "160036.827000", "160036.829000", "160036.832000", "160036.834000", "160036.837000", "160036.839000", "160036.841000", "160036.844000", "160036.847000", "160036.849000", "160036.851000", "160036.854000", "160036.856000", "160036.859000", "160036.861000", "160036.864000", "160036.866000", "160036.869000", "160036.871000", "160036.874000", "160036.876000", "160036.879000", "160036.881000", "160036.884000", "160036.886000", "160036.889000", "160036.891000", "160036.893000", "160116.813000", "160116.816000", "160116.818000", "160116.821000", "160116.823000", "160116.826000", "160116.828000", "160116.830000", "160116.833000", "160116.835000", "160116.838000", "160116.840000", "160116.843000", "160116.845000", "160116.848000", "160116.850000", "160116.853000", "160116.855000", "160116.858000", "160116.860000", "160116.863000", "160116.865000", "160116.868000", "160116.870000", "160116.873000", "160116.875000", "160116.878000", "160156.786000", "160156.788000", "160156.791000", "160156.793000", "160156.796000", "160156.798000", "160156.809000", "160156.811000", "160156.814000", "160156.816000", "160156.819000", "160156.821000", "160156.824000", "160156.826000", "160156.829000", "160156.831000", "160156.834000", "160156.836000", "160156.839000", "160156.841000", "160156.844000", "160156.846000", "160156.849000", "160156.851000", "160156.853000", "160156.856000", "160156.858000", "160217.359000", "160217.362000", "160217.365000", "160217.367000", "160217.370000", "160217.379000", "160217.382000", "160217.384000", "160217.387000", "160217.390000", "160217.392000", "160217.395000", "160217.397000", "160217.399000"],
      "InstanceNumber": [1, 2, 3, 4, 5, 6, 7, 8, 9, 10, 11, 12, 13, 14, 15, 16, 17, 18, 19, 20, 21, 22, 23, 24, 25, 26, 27, 28, 29, 30, 31, 32, 33, 34, 35, 36, 37, 38, 39, 40, 41, 42, 43, 44, 45, 46, 47, 48, 49, 50, 51, 52, 53, 54, 55, 56, 57, 58, 59, 60, 61, 62, 63, 64, 65, 66, 67, 68, 69, 70, 71, 72, 73, 74, 75, 76, 77, 78, 79, 80, 81, 82, 83, 84, 85, 86, 87, 88, 89, 90, 91, 92, 93, 94, 95, 96, 97, 98, 99, 100, 101, 102, 103, 104, 105, 106, 107, 108, 109, 110, 111, 112, 113, 114, 115, 116, 117, 118, 119, 120, 121, 122, 123, 124, 125, 126, 127, 128, 129, 130, 131, 132, 133, 134, 135, 136, 137, 138, 139, 140, 141, 142, 143, 144, 145, 146, 147, 148, 149, 150, 151, 152, 153, 154, 155, 156, 157, 158, 159, 160, 161, 162, 163, 164, 165, 166, 167, 168, 169, 170, 171, 172, 173, 174, 175, 176, 177, 178, 179, 180, 181, 182, 183, 184, 185, 186, 187, 188, 189, 190],
      "WindowCenter": [4792.0, 4788.0, 4790.0, 4790.0, 4788.0, 4784.0, 4796.0, 4796.0, 4792.0, 4788.0, 4788.0, 4814.0, 4818.0, 4816.0, 4810.0, 4792.0, 4814.0, 4792.0, 4856.0, 4824.0, 4790.0, 4792.0, 4810.0, 4808.0, 4790.0, 4788.0, 4794.0, 4792.0, 4826.0, 4856.0, 4796.0, 4790.0, 4816.0, 4818.0, 4812.0, 4814.0, 4786.0, 4820.0, 4802.0, 4792.0, 4794.0, 4792.0, 4784.0, 4790.0, 4786.0, 4788.0, 4790.0, 4790.0, 4788.0, 4792.0, 4790.0, 4796.0, 4824.0, 4798.0, 4790.0, 4810.0, 4810.0, 4788.0, 4784.0, 4794.0, 4792.0, 4788.0, 4794.0, 4798.0, 4790.0, 4788.0, 4794.0, 4790.0, 4786.0, 4790.0, 4790.0, 4788.0, 4790.0, 4794.0, 4790.0, 4796.0, 4790.0, 4786.0, 4788.0, 4790.0, 4782.0, 4788.0, 4818.0, 4796.0, 4794.0, 4788.0, 4788.0, 4790.0, 4792.0, 4788.0, 4790.0, 4798.0, 4822.0, 4790.0, 4786.0, 4786.0, 4788.0, 4792.0, 4792.0, 4790.0, 4792.0, 4796.0, 4796.0, 4788.0, 4794.0, 4790.0, 4786.0, 4790.0, 4794.0, 4792.0, 4792.0, 4812.0, 4788.0, 4790.0, 4792.0, 4794.0, 4788.0, 4790.0, 4790.0, 4786.0, 4790.0, 4786.0, 4790.0, 4788.0, 4788.0, 4792.0, 4788.0, 4790.0, 4788.0, 4788.0, 4790.0, 4784.0, 4792.0, 4798.0, 4826.0, 4792.0, 4784.0, 4808.0, 4788.0, 4806.0, 4788.0, 4794.0, 4796.0, 4794.0, 4798.0, 4792.0, 4794.0, 4784.0, 4792.0, 4790.0, 4788.0, 4812.0, 4806.0, 4786.0, 4788.0, 4800.0, 4800.0, 4798.0, 4790.0, 4822.0, 4798.0, 4792.0, 4812.0, 4818.0, 4814.0, 4788.0, 4788.0, 4796.0, 4828.0, 4830.0, 4800.0, 4788.0, 4786.0, 4784.0, 4782.0, 4786.0, 4788.0, 4786.0, 4790.0, 4820.0, 4824.0, 4792.0, 4790.0, 4790.0, 4784.0, 4792.0, 4794.0, 4792.0, 4788.0, 4788.0],
      "WindowWidth": [18558.0, 18558.0, 18558.0, 18548.0, 18548.0, 18550.0, 18546.0, 18548.0, 18548.0, 18546.0, 18554.0, 18576.0, 18578.0, 18590.0, 18590.0, 18552.0, 18582.0, 18548.0, 18622.0, 18590.0, 18550.0, 18552.0, 18594.0, 18602.0, 18560.0, 18552.0, 18556.0, 18548.0, 18586.0, 18628.0, 18544.0, 18556.0, 18612.0, 18622.0, 18592.0, 18596.0, 18548.0, 18578.0, 18548.0, 18548.0, 18550.0, 18550.0, 18554.0, 18554.0, 18544.0, 18560.0, 18552.0, 18552.0, 18546.0, 18546.0, 18552.0, 18548.0, 18580.0, 18548.0, 18558.0, 18592.0, 18594.0, 18564.0, 18546.0, 18542.0, 18544.0, 18538.0, 18544.0, 18546.0, 18544.0, 18546.0, 18544.0, 18548.0, 18548.0, 18542.0, 18542.0, 18544.0, 18538.0, 18546.0, 18544.0, 18544.0, 18552.0, 18556.0, 18552.0, 18540.0, 18548.0, 18556.0, 18574.0, 18548.0, 18548.0, 18546.0, 18548.0, 18548.0, 18548.0, 18550.0, 18550.0, 18548.0, 18578.0, 18548.0, 18558.0, 18568.0, 18556.0, 18548.0, 18546.0, 18544.0, 18546.0, 18550.0, 18548.0, 18546.0, 18548.0, 18546.0, 18556.0, 18554.0, 18550.0, 18548.0, 18558.0, 18584.0, 18554.0, 18556.0, 18546.0, 18546.0, 18546.0, 18548.0, 18552.0, 18554.0, 18556.0, 18552.0, 18552.0, 18546.0, 18552.0, 18548.0, 18550.0, 18552.0, 18542.0, 18556.0, 18546.0, 18554.0, 18554.0, 18546.0, 18584.0, 18542.0, 18552.0, 18596.0, 18568.0, 18586.0, 18554.0, 18550.0, 18546.0, 18548.0, 18548.0, 18544.0, 18550.0, 18554.0, 18548.0, 18546.0, 18554.0, 18600.0, 18602.0, 18566.0, 18552.0, 18546.0, 18552.0, 18546.0, 18542.0, 18580.0, 18552.0, 18556.0, 18618.0, 18630.0, 18624.0, 18566.0, 18550.0, 18550.0, 18588.0, 18586.0, 18550.0, 18546.0, 18550.0, 18560.0, 18558.0, 18568.0, 18558.0, 18554.0, 18550.0, 18576.0, 18582.0, 18550.0, 18552.0, 18552.0, 18558.0, 18552.0, 18544.0, 18554.0, 18556.0, 18552.0]
    },
    "slices": {}
  }
}