{
  "AcquisitionMatrixPE": 104,
  "AcquisitionNumber": 1,
  "AcquisitionTime": "15:25:36.777500",
  "BandwidthPerPixelPhaseEncode": 17.17,
  "BaseResolution": 104,
  "BodyPartExamined": "BRAIN",
  "CoilString": "HC1-7;NC1_2",
  "ConsistencyInfo": "N4_VE11C_LATEST_20160120",
  "ConversionSoftware": "dcm2niix",
  "ConversionSoftwareVersion": "v1.0.20190902",
  "DerivedVendorReportedEchoSpacing": 0.000560011,
  "DeviceSerialNumber": "167006",
  "DwellTime": 2.1e-06,
  "EchoTime": 0.037,
  "EchoTrainLength": 104,
  "EffectiveEchoSpacing": 0.000560011,
  "FlipAngle": 52,
  "ImageComments": "Unaliased_MB4_PE3_LB",
  "ImageOrientationPatientDICOM": [0.998822, -0.0479137, 0.00766763, 0.0479769, 0.951515, -0.303836],
  "ImageType": [
    "ORIGINAL",
    "PRIMARY",
    "P",
    "MB",
    "ND",
    "MOSAIC"
],
  "ImagingFrequency": 123.259,
  "InPlanePhaseEncodingDirectionDICOM": "COL",
  "InstitutionAddress": "Chemin_Queen-Mary_4565_Montreal_District_CA_H3W_1W5",
  "InstitutionName": "IUGM",
  "InstitutionalDepartmentName": "Department",
  "MRAcquisitionType": "2D",
  "MagneticFieldStrength": 3,
  "Manufacturer": "Siemens",
  "ManufacturersModelName": "Prisma_fit",
  "Modality": "MR",
  "MultibandAccelerationFactor": 4,
  "PartialFourier": 1,
  "PatientPosition": "HFS",
  "PercentPhaseFOV": 100,
  "PhaseEncodingDirection": "j",
  "PhaseEncodingSteps": 104,
  "PhaseResolution": 1,
  "PixelBandwidth": 2290,
  "ProcedureStepDescription": "memory_things",
  "ProtocolName": "func_task-things_run-1",
  "PulseSequenceDetails": "%CustomerSeq%_cmrr_mbep2d_bold",
  "ReceiveCoilActiveElements": "HC1-7;NC1,2",
  "ReceiveCoilName": "HeadNeck_64",
  "ReconMatrixPE": 104,
  "RepetitionTime": 1.49,
  "SAR": 0.0402753,
  "ScanOptions": "FS",
  "ScanningSequence": "EP",
  "SequenceName": "epfid2d1_104",
  "SequenceVariant": "SK_SS",
  "SeriesDescription": "func_task-things_run-1",
  "SeriesNumber": 11,
  "ShimSetting": [627, -7264, -8819, 584, -11, -226, 13, -21],
  "SliceThickness": 2,
  "SliceTiming": [0, 0.785, 0.0975, 0.8825, 0.195, 0.98, 0.295, 1.0775, 0.3925, 1.175, 0.49, 1.275, 0.5875, 1.3725, 0.685, 0, 0.785, 0.0975, 0.8825, 0.195, 0.98, 0.295, 1.0775, 0.3925, 1.175, 0.49, 1.275, 0.5875, 1.3725, 0.685, 0, 0.785, 0.0975, 0.8825, 0.195, 0.98, 0.295, 1.0775, 0.3925, 1.175, 0.49, 1.275, 0.5875, 1.3725, 0.685, 0, 0.785, 0.0975, 0.8825, 0.195, 0.98, 0.295, 1.0775, 0.3925, 1.175, 0.49, 1.275, 0.5875, 1.3725, 0.685],
  "SoftwareVersions": "syngo_MR_E11",
  "SpacingBetweenSlices": 2,
  "StationName": "MRC35049",
  "TaskName": "things",
  "TotalReadoutTime": 0.0576811,
  "TxRefAmp": 241.197,
  "WipMemBlock": "96f8491b-32ba-4e8c-a533-25111422aef2||Sequence: R016 ve11c/master r/e634e98; Dec 19 2017 11:00:25 by eja",
  "dcmmeta_affine": [
    [-1.997644066810608, 0.09595374763011932, -0.014524119906127453, 102.53569793701172],
    [0.09582746028900146, 1.9030309915542603, -0.607692301273346, -72.80683898925781],
    [0.01533525250852108, 0.607672393321991, 1.9053869247436523, -61.064117431640625],
    [0.0, 0.0, 0.0, 1.0]
],
  "dcmmeta_reorient_transform": [
    [0.0, -1.0, 0.0, 103.0],
    [1.0, 0.0, 0.0, 0.0],
    [0.0, 0.0, 1.0, 0.0],
    [0.0, 0.0, 0.0, 1.0]
],
  "dcmmeta_shape": [104, 104, 60, 190],
  "dcmmeta_slice_dim": 2,
  "dcmmeta_version": 0.6,
  "global": {
    "const": {
      "AcquisitionMatrix": [104, 0, 0, 104],
      "AngioFlag": "N",
      "BitsAllocated": 16,
      "BitsStored": 16,
      "BodyPartExamined": "BRAIN",
      "Columns": 832,
      "EchoNumbers": 1,
      "EchoTime": 37.0,
      "EchoTrainLength": 104,
      "FlipAngle": 52.0,
      "HighBit": 15,
      "ImageOrientationPatient": [0.99882204716277, -0.0479137308818, 0.00766762639743, 0.04797687553348, 0.95151552154906, -0.3038361921583],
      "ImagePositionPatient": [-874.48855018749, -781.02745994626, 217.13685227337],
      "ImageType": [
        "ORIGINAL",
        "PRIMARY",
        "P",
        "MB",
        "ND",
        "MOSAIC"
],
      "ImagedNucleus": "1H",
      "ImagingFrequency": 123.258889,
      "InPlanePhaseEncodingDirection": "COL",
      "LargestImagePixelValue": 4095,
      "MRAcquisitionType": "2D",
      "MagneticFieldStrength": 3.0,
      "Manufacturer": "SIEMENS",
      "ManufacturerModelName": "Prisma_fit",
      "Modality": "MR",
      "NumberOfAverages": 1.0,
      "NumberOfPhaseEncodingSteps": 104,
      "PercentPhaseFieldOfView": 100.0,
      "PercentSampling": 100.0,
      "PerformedProcedureStepStartTime": "150704.209000",
      "PhotometricInterpretation": "MONOCHROME2",
      "PixelBandwidth": 2290.0,
      "PixelRepresentation": 0,
      "PixelSpacing": [2.0, 2.0],
      "ProtocolName": "func_task-things_run-1",
      "RepetitionTime": 1490.0,
      "RescaleIntercept": -4096.0,
      "RescaleSlope": 2.0,
      "RescaleType": "US",
      "Rows": 832,
      "SAR": 0.04027532596652,
      "SamplesPerPixel": 1,
      "ScanOptions": "FS",
      "ScanningSequence": "EP",
      "SequenceName": "epfid2d1_104",
      "SequenceVariant": [
        "SK",
        "SS"
],
      "SeriesDescription": "func_task-things_run-1",
      "SeriesNumber": 11,
      "SeriesTime": "152651.213000",
      "SliceLocation": -36.797926872852,
      "SliceThickness": 2.0,
      "SmallestImagePixelValue": 0,
      "SoftwareVersions": "syngo MR E11",
      "SpacingBetweenSlices": 2.0000000402152,
      "SpecificCharacterSet": "ISO_IR 100",
      "StudyID": "1",
      "StudyTime": "150704.154000",
      "TransmitCoilName": "Body",
      "VariableFlipAngleFlag": "N",
      "WindowCenterWidthExplanation": "Algo1",
      "dBdt": 0.0},
    "slices": {}
  },
  "time": {
    "samples": {
      "AcquisitionNumber": [1, 2, 3, 4, 5, 6, 7, 8, 9, 10, 11, 12, 13, 14, 15, 16, 17, 18, 19, 20, 21, 22, 23, 24, 25, 26, 27, 28, 29, 30, 31, 32, 33, 34, 35, 36, 37, 38, 39, 40, 41, 42, 43, 44, 45, 46, 47, 48, 49, 50, 51, 52, 53, 54, 55, 56, 57, 58, 59, 60, 61, 62, 63, 64, 65, 66, 67, 68, 69, 70, 71, 72, 73, 74, 75, 76, 77, 78, 79, 80, 81, 82, 83, 84, 85, 86, 87, 88, 89, 90, 91, 92, 93, 94, 95, 96, 97, 98, 99, 100, 101, 102, 103, 104, 105, 106, 107, 108, 109, 110, 111, 112, 113, 114, 115, 116, 117, 118, 119, 120, 121, 122, 123, 124, 125, 126, 127, 128, 129, 130, 131, 132, 133, 134, 135, 136, 137, 138, 139, 140, 141, 142, 143, 144, 145, 146, 147, 148, 149, 150, 151, 152, 153, 154, 155, 156, 157, 158, 159, 160, 161, 162, 163, 164, 165, 166, 167, 168, 169, 170, 171, 172, 173, 174, 175, 176, 177, 178, 179, 180, 181, 182, 183, 184, 185, 186, 187, 188, 189, 190],
      "AcquisitionTime": ["152536.777500", "152538.267500", "152539.757500", "152541.247500", "152542.737500", "152544.227500", "152545.717500", "152547.207500", "152548.697500", "152550.187500", "152551.677500", "152553.167500", "152554.657500", "152556.147500", "152557.637500", "152559.127500", "152600.617500", "152602.107500", "152603.597500", "152605.087500", "152606.577500", "152608.067500", "152609.557500", "152611.047500", "152612.537500", "152614.027500", "152615.517500", "152617.007500", "152618.497500", "152619.987500", "152621.477500", "152622.967500", "152624.457500", "152625.947500", "152627.437500", "152628.927500", "152630.417500", "152631.907500", "152633.397500", "152634.887500", "152636.377500", "152637.867500", "152639.357500", "152640.847500", "152642.337500", "152643.827500", "152645.317500", "152646.807500", "152648.297500", "152649.787500", "152651.277500", "152652.767500", "152654.257500", "152655.747500", "152657.237500", "152658.727500", "152700.217500", "152701.707500", "152703.197500", "152704.687500", "152706.177500", "152707.667500", "152709.157500", "152710.647500", "152712.137500", "152713.627500", "152715.117500", "152716.607500", "152718.097500", "152719.587500", "152721.077500", "152722.567500", "152724.057500", "152725.547500", "152727.037500", "152728.527500", "152730.017500", "152731.507500", "152732.997500", "152734.487500", "152735.977500", "152737.467500", "152738.957500", "152740.447500", "152741.937500", "152743.427500", "152744.917500", "152746.407500", "152747.897500", "152749.387500", "152750.877500", "152752.367500", "152753.857500", "152755.347500", "152756.837500", "152758.327500", "152759.817500", "152801.307500", "152802.797500", "152804.287500", "152805.777500", "152807.267500", "152808.757500", "152810.247500", "152811.737500", "152813.227500", "152814.717500", "152816.207500", "152817.697500", "152819.187500", "152820.677500", "152822.167500", "152823.657500", "152825.147500", "152826.637500", "152828.127500", "152829.617500", "152831.107500", "152832.597500", "152834.087500", "152835.577500", "152837.067500", "152838.557500", "152840.047500", "152841.537500", "152843.027500", "152844.517500", "152846.007500", "152847.497500", "152848.987500", "152850.477500", "152851.967500", "152853.457500", "152854.947500", "152856.437500", "152857.927500", "152859.417500", "152900.907500", "152902.397500", "152903.887500", "152905.377500", "152906.867500", "152908.357500", "152909.847500", "152911.337500", "152912.827500", "152914.317500", "152915.807500", "152917.297500", "152918.787500", "152920.277500", "152921.767500", "152923.257500", "152924.747500", "152926.237500", "152927.727500", "152929.217500", "152930.707500", "152932.197500", "152933.687500", "152935.177500", "152936.667500", "152938.157500", "152939.647500", "152941.137500", "152942.627500", "152944.117500", "152945.607500", "152947.097500", "152948.587500", "152950.077500", "152951.567500", "152953.057500", "152954.547500", "152956.037500", "152957.527500", "152959.017500", "153000.507500", "153001.997500", "153003.487500", "153004.977500", "153006.467500", "153007.957500", "153009.447500", "153010.937500", "153012.427500", "153013.917500", "153015.407500", "153016.897500", "153018.387500"],
      "ContentTime": ["152651.215000", "152651.218000", "152651.220000", "152651.222000", "152651.236000", "152651.238000", "152651.241000", "152651.243000", "152651.246000", "152651.248000", "152651.251000", "152651.253000", "152651.266000", "152651.269000", "152651.271000", "152651.274000", "152651.276000", "152651.279000", "152651.281000", "152711.178000", "152711.181000", "152711.183000", "152711.186000", "152711.188000", "152711.191000", "152711.193000", "152711.196000", "152711.198000", "152711.200000", "152711.203000", "152711.211000", "152711.213000", "152711.215000", "152711.218000", "152711.220000", "152711.223000", "152711.225000", "152711.228000", "152711.230000", "152731.753000", "152731.756000", "152731.758000", "152731.761000", "152731.763000", "152731.766000", "152731.769000", "152731.771000", "152731.774000", "152731.776000", "152731.778000", "152731.781000", "152731.784000", "152731.786000", "152731.789000", "152731.791000", "152731.794000", "152731.796000", "152731.799000", "152731.801000", "152751.182000", "152751.194000", "152751.197000", "152751.199000", "152751.202000", "152751.204000", "152751.207000", "152751.209000", "152751.211000", "152751.214000", "152751.217000", "152751.219000", "152751.221000", "152751.224000", "152751.226000", "152751.229000", "152751.231000", "152751.234000", "152751.236000", "152751.246000", "152811.175000", "152811.178000", "152811.180000", "152811.183000", "152811.185000", "152811.188000", "152811.190000", "152811.193000", "152811.195000", "152811.198000", "152811.200000", "152811.203000", "152811.205000", "152811.208000", "152811.210000", "152811.213000", "152811.215000", "152811.218000", "152811.220000", "152811.223000", "152851.219000", "152851.221000", "152851.224000", "152851.226000", "152851.229000", "152851.231000", "152851.234000", "152851.236000", "152851.239000", "152851.241000", "152851.244000", "152851.246000", "152851.249000", "152851.251000", "152851.254000", "152851.256000", "152851.259000", "152851.261000", "152851.264000", "152851.266000", "152851.269000", "152851.271000", "152851.274000", "152851.276000", "152851.292000", "152851.294000", "152851.296000", "152851.299000", "152851.302000", "152851.304000", "152851.306000", "152931.231000", "152931.234000", "152931.237000", "152931.239000", "152931.242000", "152931.244000", "152931.247000", "152931.249000", "152931.251000", "152931.254000", "152931.256000", "152931.259000", "152931.261000", "152931.264000", "152931.266000", "152931.269000", "152931.271000", "152931.274000", "152931.276000", "152931.279000", "152931.281000", "152931.284000", "152931.286000", "152931.289000", "152931.291000", "152931.294000", "153011.193000", "153011.196000", "153011.198000", "153011.201000", "153011.203000", "153011.206000", "153011.208000", "153011.211000", "153011.213000", "153011.219000", "153011.221000", "153011.224000", "153011.226000", "153011.229000", "153011.231000", "153011.234000", "153011.236000", "153011.239000", "153011.242000", "153011.244000", "153011.247000", "153011.249000", "153011.252000", "153011.254000", "153011.257000", "153011.259000", "153011.262000", "153020.446000", "153020.448000", "153020.451000", "153020.453000", "153020.456000", "153020.458000", "153020.461000"],
      "InstanceCreationTime": ["152651.215000", "152651.218000", "152651.220000", "152651.222000", "152651.236000", "152651.238000", "152651.241000", "152651.243000", "152651.246000", "152651.248000", "152651.251000", "152651.253000", "152651.266000", "152651.269000", "152651.271000", "152651.274000", "152651.276000", "152651.279000", "152651.281000", "152711.178000", "152711.181000", "152711.183000", "152711.186000", "152711.188000", "152711.191000", "152711.193000", "152711.196000", "152711.198000", "152711.200000", "152711.203000", "152711.211000", "152711.213000", "152711.215000", "152711.218000", "152711.220000", "152711.223000", "152711.225000", "152711.228000", "152711.230000", "152731.753000", "152731.756000", "152731.758000", "152731.761000", "152731.763000", "152731.766000", "152731.769000", "152731.771000", "152731.774000", "152731.776000", "152731.778000", "152731.781000", "152731.784000", "152731.786000", "152731.789000", "152731.791000", "152731.794000", "152731.796000", "152731.799000", "152731.801000", "152751.182000", "152751.194000", "152751.197000", "152751.199000", "152751.202000", "152751.204000", "152751.207000", "152751.209000", "152751.211000", "152751.214000", "152751.217000", "152751.219000", "152751.221000", "152751.224000", "152751.226000", "152751.229000", "152751.231000", "152751.234000", "152751.236000", "152751.246000", "152811.175000", "152811.178000", "152811.180000", "152811.183000", "152811.185000", "152811.188000", "152811.190000", "152811.193000", "152811.195000", "152811.198000", "152811.200000", "152811.203000", "152811.205000", "152811.208000", "152811.210000", "152811.213000", "152811.215000", "152811.218000", "152811.220000", "152811.223000", "152851.219000", "152851.221000", "152851.224000", "152851.226000", "152851.229000", "152851.231000", "152851.234000", "152851.236000", "152851.239000", "152851.241000", "152851.244000", "152851.246000", "152851.249000", "152851.251000", "152851.254000", "152851.256000", "152851.259000", "152851.261000", "152851.264000", "152851.266000", "152851.269000", "152851.271000", "152851.274000", "152851.276000", "152851.292000", "152851.294000", "152851.296000", "152851.299000", "152851.302000", "152851.304000", "152851.306000", "152931.231000", "152931.234000", "152931.237000", "152931.239000", "152931.242000", "152931.244000", "152931.247000", "152931.249000", "152931.251000", "152931.254000", "152931.256000", "152931.259000", "152931.261000", "152931.264000", "152931.266000", "152931.269000", "152931.271000", "152931.274000", "152931.276000", "152931.279000", "152931.281000", "152931.284000", "152931.286000", "152931.289000", "152931.291000", "152931.294000", "153011.193000", "153011.196000", "153011.198000", "153011.201000", "153011.203000", "153011.206000", "153011.208000", "153011.211000", "153011.213000", "153011.219000", "153011.221000", "153011.224000", "153011.226000", "153011.229000", "153011.231000", "153011.234000", "153011.236000", "153011.239000", "153011.242000", "153011.244000", "153011.247000", "153011.249000", "153011.252000", "153011.254000", "153011.257000", "153011.259000", "153011.262000", "153020.446000", "153020.448000", "153020.451000", "153020.453000", "153020.456000", "153020.458000", "153020.461000"],
      "InstanceNumber": [1, 2, 3, 4, 5, 6, 7, 8, 9, 10, 11, 12, 13, 14, 15, 16, 17, 18, 19, 20, 21, 22, 23, 24, 25, 26, 27, 28, 29, 30, 31, 32, 33, 34, 35, 36, 37, 38, 39, 40, 41, 42, 43, 44, 45, 46, 47, 48, 49, 50, 51, 52, 53, 54, 55, 56, 57, 58, 59, 60, 61, 62, 63, 64, 65, 66, 67, 68, 69, 70, 71, 72, 73, 74, 75, 76, 77, 78, 79, 80, 81, 82, 83, 84, 85, 86, 87, 88, 89, 90, 91, 92, 93, 94, 95, 96, 97, 98, 99, 100, 101, 102, 103, 104, 105, 106, 107, 108, 109, 110, 111, 112, 113, 114, 115, 116, 117, 118, 119, 120, 121, 122, 123, 124, 125, 126, 127, 128, 129, 130, 131, 132, 133, 134, 135, 136, 137, 138, 139, 140, 141, 142, 143, 144, 145, 146, 147, 148, 149, 150, 151, 152, 153, 154, 155, 156, 157, 158, 159, 160, 161, 162, 163, 164, 165, 166, 167, 168, 169, 170, 171, 172, 173, 174, 175, 176, 177, 178, 179, 180, 181, 182, 183, 184, 185, 186, 187, 188, 189, 190],
      "WindowCenter": [4798.0, 4792.0, 4796.0, 4824.0, 4828.0, 4798.0, 4794.0, 4798.0, 4788.0, 4822.0, 4794.0, 4796.0, 4820.0, 4818.0, 4820.0, 4826.0, 4820.0, 4796.0, 4796.0, 4792.0, 4796.0, 4824.0, 4794.0, 4820.0, 4820.0, 4820.0, 4822.0, 4824.0, 4796.0, 4818.0, 4794.0, 4796.0, 4824.0, 4798.0, 4794.0, 4824.0, 4800.0, 4792.0, 4794.0, 4820.0, 4820.0, 4800.0, 4826.0, 4798.0, 4798.0, 4822.0, 4796.0, 4796.0, 4820.0, 4798.0, 4794.0, 4824.0, 4820.0, 4822.0, 4824.0, 4832.0, 4822.0, 4794.0, 4796.0, 4796.0, 4798.0, 4822.0, 4796.0, 4820.0, 4824.0, 4824.0, 4824.0, 4824.0, 4820.0, 4824.0, 4800.0, 4792.0, 4794.0, 4822.0, 4796.0, 4826.0, 4824.0, 4820.0, 4822.0, 4796.0, 4822.0, 4830.0, 4796.0, 4796.0, 4820.0, 4816.0, 4798.0, 4820.0, 4820.0, 4820.0, 4826.0, 4820.0, 4822.0, 4820.0, 4796.0, 4820.0, 4820.0, 4792.0, 4794.0, 4826.0, 4828.0, 4822.0, 4826.0, 4822.0, 4796.0, 4822.0, 4796.0, 4822.0, 4798.0, 4818.0, 4820.0, 4796.0, 4796.0, 4820.0, 4820.0, 4822.0, 4820.0, 4798.0, 4822.0, 4798.0, 4794.0, 4822.0, 4798.0, 4798.0, 4824.0, 4794.0, 4798.0, 4824.0, 4796.0, 4796.0, 4822.0, 4796.0, 4794.0, 4822.0, 4822.0, 4828.0, 4854.0, 4820.0, 4796.0, 4820.0, 4796.0, 4820.0, 4796.0, 4792.0, 4824.0, 4824.0, 4824.0, 4826.0, 4800.0, 4828.0, 4820.0, 4798.0, 4820.0, 4800.0, 4798.0, 4828.0, 4798.0, 4798.0, 4796.0, 4798.0, 4826.0, 4822.0, 4822.0, 4826.0, 4824.0, 4796.0, 4824.0, 4796.0, 4798.0, 4832.0, 4880.0, 4830.0, 4794.0, 4790.0, 4788.0, 4794.0, 4796.0, 4822.0, 4854.0, 4830.0, 4826.0, 4828.0, 4824.0, 4796.0, 4794.0, 4794.0, 4826.0, 4800.0, 4798.0, 4822.0],
      "WindowWidth": [18552.0, 18552.0, 18548.0, 18578.0, 18582.0, 18546.0, 18544.0, 18546.0, 18546.0, 18578.0, 18548.0, 18550.0, 18578.0, 18580.0, 18578.0, 18584.0, 18576.0, 18548.0, 18550.0, 18550.0, 18548.0, 18578.0, 18550.0, 18580.0, 18576.0, 18584.0, 18580.0, 18576.0, 18550.0, 18580.0, 18544.0, 18548.0, 18576.0, 18552.0, 18554.0, 18578.0, 18552.0, 18550.0, 18550.0, 18576.0, 18580.0, 18552.0, 18582.0, 18554.0, 18548.0, 18576.0, 18550.0, 18554.0, 18576.0, 18548.0, 18548.0, 18578.0, 18580.0, 18582.0, 18582.0, 18588.0, 18582.0, 18542.0, 18550.0, 18554.0, 18554.0, 18578.0, 18550.0, 18584.0, 18582.0, 18584.0, 18582.0, 18580.0, 18580.0, 18584.0, 18550.0, 18546.0, 18548.0, 18578.0, 18550.0, 18584.0, 18582.0, 18582.0, 18576.0, 18558.0, 18584.0, 18582.0, 18552.0, 18552.0, 18582.0, 18582.0, 18548.0, 18578.0, 18580.0, 18580.0, 18580.0, 18578.0, 18578.0, 18576.0, 18552.0, 18580.0, 18580.0, 18550.0, 18548.0, 18584.0, 18582.0, 18590.0, 18584.0, 18580.0, 18552.0, 18580.0, 18554.0, 18578.0, 18546.0, 18578.0, 18582.0, 18550.0, 18548.0, 18576.0, 18582.0, 18580.0, 18580.0, 18550.0, 18578.0, 18548.0, 18548.0, 18574.0, 18550.0, 18550.0, 18576.0, 18546.0, 18552.0, 18578.0, 18548.0, 18550.0, 18578.0, 18542.0, 18552.0, 18582.0, 18580.0, 18582.0, 18616.0, 18574.0, 18546.0, 18580.0, 18548.0, 18578.0, 18546.0, 18540.0, 18580.0, 18582.0, 18584.0, 18584.0, 18548.0, 18578.0, 18572.0, 18548.0, 18582.0, 18550.0, 18546.0, 18580.0, 18548.0, 18550.0, 18546.0, 18548.0, 18586.0, 18582.0, 18578.0, 18580.0, 18580.0, 18548.0, 18580.0, 18546.0, 18552.0, 18588.0, 18658.0, 18582.0, 18550.0, 18552.0, 18550.0, 18552.0, 18550.0, 18586.0, 18620.0, 18586.0, 18580.0, 18588.0, 18582.0, 18552.0, 18554.0, 18548.0, 18578.0, 18546.0, 18552.0, 18580.0]
    },
    "slices": {}
  }
}