{
  "AcquisitionMatrixPE": 104,
  "AcquisitionNumber": 1,
  "AcquisitionTime": "15:37:46.645000",
  "BandwidthPerPixelPhaseEncode": 17.17,
  "BaseResolution": 104,
  "BodyPartExamined": "BRAIN",
  "CoilString": "HC1-7;NC1_2",
  "ConsistencyInfo": "N4_VE11C_LATEST_20160120",
  "ConversionSoftware": "dcm2niix",
  "ConversionSoftwareVersion": "v1.0.20190902",
  "DerivedVendorReportedEchoSpacing": 0.000560011,
  "DeviceSerialNumber": "167006",
  "DwellTime": 2.1e-06,
  "EchoTime": 0.037,
  "EchoTrainLength": 104,
  "EffectiveEchoSpacing": 0.000560011,
  "FlipAngle": 52,
  "ImageComments": "Unaliased_MB4_PE3_LB",
  "ImageOrientationPatientDICOM": [0.998822, -0.0479137, 0.00766763, 0.0479769, 0.951515, -0.303836],
  "ImageType": [
    "ORIGINAL",
    "PRIMARY",
    "M",
    "MB",
    "ND",
    "MOSAIC"
],
  "ImagingFrequency": 123.259,
  "InPlanePhaseEncodingDirectionDICOM": "COL",
  "InstitutionAddress": "Chemin_Queen-Mary_4565_Montreal_District_CA_H3W_1W5",
  "InstitutionName": "IUGM",
  "InstitutionalDepartmentName": "Department",
  "MRAcquisitionType": "2D",
  "MagneticFieldStrength": 3,
  "Manufacturer": "Siemens",
  "ManufacturersModelName": "Prisma_fit",
  "Modality": "MR",
  "MultibandAccelerationFactor": 4,
  "PartialFourier": 1,
  "PatientPosition": "HFS",
  "PercentPhaseFOV": 100,
  "PhaseEncodingDirection": "j",
  "PhaseEncodingSteps": 104,
  "PhaseResolution": 1,
  "PixelBandwidth": 2290,
  "ProcedureStepDescription": "memory_things",
  "ProtocolName": "func_task-things_run-3",
  "PulseSequenceDetails": "%CustomerSeq%_cmrr_mbep2d_bold",
  "ReceiveCoilActiveElements": "HC1-7;NC1,2",
  "ReceiveCoilName": "HeadNeck_64",
  "ReconMatrixPE": 104,
  "RepetitionTime": 1.49,
  "SAR": 0.0402753,
  "ScanOptions": "FS",
  "ScanningSequence": "EP",
  "SequenceName": "epfid2d1_104",
  "SequenceVariant": "SK_SS",
  "SeriesDescription": "func_task-things_run-3",
  "SeriesNumber": 16,
  "ShimSetting": [627, -7264, -8819, 584, -11, -226, 13, -21],
  "SliceThickness": 2,
  "SliceTiming": [0, 0.785, 0.1, 0.8825, 0.1975, 0.98, 0.295, 1.0775, 0.3925, 1.1775, 0.49, 1.275, 0.59, 1.3725, 0.6875, 0, 0.785, 0.1, 0.8825, 0.1975, 0.98, 0.295, 1.0775, 0.3925, 1.1775, 0.49, 1.275, 0.59, 1.3725, 0.6875, 0, 0.785, 0.1, 0.8825, 0.1975, 0.98, 0.295, 1.0775, 0.3925, 1.1775, 0.49, 1.275, 0.59, 1.3725, 0.6875, 0, 0.785, 0.1, 0.8825, 0.1975, 0.98, 0.295, 1.0775, 0.3925, 1.1775, 0.49, 1.275, 0.59, 1.3725, 0.6875],
  "SoftwareVersions": "syngo_MR_E11",
  "SpacingBetweenSlices": 2,
  "StationName": "MRC35049",
  "TaskName": "things",
  "TotalReadoutTime": 0.0576811,
  "TxRefAmp": 241.197,
  "WipMemBlock": "26c39354-9616-44fa-b202-40939ad77f83||Sequence: R016 ve11c/master r/e634e98; Dec 19 2017 11:00:25 by eja",
  "dcmmeta_affine": [
    [-1.997644066810608, 0.09595374763011932, -0.014524119906127453, 102.53569793701172],
    [0.09582746028900146, 1.9030309915542603, -0.607692301273346, -72.80683898925781],
    [0.01533525250852108, 0.607672393321991, 1.9053869247436523, -61.064117431640625],
    [0.0, 0.0, 0.0, 1.0]
],
  "dcmmeta_reorient_transform": [
    [0.0, -1.0, 0.0, 103.0],
    [1.0, 0.0, 0.0, 0.0],
    [0.0, 0.0, 1.0, 0.0],
    [0.0, 0.0, 0.0, 1.0]
],
  "dcmmeta_shape": [104, 104, 60, 190],
  "dcmmeta_slice_dim": 2,
  "dcmmeta_version": 0.6,
  "global": {
    "const": {
      "AcquisitionMatrix": [104, 0, 0, 104],
      "AngioFlag": "N",
      "BitsAllocated": 16,
      "BitsStored": 16,
      "BodyPartExamined": "BRAIN",
      "Columns": 832,
      "EchoNumbers": 1,
      "EchoTime": 37.0,
      "EchoTrainLength": 104,
      "FlipAngle": 52.0,
      "HighBit": 15,
      "ImageOrientationPatient": [0.99882204716277, -0.0479137308818, 0.00766762639743, 0.04797687553348, 0.95151552154906, -0.3038361921583],
      "ImagePositionPatient": [-874.48855018749, -781.02745994626, 217.13685227337],
      "ImageType": [
        "ORIGINAL",
        "PRIMARY",
        "M",
        "MB",
        "ND",
        "MOSAIC"
],
      "ImagedNucleus": "1H",
      "ImagingFrequency": 123.258899,
      "InPlanePhaseEncodingDirection": "COL",
      "MRAcquisitionType": "2D",
      "MagneticFieldStrength": 3.0,
      "Manufacturer": "SIEMENS",
      "ManufacturerModelName": "Prisma_fit",
      "Modality": "MR",
      "NumberOfAverages": 1.0,
      "NumberOfPhaseEncodingSteps": 104,
      "PercentPhaseFieldOfView": 100.0,
      "PercentSampling": 100.0,
      "PerformedProcedureStepStartTime": "150704.209000",
      "PhotometricInterpretation": "MONOCHROME2",
      "PixelBandwidth": 2290.0,
      "PixelRepresentation": 0,
      "PixelSpacing": [2.0, 2.0],
      "ProtocolName": "func_task-things_run-3",
      "RepetitionTime": 1490.0,
      "Rows": 832,
      "SAR": 0.04027532596652,
      "SamplesPerPixel": 1,
      "ScanOptions": "FS",
      "ScanningSequence": "EP",
      "SequenceName": "epfid2d1_104",
      "SequenceVariant": [
        "SK",
        "SS"
],
      "SeriesDescription": "func_task-things_run-3",
      "SeriesNumber": 16,
      "SeriesTime": "153916.672000",
      "SliceLocation": -36.797926872852,
      "SliceThickness": 2.0,
      "SmallestImagePixelValue": 0,
      "SoftwareVersions": "syngo MR E11",
      "SpacingBetweenSlices": 2.0000000402152,
      "SpecificCharacterSet": "ISO_IR 100",
      "StudyID": "1",
      "StudyTime": "150704.154000",
      "TransmitCoilName": "Body",
      "VariableFlipAngleFlag": "N",
      "WindowCenterWidthExplanation": "Algo1",
      "dBdt": 0.0},
    "slices": {}
  },
  "time": {
    "samples": {
      "AcquisitionNumber": [1, 2, 3, 4, 5, 6, 7, 8, 9, 10, 11, 12, 13, 14, 15, 16, 17, 18, 19, 20, 21, 22, 23, 24, 25, 26, 27, 28, 29, 30, 31, 32, 33, 34, 35, 36, 37, 38, 39, 40, 41, 42, 43, 44, 45, 46, 47, 48, 49, 50, 51, 52, 53, 54, 55, 56, 57, 58, 59, 60, 61, 62, 63, 64, 65, 66, 67, 68, 69, 70, 71, 72, 73, 74, 75, 76, 77, 78, 79, 80, 81, 82, 83, 84, 85, 86, 87, 88, 89, 90, 91, 92, 93, 94, 95, 96, 97, 98, 99, 100, 101, 102, 103, 104, 105, 106, 107, 108, 109, 110, 111, 112, 113, 114, 115, 116, 117, 118, 119, 120, 121, 122, 123, 124, 125, 126, 127, 128, 129, 130, 131, 132, 133, 134, 135, 136, 137, 138, 139, 140, 141, 142, 143, 144, 145, 146, 147, 148, 149, 150, 151, 152, 153, 154, 155, 156, 157, 158, 159, 160, 161, 162, 163, 164, 165, 166, 167, 168, 169, 170, 171, 172, 173, 174, 175, 176, 177, 178, 179, 180, 181, 182, 183, 184, 185, 186, 187, 188, 189, 190],
      "AcquisitionTime": ["153746.645000", "153748.135000", "153749.625000", "153751.115000", "153752.605000", "153754.095000", "153755.585000", "153757.075000", "153758.565000", "153800.055000", "153801.545000", "153803.035000", "153804.525000", "153806.015000", "153807.505000", "153808.995000", "153810.485000", "153811.975000", "153813.465000", "153814.955000", "153816.445000", "153817.935000", "153819.425000", "153820.915000", "153822.405000", "153823.895000", "153825.385000", "153826.875000", "153828.365000", "153829.855000", "153831.345000", "153832.835000", "153834.325000", "153835.815000", "153837.305000", "153838.795000", "153840.285000", "153841.775000", "153843.265000", "153844.755000", "153846.245000", "153847.735000", "153849.225000", "153850.715000", "153852.205000", "153853.695000", "153855.185000", "153856.675000", "153858.165000", "153859.655000", "153901.145000", "153902.635000", "153904.125000", "153905.615000", "153907.105000", "153908.595000", "153910.085000", "153911.575000", "153913.065000", "153914.555000", "153916.045000", "153917.535000", "153919.025000", "153920.515000", "153922.005000", "153923.495000", "153924.985000", "153926.475000", "153927.965000", "153929.455000", "153930.945000", "153932.435000", "153933.925000", "153935.415000", "153936.905000", "153938.395000", "153939.885000", "153941.375000", "153942.865000", "153944.355000", "153945.845000", "153947.335000", "153948.825000", "153950.315000", "153951.805000", "153953.295000", "153954.785000", "153956.275000", "153957.765000", "153959.255000", "154000.745000", "154002.235000", "154003.725000", "154005.215000", "154006.705000", "154008.195000", "154009.685000", "154011.175000", "154012.665000", "154014.155000", "154015.645000", "154017.135000", "154018.625000", "154020.115000", "154021.605000", "154023.095000", "154024.585000", "154026.075000", "154027.565000", "154029.055000", "154030.545000", "154032.035000", "154033.525000", "154035.015000", "154036.505000", "154037.995000", "154039.485000", "154040.975000", "154042.465000", "154043.955000", "154045.445000", "154046.935000", "154048.425000", "154049.915000", "154051.405000", "154052.895000", "154054.385000", "154055.875000", "154057.365000", "154058.855000", "154100.345000", "154101.835000", "154103.325000", "154104.815000", "154106.305000", "154107.795000", "154109.285000", "154110.775000", "154112.265000", "154113.755000", "154115.245000", "154116.735000", "154118.225000", "154119.715000", "154121.205000", "154122.695000", "154124.185000", "154125.675000", "154127.165000", "154128.655000", "154130.145000", "154131.635000", "154133.125000", "154134.615000", "154136.105000", "154137.595000", "154139.085000", "154140.575000", "154142.065000", "154143.555000", "154145.045000", "154146.535000", "154148.025000", "154149.515000", "154151.005000", "154152.495000", "154153.985000", "154155.475000", "154156.965000", "154158.455000", "154159.945000", "154201.435000", "154202.925000", "154204.415000", "154205.905000", "154207.395000", "154208.885000", "154210.375000", "154211.865000", "154213.355000", "154214.845000", "154216.335000", "154217.825000", "154219.315000", "154220.805000", "154222.295000", "154223.785000", "154225.275000", "154226.765000", "154228.255000"],
      "ContentTime": ["153916.675000", "153916.679000", "153916.683000", "153916.705000", "153916.708000", "153916.712000", "153916.715000", "153916.718000", "153916.721000", "153916.725000", "153916.728000", "153916.731000", "153916.734000", "153916.738000", "153916.741000", "153916.744000", "153916.747000", "153916.751000", "153916.754000", "153916.757000", "153916.760000", "153916.764000", "153916.767000", "153916.770000", "153916.774000", "153916.777000", "153916.780000", "153916.783000", "153916.787000", "153916.790000", "153916.793000", "153916.797000", "153916.800000", "153916.803000", "153916.806000", "153936.637000", "153936.641000", "153936.644000", "153936.659000", "153936.662000", "153936.665000", "153936.669000", "153936.672000", "153936.675000", "153936.678000", "153936.682000", "153936.685000", "153936.688000", "153936.692000", "153936.695000", "153936.698000", "153936.701000", "153936.705000", "153936.708000", "153936.711000", "153936.715000", "153956.637000", "153956.641000", "153956.644000", "153956.647000", "153956.651000", "153956.654000", "153956.657000", "153956.660000", "153956.664000", "153956.667000", "153956.670000", "153956.674000", "153956.677000", "153956.680000", "153956.683000", "153956.687000", "153956.690000", "153956.693000", "153956.696000", "153956.700000", "154016.637000", "154016.641000", "154016.644000", "154016.647000", "154016.651000", "154016.654000", "154016.657000", "154016.660000", "154016.664000", "154016.667000", "154016.671000", "154016.674000", "154016.677000", "154016.680000", "154016.684000", "154016.687000", "154016.701000", "154016.704000", "154016.707000", "154016.710000", "154056.636000", "154056.640000", "154056.643000", "154056.647000", "154056.650000", "154056.653000", "154056.656000", "154056.660000", "154056.663000", "154056.666000", "154056.670000", "154056.673000", "154056.676000", "154056.679000", "154056.683000", "154056.686000", "154056.689000", "154056.693000", "154056.696000", "154056.699000", "154056.702000", "154056.706000", "154056.709000", "154056.712000", "154056.715000", "154056.719000", "154056.722000", "154056.725000", "154056.729000", "154056.732000", "154136.636000", "154136.640000", "154136.643000", "154136.647000", "154136.650000", "154136.653000", "154136.657000", "154136.660000", "154136.663000", "154136.666000", "154136.682000", "154136.685000", "154136.689000", "154136.692000", "154136.695000", "154136.698000", "154136.702000", "154136.705000", "154136.708000", "154136.712000", "154136.715000", "154136.718000", "154136.721000", "154136.725000", "154136.728000", "154136.731000", "154136.735000", "154216.637000", "154216.641000", "154216.644000", "154216.648000", "154216.651000", "154216.654000", "154216.657000", "154216.661000", "154216.664000", "154216.667000", "154216.671000", "154216.674000", "154216.677000", "154216.681000", "154216.684000", "154216.687000", "154216.691000", "154216.694000", "154216.697000", "154216.700000", "154216.704000", "154216.707000", "154216.710000", "154216.714000", "154216.717000", "154216.720000", "154216.723000", "154230.917000", "154230.921000", "154230.924000", "154230.927000", "154230.931000", "154230.934000", "154230.938000", "154230.941000", "154230.944000", "154230.948000"],
      "InstanceCreationTime": ["153916.675000", "153916.679000", "153916.683000", "153916.705000", "153916.708000", "153916.712000", "153916.715000", "153916.718000", "153916.721000", "153916.725000", "153916.728000", "153916.731000", "153916.734000", "153916.738000", "153916.741000", "153916.744000", "153916.747000", "153916.751000", "153916.754000", "153916.757000", "153916.760000", "153916.764000", "153916.767000", "153916.770000", "153916.774000", "153916.777000", "153916.780000", "153916.783000", "153916.787000", "153916.790000", "153916.793000", "153916.797000", "153916.800000", "153916.803000", "153916.806000", "153936.637000", "153936.641000", "153936.644000", "153936.659000", "153936.662000", "153936.665000", "153936.669000", "153936.672000", "153936.675000", "153936.678000", "153936.682000", "153936.685000", "153936.688000", "153936.692000", "153936.695000", "153936.698000", "153936.701000", "153936.705000", "153936.708000", "153936.711000", "153936.715000", "153956.637000", "153956.641000", "153956.644000", "153956.647000", "153956.651000", "153956.654000", "153956.657000", "153956.660000", "153956.664000", "153956.667000", "153956.670000", "153956.674000", "153956.677000", "153956.680000", "153956.683000", "153956.687000", "153956.690000", "153956.693000", "153956.696000", "153956.700000", "154016.637000", "154016.641000", "154016.644000", "154016.647000", "154016.651000", "154016.654000", "154016.657000", "154016.660000", "154016.664000", "154016.667000", "154016.671000", "154016.674000", "154016.677000", "154016.680000", "154016.684000", "154016.687000", "154016.701000", "154016.704000", "154016.707000", "154016.710000", "154056.636000", "154056.640000", "154056.643000", "154056.647000", "154056.650000", "154056.653000", "154056.656000", "154056.660000", "154056.663000", "154056.666000", "154056.670000", "154056.673000", "154056.676000", "154056.679000", "154056.683000", "154056.686000", "154056.689000", "154056.693000", "154056.696000", "154056.699000", "154056.702000", "154056.706000", "154056.709000", "154056.712000", "154056.715000", "154056.719000", "154056.722000", "154056.725000", "154056.729000", "154056.732000", "154136.636000", "154136.640000", "154136.643000", "154136.647000", "154136.650000", "154136.653000", "154136.657000", "154136.660000", "154136.663000", "154136.666000", "154136.682000", "154136.685000", "154136.689000", "154136.692000", "154136.695000", "154136.698000", "154136.702000", "154136.705000", "154136.708000", "154136.712000", "154136.715000", "154136.718000", "154136.721000", "154136.725000", "154136.728000", "154136.731000", "154136.735000", "154216.637000", "154216.641000", "154216.644000", "154216.648000", "154216.651000", "154216.654000", "154216.657000", "154216.661000", "154216.664000", "154216.667000", "154216.671000", "154216.674000", "154216.677000", "154216.681000", "154216.684000", "154216.687000", "154216.691000", "154216.694000", "154216.697000", "154216.700000", "154216.704000", "154216.707000", "154216.710000", "154216.714000", "154216.717000", "154216.720000", "154216.723000", "154230.917000", "154230.921000", "154230.924000", "154230.927000", "154230.931000", "154230.934000", "154230.938000", "154230.941000", "154230.944000", "154230.948000"],
      "InstanceNumber": [1, 2, 3, 4, 5, 6, 7, 8, 9, 10, 11, 12, 13, 14, 15, 16, 17, 18, 19, 20, 21, 22, 23, 24, 25, 26, 27, 28, 29, 30, 31, 32, 33, 34, 35, 36, 37, 38, 39, 40, 41, 42, 43, 44, 45, 46, 47, 48, 49, 50, 51, 52, 53, 54, 55, 56, 57, 58, 59, 60, 61, 62, 63, 64, 65, 66, 67, 68, 69, 70, 71, 72, 73, 74, 75, 76, 77, 78, 79, 80, 81, 82, 83, 84, 85, 86, 87, 88, 89, 90, 91, 92, 93, 94, 95, 96, 97, 98, 99, 100, 101, 102, 103, 104, 105, 106, 107, 108, 109, 110, 111, 112, 113, 114, 115, 116, 117, 118, 119, 120, 121, 122, 123, 124, 125, 126, 127, 128, 129, 130, 131, 132, 133, 134, 135, 136, 137, 138, 139, 140, 141, 142, 143, 144, 145, 146, 147, 148, 149, 150, 151, 152, 153, 154, 155, 156, 157, 158, 159, 160, 161, 162, 163, 164, 165, 166, 167, 168, 169, 170, 171, 172, 173, 174, 175, 176, 177, 178, 179, 180, 181, 182, 183, 184, 185, 186, 187, 188, 189, 190],
      "LargestImagePixelValue": [45548, 43101, 42641, 41462, 41118, 42170, 41226, 41324, 41663, 41554, 41393, 41758, 41050, 40991, 41056, 41233, 41225, 41325, 41273, 40752, 41503, 40978, 40865, 41721, 41157, 41082, 41056, 41108, 41425, 41847, 40837, 41717, 41715, 40841, 41534, 41187, 41358, 41042, 41478, 40853, 41155, 40848, 41548, 41201, 41603, 41307, 41063, 41254, 41386, 40998, 41433, 41451, 41443, 41054, 40926, 41305, 40705, 41583, 41503, 41006, 41370, 41143, 41254, 41335, 41278, 41315, 40948, 41061, 41268, 40709, 41120, 41408, 41166, 41442, 41056, 41014, 41392, 41238, 41111, 41181, 41135, 41110, 41357, 40859, 40644, 41002, 41317, 41294, 41353, 41334, 41429, 41037, 41427, 41013, 40989, 41213, 40944, 41062, 41445, 41590, 41629, 41927, 41120, 41231, 41847, 41725, 40855, 41693, 41903, 41726, 41449, 41335, 41583, 41724, 41457, 41445, 42052, 41029, 41561, 41434, 40906, 41040, 41356, 41683, 39910, 41440, 41767, 40272, 40504, 40408, 40831, 41014, 40836, 40859, 40887, 41034, 41636, 41391, 40786, 41635, 41542, 41376, 41397, 41653, 41204, 41050, 41775, 41877, 41919, 41099, 41292, 41100, 41458, 41071, 41263, 40994, 41212, 41036, 41143, 41427, 41790, 40995, 41012, 41159, 40279, 39448, 40392, 40935, 40949, 39196, 39878, 38937, 40221, 40602, 40810, 41019, 41192, 40090, 39908, 40992, 40399, 41076, 40996, 40979, 41011, 41003, 41109, 41379, 41567, 40018],
      "WindowCenter": [10427.0, 10372.0, 10369.0, 10349.0, 10322.0, 10318.0, 10299.0, 10287.0, 10294.0, 10301.0, 10302.0, 10316.0, 10305.0, 10290.0, 10289.0, 10288.0, 10294.0, 10310.0, 10313.0, 10294.0, 10300.0, 10298.0, 10304.0, 10325.0, 10320.0, 10306.0, 10306.0, 10314.0, 10314.0, 10319.0, 10321.0, 10320.0, 10313.0, 10294.0, 10301.0, 10306.0, 10297.0, 10282.0, 10293.0, 10290.0, 10294.0, 10291.0, 10297.0, 10309.0, 10328.0, 10322.0, 10316.0, 10320.0, 10320.0, 10318.0, 10345.0, 10351.0, 10322.0, 10291.0, 10269.0, 10277.0, 10289.0, 10302.0, 10301.0, 10290.0, 10290.0, 10297.0, 10310.0, 10336.0, 10346.0, 10332.0, 10309.0, 10298.0, 10296.0, 10309.0, 10341.0, 10337.0, 10316.0, 10299.0, 10289.0, 10275.0, 10272.0, 10292.0, 10308.0, 10321.0, 10320.0, 10301.0, 10290.0, 10288.0, 10276.0, 10284.0, 10295.0, 10290.0, 10291.0, 10297.0, 10313.0, 10323.0, 10325.0, 10317.0, 10304.0, 10308.0, 10308.0, 10323.0, 10343.0, 10335.0, 10329.0, 10322.0, 10293.0, 10275.0, 10292.0, 10315.0, 10330.0, 10319.0, 10300.0, 10279.0, 10268.0, 10247.0, 10253.0, 10290.0, 10311.0, 10303.0, 10295.0, 10307.0, 10340.0, 10316.0, 10300.0, 10300.0, 10293.0, 10271.0, 10244.0, 10266.0, 10276.0, 10269.0, 10264.0, 10234.0, 10235.0, 10241.0, 10228.0, 10216.0, 10224.0, 10249.0, 10279.0, 10276.0, 10255.0, 10258.0, 10278.0, 10300.0, 10313.0, 10322.0, 10310.0, 10318.0, 10345.0, 10316.0, 10289.0, 10260.0, 10249.0, 10256.0, 10283.0, 10283.0, 10268.0, 10257.0, 10254.0, 10255.0, 10302.0, 10333.0, 10351.0, 10314.0, 10279.0, 10268.0, 10250.0, 10252.0, 10251.0, 10294.0, 10251.0, 10211.0, 10238.0, 10225.0, 10240.0, 10232.0, 10210.0, 10218.0, 10246.0, 10211.0, 10187.0, 10202.0, 10214.0, 10240.0, 10246.0, 10233.0, 10224.0, 10231.0, 10247.0, 10283.0, 10307.0, 10291.0],
      "WindowWidth": [22592.0, 22427.0, 22395.0, 22338.0, 22270.0, 22249.0, 22207.0, 22178.0, 22192.0, 22209.0, 22210.0, 22240.0, 22221.0, 22186.0, 22182.0, 22181.0, 22192.0, 22229.0, 22238.0, 22198.0, 22205.0, 22205.0, 22219.0, 22262.0, 22253.0, 22221.0, 22221.0, 22243.0, 22243.0, 22252.0, 22258.0, 22254.0, 22238.0, 22199.0, 22210.0, 22221.0, 22204.0, 22169.0, 22189.0, 22188.0, 22193.0, 22189.0, 22202.0, 22229.0, 22271.0, 22261.0, 22247.0, 22253.0, 22253.0, 22253.0, 22315.0, 22326.0, 22260.0, 22191.0, 22142.0, 22154.0, 22184.0, 22208.0, 22205.0, 22185.0, 22187.0, 22204.0, 22231.0, 22293.0, 22315.0, 22284.0, 22232.0, 22203.0, 22200.0, 22234.0, 22302.0, 22292.0, 22246.0, 22206.0, 22182.0, 22154.0, 22144.0, 22187.0, 22230.0, 22256.0, 22254.0, 22213.0, 22185.0, 22180.0, 22157.0, 22174.0, 22194.0, 22185.0, 22188.0, 22200.0, 22238.0, 22262.0, 22268.0, 22252.0, 22222.0, 22225.0, 22229.0, 22260.0, 22302.0, 22294.0, 22274.0, 22255.0, 22193.0, 22152.0, 22186.0, 22242.0, 22276.0, 22249.0, 22203.0, 22156.0, 22131.0, 22087.0, 22102.0, 22181.0, 22230.0, 22212.0, 22194.0, 22227.0, 22302.0, 22246.0, 22209.0, 22201.0, 22183.0, 22133.0, 22083.0, 22129.0, 22143.0, 22133.0, 22120.0, 22051.0, 22044.0, 22058.0, 22032.0, 22001.0, 22014.0, 22075.0, 22143.0, 22139.0, 22095.0, 22097.0, 22141.0, 22194.0, 22224.0, 22244.0, 22217.0, 22240.0, 22300.0, 22234.0, 22169.0, 22106.0, 22079.0, 22093.0, 22149.0, 22156.0, 22122.0, 22097.0, 22093.0, 22098.0, 22200.0, 22277.0, 22315.0, 22235.0, 22151.0, 22123.0, 22080.0, 22095.0, 22085.0, 22182.0, 22090.0, 22012.0, 22065.0, 22030.0, 22070.0, 22037.0, 21984.0, 22000.0, 22064.0, 21995.0, 21938.0, 21965.0, 21996.0, 22048.0, 22063.0, 22035.0, 22015.0, 22031.0, 22069.0, 22147.0, 22206.0, 22182.0]
    },
    "slices": {}
  }
}