{
  "AcquisitionMatrixPE": 104,
  "AcquisitionNumber": 1,
  "AcquisitionTime": "16:01:11.777500",
  "BandwidthPerPixelPhaseEncode": 17.17,
  "BaseResolution": 104,
  "BodyPartExamined": "BRAIN",
  "CoilCombinationMethod": "Sum of Squares",
  "ConsistencyInfo": "N4_VE11C_LATEST_20160120",
  "ConversionSoftware": "dcm2niix",
  "ConversionSoftwareVersion": "v1.0.20211006",
  "DerivedVendorReportedEchoSpacing": 0.000560011,
  "DeviceSerialNumber": "167006",
  "DwellTime": 2.1e-06,
  "EchoTime": 0.037,
  "EchoTrainLength": 104,
  "EffectiveEchoSpacing": 0.000560011,
  "FlipAngle": 52,
  "HeudiconvVersion": "0.11.3.post9+gc939bf8",
  "ImageComments": "Unaliased MB4/PE3/LB",
  "ImageOrientationPatientDICOM": [0.99753, -0.0615766, 0.0338083, 0.0687044, 0.955512, -0.28684],
  "ImageOrientationText": "Tra>Cor(-16.8)>Sag(0.8)",
  "ImageType": [
    "ORIGINAL",
    "PRIMARY",
    "M",
    "MB",
    "ND",
    "MOSAIC"
],
  "ImagingFrequency": 123.259,
  "InPlanePhaseEncodingDirectionDICOM": "COL",
  "InstitutionAddress": "Chemin Queen-Mary 4565,Montreal,District,CA,H3W 1W5",
  "InstitutionName": "IUGM",
  "InstitutionalDepartmentName": "Department",
  "MRAcquisitionType": "2D",
  "MagneticFieldStrength": 3,
  "Manufacturer": "Siemens",
  "ManufacturersModelName": "Prisma_fit",
  "MatrixCoilMode": "SENSE",
  "Modality": "MR",
  "MultibandAccelerationFactor": 4,
  "PartialFourier": 1,
  "PatientPosition": "HFS",
  "PercentPhaseFOV": 100,
  "PercentSampling": 100,
  "PhaseEncodingDirection": "j",
  "PhaseEncodingSteps": 104,
  "PhaseResolution": 1,
  "PixelBandwidth": 2290,
  "ProcedureStepDescription": "memory^things",
  "ProtocolName": "func_task-things_run-5",
  "PulseSequenceDetails": "%CustomerSeq%\\cmrr_mbep2d_bold",
  "ReceiveCoilActiveElements": "HC1-7;NC1,2",
  "ReceiveCoilName": "HeadNeck_64",
  "ReconMatrixPE": 104,
  "RepetitionTime": 1.49,
  "SAR": 0.0637085,
  "ScanOptions": "FS",
  "ScanningSequence": "EP",
  "SequenceName": "epfid2d1_104",
  "SequenceVariant": "SK\\SS",
  "SeriesDescription": "func_task-things_run-5",
  "SeriesNumber": 33,
  "ShimSetting": [627, -7246, -8811, 598, -9, -187, -33, -16],
  "SliceThickness": 2,
  "SliceTiming": [0, 0.785, 0.1, 0.8825, 0.1975, 0.98, 0.295, 1.08, 0.3925, 1.1775, 0.49, 1.275, 0.59, 1.3725, 0.6875, 0, 0.785, 0.1, 0.8825, 0.1975, 0.98, 0.295, 1.08, 0.3925, 1.1775, 0.49, 1.275, 0.59, 1.3725, 0.6875, 0, 0.785, 0.1, 0.8825, 0.1975, 0.98, 0.295, 1.08, 0.3925, 1.1775, 0.49, 1.275, 0.59, 1.3725, 0.6875, 0, 0.785, 0.1, 0.8825, 0.1975, 0.98, 0.295, 1.08, 0.3925, 1.1775, 0.49, 1.275, 0.59, 1.3725, 0.6875],
  "SoftwareVersions": "syngo MR E11",
  "SpacingBetweenSlices": 2,
  "StationName": "MRC35049",
  "TaskName": "things",
  "TotalReadoutTime": 0.0576811,
  "TxRefAmp": 316.82,
  "WipMemBlock": "b62e01f7-e35e-4cbf-b3d2-c29147b4edb0||Sequence: R016 ve11c/master r/e634e98; Dec 19 2017 11:00:25 by eja",
  "dcmmeta_affine": [
    [-1.9950592517852783, 0.1374088078737259, 0.02928309328854084, 99.64793395996094],
    [0.12315310537815094, 1.9110231399536133, -0.5769088864326477, -75.37276458740234],
    [0.06761651486158371, 0.5736805200576782, 1.914763331413269, -62.27207565307617],
    [0.0, 0.0, 0.0, 1.0]
],
  "dcmmeta_reorient_transform": [
    [0.0, -1.0, 0.0, 103.0],
    [1.0, 0.0, 0.0, 0.0],
    [0.0, 0.0, 1.0, 0.0],
    [0.0, 0.0, 0.0, 1.0]
],
  "dcmmeta_shape": [104, 104, 60, 190],
  "dcmmeta_slice_dim": 2,
  "dcmmeta_version": 0.6,
  "global": {
    "const": {
      "AcquisitionMatrix": [104, 0, 0, 104],
      "AngioFlag": "N",
      "BitsAllocated": 16,
      "BitsStored": 16,
      "BodyPartExamined": "BRAIN",
      "Columns": 832,
      "EchoNumbers": 1,
      "EchoTime": 37.0,
      "EchoTrainLength": 104,
      "FlipAngle": 52.0,
      "HighBit": 15,
      "ImageOrientationPatient": [0.99752961348556, -0.0615765532234, 0.03380825805137, 0.06870440537931, 0.9555115737927, -0.2868402639618],
      "ImagePositionPatient": [-890.01940649442, -772.24731479919, 181.02431882837],
      "ImageType": [
        "ORIGINAL",
        "PRIMARY",
        "M",
        "MB",
        "ND",
        "MOSAIC"
],
      "ImagedNucleus": "1H",
      "ImagingFrequency": 123.258939,
      "InPlanePhaseEncodingDirection": "COL",
      "MRAcquisitionType": "2D",
      "MagneticFieldStrength": 3.0,
      "Manufacturer": "SIEMENS",
      "ManufacturerModelName": "Prisma_fit",
      "Modality": "MR",
      "NumberOfAverages": 1.0,
      "NumberOfPhaseEncodingSteps": 104,
      "PercentPhaseFieldOfView": 100.0,
      "PercentSampling": 100.0,
      "PerformedProcedureStepStartTime": "141152.097000",
      "PhotometricInterpretation": "MONOCHROME2",
      "PixelBandwidth": 2290.0,
      "PixelRepresentation": 0,
      "PixelSpacing": [2.0, 2.0],
      "ProtocolName": "func_task-things_run-5",
      "RepetitionTime": 1490.0,
      "Rows": 832,
      "SAR": 0.06370845145104,
      "SamplesPerPixel": 1,
      "ScanOptions": "FS",
      "ScanningSequence": "EP",
      "SequenceName": "epfid2d1_104",
      "SequenceVariant": [
        "SK",
        "SS"
],
      "SeriesDescription": "func_task-things_run-5",
      "SeriesNumber": 33,
      "SeriesTime": "160241.807000",
      "SliceLocation": -36.417536070703,
      "SliceThickness": 2.0,
      "SmallestImagePixelValue": 0,
      "SoftwareVersions": "syngo MR E11",
      "SpacingBetweenSlices": 1.9999999674311,
      "SpecificCharacterSet": "ISO_IR 100",
      "StudyID": "1",
      "StudyTime": "141152.023000",
      "TransmitCoilName": "Body",
      "VariableFlipAngleFlag": "N",
      "WindowCenterWidthExplanation": "Algo1",
      "dBdt": 0.0},
    "slices": {}
  },
  "time": {
    "samples": {
      "AcquisitionNumber": [1, 2, 3, 4, 5, 6, 7, 8, 9, 10, 11, 12, 13, 14, 15, 16, 17, 18, 19, 20, 21, 22, 23, 24, 25, 26, 27, 28, 29, 30, 31, 32, 33, 34, 35, 36, 37, 38, 39, 40, 41, 42, 43, 44, 45, 46, 47, 48, 49, 50, 51, 52, 53, 54, 55, 56, 57, 58, 59, 60, 61, 62, 63, 64, 65, 66, 67, 68, 69, 70, 71, 72, 73, 74, 75, 76, 77, 78, 79, 80, 81, 82, 83, 84, 85, 86, 87, 88, 89, 90, 91, 92, 93, 94, 95, 96, 97, 98, 99, 100, 101, 102, 103, 104, 105, 106, 107, 108, 109, 110, 111, 112, 113, 114, 115, 116, 117, 118, 119, 120, 121, 122, 123, 124, 125, 126, 127, 128, 129, 130, 131, 132, 133, 134, 135, 136, 137, 138, 139, 140, 141, 142, 143, 144, 145, 146, 147, 148, 149, 150, 151, 152, 153, 154, 155, 156, 157, 158, 159, 160, 161, 162, 163, 164, 165, 166, 167, 168, 169, 170, 171, 172, 173, 174, 175, 176, 177, 178, 179, 180, 181, 182, 183, 184, 185, 186, 187, 188, 189, 190],
      "AcquisitionTime": ["160111.777500", "160113.267500", "160114.757500", "160116.247500", "160117.737500", "160119.227500", "160120.717500", "160122.207500", "160123.697500", "160125.187500", "160126.677500", "160128.167500", "160129.657500", "160131.147500", "160132.637500", "160134.127500", "160135.617500", "160137.107500", "160138.597500", "160140.087500", "160141.577500", "160143.067500", "160144.557500", "160146.047500", "160147.537500", "160149.027500", "160150.517500", "160152.007500", "160153.497500", "160154.987500", "160156.477500", "160157.967500", "160159.457500", "160200.947500", "160202.437500", "160203.927500", "160205.417500", "160206.907500", "160208.397500", "160209.887500", "160211.377500", "160212.867500", "160214.357500", "160215.847500", "160217.337500", "160218.827500", "160220.317500", "160221.807500", "160223.297500", "160224.787500", "160226.277500", "160227.767500", "160229.257500", "160230.747500", "160232.237500", "160233.727500", "160235.217500", "160236.707500", "160238.197500", "160239.687500", "160241.177500", "160242.667500", "160244.157500", "160245.647500", "160247.137500", "160248.627500", "160250.117500", "160251.607500", "160253.097500", "160254.587500", "160256.077500", "160257.567500", "160259.057500", "160300.547500", "160302.037500", "160303.527500", "160305.017500", "160306.507500", "160307.997500", "160309.487500", "160310.977500", "160312.467500", "160313.957500", "160315.447500", "160316.937500", "160318.427500", "160319.917500", "160321.407500", "160322.897500", "160324.387500", "160325.877500", "160327.367500", "160328.857500", "160330.347500", "160331.837500", "160333.327500", "160334.817500", "160336.307500", "160337.797500", "160339.287500", "160340.777500", "160342.267500", "160343.757500", "160345.247500", "160346.737500", "160348.227500", "160349.717500", "160351.207500", "160352.697500", "160354.187500", "160355.677500", "160357.167500", "160358.657500", "160400.147500", "160401.637500", "160403.127500", "160404.617500", "160406.107500", "160407.597500", "160409.087500", "160410.577500", "160412.067500", "160413.557500", "160415.047500", "160416.537500", "160418.027500", "160419.517500", "160421.007500", "160422.497500", "160423.987500", "160425.477500", "160426.967500", "160428.457500", "160429.947500", "160431.437500", "160432.927500", "160434.417500", "160435.907500", "160437.397500", "160438.887500", "160440.377500", "160441.867500", "160443.357500", "160444.847500", "160446.337500", "160447.827500", "160449.317500", "160450.807500", "160452.297500", "160453.787500", "160455.277500", "160456.767500", "160458.257500", "160459.747500", "160501.237500", "160502.727500", "160504.217500", "160505.707500", "160507.197500", "160508.687500", "160510.177500", "160511.667500", "160513.157500", "160514.647500", "160516.137500", "160517.627500", "160519.117500", "160520.607500", "160522.097500", "160523.587500", "160525.077500", "160526.567500", "160528.057500", "160529.547500", "160531.037500", "160532.527500", "160534.017500", "160535.507500", "160536.997500", "160538.487500", "160539.977500", "160541.467500", "160542.957500", "160544.447500", "160545.937500", "160547.427500", "160548.917500", "160550.407500", "160551.897500", "160553.387500"],
      "ContentTime": ["160241.811000", "160241.815000", "160241.818000", "160241.821000", "160241.825000", "160241.828000", "160241.832000", "160241.835000", "160241.838000", "160241.842000", "160241.845000", "160241.848000", "160241.852000", "160241.855000", "160241.859000", "160241.862000", "160241.871000", "160241.874000", "160241.878000", "160241.881000", "160241.885000", "160241.888000", "160241.891000", "160241.895000", "160241.898000", "160241.901000", "160241.905000", "160241.908000", "160241.912000", "160241.915000", "160241.918000", "160241.922000", "160241.925000", "160241.929000", "160241.932000", "160241.942000", "160241.958000", "160241.962000", "160301.770000", "160301.774000", "160301.777000", "160301.781000", "160301.784000", "160301.788000", "160301.791000", "160301.795000", "160301.798000", "160301.805000", "160301.808000", "160301.812000", "160301.815000", "160301.819000", "160301.822000", "160301.825000", "160301.829000", "160301.832000", "160301.836000", "160301.839000", "160321.770000", "160321.774000", "160321.777000", "160321.781000", "160321.784000", "160321.788000", "160321.791000", "160321.795000", "160321.798000", "160321.802000", "160321.805000", "160321.808000", "160321.812000", "160321.815000", "160321.818000", "160321.822000", "160321.825000", "160321.828000", "160321.832000", "160321.835000", "160341.770000", "160341.774000", "160341.777000", "160341.781000", "160341.784000", "160341.788000", "160341.791000", "160341.794000", "160341.798000", "160341.801000", "160341.805000", "160341.808000", "160341.811000", "160341.815000", "160341.818000", "160341.822000", "160341.825000", "160341.828000", "160341.832000", "160341.835000", "160421.771000", "160421.928000", "160421.932000", "160421.935000", "160421.939000", "160421.942000", "160421.945000", "160421.949000", "160421.952000", "160421.956000", "160421.959000", "160421.962000", "160421.966000", "160421.969000", "160421.973000", "160421.976000", "160421.979000", "160421.983000", "160421.986000", "160421.990000", "160421.993000", "160421.996000", "160422.000000", "160422.003000", "160422.007000", "160422.010000", "160422.013000", "160422.017000", "160422.020000", "160501.771000", "160501.774000", "160501.778000", "160501.781000", "160501.784000", "160501.788000", "160501.802000", "160501.805000", "160501.809000", "160501.812000", "160501.815000", "160501.819000", "160501.822000", "160501.826000", "160501.829000", "160501.833000", "160501.836000", "160501.839000", "160501.843000", "160501.846000", "160501.849000", "160501.853000", "160501.856000", "160501.860000", "160501.863000", "160501.867000", "160501.870000", "160541.770000", "160541.774000", "160541.777000", "160541.781000", "160541.784000", "160541.788000", "160541.791000", "160541.795000", "160541.798000", "160541.802000", "160541.805000", "160541.809000", "160541.812000", "160541.815000", "160541.819000", "160541.822000", "160541.826000", "160541.829000", "160541.832000", "160541.836000", "160541.839000", "160541.843000", "160541.846000", "160541.849000", "160541.853000", "160541.856000", "160541.859000", "160555.128000", "160555.132000", "160555.136000", "160555.139000", "160555.142000", "160555.146000", "160555.149000", "160555.153000", "160555.156000"],
      "InstanceCreationTime": ["160241.811000", "160241.815000", "160241.818000", "160241.821000", "160241.825000", "160241.828000", "160241.832000", "160241.835000", "160241.838000", "160241.842000", "160241.845000", "160241.848000", "160241.852000", "160241.855000", "160241.859000", "160241.862000", "160241.871000", "160241.874000", "160241.878000", "160241.881000", "160241.885000", "160241.888000", "160241.891000", "160241.895000", "160241.898000", "160241.901000", "160241.905000", "160241.908000", "160241.912000", "160241.915000", "160241.918000", "160241.922000", "160241.925000", "160241.929000", "160241.932000", "160241.942000", "160241.958000", "160241.962000", "160301.770000", "160301.774000", "160301.777000", "160301.781000", "160301.784000", "160301.788000", "160301.791000", "160301.795000", "160301.798000", "160301.805000", "160301.808000", "160301.812000", "160301.815000", "160301.819000", "160301.822000", "160301.825000", "160301.829000", "160301.832000", "160301.836000", "160301.839000", "160321.770000", "160321.774000", "160321.777000", "160321.781000", "160321.784000", "160321.788000", "160321.791000", "160321.795000", "160321.798000", "160321.802000", "160321.805000", "160321.808000", "160321.812000", "160321.815000", "160321.818000", "160321.822000", "160321.825000", "160321.828000", "160321.832000", "160321.835000", "160341.770000", "160341.774000", "160341.777000", "160341.781000", "160341.784000", "160341.788000", "160341.791000", "160341.794000", "160341.798000", "160341.801000", "160341.805000", "160341.808000", "160341.811000", "160341.815000", "160341.818000", "160341.822000", "160341.825000", "160341.828000", "160341.832000", "160341.835000", "160421.771000", "160421.928000", "160421.932000", "160421.935000", "160421.939000", "160421.942000", "160421.945000", "160421.949000", "160421.952000", "160421.956000", "160421.959000", "160421.962000", "160421.966000", "160421.969000", "160421.973000", "160421.976000", "160421.979000", "160421.983000", "160421.986000", "160421.990000", "160421.993000", "160421.996000", "160422.000000", "160422.003000", "160422.007000", "160422.010000", "160422.013000", "160422.017000", "160422.020000", "160501.771000", "160501.774000", "160501.778000", "160501.781000", "160501.784000", "160501.788000", "160501.802000", "160501.805000", "160501.809000", "160501.812000", "160501.815000", "160501.819000", "160501.822000", "160501.826000", "160501.829000", "160501.833000", "160501.836000", "160501.839000", "160501.843000", "160501.846000", "160501.849000", "160501.853000", "160501.856000", "160501.860000", "160501.863000", "160501.867000", "160501.870000", "160541.770000", "160541.774000", "160541.777000", "160541.781000", "160541.784000", "160541.788000", "160541.791000", "160541.795000", "160541.798000", "160541.802000", "160541.805000", "160541.809000", "160541.812000", "160541.815000", "160541.819000", "160541.822000", "160541.826000", "160541.829000", "160541.832000", "160541.836000", "160541.839000", "160541.843000", "160541.846000", "160541.849000", "160541.853000", "160541.856000", "160541.859000", "160555.128000", "160555.132000", "160555.136000", "160555.139000", "160555.142000", "160555.146000", "160555.149000", "160555.153000", "160555.156000"],
      "InstanceNumber": [1, 2, 3, 4, 5, 6, 7, 8, 9, 10, 11, 12, 13, 14, 15, 16, 17, 18, 19, 20, 21, 22, 23, 24, 25, 26, 27, 28, 29, 30, 31, 32, 33, 34, 35, 36, 37, 38, 39, 40, 41, 42, 43, 44, 45, 46, 47, 48, 49, 50, 51, 52, 53, 54, 55, 56, 57, 58, 59, 60, 61, 62, 63, 64, 65, 66, 67, 68, 69, 70, 71, 72, 73, 74, 75, 76, 77, 78, 79, 80, 81, 82, 83, 84, 85, 86, 87, 88, 89, 90, 91, 92, 93, 94, 95, 96, 97, 98, 99, 100, 101, 102, 103, 104, 105, 106, 107, 108, 109, 110, 111, 112, 113, 114, 115, 116, 117, 118, 119, 120, 121, 122, 123, 124, 125, 126, 127, 128, 129, 130, 131, 132, 133, 134, 135, 136, 137, 138, 139, 140, 141, 142, 143, 144, 145, 146, 147, 148, 149, 150, 151, 152, 153, 154, 155, 156, 157, 158, 159, 160, 161, 162, 163, 164, 165, 166, 167, 168, 169, 170, 171, 172, 173, 174, 175, 176, 177, 178, 179, 180, 181, 182, 183, 184, 185, 186, 187, 188, 189, 190],
      "LargestImagePixelValue": [42557, 41095, 40932, 40116, 39535, 40114, 41193, 40010, 40146, 40312, 40421, 40292, 40041, 40466, 40249, 40379, 40390, 39774, 39624, 39893, 39958, 40268, 39823, 39853, 39739, 40020, 39807, 39931, 39919, 40199, 40170, 40259, 40464, 40616, 39990, 40438, 40225, 40125, 39547, 40336, 39954, 41405, 41063, 40245, 40364, 40546, 40741, 40598, 40992, 39922, 41102, 40413, 40825, 40285, 40595, 40351, 40737, 40295, 41030, 40589, 41013, 40929, 40610, 40917, 40658, 40891, 40234, 40775, 40647, 40736, 41467, 41125, 40857, 40633, 40873, 40284, 40908, 41020, 41014, 40931, 41089, 41351, 41098, 41520, 41167, 40846, 41362, 41160, 41249, 41514, 41094, 41396, 41698, 41839, 41360, 41665, 41866, 41828, 41489, 41950, 41532, 41478, 40936, 41630, 41215, 42033, 41753, 41657, 41666, 41212, 41388, 41850, 41818, 41531, 41250, 41188, 41162, 41366, 41170, 41254, 41497, 41621, 41354, 41376, 41439, 41552, 42151, 41471, 41201, 41195, 41507, 41803, 41434, 41705, 41611, 41757, 41724, 41728, 41344, 41470, 41470, 42023, 41840, 41506, 41715, 41754, 41673, 41262, 41141, 41231, 41362, 41154, 41346, 41064, 41466, 41105, 41451, 41420, 41438, 40982, 41000, 41235, 40723, 41042, 41248, 41330, 41157, 41292, 41540, 41335, 40874, 40925, 40842, 41056, 41097, 41408, 40847, 41447, 41498, 41121, 41604, 41505, 41063, 41559, 41328, 41108, 41637, 41334, 41498, 41521],
      "WindowCenter": [10190.0, 10130.0, 10113.0, 10104.0, 10141.0, 10143.0, 10119.0, 10081.0, 10076.0, 10091.0, 10086.0, 10071.0, 10050.0, 10059.0, 10069.0, 10077.0, 10099.0, 10100.0, 10085.0, 10079.0, 10070.0, 10070.0, 10064.0, 10086.0, 10092.0, 10081.0, 10089.0, 10098.0, 10113.0, 10113.0, 10103.0, 10102.0, 10102.0, 10109.0, 10096.0, 10101.0, 10134.0, 10149.0, 10138.0, 10103.0, 10067.0, 10069.0, 10088.0, 10110.0, 10111.0, 10119.0, 10097.0, 10086.0, 10075.0, 10077.0, 10104.0, 10127.0, 10121.0, 10089.0, 10070.0, 10067.0, 10076.0, 10071.0, 10073.0, 10058.0, 10081.0, 10099.0, 10095.0, 10084.0, 10086.0, 10115.0, 10121.0, 10114.0, 10104.0, 10096.0, 10111.0, 10115.0, 10101.0, 10086.0, 10081.0, 10078.0, 10090.0, 10093.0, 10093.0, 10084.0, 10075.0, 10090.0, 10099.0, 10118.0, 10122.0, 10134.0, 10126.0, 10111.0, 10092.0, 10080.0, 10073.0, 10093.0, 10110.0, 10103.0, 10105.0, 10113.0, 10122.0, 10106.0, 10065.0, 10074.0, 10133.0, 10156.0, 10115.0, 10091.0, 10073.0, 10100.0, 10105.0, 10115.0, 10099.0, 10082.0, 10065.0, 10068.0, 10068.0, 10078.0, 10079.0, 10087.0, 10088.0, 10103.0, 10106.0, 10115.0, 10121.0, 10129.0, 10133.0, 10136.0, 10125.0, 10107.0, 10095.0, 10104.0, 10108.0, 10099.0, 10088.0, 10093.0, 10114.0, 10124.0, 10117.0, 10086.0, 10081.0, 10088.0, 10108.0, 10097.0, 10082.0, 10077.0, 10092.0, 10102.0, 10115.0, 10099.0, 10089.0, 10073.0, 10071.0, 10101.0, 10122.0, 10132.0, 10117.0, 10086.0, 10082.0, 10082.0, 10110.0, 10111.0, 10098.0, 10075.0, 10064.0, 10085.0, 10099.0, 10091.0, 10081.0, 10072.0, 10085.0, 10110.0, 10126.0, 10122.0, 10095.0, 10076.0, 10071.0, 10094.0, 10115.0, 10114.0, 10103.0, 10074.0, 10078.0, 10102.0, 10130.0, 10117.0, 10073.0, 10049.0, 10046.0, 10062.0, 10078.0, 10058.0, 10038.0, 10041.0],
      "WindowWidth": [22039.0, 21873.0, 21808.0, 21778.0, 21854.0, 21855.0, 21794.0, 21714.0, 21693.0, 21722.0, 21712.0, 21677.0, 21635.0, 21652.0, 21678.0, 21698.0, 21741.0, 21747.0, 21713.0, 21696.0, 21676.0, 21676.0, 21666.0, 21709.0, 21731.0, 21704.0, 21722.0, 21741.0, 21773.0, 21774.0, 21753.0, 21751.0, 21748.0, 21761.0, 21737.0, 21747.0, 21822.0, 21859.0, 21836.0, 21754.0, 21674.0, 21671.0, 21715.0, 21770.0, 21770.0, 21786.0, 21739.0, 21715.0, 21690.0, 21704.0, 21757.0, 21809.0, 21796.0, 21728.0, 21682.0, 21671.0, 21693.0, 21686.0, 21687.0, 21654.0, 21701.0, 21744.0, 21739.0, 21716.0, 21722.0, 21782.0, 21799.0, 21782.0, 21761.0, 21745.0, 21768.0, 21779.0, 21750.0, 21718.0, 21703.0, 21703.0, 21724.0, 21732.0, 21730.0, 21713.0, 21692.0, 21723.0, 21747.0, 21787.0, 21797.0, 21826.0, 21807.0, 21778.0, 21733.0, 21704.0, 21690.0, 21729.0, 21766.0, 21753.0, 21761.0, 21774.0, 21796.0, 21760.0, 21673.0, 21687.0, 21817.0, 21872.0, 21782.0, 21726.0, 21687.0, 21747.0, 21762.0, 21781.0, 21748.0, 21709.0, 21669.0, 21672.0, 21674.0, 21697.0, 21700.0, 21719.0, 21722.0, 21753.0, 21760.0, 21780.0, 21795.0, 21812.0, 21824.0, 21832.0, 21804.0, 21762.0, 21735.0, 21755.0, 21767.0, 21749.0, 21723.0, 21731.0, 21781.0, 21804.0, 21788.0, 21720.0, 21708.0, 21720.0, 21766.0, 21740.0, 21707.0, 21693.0, 21727.0, 21751.0, 21783.0, 21747.0, 21723.0, 21689.0, 21682.0, 21748.0, 21798.0, 21822.0, 21788.0, 21722.0, 21711.0, 21713.0, 21771.0, 21771.0, 21744.0, 21696.0, 21668.0, 21712.0, 21748.0, 21729.0, 21704.0, 21689.0, 21719.0, 21771.0, 21805.0, 21799.0, 21741.0, 21699.0, 21684.0, 21736.0, 21783.0, 21779.0, 21757.0, 21691.0, 21694.0, 21747.0, 21810.0, 21785.0, 21691.0, 21630.0, 21624.0, 21659.0, 21693.0, 21655.0, 21606.0, 21612.0]
    },
    "slices": {}
  }
}