{
  "AcquisitionMatrixPE": 104,
  "AcquisitionNumber": 1,
  "AcquisitionTime": "15:54:58.892500",
  "BandwidthPerPixelPhaseEncode": 17.17,
  "BaseResolution": 104,
  "BodyPartExamined": "BRAIN",
  "CoilCombinationMethod": "Sum of Squares",
  "ConsistencyInfo": "N4_VE11C_LATEST_20160120",
  "ConversionSoftware": "dcm2niix",
  "ConversionSoftwareVersion": "v1.0.20211006",
  "DerivedVendorReportedEchoSpacing": 0.000560011,
  "DeviceSerialNumber": "167006",
  "DwellTime": 2.1e-06,
  "EchoTime": 0.037,
  "EchoTrainLength": 104,
  "EffectiveEchoSpacing": 0.000560011,
  "FlipAngle": 52,
  "HeudiconvVersion": "0.11.3.post9+gc939bf8",
  "ImageComments": "Unaliased MB4/PE3/LB",
  "ImageOrientationPatientDICOM": [0.99753, -0.0615766, 0.0338083, 0.0687044, 0.955512, -0.28684],
  "ImageOrientationText": "Tra>Cor(-16.8)>Sag(0.8)",
  "ImageType": [
    "ORIGINAL",
    "PRIMARY",
    "M",
    "MB",
    "ND",
    "MOSAIC"
],
  "ImagingFrequency": 123.259,
  "InPlanePhaseEncodingDirectionDICOM": "COL",
  "InstitutionAddress": "Chemin Queen-Mary 4565,Montreal,District,CA,H3W 1W5",
  "InstitutionName": "IUGM",
  "InstitutionalDepartmentName": "Department",
  "MRAcquisitionType": "2D",
  "MagneticFieldStrength": 3,
  "Manufacturer": "Siemens",
  "ManufacturersModelName": "Prisma_fit",
  "MatrixCoilMode": "SENSE",
  "Modality": "MR",
  "MultibandAccelerationFactor": 4,
  "PartialFourier": 1,
  "PatientPosition": "HFS",
  "PercentPhaseFOV": 100,
  "PercentSampling": 100,
  "PhaseEncodingDirection": "j",
  "PhaseEncodingSteps": 104,
  "PhaseResolution": 1,
  "PixelBandwidth": 2290,
  "ProcedureStepDescription": "memory^things",
  "ProtocolName": "func_task-things_run-4",
  "PulseSequenceDetails": "%CustomerSeq%\\cmrr_mbep2d_bold",
  "ReceiveCoilActiveElements": "HC1-7;NC1,2",
  "ReceiveCoilName": "HeadNeck_64",
  "ReconMatrixPE": 104,
  "RepetitionTime": 1.49,
  "SAR": 0.0637085,
  "ScanOptions": "FS",
  "ScanningSequence": "EP",
  "SequenceName": "epfid2d1_104",
  "SequenceVariant": "SK\\SS",
  "SeriesDescription": "func_task-things_run-4",
  "SeriesNumber": 30,
  "ShimSetting": [627, -7246, -8811, 598, -9, -187, -33, -16],
  "SliceThickness": 2,
  "SliceTiming": [0, 0.7825, 0.0975, 0.8825, 0.195, 0.98, 0.2925, 1.0775, 0.3925, 1.175, 0.49, 1.2725, 0.5875, 1.3725, 0.685, 0, 0.7825, 0.0975, 0.8825, 0.195, 0.98, 0.2925, 1.0775, 0.3925, 1.175, 0.49, 1.2725, 0.5875, 1.3725, 0.685, 0, 0.7825, 0.0975, 0.8825, 0.195, 0.98, 0.2925, 1.0775, 0.3925, 1.175, 0.49, 1.2725, 0.5875, 1.3725, 0.685, 0, 0.7825, 0.0975, 0.8825, 0.195, 0.98, 0.2925, 1.0775, 0.3925, 1.175, 0.49, 1.2725, 0.5875, 1.3725, 0.685],
  "SoftwareVersions": "syngo MR E11",
  "SpacingBetweenSlices": 2,
  "StationName": "MRC35049",
  "TaskName": "things",
  "TotalReadoutTime": 0.0576811,
  "TxRefAmp": 316.82,
  "WipMemBlock": "2b61f8c8-ac2d-44cd-8fe3-20385ce75bfd||Sequence: R016 ve11c/master r/e634e98; Dec 19 2017 11:00:25 by eja",
  "dcmmeta_affine": [
    [-1.9950592517852783, 0.1374088078737259, 0.02928309328854084, 99.64793395996094],
    [0.12315310537815094, 1.9110231399536133, -0.5769088864326477, -75.37276458740234],
    [0.06761651486158371, 0.5736805200576782, 1.914763331413269, -62.27207565307617],
    [0.0, 0.0, 0.0, 1.0]
],
  "dcmmeta_reorient_transform": [
    [0.0, -1.0, 0.0, 103.0],
    [1.0, 0.0, 0.0, 0.0],
    [0.0, 0.0, 1.0, 0.0],
    [0.0, 0.0, 0.0, 1.0]
],
  "dcmmeta_shape": [104, 104, 60, 190],
  "dcmmeta_slice_dim": 2,
  "dcmmeta_version": 0.6,
  "global": {
    "const": {
      "AcquisitionMatrix": [104, 0, 0, 104],
      "AngioFlag": "N",
      "BitsAllocated": 16,
      "BitsStored": 16,
      "BodyPartExamined": "BRAIN",
      "Columns": 832,
      "EchoNumbers": 1,
      "EchoTime": 37.0,
      "EchoTrainLength": 104,
      "FlipAngle": 52.0,
      "HighBit": 15,
      "ImageOrientationPatient": [0.99752961348556, -0.0615765532234, 0.03380825805137, 0.06870440537931, 0.9555115737927, -0.2868402639618],
      "ImagePositionPatient": [-890.01940649442, -772.24731479919, 181.02431882837],
      "ImageType": [
        "ORIGINAL",
        "PRIMARY",
        "M",
        "MB",
        "ND",
        "MOSAIC"
],
      "ImagedNucleus": "1H",
      "ImagingFrequency": 123.258938,
      "InPlanePhaseEncodingDirection": "COL",
      "MRAcquisitionType": "2D",
      "MagneticFieldStrength": 3.0,
      "Manufacturer": "SIEMENS",
      "ManufacturerModelName": "Prisma_fit",
      "Modality": "MR",
      "NumberOfAverages": 1.0,
      "NumberOfPhaseEncodingSteps": 104,
      "PercentPhaseFieldOfView": 100.0,
      "PercentSampling": 100.0,
      "PerformedProcedureStepStartTime": "141152.097000",
      "PhotometricInterpretation": "MONOCHROME2",
      "PixelBandwidth": 2290.0,
      "PixelRepresentation": 0,
      "PixelSpacing": [2.0, 2.0],
      "ProtocolName": "func_task-things_run-4",
      "RepetitionTime": 1490.0,
      "Rows": 832,
      "SAR": 0.06370845145104,
      "SamplesPerPixel": 1,
      "ScanOptions": "FS",
      "ScanningSequence": "EP",
      "SequenceName": "epfid2d1_104",
      "SequenceVariant": [
        "SK",
        "SS"
],
      "SeriesDescription": "func_task-things_run-4",
      "SeriesNumber": 30,
      "SeriesTime": "155617.827000",
      "SliceLocation": -36.417536070703,
      "SliceThickness": 2.0,
      "SmallestImagePixelValue": 0,
      "SoftwareVersions": "syngo MR E11",
      "SpacingBetweenSlices": 1.9999999674311,
      "SpecificCharacterSet": "ISO_IR 100",
      "StudyID": "1",
      "StudyTime": "141152.023000",
      "TransmitCoilName": "Body",
      "VariableFlipAngleFlag": "N",
      "WindowCenterWidthExplanation": "Algo1",
      "dBdt": 0.0},
    "slices": {}
  },
  "time": {
    "samples": {
      "AcquisitionNumber": [1, 2, 3, 4, 5, 6, 7, 8, 9, 10, 11, 12, 13, 14, 15, 16, 17, 18, 19, 20, 21, 22, 23, 24, 25, 26, 27, 28, 29, 30, 31, 32, 33, 34, 35, 36, 37, 38, 39, 40, 41, 42, 43, 44, 45, 46, 47, 48, 49, 50, 51, 52, 53, 54, 55, 56, 57, 58, 59, 60, 61, 62, 63, 64, 65, 66, 67, 68, 69, 70, 71, 72, 73, 74, 75, 76, 77, 78, 79, 80, 81, 82, 83, 84, 85, 86, 87, 88, 89, 90, 91, 92, 93, 94, 95, 96, 97, 98, 99, 100, 101, 102, 103, 104, 105, 106, 107, 108, 109, 110, 111, 112, 113, 114, 115, 116, 117, 118, 119, 120, 121, 122, 123, 124, 125, 126, 127, 128, 129, 130, 131, 132, 133, 134, 135, 136, 137, 138, 139, 140, 141, 142, 143, 144, 145, 146, 147, 148, 149, 150, 151, 152, 153, 154, 155, 156, 157, 158, 159, 160, 161, 162, 163, 164, 165, 166, 167, 168, 169, 170, 171, 172, 173, 174, 175, 176, 177, 178, 179, 180, 181, 182, 183, 184, 185, 186, 187, 188, 189, 190],
      "AcquisitionTime": ["155458.892500", "155500.382500", "155501.872500", "155503.362500", "155504.852500", "155506.342500", "155507.832500", "155509.322500", "155510.812500", "155512.302500", "155513.792500", "155515.282500", "155516.772500", "155518.262500", "155519.752500", "155521.242500", "155522.732500", "155524.222500", "155525.712500", "155527.202500", "155528.692500", "155530.182500", "155531.672500", "155533.162500", "155534.652500", "155536.142500", "155537.632500", "155539.122500", "155540.612500", "155542.102500", "155543.592500", "155545.082500", "155546.572500", "155548.062500", "155549.552500", "155551.042500", "155552.532500", "155554.022500", "155555.512500", "155557.002500", "155558.492500", "155559.982500", "155601.472500", "155602.962500", "155604.452500", "155605.942500", "155607.432500", "155608.922500", "155610.412500", "155611.902500", "155613.392500", "155614.882500", "155616.372500", "155617.862500", "155619.352500", "155620.842500", "155622.332500", "155623.822500", "155625.312500", "155626.802500", "155628.292500", "155629.782500", "155631.272500", "155632.762500", "155634.252500", "155635.742500", "155637.232500", "155638.722500", "155640.212500", "155641.702500", "155643.192500", "155644.682500", "155646.172500", "155647.662500", "155649.152500", "155650.642500", "155652.132500", "155653.622500", "155655.112500", "155656.602500", "155658.092500", "155659.582500", "155701.072500", "155702.562500", "155704.052500", "155705.542500", "155707.032500", "155708.522500", "155710.012500", "155711.502500", "155712.992500", "155714.482500", "155715.972500", "155717.462500", "155718.952500", "155720.442500", "155721.932500", "155723.422500", "155724.912500", "155726.402500", "155727.892500", "155729.382500", "155730.872500", "155732.362500", "155733.852500", "155735.342500", "155736.832500", "155738.322500", "155739.812500", "155741.302500", "155742.792500", "155744.282500", "155745.772500", "155747.262500", "155748.752500", "155750.242500", "155751.732500", "155753.222500", "155754.712500", "155756.202500", "155757.692500", "155759.182500", "155800.672500", "155802.162500", "155803.652500", "155805.142500", "155806.632500", "155808.122500", "155809.612500", "155811.102500", "155812.592500", "155814.082500", "155815.572500", "155817.062500", "155818.552500", "155820.042500", "155821.532500", "155823.022500", "155824.512500", "155826.002500", "155827.492500", "155828.982500", "155830.472500", "155831.962500", "155833.452500", "155834.942500", "155836.432500", "155837.922500", "155839.412500", "155840.902500", "155842.392500", "155843.882500", "155845.372500", "155846.862500", "155848.352500", "155849.842500", "155851.332500", "155852.822500", "155854.312500", "155855.802500", "155857.292500", "155858.782500", "155900.272500", "155901.762500", "155903.252500", "155904.742500", "155906.232500", "155907.722500", "155909.212500", "155910.702500", "155912.192500", "155913.682500", "155915.172500", "155916.662500", "155918.152500", "155919.642500", "155921.132500", "155922.622500", "155924.112500", "155925.602500", "155927.092500", "155928.582500", "155930.072500", "155931.562500", "155933.052500", "155934.542500", "155936.032500", "155937.522500", "155939.012500", "155940.502500"],
      "ContentTime": ["155617.830000", "155617.834000", "155617.838000", "155617.841000", "155617.845000", "155617.848000", "155617.852000", "155617.856000", "155617.859000", "155617.862000", "155617.866000", "155617.869000", "155617.873000", "155617.876000", "155617.880000", "155617.883000", "155617.887000", "155617.890000", "155617.893000", "155617.897000", "155617.900000", "155617.912000", "155617.915000", "155617.919000", "155617.922000", "155617.926000", "155617.929000", "155637.798000", "155637.802000", "155637.817000", "155637.821000", "155637.824000", "155637.828000", "155637.831000", "155637.835000", "155637.838000", "155637.841000", "155637.845000", "155637.848000", "155637.851000", "155637.855000", "155637.858000", "155637.862000", "155637.865000", "155637.868000", "155637.872000", "155637.875000", "155657.798000", "155657.802000", "155657.805000", "155657.809000", "155657.812000", "155657.816000", "155657.819000", "155657.823000", "155657.826000", "155657.829000", "155657.833000", "155657.836000", "155657.840000", "155657.843000", "155657.846000", "155657.850000", "155657.853000", "155657.857000", "155657.860000", "155657.864000", "155717.798000", "155717.802000", "155717.805000", "155717.809000", "155717.813000", "155717.816000", "155717.820000", "155717.823000", "155717.826000", "155717.830000", "155717.833000", "155717.837000", "155717.840000", "155717.844000", "155717.847000", "155717.850000", "155717.854000", "155717.857000", "155717.860000", "155717.864000", "155717.867000", "155757.799000", "155757.803000", "155757.806000", "155757.810000", "155757.813000", "155757.817000", "155757.820000", "155757.824000", "155757.827000", "155757.830000", "155757.834000", "155757.837000", "155757.840000", "155757.844000", "155757.847000", "155757.850000", "155757.854000", "155757.857000", "155757.861000", "155757.864000", "155757.867000", "155757.871000", "155757.874000", "155757.877000", "155757.881000", "155757.884000", "155757.887000", "155757.891000", "155757.894000", "155757.898000", "155757.901000", "155837.798000", "155837.802000", "155837.806000", "155837.809000", "155837.813000", "155837.816000", "155837.819000", "155837.823000", "155837.826000", "155837.830000", "155837.833000", "155837.836000", "155837.840000", "155837.843000", "155837.846000", "155837.866000", "155837.869000", "155837.872000", "155837.876000", "155837.879000", "155837.883000", "155837.886000", "155837.890000", "155837.893000", "155837.896000", "155837.900000", "155837.903000", "155917.798000", "155917.802000", "155917.806000", "155917.809000", "155917.812000", "155917.816000", "155917.819000", "155917.823000", "155917.826000", "155917.829000", "155917.833000", "155917.836000", "155917.839000", "155917.843000", "155917.846000", "155917.850000", "155917.853000", "155917.856000", "155917.860000", "155917.863000", "155917.866000", "155917.870000", "155917.873000", "155917.876000", "155917.880000", "155917.883000", "155917.887000", "155942.480000", "155942.484000", "155942.487000", "155942.490000", "155942.494000", "155942.497000", "155942.501000", "155942.504000", "155942.508000", "155942.511000", "155942.514000", "155942.518000", "155942.521000", "155942.525000", "155942.528000", "155942.531000", "155942.535000"],
      "InstanceCreationTime": ["155617.830000", "155617.834000", "155617.838000", "155617.841000", "155617.845000", "155617.848000", "155617.852000", "155617.856000", "155617.859000", "155617.862000", "155617.866000", "155617.869000", "155617.873000", "155617.876000", "155617.880000", "155617.883000", "155617.887000", "155617.890000", "155617.893000", "155617.897000", "155617.900000", "155617.912000", "155617.915000", "155617.919000", "155617.922000", "155617.926000", "155617.929000", "155637.798000", "155637.802000", "155637.817000", "155637.821000", "155637.824000", "155637.828000", "155637.831000", "155637.835000", "155637.838000", "155637.841000", "155637.845000", "155637.848000", "155637.851000", "155637.855000", "155637.858000", "155637.862000", "155637.865000", "155637.868000", "155637.872000", "155637.875000", "155657.798000", "155657.802000", "155657.805000", "155657.809000", "155657.812000", "155657.816000", "155657.819000", "155657.823000", "155657.826000", "155657.829000", "155657.833000", "155657.836000", "155657.840000", "155657.843000", "155657.846000", "155657.850000", "155657.853000", "155657.857000", "155657.860000", "155657.864000", "155717.798000", "155717.802000", "155717.805000", "155717.809000", "155717.813000", "155717.816000", "155717.820000", "155717.823000", "155717.826000", "155717.830000", "155717.833000", "155717.837000", "155717.840000", "155717.844000", "155717.847000", "155717.850000", "155717.854000", "155717.857000", "155717.860000", "155717.864000", "155717.867000", "155757.799000", "155757.803000", "155757.806000", "155757.810000", "155757.813000", "155757.817000", "155757.820000", "155757.824000", "155757.827000", "155757.830000", "155757.834000", "155757.837000", "155757.840000", "155757.844000", "155757.847000", "155757.850000", "155757.854000", "155757.857000", "155757.861000", "155757.864000", "155757.867000", "155757.871000", "155757.874000", "155757.877000", "155757.881000", "155757.884000", "155757.887000", "155757.891000", "155757.894000", "155757.898000", "155757.901000", "155837.798000", "155837.802000", "155837.806000", "155837.809000", "155837.813000", "155837.816000", "155837.819000", "155837.823000", "155837.826000", "155837.830000", "155837.833000", "155837.836000", "155837.840000", "155837.843000", "155837.846000", "155837.866000", "155837.869000", "155837.872000", "155837.876000", "155837.879000", "155837.883000", "155837.886000", "155837.890000", "155837.893000", "155837.896000", "155837.900000", "155837.903000", "155917.798000", "155917.802000", "155917.806000", "155917.809000", "155917.812000", "155917.816000", "155917.819000", "155917.823000", "155917.826000", "155917.829000", "155917.833000", "155917.836000", "155917.839000", "155917.843000", "155917.846000", "155917.850000", "155917.853000", "155917.856000", "155917.860000", "155917.863000", "155917.866000", "155917.870000", "155917.873000", "155917.876000", "155917.880000", "155917.883000", "155917.887000", "155942.480000", "155942.484000", "155942.487000", "155942.490000", "155942.494000", "155942.497000", "155942.501000", "155942.504000", "155942.508000", "155942.511000", "155942.514000", "155942.518000", "155942.521000", "155942.525000", "155942.528000", "155942.531000", "155942.535000"],
      "InstanceNumber": [1, 2, 3, 4, 5, 6, 7, 8, 9, 10, 11, 12, 13, 14, 15, 16, 17, 18, 19, 20, 21, 22, 23, 24, 25, 26, 27, 28, 29, 30, 31, 32, 33, 34, 35, 36, 37, 38, 39, 40, 41, 42, 43, 44, 45, 46, 47, 48, 49, 50, 51, 52, 53, 54, 55, 56, 57, 58, 59, 60, 61, 62, 63, 64, 65, 66, 67, 68, 69, 70, 71, 72, 73, 74, 75, 76, 77, 78, 79, 80, 81, 82, 83, 84, 85, 86, 87, 88, 89, 90, 91, 92, 93, 94, 95, 96, 97, 98, 99, 100, 101, 102, 103, 104, 105, 106, 107, 108, 109, 110, 111, 112, 113, 114, 115, 116, 117, 118, 119, 120, 121, 122, 123, 124, 125, 126, 127, 128, 129, 130, 131, 132, 133, 134, 135, 136, 137, 138, 139, 140, 141, 142, 143, 144, 145, 146, 147, 148, 149, 150, 151, 152, 153, 154, 155, 156, 157, 158, 159, 160, 161, 162, 163, 164, 165, 166, 167, 168, 169, 170, 171, 172, 173, 174, 175, 176, 177, 178, 179, 180, 181, 182, 183, 184, 185, 186, 187, 188, 189, 190],
      "LargestImagePixelValue": [43799, 42191, 41659, 41894, 41496, 41073, 40663, 41042, 40817, 40819, 40766, 40898, 40432, 40446, 40445, 40712, 40710, 40673, 39854, 40805, 40965, 39797, 40074, 40340, 39851, 39982, 39789, 39919, 39806, 39410, 40135, 40019, 39985, 40156, 39984, 40084, 40304, 40242, 39890, 39925, 40462, 39916, 40378, 39946, 40032, 39634, 39759, 40182, 39945, 39606, 39958, 39867, 40339, 40249, 40507, 40014, 40327, 39727, 40014, 39951, 40808, 40084, 39657, 40105, 40024, 39495, 40008, 39888, 39859, 40079, 40131, 39650, 40114, 40245, 39837, 39857, 39838, 39771, 40075, 40216, 39765, 39806, 38997, 39941, 39403, 39869, 39388, 40077, 40031, 39752, 39449, 40108, 39668, 40231, 39627, 39699, 39261, 39391, 39579, 39792, 39148, 39765, 39872, 40130, 39630, 39645, 39341, 39290, 39483, 39498, 39412, 39001, 39396, 39204, 39007, 39235, 39078, 39235, 39338, 39692, 39440, 39480, 38978, 39470, 39270, 38937, 39011, 38926, 39015, 39695, 39146, 39320, 39724, 39518, 39807, 39454, 39458, 39909, 39985, 39050, 39489, 39688, 39324, 39460, 39147, 39592, 39366, 39620, 39249, 39134, 39543, 39404, 39385, 39448, 39475, 39951, 39593, 39672, 39980, 39300, 39924, 38723, 39630, 39066, 39070, 39266, 39551, 39535, 39494, 39700, 39510, 39946, 40007, 39853, 40156, 39219, 40046, 39549, 40113, 40001, 39962, 39997, 39535, 40683, 39456, 40586, 40125, 39946, 39653, 39815],
      "WindowCenter": [10178.0, 10125.0, 10087.0, 10088.0, 10092.0, 10083.0, 10081.0, 10081.0, 10096.0, 10107.0, 10123.0, 10132.0, 10119.0, 10092.0, 10075.0, 10088.0, 10098.0, 10107.0, 10110.0, 10115.0, 10134.0, 10142.0, 10147.0, 10124.0, 10093.0, 10087.0, 10110.0, 10128.0, 10116.0, 10092.0, 10088.0, 10102.0, 10119.0, 10099.0, 10081.0, 10074.0, 10105.0, 10131.0, 10122.0, 10091.0, 10062.0, 10053.0, 10064.0, 10076.0, 10083.0, 10078.0, 10085.0, 10106.0, 10134.0, 10115.0, 10088.0, 10064.0, 10057.0, 10057.0, 10079.0, 10098.0, 10083.0, 10056.0, 10043.0, 10051.0, 10069.0, 10074.0, 10076.0, 10091.0, 10091.0, 10065.0, 10069.0, 10059.0, 10073.0, 10076.0, 10068.0, 10075.0, 10072.0, 10080.0, 10075.0, 10092.0, 10087.0, 10094.0, 10086.0, 10089.0, 10071.0, 10076.0, 10093.0, 10109.0, 10100.0, 10083.0, 10061.0, 10066.0, 10090.0, 10093.0, 10082.0, 10068.0, 10061.0, 10065.0, 10081.0, 10090.0, 10096.0, 10087.0, 10093.0, 10093.0, 10097.0, 10081.0, 10075.0, 10065.0, 10084.0, 10110.0, 10121.0, 10100.0, 10081.0, 10055.0, 10060.0, 10048.0, 10052.0, 10058.0, 10070.0, 10078.0, 10073.0, 10080.0, 10104.0, 10103.0, 10082.0, 10063.0, 10062.0, 10054.0, 10062.0, 10063.0, 10096.0, 10083.0, 10090.0, 10103.0, 10100.0, 10076.0, 10054.0, 10044.0, 10064.0, 10085.0, 10094.0, 10085.0, 10063.0, 10041.0, 10055.0, 10053.0, 10038.0, 10035.0, 10024.0, 10036.0, 10054.0, 10078.0, 10082.0, 10085.0, 10081.0, 10072.0, 10089.0, 10093.0, 10084.0, 10085.0, 10080.0, 10111.0, 10115.0, 10085.0, 10073.0, 10059.0, 10101.0, 10091.0, 10085.0, 10067.0, 10055.0, 10052.0, 10048.0, 10060.0, 10076.0, 10086.0, 10084.0, 10088.0, 10087.0, 10072.0, 10068.0, 10061.0, 10066.0, 10067.0, 10084.0, 10101.0, 10105.0, 10095.0, 10058.0, 10060.0, 10052.0, 10059.0, 10047.0, 10060.0],
      "WindowWidth": [21988.0, 21837.0, 21737.0, 21728.0, 21724.0, 21698.0, 21690.0, 21688.0, 21718.0, 21748.0, 21783.0, 21801.0, 21773.0, 21712.0, 21673.0, 21698.0, 21718.0, 21738.0, 21748.0, 21755.0, 21796.0, 21823.0, 21832.0, 21779.0, 21715.0, 21700.0, 21751.0, 21788.0, 21763.0, 21712.0, 21700.0, 21730.0, 21767.0, 21727.0, 21687.0, 21667.0, 21737.0, 21793.0, 21781.0, 21712.0, 21645.0, 21623.0, 21645.0, 21675.0, 21690.0, 21682.0, 21697.0, 21740.0, 21808.0, 21766.0, 21705.0, 21654.0, 21633.0, 21636.0, 21683.0, 21725.0, 21691.0, 21640.0, 21606.0, 21626.0, 21665.0, 21680.0, 21684.0, 21712.0, 21713.0, 21662.0, 21670.0, 21645.0, 21674.0, 21681.0, 21666.0, 21682.0, 21680.0, 21692.0, 21680.0, 21718.0, 21709.0, 21724.0, 21708.0, 21710.0, 21674.0, 21683.0, 21722.0, 21756.0, 21739.0, 21702.0, 21653.0, 21662.0, 21716.0, 21724.0, 21705.0, 21672.0, 21654.0, 21661.0, 21697.0, 21718.0, 21736.0, 21713.0, 21727.0, 21725.0, 21737.0, 21702.0, 21685.0, 21664.0, 21706.0, 21766.0, 21791.0, 21743.0, 21700.0, 21642.0, 21653.0, 21630.0, 21635.0, 21648.0, 21676.0, 21694.0, 21686.0, 21699.0, 21752.0, 21748.0, 21706.0, 21661.0, 21659.0, 21641.0, 21662.0, 21664.0, 21737.0, 21709.0, 21722.0, 21749.0, 21746.0, 21691.0, 21646.0, 21621.0, 21660.0, 21709.0, 21730.0, 21708.0, 21659.0, 21610.0, 21638.0, 21634.0, 21601.0, 21592.0, 21574.0, 21598.0, 21637.0, 21691.0, 21703.0, 21709.0, 21702.0, 21679.0, 21718.0, 21731.0, 21711.0, 21709.0, 21700.0, 21764.0, 21773.0, 21710.0, 21684.0, 21658.0, 21748.0, 21728.0, 21718.0, 21676.0, 21647.0, 21639.0, 21631.0, 21653.0, 21689.0, 21713.0, 21707.0, 21717.0, 21719.0, 21683.0, 21670.0, 21655.0, 21665.0, 21670.0, 21710.0, 21747.0, 21757.0, 21733.0, 21654.0, 21657.0, 21641.0, 21655.0, 21630.0, 21656.0]
    },
    "slices": {}
  }
}