{
  "AcquisitionMatrixPE": 104,
  "AcquisitionNumber": 1,
  "AcquisitionTime": "15:26:2.195000",
  "BandwidthPerPixelPhaseEncode": 17.17,
  "BaseResolution": 104,
  "BodyPartExamined": "BRAIN",
  "CoilCombinationMethod": "Sum of Squares",
  "ConsistencyInfo": "N4_VE11C_LATEST_20160120",
  "ConversionSoftware": "dcm2niix",
  "ConversionSoftwareVersion": "v1.0.20211006",
  "DerivedVendorReportedEchoSpacing": 0.000560011,
  "DeviceSerialNumber": "167006",
  "DwellTime": 2.1e-06,
  "EchoTime": 0.037,
  "EchoTime1": 0.037,
  "EchoTime2": 0.001,
  "EchoTrainLength": 104,
  "EffectiveEchoSpacing": 0.000560011,
  "FlipAngle": 52,
  "HeudiconvVersion": "0.11.3.post9+gc939bf8",
  "ImageComments": "Unaliased MB4/PE3/LB",
  "ImageOrientationPatientDICOM": [0.998336, -0.0533228, 0.0219593, 0.0575637, 0.944295, -0.324028],
  "ImageOrientationText": "Tra>Cor(-19.0)>Sag(0.2)",
  "ImageType": [
    "ORIGINAL",
    "PRIMARY",
    "P",
    "MB",
    "ND",
    "MOSAIC",
    "PHASE"
],
  "ImagingFrequency": 123.259,
  "InPlanePhaseEncodingDirectionDICOM": "COL",
  "InstitutionAddress": "Chemin Queen-Mary 4565,Montreal,District,CA,H3W 1W5",
  "InstitutionName": "IUGM",
  "InstitutionalDepartmentName": "Department",
  "MRAcquisitionType": "2D",
  "MagneticFieldStrength": 3,
  "Manufacturer": "Siemens",
  "ManufacturersModelName": "Prisma_fit",
  "MatrixCoilMode": "SENSE",
  "Modality": "MR",
  "MultibandAccelerationFactor": 4,
  "PartialFourier": 1,
  "PatientPosition": "HFS",
  "PercentPhaseFOV": 100,
  "PercentSampling": 100,
  "PhaseEncodingDirection": "j",
  "PhaseEncodingSteps": 104,
  "PhaseResolution": 1,
  "PixelBandwidth": 2290,
  "ProcedureStepDescription": "memory^things",
  "ProtocolName": "func_task-things_run-1",
  "PulseSequenceDetails": "%CustomerSeq%\\cmrr_mbep2d_bold",
  "ReceiveCoilActiveElements": "HC1-7;NC1,2",
  "ReceiveCoilName": "HeadNeck_64",
  "ReconMatrixPE": 104,
  "RepetitionTime": 1.49,
  "SAR": 0.0637085,
  "ScanOptions": "FS",
  "ScanningSequence": "EP",
  "SequenceName": "epfid2d1_104",
  "SequenceVariant": "SK\\SS",
  "SeriesDescription": "func_task-things_run-1",
  "SeriesNumber": 11,
  "ShimSetting": [627, -7246, -8812, 594, -13, -180, -34, -15],
  "SliceThickness": 2,
  "SliceTiming": [0, 0.7825, 0.0975, 0.8825, 0.195, 0.98, 0.2925, 1.0775, 0.3925, 1.175, 0.49, 1.2725, 0.5875, 1.37, 0.685, 0, 0.7825, 0.0975, 0.8825, 0.195, 0.98, 0.2925, 1.0775, 0.3925, 1.175, 0.49, 1.2725, 0.5875, 1.37, 0.685, 0, 0.7825, 0.0975, 0.8825, 0.195, 0.98, 0.2925, 1.0775, 0.3925, 1.175, 0.49, 1.2725, 0.5875, 1.37, 0.685, 0, 0.7825, 0.0975, 0.8825, 0.195, 0.98, 0.2925, 1.0775, 0.3925, 1.175, 0.49, 1.2725, 0.5875, 1.37, 0.685],
  "SoftwareVersions": "syngo MR E11",
  "SpacingBetweenSlices": 2,
  "StationName": "MRC35049",
  "TaskName": "things",
  "TotalReadoutTime": 0.0576811,
  "TxRefAmp": 316.82,
  "WipMemBlock": "6c79a830-141f-4248-991a-c190d72719ec||Sequence: R016 ve11c/master r/e634e98; Dec 19 2017 11:00:25 by eja",
  "dcmmeta_affine": [
    [-1.9966716766357422, 0.11512734740972519, 0.006915942765772343, 101.28788757324219],
    [0.10664563626050949, 1.8885891437530518, -0.6495056748390198, -71.68354034423828],
    [0.04391862079501152, 0.6480560302734375, 1.8915852308273315, -63.599849700927734],
    [0.0, 0.0, 0.0, 1.0]
],
  "dcmmeta_reorient_transform": [
    [0.0, -1.0, 0.0, 103.0],
    [1.0, 0.0, 0.0, 0.0],
    [0.0, 0.0, 1.0, 0.0],
    [0.0, 0.0, 0.0, 1.0]
],
  "dcmmeta_shape": [104, 104, 60, 190],
  "dcmmeta_slice_dim": 2,
  "dcmmeta_version": 0.6,
  "global": {
    "const": {
      "AcquisitionMatrix": [104, 0, 0, 104],
      "AngioFlag": "N",
      "BitsAllocated": 16,
      "BitsStored": 16,
      "BodyPartExamined": "BRAIN",
      "Columns": 832,
      "EchoNumbers": 1,
      "EchoTime": 37.0,
      "EchoTrainLength": 104,
      "FlipAngle": 52.0,
      "HighBit": 15,
      "ImageOrientationPatient": [0.99833584816982, -0.053322818375, 0.02195931008909, 0.05756367511329, 0.94429459223615, -0.3240280024643],
      "ImagePositionPatient": [-881.84085590718, -771.46859626626, 223.05592759941],
      "ImageType": [
        "ORIGINAL",
        "PRIMARY",
        "P",
        "MB",
        "ND",
        "MOSAIC"
],
      "ImagedNucleus": "1H",
      "ImagingFrequency": 123.258924,
      "InPlanePhaseEncodingDirection": "COL",
      "LargestImagePixelValue": 4095,
      "MRAcquisitionType": "2D",
      "MagneticFieldStrength": 3.0,
      "Manufacturer": "SIEMENS",
      "ManufacturerModelName": "Prisma_fit",
      "Modality": "MR",
      "NumberOfAverages": 1.0,
      "NumberOfPhaseEncodingSteps": 104,
      "PercentPhaseFieldOfView": 100.0,
      "PercentSampling": 100.0,
      "PerformedProcedureStepStartTime": "141152.097000",
      "PhotometricInterpretation": "MONOCHROME2",
      "PixelBandwidth": 2290.0,
      "PixelRepresentation": 0,
      "PixelSpacing": [2.0, 2.0],
      "ProtocolName": "func_task-things_run-1",
      "RepetitionTime": 1490.0,
      "RescaleIntercept": -4096.0,
      "RescaleSlope": 2.0,
      "RescaleType": "US",
      "Rows": 832,
      "SAR": 0.06370845145104,
      "SamplesPerPixel": 1,
      "ScanOptions": "FS",
      "ScanningSequence": "EP",
      "SequenceName": "epfid2d1_104",
      "SequenceVariant": [
        "SK",
        "SS"
],
      "SeriesDescription": "func_task-things_run-1",
      "SeriesNumber": 11,
      "SeriesTime": "152712.526000",
      "SliceLocation": -36.522583106192,
      "SliceThickness": 2.0,
      "SmallestImagePixelValue": 0,
      "SoftwareVersions": "syngo MR E11",
      "SpacingBetweenSlices": 2.0000000111131,
      "SpecificCharacterSet": "ISO_IR 100",
      "StudyID": "1",
      "StudyTime": "141152.023000",
      "TransmitCoilName": "Body",
      "VariableFlipAngleFlag": "N",
      "WindowCenterWidthExplanation": "Algo1",
      "dBdt": 0.0},
    "slices": {}
  },
  "time": {
    "samples": {
      "AcquisitionNumber": [1, 2, 3, 4, 5, 6, 7, 8, 9, 10, 11, 12, 13, 14, 15, 16, 17, 18, 19, 20, 21, 22, 23, 24, 25, 26, 27, 28, 29, 30, 31, 32, 33, 34, 35, 36, 37, 38, 39, 40, 41, 42, 43, 44, 45, 46, 47, 48, 49, 50, 51, 52, 53, 54, 55, 56, 57, 58, 59, 60, 61, 62, 63, 64, 65, 66, 67, 68, 69, 70, 71, 72, 73, 74, 75, 76, 77, 78, 79, 80, 81, 82, 83, 84, 85, 86, 87, 88, 89, 90, 91, 92, 93, 94, 95, 96, 97, 98, 99, 100, 101, 102, 103, 104, 105, 106, 107, 108, 109, 110, 111, 112, 113, 114, 115, 116, 117, 118, 119, 120, 121, 122, 123, 124, 125, 126, 127, 128, 129, 130, 131, 132, 133, 134, 135, 136, 137, 138, 139, 140, 141, 142, 143, 144, 145, 146, 147, 148, 149, 150, 151, 152, 153, 154, 155, 156, 157, 158, 159, 160, 161, 162, 163, 164, 165, 166, 167, 168, 169, 170, 171, 172, 173, 174, 175, 176, 177, 178, 179, 180, 181, 182, 183, 184, 185, 186, 187, 188, 189, 190],
      "AcquisitionTime": ["152602.195000", "152603.685000", "152605.175000", "152606.665000", "152608.155000", "152609.645000", "152611.135000", "152612.625000", "152614.115000", "152615.605000", "152617.095000", "152618.585000", "152620.075000", "152621.565000", "152623.055000", "152624.545000", "152626.035000", "152627.525000", "152629.015000", "152630.505000", "152631.995000", "152633.485000", "152634.975000", "152636.465000", "152637.955000", "152639.445000", "152640.935000", "152642.425000", "152643.915000", "152645.405000", "152646.895000", "152648.385000", "152649.875000", "152651.365000", "152652.855000", "152654.345000", "152655.835000", "152657.325000", "152658.815000", "152700.305000", "152701.795000", "152703.285000", "152704.775000", "152706.265000", "152707.755000", "152709.245000", "152710.735000", "152712.225000", "152713.715000", "152715.205000", "152716.695000", "152718.185000", "152719.675000", "152721.165000", "152722.655000", "152724.145000", "152725.635000", "152727.125000", "152728.615000", "152730.105000", "152731.595000", "152733.085000", "152734.575000", "152736.065000", "152737.555000", "152739.045000", "152740.535000", "152742.025000", "152743.515000", "152745.005000", "152746.495000", "152747.985000", "152749.475000", "152750.965000", "152752.455000", "152753.945000", "152755.435000", "152756.925000", "152758.415000", "152759.905000", "152801.395000", "152802.885000", "152804.375000", "152805.865000", "152807.355000", "152808.845000", "152810.335000", "152811.825000", "152813.315000", "152814.805000", "152816.295000", "152817.785000", "152819.275000", "152820.765000", "152822.255000", "152823.745000", "152825.235000", "152826.725000", "152828.215000", "152829.705000", "152831.195000", "152832.685000", "152834.175000", "152835.665000", "152837.155000", "152838.645000", "152840.135000", "152841.625000", "152843.115000", "152844.605000", "152846.095000", "152847.585000", "152849.075000", "152850.565000", "152852.055000", "152853.545000", "152855.035000", "152856.525000", "152858.015000", "152859.505000", "152900.995000", "152902.485000", "152903.975000", "152905.465000", "152906.955000", "152908.445000", "152909.935000", "152911.425000", "152912.915000", "152914.405000", "152915.895000", "152917.385000", "152918.875000", "152920.365000", "152921.855000", "152923.345000", "152924.835000", "152926.325000", "152927.815000", "152929.305000", "152930.795000", "152932.285000", "152933.775000", "152935.265000", "152936.755000", "152938.245000", "152939.735000", "152941.225000", "152942.715000", "152944.205000", "152945.695000", "152947.185000", "152948.675000", "152950.165000", "152951.655000", "152953.145000", "152954.635000", "152956.125000", "152957.615000", "152959.105000", "153000.595000", "153002.085000", "153003.575000", "153005.065000", "153006.555000", "153008.045000", "153009.535000", "153011.025000", "153012.515000", "153014.005000", "153015.495000", "153016.985000", "153018.475000", "153019.965000", "153021.455000", "153022.945000", "153024.435000", "153025.925000", "153027.415000", "153028.905000", "153030.395000", "153031.885000", "153033.375000", "153034.865000", "153036.355000", "153037.845000", "153039.335000", "153040.825000", "153042.315000", "153043.805000"],
      "ContentTime": ["152712.528000", "152712.531000", "152712.534000", "152712.536000", "152712.540000", "152712.543000", "152712.546000", "152712.548000", "152712.551000", "152712.553000", "152712.556000", "152712.558000", "152712.561000", "152712.563000", "152712.566000", "152712.569000", "152712.571000", "152732.508000", "152732.511000", "152732.514000", "152732.516000", "152732.519000", "152732.521000", "152732.524000", "152732.527000", "152732.529000", "152732.532000", "152732.534000", "152732.537000", "152732.539000", "152732.542000", "152732.544000", "152732.547000", "152732.550000", "152732.552000", "152732.555000", "152732.557000", "152752.496000", "152752.499000", "152752.501000", "152752.504000", "152752.506000", "152752.509000", "152752.511000", "152752.514000", "152752.517000", "152752.519000", "152752.522000", "152752.524000", "152752.527000", "152752.529000", "152752.532000", "152752.534000", "152752.537000", "152752.539000", "152752.542000", "152752.545000", "152812.507000", "152812.510000", "152812.512000", "152812.515000", "152812.518000", "152812.520000", "152812.523000", "152812.526000", "152812.529000", "152812.531000", "152812.534000", "152812.537000", "152812.540000", "152812.543000", "152812.547000", "152812.551000", "152812.554000", "152812.557000", "152812.560000", "152812.562000", "152832.523000", "152832.526000", "152832.528000", "152832.531000", "152832.541000", "152832.544000", "152832.546000", "152832.549000", "152832.551000", "152832.554000", "152832.556000", "152832.559000", "152832.562000", "152832.564000", "152832.567000", "152832.569000", "152832.572000", "152832.575000", "152832.577000", "152832.580000", "152912.554000", "152912.557000", "152912.560000", "152912.562000", "152912.565000", "152912.567000", "152912.570000", "152912.573000", "152912.575000", "152912.578000", "152912.581000", "152912.583000", "152912.586000", "152912.588000", "152912.591000", "152912.593000", "152912.596000", "152912.598000", "152912.601000", "152912.604000", "152912.606000", "152912.609000", "152912.611000", "152912.614000", "152912.616000", "152912.619000", "152912.622000", "152912.624000", "152912.627000", "152912.629000", "152952.527000", "152952.530000", "152952.532000", "152952.535000", "152952.537000", "152952.540000", "152952.542000", "152952.545000", "152952.547000", "152952.550000", "152952.553000", "152952.555000", "152952.558000", "152952.561000", "152952.563000", "152952.566000", "152952.568000", "152952.571000", "152952.574000", "152952.576000", "152952.579000", "152952.581000", "152952.584000", "152952.586000", "152952.589000", "152952.592000", "152952.594000", "153032.528000", "153032.531000", "153032.534000", "153032.536000", "153032.545000", "153032.547000", "153032.550000", "153032.552000", "153032.555000", "153032.558000", "153032.560000", "153032.563000", "153032.565000", "153032.568000", "153032.570000", "153032.573000", "153032.576000", "153032.578000", "153032.581000", "153032.583000", "153032.586000", "153032.588000", "153032.591000", "153032.594000", "153032.596000", "153032.599000", "153045.972000", "153045.975000", "153045.978000", "153045.980000", "153045.983000", "153045.986000", "153045.988000", "153045.991000", "153045.994000", "153045.996000"],
      "InstanceCreationTime": ["152712.528000", "152712.531000", "152712.534000", "152712.536000", "152712.540000", "152712.543000", "152712.546000", "152712.548000", "152712.551000", "152712.553000", "152712.556000", "152712.558000", "152712.561000", "152712.563000", "152712.566000", "152712.569000", "152712.571000", "152732.508000", "152732.511000", "152732.514000", "152732.516000", "152732.519000", "152732.521000", "152732.524000", "152732.527000", "152732.529000", "152732.532000", "152732.534000", "152732.537000", "152732.539000", "152732.542000", "152732.544000", "152732.547000", "152732.550000", "152732.552000", "152732.555000", "152732.557000", "152752.496000", "152752.499000", "152752.501000", "152752.504000", "152752.506000", "152752.509000", "152752.511000", "152752.514000", "152752.517000", "152752.519000", "152752.522000", "152752.524000", "152752.527000", "152752.529000", "152752.532000", "152752.534000", "152752.537000", "152752.539000", "152752.542000", "152752.545000", "152812.507000", "152812.510000", "152812.512000", "152812.515000", "152812.518000", "152812.520000", "152812.523000", "152812.526000", "152812.529000", "152812.531000", "152812.534000", "152812.537000", "152812.540000", "152812.543000", "152812.547000", "152812.551000", "152812.554000", "152812.557000", "152812.560000", "152812.562000", "152832.523000", "152832.526000", "152832.528000", "152832.531000", "152832.541000", "152832.544000", "152832.546000", "152832.549000", "152832.551000", "152832.554000", "152832.556000", "152832.559000", "152832.562000", "152832.564000", "152832.567000", "152832.569000", "152832.572000", "152832.575000", "152832.577000", "152832.580000", "152912.554000", "152912.557000", "152912.560000", "152912.562000", "152912.565000", "152912.567000", "152912.570000", "152912.573000", "152912.575000", "152912.578000", "152912.581000", "152912.583000", "152912.586000", "152912.588000", "152912.591000", "152912.593000", "152912.596000", "152912.598000", "152912.601000", "152912.604000", "152912.606000", "152912.609000", "152912.611000", "152912.614000", "152912.616000", "152912.619000", "152912.622000", "152912.624000", "152912.627000", "152912.629000", "152952.527000", "152952.530000", "152952.532000", "152952.535000", "152952.537000", "152952.540000", "152952.542000", "152952.545000", "152952.547000", "152952.550000", "152952.553000", "152952.555000", "152952.558000", "152952.561000", "152952.563000", "152952.566000", "152952.568000", "152952.571000", "152952.574000", "152952.576000", "152952.579000", "152952.581000", "152952.584000", "152952.586000", "152952.589000", "152952.592000", "152952.594000", "153032.528000", "153032.531000", "153032.534000", "153032.536000", "153032.545000", "153032.547000", "153032.550000", "153032.552000", "153032.555000", "153032.558000", "153032.560000", "153032.563000", "153032.565000", "153032.568000", "153032.570000", "153032.573000", "153032.576000", "153032.578000", "153032.581000", "153032.583000", "153032.586000", "153032.588000", "153032.591000", "153032.594000", "153032.596000", "153032.599000", "153045.972000", "153045.975000", "153045.978000", "153045.980000", "153045.983000", "153045.986000", "153045.988000", "153045.991000", "153045.994000", "153045.996000"],
      "InstanceNumber": [1, 2, 3, 4, 5, 6, 7, 8, 9, 10, 11, 12, 13, 14, 15, 16, 17, 18, 19, 20, 21, 22, 23, 24, 25, 26, 27, 28, 29, 30, 31, 32, 33, 34, 35, 36, 37, 38, 39, 40, 41, 42, 43, 44, 45, 46, 47, 48, 49, 50, 51, 52, 53, 54, 55, 56, 57, 58, 59, 60, 61, 62, 63, 64, 65, 66, 67, 68, 69, 70, 71, 72, 73, 74, 75, 76, 77, 78, 79, 80, 81, 82, 83, 84, 85, 86, 87, 88, 89, 90, 91, 92, 93, 94, 95, 96, 97, 98, 99, 100, 101, 102, 103, 104, 105, 106, 107, 108, 109, 110, 111, 112, 113, 114, 115, 116, 117, 118, 119, 120, 121, 122, 123, 124, 125, 126, 127, 128, 129, 130, 131, 132, 133, 134, 135, 136, 137, 138, 139, 140, 141, 142, 143, 144, 145, 146, 147, 148, 149, 150, 151, 152, 153, 154, 155, 156, 157, 158, 159, 160, 161, 162, 163, 164, 165, 166, 167, 168, 169, 170, 171, 172, 173, 174, 175, 176, 177, 178, 179, 180, 181, 182, 183, 184, 185, 186, 187, 188, 189, 190],
      "WindowCenter": [4814.0, 4788.0, 4790.0, 4792.0, 4790.0, 4788.0, 4812.0, 4816.0, 4784.0, 4816.0, 4790.0, 4786.0, 4792.0, 4812.0, 4792.0, 4790.0, 4812.0, 4792.0, 4790.0, 4794.0, 4810.0, 4814.0, 4810.0, 4790.0, 4792.0, 4788.0, 4792.0, 4788.0, 4816.0, 4790.0, 4814.0, 4816.0, 4792.0, 4794.0, 4786.0, 4794.0, 4790.0, 4790.0, 4816.0, 4812.0, 4814.0, 4788.0, 4794.0, 4794.0, 4788.0, 4816.0, 4816.0, 4788.0, 4812.0, 4786.0, 4792.0, 4812.0, 4816.0, 4814.0, 4790.0, 4788.0, 4814.0, 4792.0, 4812.0, 4820.0, 4792.0, 4790.0, 4816.0, 4814.0, 4816.0, 4816.0, 4814.0, 4794.0, 4788.0, 4814.0, 4790.0, 4788.0, 4822.0, 4790.0, 4790.0, 4814.0, 4810.0, 4814.0, 4810.0, 4812.0, 4816.0, 4822.0, 4814.0, 4792.0, 4792.0, 4814.0, 4812.0, 4816.0, 4818.0, 4790.0, 4816.0, 4816.0, 4814.0, 4814.0, 4790.0, 4816.0, 4812.0, 4790.0, 4816.0, 4792.0, 4816.0, 4788.0, 4818.0, 4820.0, 4792.0, 4816.0, 4810.0, 4812.0, 4792.0, 4790.0, 4792.0, 4792.0, 4820.0, 4814.0, 4818.0, 4814.0, 4790.0, 4814.0, 4816.0, 4814.0, 4818.0, 4788.0, 4820.0, 4814.0, 4816.0, 4816.0, 4788.0, 4816.0, 4816.0, 4818.0, 4814.0, 4790.0, 4790.0, 4794.0, 4816.0, 4816.0, 4818.0, 4814.0, 4818.0, 4792.0, 4818.0, 4816.0, 4814.0, 4812.0, 4814.0, 4790.0, 4792.0, 4816.0, 4812.0, 4818.0, 4792.0, 4792.0, 4790.0, 4816.0, 4814.0, 4814.0, 4790.0, 4816.0, 4790.0, 4816.0, 4790.0, 4794.0, 4814.0, 4816.0, 4816.0, 4814.0, 4818.0, 4792.0, 4794.0, 4790.0, 4792.0, 4814.0, 4818.0, 4814.0, 4814.0, 4814.0, 4818.0, 4814.0, 4822.0, 4818.0, 4816.0, 4792.0, 4816.0, 4814.0, 4814.0, 4816.0, 4816.0, 4816.0, 4792.0, 4818.0],
      "WindowWidth": [18604.0, 18572.0, 18564.0, 18574.0, 18566.0, 18566.0, 18604.0, 18596.0, 18568.0, 18600.0, 18572.0, 18572.0, 18570.0, 18600.0, 18562.0, 18572.0, 18600.0, 18572.0, 18576.0, 18570.0, 18604.0, 18598.0, 18602.0, 18572.0, 18566.0, 18574.0, 18566.0, 18574.0, 18598.0, 18572.0, 18600.0, 18602.0, 18574.0, 18566.0, 18566.0, 18568.0, 18572.0, 18574.0, 18606.0, 18600.0, 18598.0, 18578.0, 18572.0, 18572.0, 18568.0, 18592.0, 18598.0, 18572.0, 18600.0, 18572.0, 18566.0, 18604.0, 18596.0, 18604.0, 18562.0, 18562.0, 18606.0, 18572.0, 18604.0, 18596.0, 18568.0, 18570.0, 18594.0, 18602.0, 18594.0, 18592.0, 18600.0, 18568.0, 18572.0, 18596.0, 18570.0, 18568.0, 18596.0, 18564.0, 18564.0, 18600.0, 18598.0, 18598.0, 18604.0, 18602.0, 18598.0, 18592.0, 18600.0, 18568.0, 18566.0, 18598.0, 18600.0, 18600.0, 18600.0, 18574.0, 18588.0, 18596.0, 18600.0, 18604.0, 18576.0, 18598.0, 18602.0, 18568.0, 18606.0, 18568.0, 18596.0, 18568.0, 18596.0, 18604.0, 18572.0, 18598.0, 18598.0, 18600.0, 18568.0, 18568.0, 18566.0, 18576.0, 18600.0, 18600.0, 18604.0, 18600.0, 18566.0, 18596.0, 18604.0, 18602.0, 18606.0, 18568.0, 18600.0, 18602.0, 18596.0, 18602.0, 18566.0, 18602.0, 18604.0, 18600.0, 18604.0, 18566.0, 18572.0, 18564.0, 18600.0, 18596.0, 18602.0, 18600.0, 18598.0, 18570.0, 18596.0, 18604.0, 18596.0, 18604.0, 18598.0, 18566.0, 18568.0, 18600.0, 18604.0, 18600.0, 18572.0, 18566.0, 18570.0, 18592.0, 18602.0, 18596.0, 18572.0, 18596.0, 18568.0, 18596.0, 18568.0, 18568.0, 18604.0, 18596.0, 18600.0, 18594.0, 18598.0, 18568.0, 18568.0, 18566.0, 18570.0, 18598.0, 18602.0, 18602.0, 18598.0, 18600.0, 18592.0, 18602.0, 18596.0, 18608.0, 18598.0, 18572.0, 18598.0, 18602.0, 18602.0, 18602.0, 18600.0, 18592.0, 18570.0, 18596.0]
    },
    "slices": {}
  }
}