{
  "AcquisitionMatrixPE": 104,
  "AcquisitionNumber": 1,
  "AcquisitionTime": "15:42:38.302500",
  "BandwidthPerPixelPhaseEncode": 17.17,
  "BaseResolution": 104,
  "BodyPartExamined": "BRAIN",
  "CoilCombinationMethod": "Sum of Squares",
  "ConsistencyInfo": "N4_VE11C_LATEST_20160120",
  "ConversionSoftware": "dcm2niix",
  "ConversionSoftwareVersion": "v1.0.20211006",
  "DerivedVendorReportedEchoSpacing": 0.000560011,
  "DeviceSerialNumber": "167006",
  "DwellTime": 2.1e-06,
  "EchoTime": 0.037,
  "EchoTrainLength": 104,
  "EffectiveEchoSpacing": 0.000560011,
  "FlipAngle": 52,
  "HeudiconvVersion": "0.11.3.post9+gc939bf8",
  "ImageComments": "Unaliased MB4/PE3/LB",
  "ImageOrientationPatientDICOM": [0.99753, -0.0615766, 0.0338083, 0.0687044, 0.955512, -0.28684],
  "ImageOrientationText": "Tra>Cor(-16.8)>Sag(0.8)",
  "ImageType": [
    "ORIGINAL",
    "PRIMARY",
    "M",
    "MB",
    "ND",
    "MOSAIC"
],
  "ImagingFrequency": 123.259,
  "InPlanePhaseEncodingDirectionDICOM": "COL",
  "InstitutionAddress": "Chemin Queen-Mary 4565,Montreal,District,CA,H3W 1W5",
  "InstitutionName": "IUGM",
  "InstitutionalDepartmentName": "Department",
  "MRAcquisitionType": "2D",
  "MagneticFieldStrength": 3,
  "Manufacturer": "Siemens",
  "ManufacturersModelName": "Prisma_fit",
  "MatrixCoilMode": "SENSE",
  "Modality": "MR",
  "MultibandAccelerationFactor": 4,
  "PartialFourier": 1,
  "PatientPosition": "HFS",
  "PercentPhaseFOV": 100,
  "PercentSampling": 100,
  "PhaseEncodingDirection": "j",
  "PhaseEncodingSteps": 104,
  "PhaseResolution": 1,
  "PixelBandwidth": 2290,
  "ProcedureStepDescription": "memory^things",
  "ProtocolName": "func_task-things_run-2",
  "PulseSequenceDetails": "%CustomerSeq%\\cmrr_mbep2d_bold",
  "ReceiveCoilActiveElements": "HC1-7;NC1,2",
  "ReceiveCoilName": "HeadNeck_64",
  "ReconMatrixPE": 104,
  "RepetitionTime": 1.49,
  "SAR": 0.0637085,
  "ScanOptions": "FS",
  "ScanningSequence": "EP",
  "SequenceName": "epfid2d1_104",
  "SequenceVariant": "SK\\SS",
  "SeriesDescription": "func_task-things_run-2",
  "SeriesNumber": 24,
  "ShimSetting": [627, -7246, -8811, 598, -9, -187, -33, -16],
  "SliceThickness": 2,
  "SliceTiming": [0, 0.785, 0.0975, 0.8825, 0.1975, 0.98, 0.295, 1.0775, 0.3925, 1.1775, 0.49, 1.275, 0.5875, 1.3725, 0.6875, 0, 0.785, 0.0975, 0.8825, 0.1975, 0.98, 0.295, 1.0775, 0.3925, 1.1775, 0.49, 1.275, 0.5875, 1.3725, 0.6875, 0, 0.785, 0.0975, 0.8825, 0.1975, 0.98, 0.295, 1.0775, 0.3925, 1.1775, 0.49, 1.275, 0.5875, 1.3725, 0.6875, 0, 0.785, 0.0975, 0.8825, 0.1975, 0.98, 0.295, 1.0775, 0.3925, 1.1775, 0.49, 1.275, 0.5875, 1.3725, 0.6875],
  "SoftwareVersions": "syngo MR E11",
  "SpacingBetweenSlices": 2,
  "StationName": "MRC35049",
  "TaskName": "things",
  "TotalReadoutTime": 0.0576811,
  "TxRefAmp": 316.82,
  "WipMemBlock": "11cb0a33-2b1f-4e32-87c4-6b399003f248||Sequence: R016 ve11c/master r/e634e98; Dec 19 2017 11:00:25 by eja",
  "dcmmeta_affine": [
    [-1.9950592517852783, 0.1374088078737259, 0.02928309328854084, 99.64793395996094],
    [0.12315310537815094, 1.9110231399536133, -0.5769088864326477, -75.37276458740234],
    [0.06761651486158371, 0.5736805200576782, 1.914763331413269, -62.27207565307617],
    [0.0, 0.0, 0.0, 1.0]
],
  "dcmmeta_reorient_transform": [
    [0.0, -1.0, 0.0, 103.0],
    [1.0, 0.0, 0.0, 0.0],
    [0.0, 0.0, 1.0, 0.0],
    [0.0, 0.0, 0.0, 1.0]
],
  "dcmmeta_shape": [104, 104, 60, 190],
  "dcmmeta_slice_dim": 2,
  "dcmmeta_version": 0.6,
  "global": {
    "const": {
      "AcquisitionMatrix": [104, 0, 0, 104],
      "AngioFlag": "N",
      "BitsAllocated": 16,
      "BitsStored": 16,
      "BodyPartExamined": "BRAIN",
      "Columns": 832,
      "EchoNumbers": 1,
      "EchoTime": 37.0,
      "EchoTrainLength": 104,
      "FlipAngle": 52.0,
      "HighBit": 15,
      "ImageOrientationPatient": [0.99752961348556, -0.0615765532234, 0.03380825805137, 0.06870440537931, 0.9555115737927, -0.2868402639618],
      "ImagePositionPatient": [-890.01940649442, -772.24731479919, 181.02431882837],
      "ImageType": [
        "ORIGINAL",
        "PRIMARY",
        "M",
        "MB",
        "ND",
        "MOSAIC"
],
      "ImagedNucleus": "1H",
      "ImagingFrequency": 123.258931,
      "InPlanePhaseEncodingDirection": "COL",
      "MRAcquisitionType": "2D",
      "MagneticFieldStrength": 3.0,
      "Manufacturer": "SIEMENS",
      "ManufacturerModelName": "Prisma_fit",
      "Modality": "MR",
      "NumberOfAverages": 1.0,
      "NumberOfPhaseEncodingSteps": 104,
      "PercentPhaseFieldOfView": 100.0,
      "PercentSampling": 100.0,
      "PerformedProcedureStepStartTime": "141152.097000",
      "PhotometricInterpretation": "MONOCHROME2",
      "PixelBandwidth": 2290.0,
      "PixelRepresentation": 0,
      "PixelSpacing": [2.0, 2.0],
      "ProtocolName": "func_task-things_run-2",
      "RepetitionTime": 1490.0,
      "Rows": 832,
      "SAR": 0.06370845145104,
      "SamplesPerPixel": 1,
      "ScanOptions": "FS",
      "ScanningSequence": "EP",
      "SequenceName": "epfid2d1_104",
      "SequenceVariant": [
        "SK",
        "SS"
],
      "SeriesDescription": "func_task-things_run-2",
      "SeriesNumber": 24,
      "SeriesTime": "154401.806000",
      "SliceLocation": -36.417536070703,
      "SliceThickness": 2.0,
      "SmallestImagePixelValue": 0,
      "SoftwareVersions": "syngo MR E11",
      "SpacingBetweenSlices": 1.9999999674311,
      "SpecificCharacterSet": "ISO_IR 100",
      "StudyID": "1",
      "StudyTime": "141152.023000",
      "TransmitCoilName": "Body",
      "VariableFlipAngleFlag": "N",
      "WindowCenterWidthExplanation": "Algo1",
      "dBdt": 0.0},
    "slices": {}
  },
  "time": {
    "samples": {
      "AcquisitionNumber": [1, 2, 3, 4, 5, 6, 7, 8, 9, 10, 11, 12, 13, 14, 15, 16, 17, 18, 19, 20, 21, 22, 23, 24, 25, 26, 27, 28, 29, 30, 31, 32, 33, 34, 35, 36, 37, 38, 39, 40, 41, 42, 43, 44, 45, 46, 47, 48, 49, 50, 51, 52, 53, 54, 55, 56, 57, 58, 59, 60, 61, 62, 63, 64, 65, 66, 67, 68, 69, 70, 71, 72, 73, 74, 75, 76, 77, 78, 79, 80, 81, 82, 83, 84, 85, 86, 87, 88, 89, 90, 91, 92, 93, 94, 95, 96, 97, 98, 99, 100, 101, 102, 103, 104, 105, 106, 107, 108, 109, 110, 111, 112, 113, 114, 115, 116, 117, 118, 119, 120, 121, 122, 123, 124, 125, 126, 127, 128, 129, 130, 131, 132, 133, 134, 135, 136, 137, 138, 139, 140, 141, 142, 143, 144, 145, 146, 147, 148, 149, 150, 151, 152, 153, 154, 155, 156, 157, 158, 159, 160, 161, 162, 163, 164, 165, 166, 167, 168, 169, 170, 171, 172, 173, 174, 175, 176, 177, 178, 179, 180, 181, 182, 183, 184, 185, 186, 187, 188, 189, 190],
      "AcquisitionTime": ["154238.302500", "154239.792500", "154241.282500", "154242.772500", "154244.262500", "154245.752500", "154247.242500", "154248.732500", "154250.222500", "154251.712500", "154253.202500", "154254.692500", "154256.182500", "154257.672500", "154259.162500", "154300.652500", "154302.142500", "154303.632500", "154305.122500", "154306.612500", "154308.102500", "154309.592500", "154311.082500", "154312.572500", "154314.062500", "154315.552500", "154317.042500", "154318.532500", "154320.022500", "154321.512500", "154323.002500", "154324.492500", "154325.982500", "154327.472500", "154328.962500", "154330.452500", "154331.942500", "154333.432500", "154334.922500", "154336.412500", "154337.902500", "154339.392500", "154340.882500", "154342.372500", "154343.862500", "154345.352500", "154346.842500", "154348.332500", "154349.822500", "154351.312500", "154352.802500", "154354.292500", "154355.782500", "154357.272500", "154358.762500", "154400.252500", "154401.742500", "154403.232500", "154404.722500", "154406.212500", "154407.702500", "154409.192500", "154410.682500", "154412.172500", "154413.662500", "154415.152500", "154416.642500", "154418.132500", "154419.622500", "154421.112500", "154422.602500", "154424.092500", "154425.582500", "154427.072500", "154428.562500", "154430.052500", "154431.542500", "154433.032500", "154434.522500", "154436.012500", "154437.502500", "154438.992500", "154440.482500", "154441.972500", "154443.462500", "154444.952500", "154446.442500", "154447.932500", "154449.422500", "154450.912500", "154452.402500", "154453.892500", "154455.382500", "154456.872500", "154458.362500", "154459.852500", "154501.342500", "154502.832500", "154504.322500", "154505.812500", "154507.302500", "154508.792500", "154510.282500", "154511.772500", "154513.262500", "154514.752500", "154516.242500", "154517.732500", "154519.222500", "154520.712500", "154522.202500", "154523.692500", "154525.182500", "154526.672500", "154528.162500", "154529.652500", "154531.142500", "154532.632500", "154534.122500", "154535.612500", "154537.102500", "154538.592500", "154540.082500", "154541.572500", "154543.062500", "154544.552500", "154546.042500", "154547.532500", "154549.022500", "154550.512500", "154552.002500", "154553.492500", "154554.982500", "154556.472500", "154557.962500", "154559.452500", "154600.942500", "154602.432500", "154603.922500", "154605.412500", "154606.902500", "154608.392500", "154609.882500", "154611.372500", "154612.862500", "154614.352500", "154615.842500", "154617.332500", "154618.822500", "154620.312500", "154621.802500", "154623.292500", "154624.782500", "154626.272500", "154627.762500", "154629.252500", "154630.742500", "154632.232500", "154633.722500", "154635.212500", "154636.702500", "154638.192500", "154639.682500", "154641.172500", "154642.662500", "154644.152500", "154645.642500", "154647.132500", "154648.622500", "154650.112500", "154651.602500", "154653.092500", "154654.582500", "154656.072500", "154657.562500", "154659.052500", "154700.542500", "154702.032500", "154703.522500", "154705.012500", "154706.502500", "154707.992500", "154709.482500", "154710.972500", "154712.462500", "154713.952500", "154715.442500", "154716.932500", "154718.422500", "154719.912500"],
      "ContentTime": ["154401.810000", "154401.814000", "154401.817000", "154401.821000", "154401.824000", "154401.827000", "154401.831000", "154401.834000", "154401.837000", "154401.841000", "154401.844000", "154401.848000", "154401.851000", "154401.854000", "154401.858000", "154401.861000", "154401.871000", "154401.874000", "154401.878000", "154401.881000", "154401.884000", "154401.901000", "154401.904000", "154401.907000", "154401.911000", "154401.914000", "154401.917000", "154401.921000", "154401.924000", "154401.927000", "154421.770000", "154421.774000", "154421.777000", "154421.781000", "154421.784000", "154421.788000", "154421.791000", "154421.794000", "154421.798000", "154421.801000", "154421.805000", "154421.808000", "154421.811000", "154421.815000", "154421.818000", "154421.821000", "154421.825000", "154421.828000", "154421.831000", "154421.835000", "154441.770000", "154441.774000", "154441.777000", "154441.781000", "154441.784000", "154441.789000", "154441.792000", "154441.796000", "154441.799000", "154441.803000", "154441.825000", "154441.828000", "154441.832000", "154441.835000", "154441.838000", "154441.842000", "154441.845000", "154441.848000", "154441.852000", "154441.855000", "154501.770000", "154501.774000", "154501.777000", "154501.781000", "154501.784000", "154501.787000", "154501.791000", "154501.794000", "154501.797000", "154501.801000", "154501.804000", "154501.808000", "154501.811000", "154501.814000", "154501.818000", "154501.821000", "154501.825000", "154501.828000", "154501.832000", "154501.835000", "154501.838000", "154541.771000", "154541.775000", "154541.778000", "154541.782000", "154541.785000", "154541.788000", "154541.792000", "154541.795000", "154541.799000", "154541.802000", "154541.806000", "154541.809000", "154541.812000", "154541.816000", "154541.819000", "154541.822000", "154541.826000", "154541.829000", "154541.833000", "154541.836000", "154541.839000", "154541.843000", "154541.846000", "154541.849000", "154541.853000", "154541.856000", "154541.860000", "154541.863000", "154541.866000", "154541.870000", "154541.873000", "154621.771000", "154621.774000", "154621.778000", "154621.781000", "154621.784000", "154621.788000", "154621.791000", "154621.795000", "154621.798000", "154621.801000", "154621.805000", "154621.808000", "154621.812000", "154621.815000", "154621.818000", "154621.822000", "154621.825000", "154621.829000", "154621.832000", "154621.835000", "154621.839000", "154621.842000", "154621.845000", "154621.849000", "154621.852000", "154621.856000", "154621.859000", "154701.770000", "154701.774000", "154701.777000", "154701.781000", "154701.784000", "154701.788000", "154701.791000", "154701.794000", "154701.798000", "154701.801000", "154701.805000", "154701.808000", "154701.811000", "154701.815000", "154701.818000", "154701.822000", "154701.825000", "154701.828000", "154701.832000", "154701.835000", "154701.838000", "154701.842000", "154701.845000", "154701.848000", "154701.852000", "154701.855000", "154701.859000", "154722.512000", "154722.516000", "154722.519000", "154722.523000", "154722.526000", "154722.530000", "154722.533000", "154722.536000", "154722.540000", "154722.543000", "154722.547000", "154722.551000", "154722.554000", "154722.558000"],
      "InstanceCreationTime": ["154401.810000", "154401.814000", "154401.817000", "154401.821000", "154401.824000", "154401.827000", "154401.831000", "154401.834000", "154401.837000", "154401.841000", "154401.844000", "154401.848000", "154401.851000", "154401.854000", "154401.858000", "154401.861000", "154401.871000", "154401.874000", "154401.878000", "154401.881000", "154401.884000", "154401.901000", "154401.904000", "154401.907000", "154401.911000", "154401.914000", "154401.917000", "154401.921000", "154401.924000", "154401.927000", "154421.770000", "154421.774000", "154421.777000", "154421.781000", "154421.784000", "154421.788000", "154421.791000", "154421.794000", "154421.798000", "154421.801000", "154421.805000", "154421.808000", "154421.811000", "154421.815000", "154421.818000", "154421.821000", "154421.825000", "154421.828000", "154421.831000", "154421.835000", "154441.770000", "154441.774000", "154441.777000", "154441.781000", "154441.784000", "154441.789000", "154441.792000", "154441.796000", "154441.799000", "154441.803000", "154441.825000", "154441.828000", "154441.832000", "154441.835000", "154441.838000", "154441.842000", "154441.845000", "154441.848000", "154441.852000", "154441.855000", "154501.770000", "154501.774000", "154501.777000", "154501.781000", "154501.784000", "154501.787000", "154501.791000", "154501.794000", "154501.797000", "154501.801000", "154501.804000", "154501.808000", "154501.811000", "154501.814000", "154501.818000", "154501.821000", "154501.825000", "154501.828000", "154501.832000", "154501.835000", "154501.838000", "154541.771000", "154541.775000", "154541.778000", "154541.782000", "154541.785000", "154541.788000", "154541.792000", "154541.795000", "154541.799000", "154541.802000", "154541.806000", "154541.809000", "154541.812000", "154541.816000", "154541.819000", "154541.822000", "154541.826000", "154541.829000", "154541.833000", "154541.836000", "154541.839000", "154541.843000", "154541.846000", "154541.849000", "154541.853000", "154541.856000", "154541.860000", "154541.863000", "154541.866000", "154541.870000", "154541.873000", "154621.771000", "154621.774000", "154621.778000", "154621.781000", "154621.784000", "154621.788000", "154621.791000", "154621.795000", "154621.798000", "154621.801000", "154621.805000", "154621.808000", "154621.812000", "154621.815000", "154621.818000", "154621.822000", "154621.825000", "154621.829000", "154621.832000", "154621.835000", "154621.839000", "154621.842000", "154621.845000", "154621.849000", "154621.852000", "154621.856000", "154621.859000", "154701.770000", "154701.774000", "154701.777000", "154701.781000", "154701.784000", "154701.788000", "154701.791000", "154701.794000", "154701.798000", "154701.801000", "154701.805000", "154701.808000", "154701.811000", "154701.815000", "154701.818000", "154701.822000", "154701.825000", "154701.828000", "154701.832000", "154701.835000", "154701.838000", "154701.842000", "154701.845000", "154701.848000", "154701.852000", "154701.855000", "154701.859000", "154722.512000", "154722.516000", "154722.519000", "154722.523000", "154722.526000", "154722.530000", "154722.533000", "154722.536000", "154722.540000", "154722.543000", "154722.547000", "154722.551000", "154722.554000", "154722.558000"],
      "InstanceNumber": [1, 2, 3, 4, 5, 6, 7, 8, 9, 10, 11, 12, 13, 14, 15, 16, 17, 18, 19, 20, 21, 22, 23, 24, 25, 26, 27, 28, 29, 30, 31, 32, 33, 34, 35, 36, 37, 38, 39, 40, 41, 42, 43, 44, 45, 46, 47, 48, 49, 50, 51, 52, 53, 54, 55, 56, 57, 58, 59, 60, 61, 62, 63, 64, 65, 66, 67, 68, 69, 70, 71, 72, 73, 74, 75, 76, 77, 78, 79, 80, 81, 82, 83, 84, 85, 86, 87, 88, 89, 90, 91, 92, 93, 94, 95, 96, 97, 98, 99, 100, 101, 102, 103, 104, 105, 106, 107, 108, 109, 110, 111, 112, 113, 114, 115, 116, 117, 118, 119, 120, 121, 122, 123, 124, 125, 126, 127, 128, 129, 130, 131, 132, 133, 134, 135, 136, 137, 138, 139, 140, 141, 142, 143, 144, 145, 146, 147, 148, 149, 150, 151, 152, 153, 154, 155, 156, 157, 158, 159, 160, 161, 162, 163, 164, 165, 166, 167, 168, 169, 170, 171, 172, 173, 174, 175, 176, 177, 178, 179, 180, 181, 182, 183, 184, 185, 186, 187, 188, 189, 190],
      "LargestImagePixelValue": [41056, 40905, 39458, 40306, 39851, 39707, 38954, 37748, 40746, 40302, 39410, 39478, 39859, 40804, 39885, 41019, 39350, 39803, 39799, 38974, 39547, 38807, 38936, 39224, 39103, 39247, 40414, 40237, 40297, 40184, 38894, 39786, 40003, 39446, 40061, 39268, 40242, 39630, 40296, 39963, 40883, 40867, 39649, 40761, 40875, 39548, 40732, 39169, 40094, 40139, 40329, 41218, 40453, 41213, 39628, 40956, 40003, 40863, 40526, 40547, 40776, 40268, 40633, 40655, 41224, 40816, 40494, 40690, 40494, 41484, 40870, 41187, 40788, 41055, 40665, 41125, 41542, 40033, 41323, 40498, 41079, 40984, 41067, 41192, 40236, 41358, 39092, 40659, 40273, 41070, 40229, 40787, 41247, 40047, 40887, 39490, 40483, 39514, 40111, 40095, 40372, 40560, 39334, 41084, 39971, 40805, 40085, 40386, 40223, 40740, 41059, 40522, 40662, 39539, 40828, 40308, 41147, 40559, 40340, 40347, 39700, 40410, 39785, 40867, 39670, 41156, 40126, 40735, 40196, 39746, 40615, 40133, 40282, 39289, 40076, 39829, 40272, 39707, 40052, 40235, 40569, 40429, 40290, 40023, 39672, 39749, 40263, 40374, 40085, 39140, 40185, 40154, 40521, 39311, 40279, 39815, 40596, 40200, 40243, 39592, 39627, 39475, 39622, 39938, 39193, 39729, 38856, 39688, 39856, 39480, 39627, 39022, 39447, 39232, 39899, 39245, 39957, 39696, 40355, 40132, 39539, 39979, 39981, 39783, 39220, 38508, 39295, 40367, 39848, 38956],
      "WindowCenter": [10248.0, 10211.0, 10185.0, 10207.0, 10225.0, 10184.0, 10137.0, 10111.0, 10147.0, 10157.0, 10162.0, 10141.0, 10129.0, 10134.0, 10136.0, 10146.0, 10154.0, 10163.0, 10165.0, 10151.0, 10142.0, 10135.0, 10142.0, 10164.0, 10160.0, 10151.0, 10151.0, 10169.0, 10177.0, 10186.0, 10166.0, 10155.0, 10161.0, 10149.0, 10136.0, 10139.0, 10159.0, 10153.0, 10144.0, 10152.0, 10157.0, 10158.0, 10139.0, 10138.0, 10155.0, 10153.0, 10156.0, 10134.0, 10128.0, 10141.0, 10155.0, 10162.0, 10148.0, 10147.0, 10138.0, 10146.0, 10141.0, 10146.0, 10146.0, 10144.0, 10138.0, 10132.0, 10138.0, 10133.0, 10135.0, 10137.0, 10132.0, 10139.0, 10125.0, 10124.0, 10159.0, 10184.0, 10163.0, 10139.0, 10119.0, 10117.0, 10145.0, 10148.0, 10154.0, 10133.0, 10128.0, 10135.0, 10135.0, 10142.0, 10118.0, 10133.0, 10120.0, 10156.0, 10150.0, 10140.0, 10117.0, 10112.0, 10150.0, 10157.0, 10163.0, 10152.0, 10148.0, 10145.0, 10137.0, 10129.0, 10124.0, 10131.0, 10129.0, 10122.0, 10123.0, 10127.0, 10130.0, 10136.0, 10123.0, 10099.0, 10107.0, 10158.0, 10172.0, 10144.0, 10120.0, 10091.0, 10098.0, 10117.0, 10130.0, 10132.0, 10112.0, 10101.0, 10106.0, 10117.0, 10117.0, 10125.0, 10108.0, 10103.0, 10125.0, 10125.0, 10137.0, 10124.0, 10126.0, 10110.0, 10116.0, 10116.0, 10128.0, 10134.0, 10119.0, 10106.0, 10094.0, 10105.0, 10110.0, 10113.0, 10107.0, 10083.0, 10101.0, 10103.0, 10105.0, 10087.0, 10097.0, 10099.0, 10124.0, 10127.0, 10117.0, 10100.0, 10086.0, 10095.0, 10110.0, 10118.0, 10110.0, 10103.0, 10092.0, 10102.0, 10102.0, 10116.0, 10105.0, 10108.0, 10114.0, 10107.0, 10115.0, 10112.0, 10110.0, 10108.0, 10120.0, 10117.0, 10115.0, 10108.0, 10099.0, 10106.0, 10091.0, 10104.0, 10104.0, 10100.0, 10102.0, 10100.0, 10129.0, 10134.0, 10118.0, 10098.0],
      "WindowWidth": [22164.0, 22041.0, 21965.0, 21997.0, 22037.0, 21940.0, 21830.0, 21772.0, 21842.0, 21861.0, 21873.0, 21828.0, 21796.0, 21809.0, 21819.0, 21836.0, 21863.0, 21882.0, 21886.0, 21853.0, 21832.0, 21815.0, 21830.0, 21879.0, 21876.0, 21855.0, 21847.0, 21889.0, 21908.0, 21929.0, 21888.0, 21859.0, 21872.0, 21847.0, 21816.0, 21824.0, 21864.0, 21852.0, 21831.0, 21850.0, 21859.0, 21862.0, 21825.0, 21815.0, 21854.0, 21855.0, 21856.0, 21816.0, 21799.0, 21826.0, 21853.0, 21871.0, 21840.0, 21836.0, 21823.0, 21834.0, 21827.0, 21834.0, 21836.0, 21829.0, 21815.0, 21805.0, 21816.0, 21808.0, 21808.0, 21814.0, 21805.0, 21820.0, 21791.0, 21780.0, 21862.0, 21916.0, 21871.0, 21815.0, 21773.0, 21765.0, 21823.0, 21838.0, 21850.0, 21805.0, 21789.0, 21807.0, 21807.0, 21822.0, 21774.0, 21800.0, 21779.0, 21853.0, 21841.0, 21817.0, 21770.0, 21757.0, 21840.0, 21858.0, 21872.0, 21851.0, 21839.0, 21835.0, 21819.0, 21799.0, 21783.0, 21799.0, 21799.0, 21780.0, 21783.0, 21786.0, 21796.0, 21806.0, 21781.0, 21729.0, 21740.0, 21855.0, 21891.0, 21830.0, 21769.0, 21708.0, 21717.0, 21764.0, 21796.0, 21803.0, 21760.0, 21733.0, 21744.0, 21762.0, 21767.0, 21779.0, 21749.0, 21733.0, 21781.0, 21786.0, 21810.0, 21779.0, 21784.0, 21753.0, 21766.0, 21765.0, 21788.0, 21806.0, 21775.0, 21740.0, 21711.0, 21740.0, 21749.0, 21756.0, 21744.0, 21692.0, 21725.0, 21730.0, 21740.0, 21704.0, 21721.0, 21726.0, 21775.0, 21790.0, 21768.0, 21731.0, 21693.0, 21714.0, 21748.0, 21772.0, 21755.0, 21738.0, 21712.0, 21731.0, 21737.0, 21767.0, 21747.0, 21745.0, 21759.0, 21746.0, 21764.0, 21758.0, 21752.0, 21747.0, 21769.0, 21766.0, 21761.0, 21747.0, 21724.0, 21740.0, 21709.0, 21733.0, 21735.0, 21729.0, 21732.0, 21734.0, 21797.0, 21806.0, 21768.0, 21728.0]
    },
    "slices": {}
  }
}