{
  "AcquisitionMatrixPE": 104,
  "AcquisitionNumber": 1,
  "AcquisitionTime": "16:01:11.777500",
  "BandwidthPerPixelPhaseEncode": 17.17,
  "BaseResolution": 104,
  "BodyPartExamined": "BRAIN",
  "CoilCombinationMethod": "Sum of Squares",
  "ConsistencyInfo": "N4_VE11C_LATEST_20160120",
  "ConversionSoftware": "dcm2niix",
  "ConversionSoftwareVersion": "v1.0.20211006",
  "DerivedVendorReportedEchoSpacing": 0.000560011,
  "DeviceSerialNumber": "167006",
  "DwellTime": 2.1e-06,
  "EchoTime": 0.037,
  "EchoTime1": 0.037,
  "EchoTime2": 0.001,
  "EchoTrainLength": 104,
  "EffectiveEchoSpacing": 0.000560011,
  "FlipAngle": 52,
  "HeudiconvVersion": "0.11.3.post9+gc939bf8",
  "ImageComments": "Unaliased MB4/PE3/LB",
  "ImageOrientationPatientDICOM": [0.99753, -0.0615766, 0.0338083, 0.0687044, 0.955512, -0.28684],
  "ImageOrientationText": "Tra>Cor(-16.8)>Sag(0.8)",
  "ImageType": [
    "ORIGINAL",
    "PRIMARY",
    "P",
    "MB",
    "ND",
    "MOSAIC",
    "PHASE"
],
  "ImagingFrequency": 123.259,
  "InPlanePhaseEncodingDirectionDICOM": "COL",
  "InstitutionAddress": "Chemin Queen-Mary 4565,Montreal,District,CA,H3W 1W5",
  "InstitutionName": "IUGM",
  "InstitutionalDepartmentName": "Department",
  "MRAcquisitionType": "2D",
  "MagneticFieldStrength": 3,
  "Manufacturer": "Siemens",
  "ManufacturersModelName": "Prisma_fit",
  "MatrixCoilMode": "SENSE",
  "Modality": "MR",
  "MultibandAccelerationFactor": 4,
  "PartialFourier": 1,
  "PatientPosition": "HFS",
  "PercentPhaseFOV": 100,
  "PercentSampling": 100,
  "PhaseEncodingDirection": "j",
  "PhaseEncodingSteps": 104,
  "PhaseResolution": 1,
  "PixelBandwidth": 2290,
  "ProcedureStepDescription": "memory^things",
  "ProtocolName": "func_task-things_run-5",
  "PulseSequenceDetails": "%CustomerSeq%\\cmrr_mbep2d_bold",
  "ReceiveCoilActiveElements": "HC1-7;NC1,2",
  "ReceiveCoilName": "HeadNeck_64",
  "ReconMatrixPE": 104,
  "RepetitionTime": 1.49,
  "SAR": 0.0637085,
  "ScanOptions": "FS",
  "ScanningSequence": "EP",
  "SequenceName": "epfid2d1_104",
  "SequenceVariant": "SK\\SS",
  "SeriesDescription": "func_task-things_run-5",
  "SeriesNumber": 34,
  "ShimSetting": [627, -7246, -8811, 598, -9, -187, -33, -16],
  "SliceThickness": 2,
  "SliceTiming": [0, 0.785, 0.1, 0.8825, 0.1975, 0.98, 0.295, 1.08, 0.3925, 1.1775, 0.49, 1.275, 0.59, 1.3725, 0.6875, 0, 0.785, 0.1, 0.8825, 0.1975, 0.98, 0.295, 1.08, 0.3925, 1.1775, 0.49, 1.275, 0.59, 1.3725, 0.6875, 0, 0.785, 0.1, 0.8825, 0.1975, 0.98, 0.295, 1.08, 0.3925, 1.1775, 0.49, 1.275, 0.59, 1.3725, 0.6875, 0, 0.785, 0.1, 0.8825, 0.1975, 0.98, 0.295, 1.08, 0.3925, 1.1775, 0.49, 1.275, 0.59, 1.3725, 0.6875],
  "SoftwareVersions": "syngo MR E11",
  "SpacingBetweenSlices": 2,
  "StationName": "MRC35049",
  "TaskName": "things",
  "TotalReadoutTime": 0.0576811,
  "TxRefAmp": 316.82,
  "WipMemBlock": "b62e01f7-e35e-4cbf-b3d2-c29147b4edb0||Sequence: R016 ve11c/master r/e634e98; Dec 19 2017 11:00:25 by eja",
  "dcmmeta_affine": [
    [-1.9950592517852783, 0.1374088078737259, 0.02928309328854084, 99.64793395996094],
    [0.12315310537815094, 1.9110231399536133, -0.5769088864326477, -75.37276458740234],
    [0.06761651486158371, 0.5736805200576782, 1.914763331413269, -62.27207565307617],
    [0.0, 0.0, 0.0, 1.0]
],
  "dcmmeta_reorient_transform": [
    [0.0, -1.0, 0.0, 103.0],
    [1.0, 0.0, 0.0, 0.0],
    [0.0, 0.0, 1.0, 0.0],
    [0.0, 0.0, 0.0, 1.0]
],
  "dcmmeta_shape": [104, 104, 60, 190],
  "dcmmeta_slice_dim": 2,
  "dcmmeta_version": 0.6,
  "global": {
    "const": {
      "AcquisitionMatrix": [104, 0, 0, 104],
      "AngioFlag": "N",
      "BitsAllocated": 16,
      "BitsStored": 16,
      "BodyPartExamined": "BRAIN",
      "Columns": 832,
      "EchoNumbers": 1,
      "EchoTime": 37.0,
      "EchoTrainLength": 104,
      "FlipAngle": 52.0,
      "HighBit": 15,
      "ImageOrientationPatient": [0.99752961348556, -0.0615765532234, 0.03380825805137, 0.06870440537931, 0.9555115737927, -0.2868402639618],
      "ImagePositionPatient": [-890.01940649442, -772.24731479919, 181.02431882837],
      "ImageType": [
        "ORIGINAL",
        "PRIMARY",
        "P",
        "MB",
        "ND",
        "MOSAIC"
],
      "ImagedNucleus": "1H",
      "ImagingFrequency": 123.258939,
      "InPlanePhaseEncodingDirection": "COL",
      "LargestImagePixelValue": 4095,
      "MRAcquisitionType": "2D",
      "MagneticFieldStrength": 3.0,
      "Manufacturer": "SIEMENS",
      "ManufacturerModelName": "Prisma_fit",
      "Modality": "MR",
      "NumberOfAverages": 1.0,
      "NumberOfPhaseEncodingSteps": 104,
      "PercentPhaseFieldOfView": 100.0,
      "PercentSampling": 100.0,
      "PerformedProcedureStepStartTime": "141152.097000",
      "PhotometricInterpretation": "MONOCHROME2",
      "PixelBandwidth": 2290.0,
      "PixelRepresentation": 0,
      "PixelSpacing": [2.0, 2.0],
      "ProtocolName": "func_task-things_run-5",
      "RepetitionTime": 1490.0,
      "RescaleIntercept": -4096.0,
      "RescaleSlope": 2.0,
      "RescaleType": "US",
      "Rows": 832,
      "SAR": 0.06370845145104,
      "SamplesPerPixel": 1,
      "ScanOptions": "FS",
      "ScanningSequence": "EP",
      "SequenceName": "epfid2d1_104",
      "SequenceVariant": [
        "SK",
        "SS"
],
      "SeriesDescription": "func_task-things_run-5",
      "SeriesNumber": 34,
      "SeriesTime": "160242.007000",
      "SliceLocation": -36.417536070703,
      "SliceThickness": 2.0,
      "SmallestImagePixelValue": 0,
      "SoftwareVersions": "syngo MR E11",
      "SpacingBetweenSlices": 1.9999999674311,
      "SpecificCharacterSet": "ISO_IR 100",
      "StudyID": "1",
      "StudyTime": "141152.023000",
      "TransmitCoilName": "Body",
      "VariableFlipAngleFlag": "N",
      "WindowCenterWidthExplanation": "Algo1",
      "dBdt": 0.0},
    "slices": {}
  },
  "time": {
    "samples": {
      "AcquisitionNumber": [1, 2, 3, 4, 5, 6, 7, 8, 9, 10, 11, 12, 13, 14, 15, 16, 17, 18, 19, 20, 21, 22, 23, 24, 25, 26, 27, 28, 29, 30, 31, 32, 33, 34, 35, 36, 37, 38, 39, 40, 41, 42, 43, 44, 45, 46, 47, 48, 49, 50, 51, 52, 53, 54, 55, 56, 57, 58, 59, 60, 61, 62, 63, 64, 65, 66, 67, 68, 69, 70, 71, 72, 73, 74, 75, 76, 77, 78, 79, 80, 81, 82, 83, 84, 85, 86, 87, 88, 89, 90, 91, 92, 93, 94, 95, 96, 97, 98, 99, 100, 101, 102, 103, 104, 105, 106, 107, 108, 109, 110, 111, 112, 113, 114, 115, 116, 117, 118, 119, 120, 121, 122, 123, 124, 125, 126, 127, 128, 129, 130, 131, 132, 133, 134, 135, 136, 137, 138, 139, 140, 141, 142, 143, 144, 145, 146, 147, 148, 149, 150, 151, 152, 153, 154, 155, 156, 157, 158, 159, 160, 161, 162, 163, 164, 165, 166, 167, 168, 169, 170, 171, 172, 173, 174, 175, 176, 177, 178, 179, 180, 181, 182, 183, 184, 185, 186, 187, 188, 189, 190],
      "AcquisitionTime": ["160111.777500", "160113.267500", "160114.757500", "160116.247500", "160117.737500", "160119.227500", "160120.717500", "160122.207500", "160123.697500", "160125.187500", "160126.677500", "160128.167500", "160129.657500", "160131.147500", "160132.637500", "160134.127500", "160135.617500", "160137.107500", "160138.597500", "160140.087500", "160141.577500", "160143.067500", "160144.557500", "160146.047500", "160147.537500", "160149.027500", "160150.517500", "160152.007500", "160153.497500", "160154.987500", "160156.477500", "160157.967500", "160159.457500", "160200.947500", "160202.437500", "160203.927500", "160205.417500", "160206.907500", "160208.397500", "160209.887500", "160211.377500", "160212.867500", "160214.357500", "160215.847500", "160217.337500", "160218.827500", "160220.317500", "160221.807500", "160223.297500", "160224.787500", "160226.277500", "160227.767500", "160229.257500", "160230.747500", "160232.237500", "160233.727500", "160235.217500", "160236.707500", "160238.197500", "160239.687500", "160241.177500", "160242.667500", "160244.157500", "160245.647500", "160247.137500", "160248.627500", "160250.117500", "160251.607500", "160253.097500", "160254.587500", "160256.077500", "160257.567500", "160259.057500", "160300.547500", "160302.037500", "160303.527500", "160305.017500", "160306.507500", "160307.997500", "160309.487500", "160310.977500", "160312.467500", "160313.957500", "160315.447500", "160316.937500", "160318.427500", "160319.917500", "160321.407500", "160322.897500", "160324.387500", "160325.877500", "160327.367500", "160328.857500", "160330.347500", "160331.837500", "160333.327500", "160334.817500", "160336.307500", "160337.797500", "160339.287500", "160340.777500", "160342.267500", "160343.757500", "160345.247500", "160346.737500", "160348.227500", "160349.717500", "160351.207500", "160352.697500", "160354.187500", "160355.677500", "160357.167500", "160358.657500", "160400.147500", "160401.637500", "160403.127500", "160404.617500", "160406.107500", "160407.597500", "160409.087500", "160410.577500", "160412.067500", "160413.557500", "160415.047500", "160416.537500", "160418.027500", "160419.517500", "160421.007500", "160422.497500", "160423.987500", "160425.477500", "160426.967500", "160428.457500", "160429.947500", "160431.437500", "160432.927500", "160434.417500", "160435.907500", "160437.397500", "160438.887500", "160440.377500", "160441.867500", "160443.357500", "160444.847500", "160446.337500", "160447.827500", "160449.317500", "160450.807500", "160452.297500", "160453.787500", "160455.277500", "160456.767500", "160458.257500", "160459.747500", "160501.237500", "160502.727500", "160504.217500", "160505.707500", "160507.197500", "160508.687500", "160510.177500", "160511.667500", "160513.157500", "160514.647500", "160516.137500", "160517.627500", "160519.117500", "160520.607500", "160522.097500", "160523.587500", "160525.077500", "160526.567500", "160528.057500", "160529.547500", "160531.037500", "160532.527500", "160534.017500", "160535.507500", "160536.997500", "160538.487500", "160539.977500", "160541.467500", "160542.957500", "160544.447500", "160545.937500", "160547.427500", "160548.917500", "160550.407500", "160551.897500", "160553.387500"],
      "ContentTime": ["160242.009000", "160242.012000", "160242.014000", "160242.017000", "160242.019000", "160242.022000", "160242.025000", "160242.027000", "160242.030000", "160242.032000", "160242.035000", "160242.037000", "160242.040000", "160242.042000", "160242.045000", "160242.047000", "160242.050000", "160242.052000", "160242.055000", "160242.057000", "160242.060000", "160242.062000", "160242.065000", "160242.067000", "160242.070000", "160242.072000", "160242.075000", "160242.077000", "160242.080000", "160242.083000", "160242.085000", "160242.088000", "160242.090000", "160242.093000", "160242.095000", "160242.098000", "160242.100000", "160242.103000", "160301.886000", "160301.889000", "160301.892000", "160301.894000", "160301.897000", "160301.899000", "160301.902000", "160301.905000", "160301.907000", "160301.910000", "160301.912000", "160301.915000", "160301.917000", "160301.920000", "160301.922000", "160301.925000", "160301.927000", "160301.930000", "160301.932000", "160301.935000", "160322.302000", "160322.304000", "160322.307000", "160322.309000", "160322.312000", "160322.314000", "160322.317000", "160322.320000", "160322.322000", "160322.325000", "160322.327000", "160322.330000", "160322.332000", "160322.335000", "160322.337000", "160322.340000", "160322.343000", "160322.345000", "160322.348000", "160322.350000", "160341.879000", "160341.881000", "160341.884000", "160341.887000", "160341.889000", "160341.892000", "160341.894000", "160341.897000", "160341.900000", "160341.902000", "160341.905000", "160341.907000", "160341.910000", "160341.912000", "160341.915000", "160341.918000", "160341.920000", "160341.923000", "160341.925000", "160341.928000", "160422.070000", "160422.072000", "160422.084000", "160422.087000", "160422.089000", "160422.092000", "160422.094000", "160422.097000", "160422.099000", "160422.102000", "160422.105000", "160422.107000", "160422.110000", "160422.112000", "160422.115000", "160422.117000", "160422.120000", "160422.123000", "160422.125000", "160422.128000", "160422.131000", "160422.133000", "160422.136000", "160422.138000", "160422.141000", "160422.143000", "160422.146000", "160422.148000", "160422.151000", "160501.917000", "160501.920000", "160501.923000", "160501.925000", "160501.928000", "160501.930000", "160501.933000", "160501.936000", "160501.938000", "160501.941000", "160501.943000", "160501.946000", "160501.948000", "160501.951000", "160501.954000", "160501.956000", "160501.959000", "160501.961000", "160501.964000", "160501.966000", "160501.969000", "160501.971000", "160501.974000", "160501.976000", "160501.979000", "160501.981000", "160501.984000", "160541.913000", "160541.916000", "160541.918000", "160541.921000", "160541.924000", "160541.926000", "160541.929000", "160541.931000", "160541.934000", "160541.936000", "160541.939000", "160541.942000", "160541.944000", "160541.947000", "160541.949000", "160541.952000", "160541.955000", "160541.957000", "160541.960000", "160541.962000", "160541.965000", "160541.967000", "160541.970000", "160541.972000", "160541.975000", "160541.977000", "160541.980000", "160555.227000", "160555.230000", "160555.232000", "160555.235000", "160555.238000", "160555.240000", "160555.243000", "160555.246000", "160555.248000"],
      "InstanceCreationTime": ["160242.009000", "160242.012000", "160242.014000", "160242.017000", "160242.019000", "160242.022000", "160242.025000", "160242.027000", "160242.030000", "160242.032000", "160242.035000", "160242.037000", "160242.040000", "160242.042000", "160242.045000", "160242.047000", "160242.050000", "160242.052000", "160242.055000", "160242.057000", "160242.060000", "160242.062000", "160242.065000", "160242.067000", "160242.070000", "160242.072000", "160242.075000", "160242.077000", "160242.080000", "160242.083000", "160242.085000", "160242.088000", "160242.090000", "160242.093000", "160242.095000", "160242.098000", "160242.100000", "160242.103000", "160301.886000", "160301.889000", "160301.892000", "160301.894000", "160301.897000", "160301.899000", "160301.902000", "160301.905000", "160301.907000", "160301.910000", "160301.912000", "160301.915000", "160301.917000", "160301.920000", "160301.922000", "160301.925000", "160301.927000", "160301.930000", "160301.932000", "160301.935000", "160322.302000", "160322.304000", "160322.307000", "160322.309000", "160322.312000", "160322.314000", "160322.317000", "160322.320000", "160322.322000", "160322.325000", "160322.327000", "160322.330000", "160322.332000", "160322.335000", "160322.337000", "160322.340000", "160322.343000", "160322.345000", "160322.348000", "160322.350000", "160341.879000", "160341.881000", "160341.884000", "160341.887000", "160341.889000", "160341.892000", "160341.894000", "160341.897000", "160341.900000", "160341.902000", "160341.905000", "160341.907000", "160341.910000", "160341.912000", "160341.915000", "160341.918000", "160341.920000", "160341.923000", "160341.925000", "160341.928000", "160422.070000", "160422.072000", "160422.084000", "160422.087000", "160422.089000", "160422.092000", "160422.094000", "160422.097000", "160422.099000", "160422.102000", "160422.105000", "160422.107000", "160422.110000", "160422.112000", "160422.115000", "160422.117000", "160422.120000", "160422.123000", "160422.125000", "160422.128000", "160422.131000", "160422.133000", "160422.136000", "160422.138000", "160422.141000", "160422.143000", "160422.146000", "160422.148000", "160422.151000", "160501.917000", "160501.920000", "160501.923000", "160501.925000", "160501.928000", "160501.930000", "160501.933000", "160501.936000", "160501.938000", "160501.941000", "160501.943000", "160501.946000", "160501.948000", "160501.951000", "160501.954000", "160501.956000", "160501.959000", "160501.961000", "160501.964000", "160501.966000", "160501.969000", "160501.971000", "160501.974000", "160501.976000", "160501.979000", "160501.981000", "160501.984000", "160541.913000", "160541.916000", "160541.918000", "160541.921000", "160541.924000", "160541.926000", "160541.929000", "160541.931000", "160541.934000", "160541.936000", "160541.939000", "160541.942000", "160541.944000", "160541.947000", "160541.949000", "160541.952000", "160541.955000", "160541.957000", "160541.960000", "160541.962000", "160541.965000", "160541.967000", "160541.970000", "160541.972000", "160541.975000", "160541.977000", "160541.980000", "160555.227000", "160555.230000", "160555.232000", "160555.235000", "160555.238000", "160555.240000", "160555.243000", "160555.246000", "160555.248000"],
      "InstanceNumber": [1, 2, 3, 4, 5, 6, 7, 8, 9, 10, 11, 12, 13, 14, 15, 16, 17, 18, 19, 20, 21, 22, 23, 24, 25, 26, 27, 28, 29, 30, 31, 32, 33, 34, 35, 36, 37, 38, 39, 40, 41, 42, 43, 44, 45, 46, 47, 48, 49, 50, 51, 52, 53, 54, 55, 56, 57, 58, 59, 60, 61, 62, 63, 64, 65, 66, 67, 68, 69, 70, 71, 72, 73, 74, 75, 76, 77, 78, 79, 80, 81, 82, 83, 84, 85, 86, 87, 88, 89, 90, 91, 92, 93, 94, 95, 96, 97, 98, 99, 100, 101, 102, 103, 104, 105, 106, 107, 108, 109, 110, 111, 112, 113, 114, 115, 116, 117, 118, 119, 120, 121, 122, 123, 124, 125, 126, 127, 128, 129, 130, 131, 132, 133, 134, 135, 136, 137, 138, 139, 140, 141, 142, 143, 144, 145, 146, 147, 148, 149, 150, 151, 152, 153, 154, 155, 156, 157, 158, 159, 160, 161, 162, 163, 164, 165, 166, 167, 168, 169, 170, 171, 172, 173, 174, 175, 176, 177, 178, 179, 180, 181, 182, 183, 184, 185, 186, 187, 188, 189, 190],
      "WindowCenter": [4778.0, 4786.0, 4784.0, 4790.0, 4820.0, 4784.0, 4804.0, 4806.0, 4804.0, 4806.0, 4784.0, 4788.0, 4790.0, 4788.0, 4814.0, 4792.0, 4784.0, 4782.0, 4802.0, 4804.0, 4804.0, 4784.0, 4804.0, 4788.0, 4790.0, 4784.0, 4788.0, 4786.0, 4804.0, 4782.0, 4782.0, 4784.0, 4782.0, 4782.0, 4786.0, 4786.0, 4786.0, 4784.0, 4790.0, 4782.0, 4780.0, 4784.0, 4782.0, 4786.0, 4782.0, 4788.0, 4786.0, 4788.0, 4782.0, 4792.0, 4786.0, 4786.0, 4780.0, 4808.0, 4784.0, 4784.0, 4784.0, 4784.0, 4784.0, 4784.0, 4786.0, 4786.0, 4784.0, 4780.0, 4786.0, 4782.0, 4786.0, 4782.0, 4784.0, 4788.0, 4786.0, 4782.0, 4782.0, 4782.0, 4802.0, 4784.0, 4782.0, 4786.0, 4786.0, 4784.0, 4784.0, 4784.0, 4782.0, 4786.0, 4786.0, 4786.0, 4784.0, 4786.0, 4808.0, 4782.0, 4782.0, 4780.0, 4786.0, 4786.0, 4788.0, 4782.0, 4786.0, 4780.0, 4808.0, 4784.0, 4784.0, 4782.0, 4784.0, 4784.0, 4784.0, 4786.0, 4786.0, 4786.0, 4784.0, 4784.0, 4806.0, 4786.0, 4784.0, 4786.0, 4780.0, 4786.0, 4780.0, 4782.0, 4784.0, 4782.0, 4786.0, 4784.0, 4810.0, 4784.0, 4782.0, 4784.0, 4780.0, 4784.0, 4784.0, 4784.0, 4788.0, 4786.0, 4784.0, 4786.0, 4782.0, 4782.0, 4788.0, 4784.0, 4782.0, 4782.0, 4786.0, 4786.0, 4786.0, 4780.0, 4808.0, 4780.0, 4782.0, 4784.0, 4784.0, 4782.0, 4786.0, 4806.0, 4786.0, 4780.0, 4784.0, 4782.0, 4786.0, 4782.0, 4782.0, 4782.0, 4782.0, 4784.0, 4782.0, 4786.0, 4786.0, 4788.0, 4782.0, 4788.0, 4782.0, 4786.0, 4786.0, 4788.0, 4784.0, 4788.0, 4782.0, 4784.0, 4788.0, 4784.0, 4784.0, 4782.0, 4784.0, 4782.0, 4786.0, 4782.0, 4788.0, 4806.0, 4782.0, 4806.0, 4782.0, 4786.0],
      "WindowWidth": [18574.0, 18576.0, 18578.0, 18568.0, 18590.0, 18578.0, 18616.0, 18612.0, 18614.0, 18608.0, 18578.0, 18570.0, 18570.0, 18574.0, 18606.0, 18568.0, 18580.0, 18582.0, 18612.0, 18604.0, 18612.0, 18574.0, 18610.0, 18576.0, 18564.0, 18576.0, 18574.0, 18576.0, 18610.0, 18580.0, 18576.0, 18572.0, 18570.0, 18572.0, 18578.0, 18570.0, 18576.0, 18574.0, 18572.0, 18580.0, 18576.0, 18576.0, 18580.0, 18574.0, 18570.0, 18574.0, 18576.0, 18574.0, 18578.0, 18566.0, 18574.0, 18574.0, 18574.0, 18610.0, 18574.0, 18578.0, 18580.0, 18576.0, 18576.0, 18572.0, 18578.0, 18588.0, 18578.0, 18574.0, 18570.0, 18576.0, 18572.0, 18570.0, 18570.0, 18566.0, 18578.0, 18572.0, 18576.0, 18574.0, 18610.0, 18572.0, 18578.0, 18572.0, 18578.0, 18574.0, 18574.0, 18574.0, 18580.0, 18568.0, 18576.0, 18566.0, 18574.0, 18566.0, 18610.0, 18574.0, 18572.0, 18576.0, 18576.0, 18578.0, 18568.0, 18570.0, 18570.0, 18574.0, 18610.0, 18574.0, 18578.0, 18576.0, 18578.0, 18568.0, 18574.0, 18562.0, 18576.0, 18572.0, 18574.0, 18578.0, 18606.0, 18574.0, 18578.0, 18578.0, 18580.0, 18574.0, 18578.0, 18574.0, 18576.0, 18576.0, 18574.0, 18572.0, 18608.0, 18580.0, 18574.0, 18578.0, 18572.0, 18578.0, 18580.0, 18578.0, 18570.0, 18576.0, 18570.0, 18578.0, 18574.0, 18578.0, 18572.0, 18578.0, 18572.0, 18578.0, 18572.0, 18578.0, 18570.0, 18572.0, 18602.0, 18572.0, 18578.0, 18578.0, 18582.0, 18574.0, 18574.0, 18606.0, 18580.0, 18574.0, 18574.0, 18576.0, 18570.0, 18570.0, 18578.0, 18580.0, 18580.0, 18580.0, 18580.0, 18578.0, 18582.0, 18570.0, 18574.0, 18566.0, 18572.0, 18568.0, 18574.0, 18566.0, 18574.0, 18576.0, 18578.0, 18582.0, 18570.0, 18580.0, 18568.0, 18576.0, 18580.0, 18578.0, 18580.0, 18580.0, 18574.0, 18610.0, 18572.0, 18612.0, 18580.0, 18574.0]
    },
    "slices": {}
  }
}