{
  "AcquisitionMatrixPE": 104,
  "AcquisitionNumber": 1,
  "AcquisitionTime": "15:42:38.302500",
  "BandwidthPerPixelPhaseEncode": 17.17,
  "BaseResolution": 104,
  "BodyPartExamined": "BRAIN",
  "CoilCombinationMethod": "Sum of Squares",
  "ConsistencyInfo": "N4_VE11C_LATEST_20160120",
  "ConversionSoftware": "dcm2niix",
  "ConversionSoftwareVersion": "v1.0.20211006",
  "DerivedVendorReportedEchoSpacing": 0.000560011,
  "DeviceSerialNumber": "167006",
  "DwellTime": 2.1e-06,
  "EchoTime": 0.037,
  "EchoTime1": 0.037,
  "EchoTime2": 0.001,
  "EchoTrainLength": 104,
  "EffectiveEchoSpacing": 0.000560011,
  "FlipAngle": 52,
  "HeudiconvVersion": "0.11.3.post9+gc939bf8",
  "ImageComments": "Unaliased MB4/PE3/LB",
  "ImageOrientationPatientDICOM": [0.99753, -0.0615766, 0.0338083, 0.0687044, 0.955512, -0.28684],
  "ImageOrientationText": "Tra>Cor(-16.8)>Sag(0.8)",
  "ImageType": [
    "ORIGINAL",
    "PRIMARY",
    "P",
    "MB",
    "ND",
    "MOSAIC",
    "PHASE"
],
  "ImagingFrequency": 123.259,
  "InPlanePhaseEncodingDirectionDICOM": "COL",
  "InstitutionAddress": "Chemin Queen-Mary 4565,Montreal,District,CA,H3W 1W5",
  "InstitutionName": "IUGM",
  "InstitutionalDepartmentName": "Department",
  "MRAcquisitionType": "2D",
  "MagneticFieldStrength": 3,
  "Manufacturer": "Siemens",
  "ManufacturersModelName": "Prisma_fit",
  "MatrixCoilMode": "SENSE",
  "Modality": "MR",
  "MultibandAccelerationFactor": 4,
  "PartialFourier": 1,
  "PatientPosition": "HFS",
  "PercentPhaseFOV": 100,
  "PercentSampling": 100,
  "PhaseEncodingDirection": "j",
  "PhaseEncodingSteps": 104,
  "PhaseResolution": 1,
  "PixelBandwidth": 2290,
  "ProcedureStepDescription": "memory^things",
  "ProtocolName": "func_task-things_run-2",
  "PulseSequenceDetails": "%CustomerSeq%\\cmrr_mbep2d_bold",
  "ReceiveCoilActiveElements": "HC1-7;NC1,2",
  "ReceiveCoilName": "HeadNeck_64",
  "ReconMatrixPE": 104,
  "RepetitionTime": 1.49,
  "SAR": 0.0637085,
  "ScanOptions": "FS",
  "ScanningSequence": "EP",
  "SequenceName": "epfid2d1_104",
  "SequenceVariant": "SK\\SS",
  "SeriesDescription": "func_task-things_run-2",
  "SeriesNumber": 25,
  "ShimSetting": [627, -7246, -8811, 598, -9, -187, -33, -16],
  "SliceThickness": 2,
  "SliceTiming": [0, 0.785, 0.0975, 0.8825, 0.1975, 0.98, 0.295, 1.0775, 0.3925, 1.1775, 0.49, 1.275, 0.5875, 1.3725, 0.6875, 0, 0.785, 0.0975, 0.8825, 0.1975, 0.98, 0.295, 1.0775, 0.3925, 1.1775, 0.49, 1.275, 0.5875, 1.3725, 0.6875, 0, 0.785, 0.0975, 0.8825, 0.1975, 0.98, 0.295, 1.0775, 0.3925, 1.1775, 0.49, 1.275, 0.5875, 1.3725, 0.6875, 0, 0.785, 0.0975, 0.8825, 0.1975, 0.98, 0.295, 1.0775, 0.3925, 1.1775, 0.49, 1.275, 0.5875, 1.3725, 0.6875],
  "SoftwareVersions": "syngo MR E11",
  "SpacingBetweenSlices": 2,
  "StationName": "MRC35049",
  "TaskName": "things",
  "TotalReadoutTime": 0.0576811,
  "TxRefAmp": 316.82,
  "WipMemBlock": "11cb0a33-2b1f-4e32-87c4-6b399003f248||Sequence: R016 ve11c/master r/e634e98; Dec 19 2017 11:00:25 by eja",
  "dcmmeta_affine": [
    [-1.9950592517852783, 0.1374088078737259, 0.02928309328854084, 99.64793395996094],
    [0.12315310537815094, 1.9110231399536133, -0.5769088864326477, -75.37276458740234],
    [0.06761651486158371, 0.5736805200576782, 1.914763331413269, -62.27207565307617],
    [0.0, 0.0, 0.0, 1.0]
],
  "dcmmeta_reorient_transform": [
    [0.0, -1.0, 0.0, 103.0],
    [1.0, 0.0, 0.0, 0.0],
    [0.0, 0.0, 1.0, 0.0],
    [0.0, 0.0, 0.0, 1.0]
],
  "dcmmeta_shape": [104, 104, 60, 190],
  "dcmmeta_slice_dim": 2,
  "dcmmeta_version": 0.6,
  "global": {
    "const": {
      "AcquisitionMatrix": [104, 0, 0, 104],
      "AngioFlag": "N",
      "BitsAllocated": 16,
      "BitsStored": 16,
      "BodyPartExamined": "BRAIN",
      "Columns": 832,
      "EchoNumbers": 1,
      "EchoTime": 37.0,
      "EchoTrainLength": 104,
      "FlipAngle": 52.0,
      "HighBit": 15,
      "ImageOrientationPatient": [0.99752961348556, -0.0615765532234, 0.03380825805137, 0.06870440537931, 0.9555115737927, -0.2868402639618],
      "ImagePositionPatient": [-890.01940649442, -772.24731479919, 181.02431882837],
      "ImageType": [
        "ORIGINAL",
        "PRIMARY",
        "P",
        "MB",
        "ND",
        "MOSAIC"
],
      "ImagedNucleus": "1H",
      "ImagingFrequency": 123.258931,
      "InPlanePhaseEncodingDirection": "COL",
      "LargestImagePixelValue": 4095,
      "MRAcquisitionType": "2D",
      "MagneticFieldStrength": 3.0,
      "Manufacturer": "SIEMENS",
      "ManufacturerModelName": "Prisma_fit",
      "Modality": "MR",
      "NumberOfAverages": 1.0,
      "NumberOfPhaseEncodingSteps": 104,
      "PercentPhaseFieldOfView": 100.0,
      "PercentSampling": 100.0,
      "PerformedProcedureStepStartTime": "141152.097000",
      "PhotometricInterpretation": "MONOCHROME2",
      "PixelBandwidth": 2290.0,
      "PixelRepresentation": 0,
      "PixelSpacing": [2.0, 2.0],
      "ProtocolName": "func_task-things_run-2",
      "RepetitionTime": 1490.0,
      "RescaleIntercept": -4096.0,
      "RescaleSlope": 2.0,
      "RescaleType": "US",
      "Rows": 832,
      "SAR": 0.06370845145104,
      "SamplesPerPixel": 1,
      "ScanOptions": "FS",
      "ScanningSequence": "EP",
      "SequenceName": "epfid2d1_104",
      "SequenceVariant": [
        "SK",
        "SS"
],
      "SeriesDescription": "func_task-things_run-2",
      "SeriesNumber": 25,
      "SeriesTime": "154401.976000",
      "SliceLocation": -36.417536070703,
      "SliceThickness": 2.0,
      "SmallestImagePixelValue": 0,
      "SoftwareVersions": "syngo MR E11",
      "SpacingBetweenSlices": 1.9999999674311,
      "SpecificCharacterSet": "ISO_IR 100",
      "StudyID": "1",
      "StudyTime": "141152.023000",
      "TransmitCoilName": "Body",
      "VariableFlipAngleFlag": "N",
      "WindowCenterWidthExplanation": "Algo1",
      "dBdt": 0.0},
    "slices": {}
  },
  "time": {
    "samples": {
      "AcquisitionNumber": [1, 2, 3, 4, 5, 6, 7, 8, 9, 10, 11, 12, 13, 14, 15, 16, 17, 18, 19, 20, 21, 22, 23, 24, 25, 26, 27, 28, 29, 30, 31, 32, 33, 34, 35, 36, 37, 38, 39, 40, 41, 42, 43, 44, 45, 46, 47, 48, 49, 50, 51, 52, 53, 54, 55, 56, 57, 58, 59, 60, 61, 62, 63, 64, 65, 66, 67, 68, 69, 70, 71, 72, 73, 74, 75, 76, 77, 78, 79, 80, 81, 82, 83, 84, 85, 86, 87, 88, 89, 90, 91, 92, 93, 94, 95, 96, 97, 98, 99, 100, 101, 102, 103, 104, 105, 106, 107, 108, 109, 110, 111, 112, 113, 114, 115, 116, 117, 118, 119, 120, 121, 122, 123, 124, 125, 126, 127, 128, 129, 130, 131, 132, 133, 134, 135, 136, 137, 138, 139, 140, 141, 142, 143, 144, 145, 146, 147, 148, 149, 150, 151, 152, 153, 154, 155, 156, 157, 158, 159, 160, 161, 162, 163, 164, 165, 166, 167, 168, 169, 170, 171, 172, 173, 174, 175, 176, 177, 178, 179, 180, 181, 182, 183, 184, 185, 186, 187, 188, 189, 190],
      "AcquisitionTime": ["154238.302500", "154239.792500", "154241.282500", "154242.772500", "154244.262500", "154245.752500", "154247.242500", "154248.732500", "154250.222500", "154251.712500", "154253.202500", "154254.692500", "154256.182500", "154257.672500", "154259.162500", "154300.652500", "154302.142500", "154303.632500", "154305.122500", "154306.612500", "154308.102500", "154309.592500", "154311.082500", "154312.572500", "154314.062500", "154315.552500", "154317.042500", "154318.532500", "154320.022500", "154321.512500", "154323.002500", "154324.492500", "154325.982500", "154327.472500", "154328.962500", "154330.452500", "154331.942500", "154333.432500", "154334.922500", "154336.412500", "154337.902500", "154339.392500", "154340.882500", "154342.372500", "154343.862500", "154345.352500", "154346.842500", "154348.332500", "154349.822500", "154351.312500", "154352.802500", "154354.292500", "154355.782500", "154357.272500", "154358.762500", "154400.252500", "154401.742500", "154403.232500", "154404.722500", "154406.212500", "154407.702500", "154409.192500", "154410.682500", "154412.172500", "154413.662500", "154415.152500", "154416.642500", "154418.132500", "154419.622500", "154421.112500", "154422.602500", "154424.092500", "154425.582500", "154427.072500", "154428.562500", "154430.052500", "154431.542500", "154433.032500", "154434.522500", "154436.012500", "154437.502500", "154438.992500", "154440.482500", "154441.972500", "154443.462500", "154444.952500", "154446.442500", "154447.932500", "154449.422500", "154450.912500", "154452.402500", "154453.892500", "154455.382500", "154456.872500", "154458.362500", "154459.852500", "154501.342500", "154502.832500", "154504.322500", "154505.812500", "154507.302500", "154508.792500", "154510.282500", "154511.772500", "154513.262500", "154514.752500", "154516.242500", "154517.732500", "154519.222500", "154520.712500", "154522.202500", "154523.692500", "154525.182500", "154526.672500", "154528.162500", "154529.652500", "154531.142500", "154532.632500", "154534.122500", "154535.612500", "154537.102500", "154538.592500", "154540.082500", "154541.572500", "154543.062500", "154544.552500", "154546.042500", "154547.532500", "154549.022500", "154550.512500", "154552.002500", "154553.492500", "154554.982500", "154556.472500", "154557.962500", "154559.452500", "154600.942500", "154602.432500", "154603.922500", "154605.412500", "154606.902500", "154608.392500", "154609.882500", "154611.372500", "154612.862500", "154614.352500", "154615.842500", "154617.332500", "154618.822500", "154620.312500", "154621.802500", "154623.292500", "154624.782500", "154626.272500", "154627.762500", "154629.252500", "154630.742500", "154632.232500", "154633.722500", "154635.212500", "154636.702500", "154638.192500", "154639.682500", "154641.172500", "154642.662500", "154644.152500", "154645.642500", "154647.132500", "154648.622500", "154650.112500", "154651.602500", "154653.092500", "154654.582500", "154656.072500", "154657.562500", "154659.052500", "154700.542500", "154702.032500", "154703.522500", "154705.012500", "154706.502500", "154707.992500", "154709.482500", "154710.972500", "154712.462500", "154713.952500", "154715.442500", "154716.932500", "154718.422500", "154719.912500"],
      "ContentTime": ["154401.978000", "154401.981000", "154401.983000", "154401.986000", "154401.989000", "154401.991000", "154401.994000", "154401.996000", "154402.000000", "154402.002000", "154402.005000", "154402.007000", "154402.010000", "154402.012000", "154402.014000", "154402.017000", "154402.020000", "154402.022000", "154402.025000", "154402.027000", "154402.034000", "154402.037000", "154402.039000", "154402.042000", "154402.044000", "154402.047000", "154402.049000", "154402.052000", "154402.054000", "154402.057000", "154421.878000", "154421.881000", "154421.883000", "154421.886000", "154421.888000", "154421.891000", "154421.894000", "154421.896000", "154421.898000", "154421.901000", "154421.904000", "154421.906000", "154421.909000", "154421.911000", "154421.914000", "154421.917000", "154421.919000", "154421.922000", "154421.925000", "154421.928000", "154441.911000", "154441.914000", "154441.916000", "154441.919000", "154441.922000", "154441.924000", "154441.927000", "154441.929000", "154441.932000", "154441.934000", "154441.937000", "154441.939000", "154441.942000", "154441.944000", "154441.947000", "154441.949000", "154441.952000", "154441.954000", "154441.957000", "154441.959000", "154501.882000", "154501.885000", "154501.888000", "154501.890000", "154501.893000", "154501.895000", "154501.898000", "154501.900000", "154501.903000", "154501.905000", "154501.908000", "154501.910000", "154501.913000", "154501.915000", "154501.918000", "154501.920000", "154501.923000", "154501.925000", "154501.928000", "154501.930000", "154501.933000", "154541.925000", "154541.928000", "154541.931000", "154541.933000", "154541.936000", "154541.938000", "154541.951000", "154541.954000", "154541.956000", "154541.959000", "154541.961000", "154541.964000", "154541.966000", "154541.969000", "154541.972000", "154541.974000", "154541.977000", "154541.979000", "154541.982000", "154541.984000", "154541.987000", "154541.989000", "154541.992000", "154541.994000", "154541.997000", "154542.000000", "154542.003000", "154542.005000", "154542.008000", "154542.010000", "154542.013000", "154621.915000", "154621.918000", "154621.921000", "154621.923000", "154621.926000", "154621.928000", "154621.931000", "154621.933000", "154621.936000", "154621.938000", "154621.941000", "154621.943000", "154621.946000", "154621.948000", "154621.951000", "154621.954000", "154621.956000", "154621.959000", "154621.961000", "154621.964000", "154621.966000", "154621.969000", "154621.971000", "154621.974000", "154621.976000", "154621.979000", "154621.981000", "154701.900000", "154701.903000", "154701.905000", "154701.908000", "154701.910000", "154701.913000", "154701.915000", "154701.918000", "154701.920000", "154701.923000", "154701.925000", "154701.928000", "154701.937000", "154701.940000", "154701.942000", "154701.945000", "154701.947000", "154701.950000", "154701.952000", "154701.955000", "154701.958000", "154701.960000", "154701.963000", "154701.965000", "154701.968000", "154701.970000", "154701.973000", "154723.128000", "154723.131000", "154723.134000", "154723.137000", "154723.139000", "154723.142000", "154723.145000", "154723.148000", "154723.150000", "154723.153000", "154723.156000", "154723.159000", "154723.162000", "154723.165000"],
      "InstanceCreationTime": ["154401.978000", "154401.981000", "154401.983000", "154401.986000", "154401.989000", "154401.991000", "154401.994000", "154401.996000", "154402.000000", "154402.002000", "154402.005000", "154402.007000", "154402.010000", "154402.012000", "154402.014000", "154402.017000", "154402.020000", "154402.022000", "154402.025000", "154402.027000", "154402.034000", "154402.037000", "154402.039000", "154402.042000", "154402.044000", "154402.047000", "154402.049000", "154402.052000", "154402.054000", "154402.057000", "154421.878000", "154421.881000", "154421.883000", "154421.886000", "154421.888000", "154421.891000", "154421.894000", "154421.896000", "154421.898000", "154421.901000", "154421.904000", "154421.906000", "154421.909000", "154421.911000", "154421.914000", "154421.917000", "154421.919000", "154421.922000", "154421.925000", "154421.928000", "154441.911000", "154441.914000", "154441.916000", "154441.919000", "154441.922000", "154441.924000", "154441.927000", "154441.929000", "154441.932000", "154441.934000", "154441.937000", "154441.939000", "154441.942000", "154441.944000", "154441.947000", "154441.949000", "154441.952000", "154441.954000", "154441.957000", "154441.959000", "154501.882000", "154501.885000", "154501.888000", "154501.890000", "154501.893000", "154501.895000", "154501.898000", "154501.900000", "154501.903000", "154501.905000", "154501.908000", "154501.910000", "154501.913000", "154501.915000", "154501.918000", "154501.920000", "154501.923000", "154501.925000", "154501.928000", "154501.930000", "154501.933000", "154541.925000", "154541.928000", "154541.931000", "154541.933000", "154541.936000", "154541.938000", "154541.951000", "154541.954000", "154541.956000", "154541.959000", "154541.961000", "154541.964000", "154541.966000", "154541.969000", "154541.972000", "154541.974000", "154541.977000", "154541.979000", "154541.982000", "154541.984000", "154541.987000", "154541.989000", "154541.992000", "154541.994000", "154541.997000", "154542.000000", "154542.003000", "154542.005000", "154542.008000", "154542.010000", "154542.013000", "154621.915000", "154621.918000", "154621.921000", "154621.923000", "154621.926000", "154621.928000", "154621.931000", "154621.933000", "154621.936000", "154621.938000", "154621.941000", "154621.943000", "154621.946000", "154621.948000", "154621.951000", "154621.954000", "154621.956000", "154621.959000", "154621.961000", "154621.964000", "154621.966000", "154621.969000", "154621.971000", "154621.974000", "154621.976000", "154621.979000", "154621.981000", "154701.900000", "154701.903000", "154701.905000", "154701.908000", "154701.910000", "154701.913000", "154701.915000", "154701.918000", "154701.920000", "154701.923000", "154701.925000", "154701.928000", "154701.937000", "154701.940000", "154701.942000", "154701.945000", "154701.947000", "154701.950000", "154701.952000", "154701.955000", "154701.958000", "154701.960000", "154701.963000", "154701.965000", "154701.968000", "154701.970000", "154701.973000", "154723.128000", "154723.131000", "154723.134000", "154723.137000", "154723.139000", "154723.142000", "154723.145000", "154723.148000", "154723.150000", "154723.153000", "154723.156000", "154723.159000", "154723.162000", "154723.165000"],
      "InstanceNumber": [1, 2, 3, 4, 5, 6, 7, 8, 9, 10, 11, 12, 13, 14, 15, 16, 17, 18, 19, 20, 21, 22, 23, 24, 25, 26, 27, 28, 29, 30, 31, 32, 33, 34, 35, 36, 37, 38, 39, 40, 41, 42, 43, 44, 45, 46, 47, 48, 49, 50, 51, 52, 53, 54, 55, 56, 57, 58, 59, 60, 61, 62, 63, 64, 65, 66, 67, 68, 69, 70, 71, 72, 73, 74, 75, 76, 77, 78, 79, 80, 81, 82, 83, 84, 85, 86, 87, 88, 89, 90, 91, 92, 93, 94, 95, 96, 97, 98, 99, 100, 101, 102, 103, 104, 105, 106, 107, 108, 109, 110, 111, 112, 113, 114, 115, 116, 117, 118, 119, 120, 121, 122, 123, 124, 125, 126, 127, 128, 129, 130, 131, 132, 133, 134, 135, 136, 137, 138, 139, 140, 141, 142, 143, 144, 145, 146, 147, 148, 149, 150, 151, 152, 153, 154, 155, 156, 157, 158, 159, 160, 161, 162, 163, 164, 165, 166, 167, 168, 169, 170, 171, 172, 173, 174, 175, 176, 177, 178, 179, 180, 181, 182, 183, 184, 185, 186, 187, 188, 189, 190],
      "WindowCenter": [4810.0, 4810.0, 4808.0, 4816.0, 4792.0, 4810.0, 4810.0, 4812.0, 4808.0, 4808.0, 4784.0, 4784.0, 4810.0, 4786.0, 4790.0, 4808.0, 4810.0, 4806.0, 4810.0, 4812.0, 4802.0, 4808.0, 4790.0, 4808.0, 4788.0, 4810.0, 4806.0, 4808.0, 4782.0, 4810.0, 4808.0, 4804.0, 4806.0, 4808.0, 4806.0, 4810.0, 4806.0, 4810.0, 4810.0, 4810.0, 4808.0, 4806.0, 4810.0, 4806.0, 4808.0, 4784.0, 4806.0, 4810.0, 4808.0, 4810.0, 4812.0, 4806.0, 4808.0, 4808.0, 4810.0, 4804.0, 4808.0, 4784.0, 4808.0, 4784.0, 4808.0, 4786.0, 4804.0, 4806.0, 4806.0, 4808.0, 4782.0, 4808.0, 4810.0, 4806.0, 4808.0, 4782.0, 4808.0, 4804.0, 4808.0, 4782.0, 4810.0, 4808.0, 4808.0, 4810.0, 4806.0, 4810.0, 4786.0, 4782.0, 4810.0, 4784.0, 4806.0, 4786.0, 4786.0, 4808.0, 4788.0, 4788.0, 4786.0, 4808.0, 4808.0, 4808.0, 4808.0, 4810.0, 4806.0, 4808.0, 4806.0, 4806.0, 4810.0, 4808.0, 4788.0, 4808.0, 4810.0, 4806.0, 4808.0, 4808.0, 4808.0, 4810.0, 4806.0, 4810.0, 4806.0, 4786.0, 4808.0, 4808.0, 4808.0, 4810.0, 4784.0, 4808.0, 4810.0, 4806.0, 4810.0, 4806.0, 4810.0, 4808.0, 4786.0, 4786.0, 4788.0, 4808.0, 4784.0, 4812.0, 4806.0, 4812.0, 4784.0, 4806.0, 4810.0, 4812.0, 4808.0, 4810.0, 4808.0, 4808.0, 4810.0, 4806.0, 4810.0, 4808.0, 4808.0, 4810.0, 4784.0, 4808.0, 4808.0, 4786.0, 4806.0, 4786.0, 4808.0, 4810.0, 4808.0, 4786.0, 4808.0, 4808.0, 4810.0, 4808.0, 4810.0, 4806.0, 4788.0, 4806.0, 4808.0, 4808.0, 4810.0, 4804.0, 4808.0, 4784.0, 4784.0, 4810.0, 4806.0, 4810.0, 4808.0, 4814.0, 4812.0, 4808.0, 4810.0, 4806.0, 4786.0, 4816.0, 4790.0, 4806.0, 4782.0, 4810.0],
      "WindowWidth": [18612.0, 18606.0, 18608.0, 18594.0, 18558.0, 18616.0, 18624.0, 18622.0, 18622.0, 18616.0, 18576.0, 18570.0, 18602.0, 18572.0, 18570.0, 18614.0, 18606.0, 18618.0, 18618.0, 18620.0, 18614.0, 18604.0, 18576.0, 18610.0, 18576.0, 18604.0, 18614.0, 18608.0, 18578.0, 18610.0, 18606.0, 18608.0, 18608.0, 18612.0, 18608.0, 18608.0, 18608.0, 18606.0, 18614.0, 18604.0, 18610.0, 18616.0, 18608.0, 18608.0, 18614.0, 18570.0, 18610.0, 18604.0, 18612.0, 18606.0, 18608.0, 18606.0, 18608.0, 18608.0, 18606.0, 18610.0, 18604.0, 18578.0, 18600.0, 18576.0, 18608.0, 18578.0, 18606.0, 18606.0, 18608.0, 18606.0, 18576.0, 18610.0, 18600.0, 18610.0, 18606.0, 18574.0, 18602.0, 18606.0, 18602.0, 18572.0, 18610.0, 18604.0, 18608.0, 18598.0, 18612.0, 18602.0, 18576.0, 18574.0, 18602.0, 18578.0, 18608.0, 18574.0, 18570.0, 18608.0, 18570.0, 18578.0, 18576.0, 18600.0, 18606.0, 18596.0, 18610.0, 18606.0, 18614.0, 18606.0, 18600.0, 18608.0, 18600.0, 18608.0, 18574.0, 18606.0, 18608.0, 18610.0, 18604.0, 18604.0, 18604.0, 18604.0, 18602.0, 18602.0, 18608.0, 18572.0, 18606.0, 18604.0, 18604.0, 18612.0, 18572.0, 18606.0, 18600.0, 18606.0, 18608.0, 18608.0, 18606.0, 18606.0, 18574.0, 18574.0, 18578.0, 18606.0, 18576.0, 18608.0, 18606.0, 18606.0, 18578.0, 18602.0, 18608.0, 18608.0, 18608.0, 18604.0, 18604.0, 18610.0, 18606.0, 18610.0, 18606.0, 18604.0, 18604.0, 18608.0, 18578.0, 18606.0, 18606.0, 18570.0, 18604.0, 18572.0, 18610.0, 18606.0, 18610.0, 18574.0, 18608.0, 18606.0, 18606.0, 18610.0, 18606.0, 18608.0, 18578.0, 18616.0, 18602.0, 18602.0, 18612.0, 18604.0, 18604.0, 18576.0, 18576.0, 18602.0, 18610.0, 18604.0, 18606.0, 18608.0, 18608.0, 18608.0, 18606.0, 18608.0, 18572.0, 18604.0, 18570.0, 18612.0, 18574.0, 18606.0]
    },
    "slices": {}
  }
}