{
  "AcquisitionMatrixPE": 104,
  "AcquisitionNumber": 1,
  "AcquisitionTime": "15:26:2.195000",
  "BandwidthPerPixelPhaseEncode": 17.17,
  "BaseResolution": 104,
  "BodyPartExamined": "BRAIN",
  "CoilString": "HC1-7;NC1_2",
  "ConsistencyInfo": "N4_VE11C_LATEST_20160120",
  "ConversionSoftware": "dcm2niix",
  "ConversionSoftwareVersion": "v1.0.20190902",
  "DerivedVendorReportedEchoSpacing": 0.000560011,
  "DeviceSerialNumber": "167006",
  "DwellTime": 2.1e-06,
  "EchoTime": 0.037,
  "EchoTrainLength": 104,
  "EffectiveEchoSpacing": 0.000560011,
  "FlipAngle": 52,
  "ImageComments": "Unaliased_MB4_PE3_LB",
  "ImageOrientationPatientDICOM": [0.998336, -0.0533228, 0.0219593, 0.0575637, 0.944295, -0.324028],
  "ImageType": [
    "ORIGINAL",
    "PRIMARY",
    "M",
    "MB",
    "ND",
    "MOSAIC"
],
  "ImagingFrequency": 123.259,
  "InPlanePhaseEncodingDirectionDICOM": "COL",
  "InstitutionAddress": "Chemin_Queen-Mary_4565_Montreal_District_CA_H3W_1W5",
  "InstitutionName": "IUGM",
  "InstitutionalDepartmentName": "Department",
  "MRAcquisitionType": "2D",
  "MagneticFieldStrength": 3,
  "Manufacturer": "Siemens",
  "ManufacturersModelName": "Prisma_fit",
  "Modality": "MR",
  "MultibandAccelerationFactor": 4,
  "PartialFourier": 1,
  "PatientPosition": "HFS",
  "PercentPhaseFOV": 100,
  "PhaseEncodingDirection": "j",
  "PhaseEncodingSteps": 104,
  "PhaseResolution": 1,
  "PixelBandwidth": 2290,
  "ProcedureStepDescription": "memory_things",
  "ProtocolName": "func_task-things_run-1",
  "PulseSequenceDetails": "%CustomerSeq%_cmrr_mbep2d_bold",
  "ReceiveCoilActiveElements": "HC1-7;NC1,2",
  "ReceiveCoilName": "HeadNeck_64",
  "ReconMatrixPE": 104,
  "RepetitionTime": 1.49,
  "SAR": 0.0637085,
  "ScanOptions": "FS",
  "ScanningSequence": "EP",
  "SequenceName": "epfid2d1_104",
  "SequenceVariant": "SK_SS",
  "SeriesDescription": "func_task-things_run-1",
  "SeriesNumber": 10,
  "ShimSetting": [627, -7246, -8812, 594, -13, -180, -34, -15],
  "SliceThickness": 2,
  "SliceTiming": [0, 0.7825, 0.0975, 0.8825, 0.195, 0.98, 0.2925, 1.0775, 0.3925, 1.175, 0.49, 1.2725, 0.5875, 1.37, 0.685, 0, 0.7825, 0.0975, 0.8825, 0.195, 0.98, 0.2925, 1.0775, 0.3925, 1.175, 0.49, 1.2725, 0.5875, 1.37, 0.685, 0, 0.7825, 0.0975, 0.8825, 0.195, 0.98, 0.2925, 1.0775, 0.3925, 1.175, 0.49, 1.2725, 0.5875, 1.37, 0.685, 0, 0.7825, 0.0975, 0.8825, 0.195, 0.98, 0.2925, 1.0775, 0.3925, 1.175, 0.49, 1.2725, 0.5875, 1.37, 0.685],
  "SoftwareVersions": "syngo_MR_E11",
  "SpacingBetweenSlices": 2,
  "StationName": "MRC35049",
  "TaskName": "things",
  "TotalReadoutTime": 0.0576811,
  "TxRefAmp": 316.82,
  "WipMemBlock": "6c79a830-141f-4248-991a-c190d72719ec||Sequence: R016 ve11c/master r/e634e98; Dec 19 2017 11:00:25 by eja",
  "dcmmeta_affine": [
    [-1.9966716766357422, 0.11512734740972519, 0.006915942765772343, 101.28788757324219],
    [0.10664563626050949, 1.8885891437530518, -0.6495056748390198, -71.68354034423828],
    [0.04391862079501152, 0.6480560302734375, 1.8915852308273315, -63.599849700927734],
    [0.0, 0.0, 0.0, 1.0]
],
  "dcmmeta_reorient_transform": [
    [0.0, -1.0, 0.0, 103.0],
    [1.0, 0.0, 0.0, 0.0],
    [0.0, 0.0, 1.0, 0.0],
    [0.0, 0.0, 0.0, 1.0]
],
  "dcmmeta_shape": [104, 104, 60, 190],
  "dcmmeta_slice_dim": 2,
  "dcmmeta_version": 0.6,
  "global": {
    "const": {
      "AcquisitionMatrix": [104, 0, 0, 104],
      "AngioFlag": "N",
      "BitsAllocated": 16,
      "BitsStored": 16,
      "BodyPartExamined": "BRAIN",
      "Columns": 832,
      "EchoNumbers": 1,
      "EchoTime": 37.0,
      "EchoTrainLength": 104,
      "FlipAngle": 52.0,
      "HighBit": 15,
      "ImageOrientationPatient": [0.99833584816982, -0.053322818375, 0.02195931008909, 0.05756367511329, 0.94429459223615, -0.3240280024643],
      "ImagePositionPatient": [-881.84085590718, -771.46859626626, 223.05592759941],
      "ImageType": [
        "ORIGINAL",
        "PRIMARY",
        "M",
        "MB",
        "ND",
        "MOSAIC"
],
      "ImagedNucleus": "1H",
      "ImagingFrequency": 123.258924,
      "InPlanePhaseEncodingDirection": "COL",
      "MRAcquisitionType": "2D",
      "MagneticFieldStrength": 3.0,
      "Manufacturer": "SIEMENS",
      "ManufacturerModelName": "Prisma_fit",
      "Modality": "MR",
      "NumberOfAverages": 1.0,
      "NumberOfPhaseEncodingSteps": 104,
      "PercentPhaseFieldOfView": 100.0,
      "PercentSampling": 100.0,
      "PerformedProcedureStepStartTime": "141152.097000",
      "PhotometricInterpretation": "MONOCHROME2",
      "PixelBandwidth": 2290.0,
      "PixelRepresentation": 0,
      "PixelSpacing": [2.0, 2.0],
      "ProtocolName": "func_task-things_run-1",
      "RepetitionTime": 1490.0,
      "Rows": 832,
      "SAR": 0.06370845145104,
      "SamplesPerPixel": 1,
      "ScanOptions": "FS",
      "ScanningSequence": "EP",
      "SequenceName": "epfid2d1_104",
      "SequenceVariant": [
        "SK",
        "SS"
],
      "SeriesDescription": "func_task-things_run-1",
      "SeriesNumber": 10,
      "SeriesTime": "152712.416000",
      "SliceLocation": -36.522583106192,
      "SliceThickness": 2.0,
      "SmallestImagePixelValue": 0,
      "SoftwareVersions": "syngo MR E11",
      "SpacingBetweenSlices": 2.0000000111131,
      "SpecificCharacterSet": "ISO_IR 100",
      "StudyID": "1",
      "StudyTime": "141152.023000",
      "TransmitCoilName": "Body",
      "VariableFlipAngleFlag": "N",
      "WindowCenterWidthExplanation": "Algo1",
      "dBdt": 0.0},
    "slices": {}
  },
  "time": {
    "samples": {
      "AcquisitionNumber": [1, 2, 3, 4, 5, 6, 7, 8, 9, 10, 11, 12, 13, 14, 15, 16, 17, 18, 19, 20, 21, 22, 23, 24, 25, 26, 27, 28, 29, 30, 31, 32, 33, 34, 35, 36, 37, 38, 39, 40, 41, 42, 43, 44, 45, 46, 47, 48, 49, 50, 51, 52, 53, 54, 55, 56, 57, 58, 59, 60, 61, 62, 63, 64, 65, 66, 67, 68, 69, 70, 71, 72, 73, 74, 75, 76, 77, 78, 79, 80, 81, 82, 83, 84, 85, 86, 87, 88, 89, 90, 91, 92, 93, 94, 95, 96, 97, 98, 99, 100, 101, 102, 103, 104, 105, 106, 107, 108, 109, 110, 111, 112, 113, 114, 115, 116, 117, 118, 119, 120, 121, 122, 123, 124, 125, 126, 127, 128, 129, 130, 131, 132, 133, 134, 135, 136, 137, 138, 139, 140, 141, 142, 143, 144, 145, 146, 147, 148, 149, 150, 151, 152, 153, 154, 155, 156, 157, 158, 159, 160, 161, 162, 163, 164, 165, 166, 167, 168, 169, 170, 171, 172, 173, 174, 175, 176, 177, 178, 179, 180, 181, 182, 183, 184, 185, 186, 187, 188, 189, 190],
      "AcquisitionTime": ["152602.195000", "152603.685000", "152605.175000", "152606.665000", "152608.155000", "152609.645000", "152611.135000", "152612.625000", "152614.115000", "152615.605000", "152617.095000", "152618.585000", "152620.075000", "152621.565000", "152623.055000", "152624.545000", "152626.035000", "152627.525000", "152629.015000", "152630.505000", "152631.995000", "152633.485000", "152634.975000", "152636.465000", "152637.955000", "152639.445000", "152640.935000", "152642.425000", "152643.915000", "152645.405000", "152646.895000", "152648.385000", "152649.875000", "152651.365000", "152652.855000", "152654.345000", "152655.835000", "152657.325000", "152658.815000", "152700.305000", "152701.795000", "152703.285000", "152704.775000", "152706.265000", "152707.755000", "152709.245000", "152710.735000", "152712.225000", "152713.715000", "152715.205000", "152716.695000", "152718.185000", "152719.675000", "152721.165000", "152722.655000", "152724.145000", "152725.635000", "152727.125000", "152728.615000", "152730.105000", "152731.595000", "152733.085000", "152734.575000", "152736.065000", "152737.555000", "152739.045000", "152740.535000", "152742.025000", "152743.515000", "152745.005000", "152746.495000", "152747.985000", "152749.475000", "152750.965000", "152752.455000", "152753.945000", "152755.435000", "152756.925000", "152758.415000", "152759.905000", "152801.395000", "152802.885000", "152804.375000", "152805.865000", "152807.355000", "152808.845000", "152810.335000", "152811.825000", "152813.315000", "152814.805000", "152816.295000", "152817.785000", "152819.275000", "152820.765000", "152822.255000", "152823.745000", "152825.235000", "152826.725000", "152828.215000", "152829.705000", "152831.195000", "152832.685000", "152834.175000", "152835.665000", "152837.155000", "152838.645000", "152840.135000", "152841.625000", "152843.115000", "152844.605000", "152846.095000", "152847.585000", "152849.075000", "152850.565000", "152852.055000", "152853.545000", "152855.035000", "152856.525000", "152858.015000", "152859.505000", "152900.995000", "152902.485000", "152903.975000", "152905.465000", "152906.955000", "152908.445000", "152909.935000", "152911.425000", "152912.915000", "152914.405000", "152915.895000", "152917.385000", "152918.875000", "152920.365000", "152921.855000", "152923.345000", "152924.835000", "152926.325000", "152927.815000", "152929.305000", "152930.795000", "152932.285000", "152933.775000", "152935.265000", "152936.755000", "152938.245000", "152939.735000", "152941.225000", "152942.715000", "152944.205000", "152945.695000", "152947.185000", "152948.675000", "152950.165000", "152951.655000", "152953.145000", "152954.635000", "152956.125000", "152957.615000", "152959.105000", "153000.595000", "153002.085000", "153003.575000", "153005.065000", "153006.555000", "153008.045000", "153009.535000", "153011.025000", "153012.515000", "153014.005000", "153015.495000", "153016.985000", "153018.475000", "153019.965000", "153021.455000", "153022.945000", "153024.435000", "153025.925000", "153027.415000", "153028.905000", "153030.395000", "153031.885000", "153033.375000", "153034.865000", "153036.355000", "153037.845000", "153039.335000", "153040.825000", "153042.315000", "153043.805000"],
      "ContentTime": ["152712.419000", "152712.423000", "152712.426000", "152712.430000", "152712.439000", "152712.443000", "152712.446000", "152712.449000", "152712.453000", "152712.456000", "152712.460000", "152712.463000", "152712.471000", "152712.474000", "152712.478000", "152712.481000", "152712.485000", "152732.389000", "152732.393000", "152732.396000", "152732.400000", "152732.403000", "152732.407000", "152732.410000", "152732.413000", "152732.417000", "152732.420000", "152732.424000", "152732.427000", "152732.431000", "152732.434000", "152732.437000", "152732.441000", "152732.444000", "152732.448000", "152732.451000", "152732.454000", "152752.388000", "152752.392000", "152752.396000", "152752.399000", "152752.403000", "152752.406000", "152752.410000", "152752.413000", "152752.416000", "152752.420000", "152752.423000", "152752.427000", "152752.430000", "152752.433000", "152752.437000", "152752.440000", "152752.444000", "152752.447000", "152752.450000", "152752.454000", "152812.389000", "152812.393000", "152812.396000", "152812.400000", "152812.404000", "152812.407000", "152812.410000", "152812.414000", "152812.417000", "152812.421000", "152812.424000", "152812.427000", "152812.431000", "152812.434000", "152812.438000", "152812.441000", "152812.444000", "152812.448000", "152812.451000", "152812.454000", "152832.389000", "152832.393000", "152832.396000", "152832.400000", "152832.404000", "152832.407000", "152832.410000", "152832.414000", "152832.417000", "152832.432000", "152832.435000", "152832.439000", "152832.444000", "152832.448000", "152832.452000", "152832.456000", "152832.460000", "152832.463000", "152832.467000", "152832.470000", "152912.389000", "152912.393000", "152912.397000", "152912.400000", "152912.404000", "152912.407000", "152912.410000", "152912.414000", "152912.417000", "152912.421000", "152912.424000", "152912.427000", "152912.431000", "152912.434000", "152912.438000", "152912.441000", "152912.445000", "152912.448000", "152912.451000", "152912.455000", "152912.458000", "152912.462000", "152912.465000", "152912.469000", "152912.472000", "152912.476000", "152912.479000", "152912.482000", "152912.486000", "152912.489000", "152952.389000", "152952.393000", "152952.397000", "152952.400000", "152952.404000", "152952.407000", "152952.410000", "152952.414000", "152952.417000", "152952.421000", "152952.424000", "152952.427000", "152952.431000", "152952.434000", "152952.438000", "152952.441000", "152952.445000", "152952.448000", "152952.451000", "152952.455000", "152952.458000", "152952.462000", "152952.465000", "152952.468000", "152952.472000", "152952.475000", "152952.479000", "153032.390000", "153032.394000", "153032.398000", "153032.402000", "153032.406000", "153032.410000", "153032.413000", "153032.417000", "153032.420000", "153032.423000", "153032.427000", "153032.430000", "153032.434000", "153032.437000", "153032.441000", "153032.444000", "153032.448000", "153032.451000", "153032.454000", "153032.458000", "153032.461000", "153032.465000", "153032.468000", "153032.472000", "153032.475000", "153032.478000", "153045.874000", "153045.878000", "153045.888000", "153045.891000", "153045.895000", "153045.898000", "153045.922000", "153045.926000", "153045.929000", "153045.933000"],
      "InstanceCreationTime": ["152712.419000", "152712.423000", "152712.426000", "152712.430000", "152712.439000", "152712.443000", "152712.446000", "152712.449000", "152712.453000", "152712.456000", "152712.460000", "152712.463000", "152712.471000", "152712.474000", "152712.478000", "152712.481000", "152712.485000", "152732.389000", "152732.393000", "152732.396000", "152732.400000", "152732.403000", "152732.407000", "152732.410000", "152732.413000", "152732.417000", "152732.420000", "152732.424000", "152732.427000", "152732.431000", "152732.434000", "152732.437000", "152732.441000", "152732.444000", "152732.448000", "152732.451000", "152732.454000", "152752.388000", "152752.392000", "152752.396000", "152752.399000", "152752.403000", "152752.406000", "152752.410000", "152752.413000", "152752.416000", "152752.420000", "152752.423000", "152752.427000", "152752.430000", "152752.433000", "152752.437000", "152752.440000", "152752.444000", "152752.447000", "152752.450000", "152752.454000", "152812.389000", "152812.393000", "152812.396000", "152812.400000", "152812.404000", "152812.407000", "152812.410000", "152812.414000", "152812.417000", "152812.421000", "152812.424000", "152812.427000", "152812.431000", "152812.434000", "152812.438000", "152812.441000", "152812.444000", "152812.448000", "152812.451000", "152812.454000", "152832.389000", "152832.393000", "152832.396000", "152832.400000", "152832.404000", "152832.407000", "152832.410000", "152832.414000", "152832.417000", "152832.432000", "152832.435000", "152832.439000", "152832.444000", "152832.448000", "152832.452000", "152832.456000", "152832.460000", "152832.463000", "152832.467000", "152832.470000", "152912.389000", "152912.393000", "152912.397000", "152912.400000", "152912.404000", "152912.407000", "152912.410000", "152912.414000", "152912.417000", "152912.421000", "152912.424000", "152912.427000", "152912.431000", "152912.434000", "152912.438000", "152912.441000", "152912.445000", "152912.448000", "152912.451000", "152912.455000", "152912.458000", "152912.462000", "152912.465000", "152912.469000", "152912.472000", "152912.476000", "152912.479000", "152912.482000", "152912.486000", "152912.489000", "152952.389000", "152952.393000", "152952.397000", "152952.400000", "152952.404000", "152952.407000", "152952.410000", "152952.414000", "152952.417000", "152952.421000", "152952.424000", "152952.427000", "152952.431000", "152952.434000", "152952.438000", "152952.441000", "152952.445000", "152952.448000", "152952.451000", "152952.455000", "152952.458000", "152952.462000", "152952.465000", "152952.468000", "152952.472000", "152952.475000", "152952.479000", "153032.390000", "153032.394000", "153032.398000", "153032.402000", "153032.406000", "153032.410000", "153032.413000", "153032.417000", "153032.420000", "153032.423000", "153032.427000", "153032.430000", "153032.434000", "153032.437000", "153032.441000", "153032.444000", "153032.448000", "153032.451000", "153032.454000", "153032.458000", "153032.461000", "153032.465000", "153032.468000", "153032.472000", "153032.475000", "153032.478000", "153045.874000", "153045.878000", "153045.888000", "153045.891000", "153045.895000", "153045.898000", "153045.922000", "153045.926000", "153045.929000", "153045.933000"],
      "InstanceNumber": [1, 2, 3, 4, 5, 6, 7, 8, 9, 10, 11, 12, 13, 14, 15, 16, 17, 18, 19, 20, 21, 22, 23, 24, 25, 26, 27, 28, 29, 30, 31, 32, 33, 34, 35, 36, 37, 38, 39, 40, 41, 42, 43, 44, 45, 46, 47, 48, 49, 50, 51, 52, 53, 54, 55, 56, 57, 58, 59, 60, 61, 62, 63, 64, 65, 66, 67, 68, 69, 70, 71, 72, 73, 74, 75, 76, 77, 78, 79, 80, 81, 82, 83, 84, 85, 86, 87, 88, 89, 90, 91, 92, 93, 94, 95, 96, 97, 98, 99, 100, 101, 102, 103, 104, 105, 106, 107, 108, 109, 110, 111, 112, 113, 114, 115, 116, 117, 118, 119, 120, 121, 122, 123, 124, 125, 126, 127, 128, 129, 130, 131, 132, 133, 134, 135, 136, 137, 138, 139, 140, 141, 142, 143, 144, 145, 146, 147, 148, 149, 150, 151, 152, 153, 154, 155, 156, 157, 158, 159, 160, 161, 162, 163, 164, 165, 166, 167, 168, 169, 170, 171, 172, 173, 174, 175, 176, 177, 178, 179, 180, 181, 182, 183, 184, 185, 186, 187, 188, 189, 190],
      "LargestImagePixelValue": [46983, 45814, 44621, 44307, 43900, 43889, 43907, 42955, 43690, 43153, 43479, 43843, 43402, 43147, 43541, 43335, 43471, 43376, 43390, 43116, 43148, 42695, 43300, 43168, 42903, 43260, 42313, 42680, 42681, 42618, 42525, 42979, 42450, 42740, 42600, 42503, 42721, 42632, 42656, 42892, 42493, 42675, 41947, 42465, 42245, 41285, 42936, 42877, 42311, 43215, 42279, 43035, 42428, 42813, 42275, 42922, 42715, 41002, 41109, 42640, 43184, 43584, 43089, 43738, 43365, 43271, 43116, 42761, 42910, 42813, 43436, 43289, 42979, 42993, 42951, 43028, 42267, 42662, 42762, 42990, 43168, 43075, 42547, 43114, 43002, 42873, 43453, 43211, 43031, 43281, 43641, 43235, 43031, 42875, 43182, 42875, 42541, 42519, 42716, 43159, 42930, 42785, 43040, 42812, 42663, 42613, 42091, 43509, 42857, 42927, 42612, 42333, 42604, 42311, 42654, 42877, 41732, 42265, 42724, 42293, 42894, 42715, 42843, 42696, 42951, 42805, 42577, 43050, 42393, 42881, 42686, 43168, 42791, 42959, 42925, 43388, 42551, 41548, 42871, 42101, 42776, 42678, 42829, 42628, 42961, 42717, 42716, 42772, 43089, 42963, 42918, 42663, 42867, 42834, 42567, 42503, 42763, 43138, 42729, 42923, 42989, 42492, 41530, 42359, 42827, 42978, 41586, 42517, 43058, 42518, 42849, 43095, 43222, 43266, 40951, 43091, 42863, 42871, 42643, 41993, 42841, 42005, 42832, 41833, 42355, 42875, 42719, 42939, 42568, 42984],
      "WindowCenter": [10594.0, 10535.0, 10499.0, 10480.0, 10478.0, 10479.0, 10478.0, 10464.0, 10474.0, 10477.0, 10480.0, 10482.0, 10470.0, 10469.0, 10482.0, 10472.0, 10478.0, 10477.0, 10477.0, 10464.0, 10468.0, 10457.0, 10460.0, 10462.0, 10451.0, 10454.0, 10450.0, 10448.0, 10448.0, 10454.0, 10464.0, 10464.0, 10464.0, 10465.0, 10458.0, 10456.0, 10454.0, 10448.0, 10454.0, 10446.0, 10439.0, 10446.0, 10443.0, 10453.0, 10450.0, 10447.0, 10484.0, 10487.0, 10460.0, 10453.0, 10448.0, 10447.0, 10448.0, 10446.0, 10441.0, 10445.0, 10454.0, 10447.0, 10438.0, 10457.0, 10461.0, 10452.0, 10445.0, 10447.0, 10448.0, 10452.0, 10488.0, 10501.0, 10495.0, 10472.0, 10443.0, 10441.0, 10417.0, 10409.0, 10470.0, 10493.0, 10452.0, 10423.0, 10407.0, 10409.0, 10434.0, 10473.0, 10485.0, 10454.0, 10429.0, 10428.0, 10440.0, 10435.0, 10420.0, 10412.0, 10416.0, 10417.0, 10432.0, 10426.0, 10425.0, 10428.0, 10429.0, 10436.0, 10424.0, 10425.0, 10426.0, 10434.0, 10457.0, 10468.0, 10464.0, 10448.0, 10438.0, 10440.0, 10428.0, 10434.0, 10436.0, 10417.0, 10419.0, 10414.0, 10429.0, 10443.0, 10441.0, 10440.0, 10445.0, 10449.0, 10454.0, 10453.0, 10465.0, 10448.0, 10443.0, 10440.0, 10444.0, 10456.0, 10440.0, 10431.0, 10438.0, 10458.0, 10454.0, 10445.0, 10437.0, 10456.0, 10454.0, 10449.0, 10445.0, 10436.0, 10456.0, 10453.0, 10452.0, 10438.0, 10446.0, 10441.0, 10437.0, 10429.0, 10438.0, 10429.0, 10434.0, 10438.0, 10435.0, 10426.0, 10412.0, 10434.0, 10438.0, 10450.0, 10446.0, 10444.0, 10429.0, 10429.0, 10432.0, 10423.0, 10443.0, 10469.0, 10453.0, 10435.0, 10414.0, 10413.0, 10435.0, 10449.0, 10446.0, 10456.0, 10437.0, 10458.0, 10449.0, 10441.0, 10442.0, 10432.0, 10423.0, 10408.0, 10422.0, 10418.0, 10418.0, 10409.0, 10416.0, 10422.0, 10447.0, 10458.0],
      "WindowWidth": [22995.0, 22815.0, 22710.0, 22650.0, 22639.0, 22634.0, 22631.0, 22598.0, 22616.0, 22626.0, 22629.0, 22633.0, 22606.0, 22602.0, 22631.0, 22614.0, 22627.0, 22623.0, 22625.0, 22595.0, 22601.0, 22580.0, 22584.0, 22591.0, 22568.0, 22570.0, 22563.0, 22556.0, 22558.0, 22572.0, 22596.0, 22595.0, 22593.0, 22597.0, 22582.0, 22580.0, 22570.0, 22557.0, 22570.0, 22552.0, 22537.0, 22554.0, 22549.0, 22571.0, 22565.0, 22563.0, 22639.0, 22646.0, 22586.0, 22567.0, 22558.0, 22553.0, 22555.0, 22551.0, 22540.0, 22545.0, 22568.0, 22560.0, 22538.0, 22579.0, 22582.0, 22560.0, 22544.0, 22547.0, 22554.0, 22564.0, 22643.0, 22675.0, 22664.0, 22608.0, 22534.0, 22529.0, 22482.0, 22461.0, 22599.0, 22654.0, 22563.0, 22491.0, 22454.0, 22460.0, 22519.0, 22611.0, 22641.0, 22569.0, 22510.0, 22506.0, 22529.0, 22520.0, 22487.0, 22467.0, 22473.0, 22478.0, 22512.0, 22499.0, 22494.0, 22504.0, 22509.0, 22525.0, 22498.0, 22494.0, 22499.0, 22518.0, 22572.0, 22599.0, 22591.0, 22554.0, 22528.0, 22531.0, 22504.0, 22515.0, 22523.0, 22481.0, 22484.0, 22475.0, 22509.0, 22541.0, 22539.0, 22539.0, 22546.0, 22555.0, 22564.0, 22561.0, 22586.0, 22552.0, 22539.0, 22530.0, 22541.0, 22566.0, 22535.0, 22516.0, 22529.0, 22574.0, 22567.0, 22545.0, 22525.0, 22566.0, 22564.0, 22557.0, 22544.0, 22525.0, 22568.0, 22563.0, 22558.0, 22527.0, 22546.0, 22536.0, 22524.0, 22505.0, 22521.0, 22507.0, 22517.0, 22525.0, 22518.0, 22498.0, 22469.0, 22518.0, 22529.0, 22552.0, 22546.0, 22540.0, 22507.0, 22507.0, 22519.0, 22497.0, 22542.0, 22603.0, 22571.0, 22524.0, 22474.0, 22474.0, 22524.0, 22555.0, 22550.0, 22571.0, 22540.0, 22577.0, 22557.0, 22539.0, 22544.0, 22520.0, 22497.0, 22463.0, 22495.0, 22490.0, 22487.0, 22466.0, 22482.0, 22496.0, 22552.0, 22579.0]
    },
    "slices": {}
  }
}