{
  "AcquisitionMatrixPE": 104,
  "AcquisitionNumber": 1,
  "AcquisitionTime": "15:58:44.285000",
  "BandwidthPerPixelPhaseEncode": 17.17,
  "BaseResolution": 104,
  "BodyPartExamined": "BRAIN",
  "CoilString": "HC1-7;NC1_2",
  "ConsistencyInfo": "N4_VE11C_LATEST_20160120",
  "ConversionSoftware": "dcm2niix",
  "ConversionSoftwareVersion": "v1.0.20190902",
  "DerivedVendorReportedEchoSpacing": 0.000560011,
  "DeviceSerialNumber": "167006",
  "DwellTime": 2.1e-06,
  "EchoTime": 0.037,
  "EchoTrainLength": 104,
  "EffectiveEchoSpacing": 0.000560011,
  "FlipAngle": 52,
  "ImageComments": "Unaliased_MB4_PE3_LB",
  "ImageOrientationPatientDICOM": [0.997922, -0.0624983, 0.0156892, 0.0643579, 0.954595, -0.29087],
  "ImageType": [
    "ORIGINAL",
    "PRIMARY",
    "P",
    "MB",
    "ND",
    "MOSAIC"
],
  "ImagingFrequency": 123.259,
  "InPlanePhaseEncodingDirectionDICOM": "COL",
  "InstitutionAddress": "Chemin_Queen-Mary_4565_Montreal_District_CA_H3W_1W5",
  "InstitutionName": "IUGM",
  "InstitutionalDepartmentName": "Department",
  "MRAcquisitionType": "2D",
  "MagneticFieldStrength": 3,
  "Manufacturer": "Siemens",
  "ManufacturersModelName": "Prisma_fit",
  "Modality": "MR",
  "MultibandAccelerationFactor": 4,
  "PartialFourier": 1,
  "PatientPosition": "HFS",
  "PercentPhaseFOV": 100,
  "PhaseEncodingDirection": "j",
  "PhaseEncodingSteps": 104,
  "PhaseResolution": 1,
  "PixelBandwidth": 2290,
  "ProcedureStepDescription": "memory_things",
  "ProtocolName": "func_task-things_run-5",
  "PulseSequenceDetails": "%CustomerSeq%_cmrr_mbep2d_bold",
  "ReceiveCoilActiveElements": "HC1-7;NC1,2",
  "ReceiveCoilName": "HeadNeck_64",
  "ReconMatrixPE": 104,
  "RepetitionTime": 1.49,
  "SAR": 0.040294,
  "ScanOptions": "FS",
  "ScanningSequence": "EP",
  "SequenceName": "epfid2d1_104",
  "SequenceVariant": "SK_SS",
  "SeriesDescription": "func_task-things_run-5",
  "SeriesNumber": 23,
  "ShimSetting": [626, -7259, -8781, 621, -11, -218, -17, -23],
  "SliceThickness": 2,
  "SliceTiming": [0, 0.785, 0.1, 0.8825, 0.1975, 0.98, 0.295, 1.08, 0.3925, 1.1775, 0.49, 1.275, 0.59, 1.3725, 0.6875, 0, 0.785, 0.1, 0.8825, 0.1975, 0.98, 0.295, 1.08, 0.3925, 1.1775, 0.49, 1.275, 0.59, 1.3725, 0.6875, 0, 0.785, 0.1, 0.8825, 0.1975, 0.98, 0.295, 1.08, 0.3925, 1.1775, 0.49, 1.275, 0.59, 1.3725, 0.6875, 0, 0.785, 0.1, 0.8825, 0.1975, 0.98, 0.295, 1.08, 0.3925, 1.1775, 0.49, 1.275, 0.59, 1.3725, 0.6875],
  "SoftwareVersions": "syngo_MR_E11",
  "SpacingBetweenSlices": 2,
  "StationName": "MRC35049",
  "TaskName": "things",
  "TotalReadoutTime": 0.0576811,
  "TxRefAmp": 234.676,
  "WipMemBlock": "623c0f35-5012-4504-8bca-01f7219b314b||Sequence: R016 ve11c/master r/e634e98; Dec 19 2017 11:00:25 by eja",
  "dcmmeta_affine": [
    [-1.995843529701233, 0.12871576845645905, -0.0064041935838758945, 100.79742431640625],
    [0.12499663978815079, 1.9091908931732178, -0.5825513005256653, -74.080322265625],
    [0.031378354877233505, 0.5817408561706543, 1.913267731666565, -51.80017852783203],
    [0.0, 0.0, 0.0, 1.0]
],
  "dcmmeta_reorient_transform": [
    [0.0, -1.0, 0.0, 103.0],
    [1.0, 0.0, 0.0, 0.0],
    [0.0, 0.0, 1.0, 0.0],
    [0.0, 0.0, 0.0, 1.0]
],
  "dcmmeta_shape": [104, 104, 60, 190],
  "dcmmeta_slice_dim": 2,
  "dcmmeta_version": 0.6,
  "global": {
    "const": {
      "AcquisitionMatrix": [104, 0, 0, 104],
      "AngioFlag": "N",
      "BitsAllocated": 16,
      "BitsStored": 16,
      "BodyPartExamined": "BRAIN",
      "Columns": 832,
      "EchoNumbers": 1,
      "EchoTime": 37.0,
      "EchoTrainLength": 104,
      "FlipAngle": 52.0,
      "HighBit": 15,
      "ImageOrientationPatient": [0.99792174519419, -0.0624983215378, 0.01568917695552, 0.06435788254213, 0.95459544170979, -0.2908704275473],
      "ImagePositionPatient": [-887.39472020193, -772.01304250846, 208.4510789653],
      "ImageType": [
        "ORIGINAL",
        "PRIMARY",
        "P",
        "MB",
        "ND",
        "MOSAIC"
],
      "ImagedNucleus": "1H",
      "ImagingFrequency": 123.258872,
      "InPlanePhaseEncodingDirection": "COL",
      "LargestImagePixelValue": 4095,
      "MRAcquisitionType": "2D",
      "MagneticFieldStrength": 3.0,
      "Manufacturer": "SIEMENS",
      "ManufacturerModelName": "Prisma_fit",
      "Modality": "MR",
      "NumberOfAverages": 1.0,
      "NumberOfPhaseEncodingSteps": 104,
      "PercentPhaseFieldOfView": 100.0,
      "PercentSampling": 100.0,
      "PerformedProcedureStepStartTime": "145915.013000",
      "PhotometricInterpretation": "MONOCHROME2",
      "PixelBandwidth": 2290.0,
      "PixelRepresentation": 0,
      "PixelSpacing": [2.0, 2.0],
      "ProtocolName": "func_task-things_run-5",
      "RepetitionTime": 1490.0,
      "RescaleIntercept": -4096.0,
      "RescaleSlope": 2.0,
      "RescaleType": "US",
      "Rows": 832,
      "SAR": 0.04029402592443,
      "SamplesPerPixel": 1,
      "ScanOptions": "FS",
      "ScanningSequence": "EP",
      "SequenceName": "epfid2d1_104",
      "SequenceVariant": [
        "SK",
        "SS"
],
      "SeriesDescription": "func_task-things_run-5",
      "SeriesNumber": 23,
      "SeriesTime": "155943.938000",
      "SliceLocation": -28.298772455574,
      "SliceThickness": 2.0,
      "SmallestImagePixelValue": 0,
      "SoftwareVersions": "syngo MR E11",
      "SpacingBetweenSlices": 2.000000059792,
      "SpecificCharacterSet": "ISO_IR 100",
      "StudyID": "1",
      "StudyTime": "145914.904000",
      "TransmitCoilName": "Body",
      "VariableFlipAngleFlag": "N",
      "WindowCenterWidthExplanation": "Algo1",
      "dBdt": 0.0},
    "slices": {}
  },
  "time": {
    "samples": {
      "AcquisitionNumber": [1, 2, 3, 4, 5, 6, 7, 8, 9, 10, 11, 12, 13, 14, 15, 16, 17, 18, 19, 20, 21, 22, 23, 24, 25, 26, 27, 28, 29, 30, 31, 32, 33, 34, 35, 36, 37, 38, 39, 40, 41, 42, 43, 44, 45, 46, 47, 48, 49, 50, 51, 52, 53, 54, 55, 56, 57, 58, 59, 60, 61, 62, 63, 64, 65, 66, 67, 68, 69, 70, 71, 72, 73, 74, 75, 76, 77, 78, 79, 80, 81, 82, 83, 84, 85, 86, 87, 88, 89, 90, 91, 92, 93, 94, 95, 96, 97, 98, 99, 100, 101, 102, 103, 104, 105, 106, 107, 108, 109, 110, 111, 112, 113, 114, 115, 116, 117, 118, 119, 120, 121, 122, 123, 124, 125, 126, 127, 128, 129, 130, 131, 132, 133, 134, 135, 136, 137, 138, 139, 140, 141, 142, 143, 144, 145, 146, 147, 148, 149, 150, 151, 152, 153, 154, 155, 156, 157, 158, 159, 160, 161, 162, 163, 164, 165, 166, 167, 168, 169, 170, 171, 172, 173, 174, 175, 176, 177, 178, 179, 180, 181, 182, 183, 184, 185, 186, 187, 188, 189, 190],
      "AcquisitionTime": ["155844.285000", "155845.775000", "155847.265000", "155848.755000", "155850.245000", "155851.735000", "155853.225000", "155854.715000", "155856.205000", "155857.695000", "155859.185000", "155900.675000", "155902.165000", "155903.655000", "155905.145000", "155906.635000", "155908.125000", "155909.615000", "155911.105000", "155912.595000", "155914.085000", "155915.575000", "155917.065000", "155918.555000", "155920.045000", "155921.535000", "155923.025000", "155924.515000", "155926.005000", "155927.495000", "155928.985000", "155930.475000", "155931.965000", "155933.455000", "155934.945000", "155936.435000", "155937.925000", "155939.415000", "155940.905000", "155942.395000", "155943.885000", "155945.375000", "155946.865000", "155948.355000", "155949.845000", "155951.335000", "155952.825000", "155954.315000", "155955.805000", "155957.295000", "155958.785000", "160000.275000", "160001.765000", "160003.255000", "160004.745000", "160006.235000", "160007.725000", "160009.215000", "160010.705000", "160012.195000", "160013.685000", "160015.175000", "160016.665000", "160018.155000", "160019.645000", "160021.135000", "160022.625000", "160024.115000", "160025.605000", "160027.095000", "160028.585000", "160030.075000", "160031.565000", "160033.055000", "160034.545000", "160036.035000", "160037.525000", "160039.015000", "160040.505000", "160041.995000", "160043.485000", "160044.975000", "160046.465000", "160047.955000", "160049.445000", "160050.935000", "160052.425000", "160053.915000", "160055.405000", "160056.895000", "160058.385000", "160059.875000", "160101.365000", "160102.855000", "160104.345000", "160105.835000", "160107.325000", "160108.815000", "160110.305000", "160111.795000", "160113.285000", "160114.775000", "160116.265000", "160117.755000", "160119.245000", "160120.735000", "160122.225000", "160123.715000", "160125.205000", "160126.695000", "160128.185000", "160129.675000", "160131.165000", "160132.655000", "160134.145000", "160135.635000", "160137.125000", "160138.615000", "160140.105000", "160141.595000", "160143.085000", "160144.575000", "160146.065000", "160147.555000", "160149.045000", "160150.535000", "160152.025000", "160153.515000", "160155.005000", "160156.495000", "160157.985000", "160159.475000", "160200.965000", "160202.455000", "160203.945000", "160205.435000", "160206.925000", "160208.415000", "160209.905000", "160211.395000", "160212.885000", "160214.375000", "160215.865000", "160217.355000", "160218.845000", "160220.335000", "160221.825000", "160223.315000", "160224.805000", "160226.295000", "160227.785000", "160229.275000", "160230.765000", "160232.255000", "160233.745000", "160235.235000", "160236.725000", "160238.215000", "160239.705000", "160241.195000", "160242.685000", "160244.175000", "160245.665000", "160247.155000", "160248.645000", "160250.135000", "160251.625000", "160253.115000", "160254.605000", "160256.095000", "160257.585000", "160259.075000", "160300.565000", "160302.055000", "160303.545000", "160305.035000", "160306.525000", "160308.015000", "160309.505000", "160310.995000", "160312.485000", "160313.975000", "160315.465000", "160316.955000", "160318.445000", "160319.935000", "160321.425000", "160322.915000", "160324.405000", "160325.895000"],
      "ContentTime": ["155943.940000", "155943.947000", "155943.950000", "155943.952000", "155943.955000", "155943.961000", "160003.961000", "160003.963000", "160003.966000", "160003.968000", "160003.971000", "160003.973000", "160003.976000", "160003.983000", "160003.986000", "160003.989000", "160003.991000", "160003.994000", "160003.996000", "160004.000000", "160004.002000", "160004.015000", "160004.017000", "160004.020000", "160004.022000", "160004.025000", "160004.027000", "160023.976000", "160023.979000", "160023.982000", "160023.984000", "160023.987000", "160023.989000", "160023.992000", "160023.994000", "160023.997000", "160024.000000", "160024.003000", "160024.005000", "160024.008000", "160024.010000", "160024.012000", "160024.015000", "160024.017000", "160024.020000", "160024.022000", "160024.025000", "160043.994000", "160043.997000", "160044.000000", "160044.002000", "160044.004000", "160044.007000", "160044.010000", "160044.022000", "160044.025000", "160044.027000", "160044.030000", "160044.042000", "160044.044000", "160044.047000", "160044.049000", "160044.052000", "160044.054000", "160044.057000", "160044.059000", "160044.062000", "160103.957000", "160103.960000", "160103.962000", "160103.965000", "160103.968000", "160103.970000", "160103.973000", "160103.975000", "160103.978000", "160103.980000", "160103.983000", "160103.985000", "160103.995000", "160103.998000", "160104.001000", "160104.004000", "160104.006000", "160104.009000", "160104.011000", "160104.014000", "160104.016000", "160144.023000", "160144.026000", "160144.029000", "160144.032000", "160144.035000", "160144.037000", "160144.040000", "160144.042000", "160144.045000", "160144.048000", "160144.050000", "160144.053000", "160144.055000", "160144.058000", "160144.060000", "160144.063000", "160144.065000", "160144.068000", "160144.070000", "160144.073000", "160144.075000", "160144.078000", "160144.080000", "160144.083000", "160144.086000", "160144.088000", "160144.091000", "160144.093000", "160144.096000", "160144.098000", "160144.101000", "160223.984000", "160223.987000", "160223.989000", "160223.992000", "160223.994000", "160223.997000", "160223.999000", "160224.002000", "160224.004000", "160224.007000", "160224.009000", "160224.012000", "160224.014000", "160224.017000", "160224.020000", "160224.022000", "160224.025000", "160224.027000", "160224.030000", "160224.032000", "160224.035000", "160224.037000", "160224.040000", "160224.042000", "160224.045000", "160224.048000", "160224.050000", "160304.008000", "160304.011000", "160304.013000", "160304.016000", "160304.019000", "160304.021000", "160304.024000", "160304.026000", "160304.029000", "160304.031000", "160304.034000", "160304.037000", "160304.039000", "160304.042000", "160304.044000", "160304.047000", "160304.049000", "160304.052000", "160304.054000", "160304.057000", "160304.060000", "160304.062000", "160304.065000", "160304.067000", "160304.070000", "160304.072000", "160304.075000", "160328.616000", "160328.619000", "160328.622000", "160328.630000", "160328.633000", "160328.635000", "160328.638000", "160328.640000", "160328.643000", "160328.645000", "160328.648000", "160328.650000", "160328.653000", "160328.655000", "160328.658000", "160328.661000", "160328.663000"],
      "InstanceCreationTime": ["155943.940000", "155943.947000", "155943.950000", "155943.952000", "155943.955000", "155943.961000", "160003.961000", "160003.963000", "160003.966000", "160003.968000", "160003.971000", "160003.973000", "160003.976000", "160003.983000", "160003.986000", "160003.989000", "160003.991000", "160003.994000", "160003.996000", "160004.000000", "160004.002000", "160004.015000", "160004.017000", "160004.020000", "160004.022000", "160004.025000", "160004.027000", "160023.976000", "160023.979000", "160023.982000", "160023.984000", "160023.987000", "160023.989000", "160023.992000", "160023.994000", "160023.997000", "160024.000000", "160024.003000", "160024.005000", "160024.008000", "160024.010000", "160024.012000", "160024.015000", "160024.017000", "160024.020000", "160024.022000", "160024.025000", "160043.994000", "160043.997000", "160044.000000", "160044.002000", "160044.004000", "160044.007000", "160044.010000", "160044.022000", "160044.025000", "160044.027000", "160044.030000", "160044.042000", "160044.044000", "160044.047000", "160044.049000", "160044.052000", "160044.054000", "160044.057000", "160044.059000", "160044.062000", "160103.957000", "160103.960000", "160103.962000", "160103.965000", "160103.968000", "160103.970000", "160103.973000", "160103.975000", "160103.978000", "160103.980000", "160103.983000", "160103.985000", "160103.995000", "160103.998000", "160104.001000", "160104.004000", "160104.006000", "160104.009000", "160104.011000", "160104.014000", "160104.016000", "160144.023000", "160144.026000", "160144.029000", "160144.032000", "160144.035000", "160144.037000", "160144.040000", "160144.042000", "160144.045000", "160144.048000", "160144.050000", "160144.053000", "160144.055000", "160144.058000", "160144.060000", "160144.063000", "160144.065000", "160144.068000", "160144.070000", "160144.073000", "160144.075000", "160144.078000", "160144.080000", "160144.083000", "160144.086000", "160144.088000", "160144.091000", "160144.093000", "160144.096000", "160144.098000", "160144.101000", "160223.984000", "160223.987000", "160223.989000", "160223.992000", "160223.994000", "160223.997000", "160223.999000", "160224.002000", "160224.004000", "160224.007000", "160224.009000", "160224.012000", "160224.014000", "160224.017000", "160224.020000", "160224.022000", "160224.025000", "160224.027000", "160224.030000", "160224.032000", "160224.035000", "160224.037000", "160224.040000", "160224.042000", "160224.045000", "160224.048000", "160224.050000", "160304.008000", "160304.011000", "160304.013000", "160304.016000", "160304.019000", "160304.021000", "160304.024000", "160304.026000", "160304.029000", "160304.031000", "160304.034000", "160304.037000", "160304.039000", "160304.042000", "160304.044000", "160304.047000", "160304.049000", "160304.052000", "160304.054000", "160304.057000", "160304.060000", "160304.062000", "160304.065000", "160304.067000", "160304.070000", "160304.072000", "160304.075000", "160328.616000", "160328.619000", "160328.622000", "160328.630000", "160328.633000", "160328.635000", "160328.638000", "160328.640000", "160328.643000", "160328.645000", "160328.648000", "160328.650000", "160328.653000", "160328.655000", "160328.658000", "160328.661000", "160328.663000"],
      "InstanceNumber": [1, 2, 3, 4, 5, 6, 7, 8, 9, 10, 11, 12, 13, 14, 15, 16, 17, 18, 19, 20, 21, 22, 23, 24, 25, 26, 27, 28, 29, 30, 31, 32, 33, 34, 35, 36, 37, 38, 39, 40, 41, 42, 43, 44, 45, 46, 47, 48, 49, 50, 51, 52, 53, 54, 55, 56, 57, 58, 59, 60, 61, 62, 63, 64, 65, 66, 67, 68, 69, 70, 71, 72, 73, 74, 75, 76, 77, 78, 79, 80, 81, 82, 83, 84, 85, 86, 87, 88, 89, 90, 91, 92, 93, 94, 95, 96, 97, 98, 99, 100, 101, 102, 103, 104, 105, 106, 107, 108, 109, 110, 111, 112, 113, 114, 115, 116, 117, 118, 119, 120, 121, 122, 123, 124, 125, 126, 127, 128, 129, 130, 131, 132, 133, 134, 135, 136, 137, 138, 139, 140, 141, 142, 143, 144, 145, 146, 147, 148, 149, 150, 151, 152, 153, 154, 155, 156, 157, 158, 159, 160, 161, 162, 163, 164, 165, 166, 167, 168, 169, 170, 171, 172, 173, 174, 175, 176, 177, 178, 179, 180, 181, 182, 183, 184, 185, 186, 187, 188, 189, 190],
      "WindowCenter": [4878.0, 4904.0, 4900.0, 4898.0, 4876.0, 4898.0, 4880.0, 4878.0, 4878.0, 4878.0, 4878.0, 4874.0, 4830.0, 4834.0, 4876.0, 4878.0, 4852.0, 4852.0, 4878.0, 4878.0, 4878.0, 4800.0, 4800.0, 4776.0, 4832.0, 4876.0, 4884.0, 4862.0, 4884.0, 4878.0, 4880.0, 4876.0, 4834.0, 4776.0, 4798.0, 4870.0, 4880.0, 4852.0, 4852.0, 4870.0, 4858.0, 4826.0, 4836.0, 4866.0, 4872.0, 4900.0, 4876.0, 4876.0, 4880.0, 4838.0, 4864.0, 4870.0, 4874.0, 4878.0, 4876.0, 4876.0, 4874.0, 4872.0, 4874.0, 4878.0, 4876.0, 4878.0, 4876.0, 4876.0, 4880.0, 4878.0, 4866.0, 4836.0, 4872.0, 4878.0, 4872.0, 4872.0, 4842.0, 4874.0, 4878.0, 4878.0, 4878.0, 4876.0, 4830.0, 4798.0, 4806.0, 4832.0, 4874.0, 4874.0, 4878.0, 4874.0, 4874.0, 4898.0, 4872.0, 4874.0, 4874.0, 4878.0, 4876.0, 4876.0, 4872.0, 4874.0, 4874.0, 4874.0, 4876.0, 4828.0, 4804.0, 4868.0, 4876.0, 4872.0, 4874.0, 4874.0, 4874.0, 4876.0, 4872.0, 4874.0, 4870.0, 4880.0, 4876.0, 4876.0, 4840.0, 4810.0, 4838.0, 4902.0, 4872.0, 4854.0, 4854.0, 4852.0, 4876.0, 4878.0, 4872.0, 4870.0, 4868.0, 4810.0, 4804.0, 4874.0, 4874.0, 4848.0, 4850.0, 4872.0, 4874.0, 4878.0, 4874.0, 4868.0, 4868.0, 4868.0, 4774.0, 4804.0, 4864.0, 4870.0, 4878.0, 4878.0, 4876.0, 4872.0, 4862.0, 4864.0, 4866.0, 4840.0, 4860.0, 4840.0, 4868.0, 4876.0, 4874.0, 4872.0, 4872.0, 4876.0, 4872.0, 4776.0, 4776.0, 4832.0, 4868.0, 4876.0, 4878.0, 4880.0, 4878.0, 4876.0, 4878.0, 4836.0, 4800.0, 4798.0, 4834.0, 4876.0, 4874.0, 4872.0, 4876.0, 4874.0, 4870.0, 4842.0, 4866.0, 4876.0, 4878.0, 4880.0, 4878.0, 4872.0, 4902.0, 4904.0],
      "WindowWidth": [18682.0, 18708.0, 18712.0, 18718.0, 18692.0, 18720.0, 18674.0, 18680.0, 18684.0, 18676.0, 18672.0, 18688.0, 18642.0, 18640.0, 18686.0, 18666.0, 18622.0, 18616.0, 18660.0, 18672.0, 18676.0, 18600.0, 18600.0, 18572.0, 18646.0, 18672.0, 18672.0, 18628.0, 18666.0, 18664.0, 18668.0, 18680.0, 18642.0, 18566.0, 18602.0, 18686.0, 18680.0, 18628.0, 18624.0, 18688.0, 18680.0, 18636.0, 18650.0, 18684.0, 18688.0, 18708.0, 18670.0, 18664.0, 18686.0, 18652.0, 18682.0, 18688.0, 18694.0, 18688.0, 18688.0, 18690.0, 18692.0, 18688.0, 18686.0, 18678.0, 18670.0, 18672.0, 18672.0, 18672.0, 18672.0, 18676.0, 18680.0, 18640.0, 18690.0, 18686.0, 18668.0, 18670.0, 18652.0, 18676.0, 18670.0, 18672.0, 18668.0, 18660.0, 18638.0, 18602.0, 18608.0, 18648.0, 18692.0, 18676.0, 18666.0, 18666.0, 18678.0, 18718.0, 18686.0, 18690.0, 18688.0, 18688.0, 18684.0, 18678.0, 18676.0, 18668.0, 18672.0, 18670.0, 18684.0, 18642.0, 18606.0, 18688.0, 18684.0, 18668.0, 18672.0, 18670.0, 18672.0, 18674.0, 18690.0, 18692.0, 18684.0, 18696.0, 18682.0, 18688.0, 18650.0, 18604.0, 18644.0, 18720.0, 18662.0, 18630.0, 18632.0, 18636.0, 18676.0, 18686.0, 18686.0, 18680.0, 18684.0, 18608.0, 18602.0, 18692.0, 18666.0, 18632.0, 18630.0, 18664.0, 18686.0, 18686.0, 18686.0, 18686.0, 18682.0, 18682.0, 18564.0, 18606.0, 18682.0, 18680.0, 18680.0, 18688.0, 18682.0, 18686.0, 18680.0, 18680.0, 18686.0, 18650.0, 18674.0, 18650.0, 18684.0, 18680.0, 18674.0, 18668.0, 18668.0, 18680.0, 18682.0, 18562.0, 18560.0, 18638.0, 18674.0, 18680.0, 18672.0, 18668.0, 18666.0, 18666.0, 18682.0, 18642.0, 18594.0, 18596.0, 18640.0, 18692.0, 18682.0, 18684.0, 18680.0, 18676.0, 18688.0, 18650.0, 18680.0, 18690.0, 18690.0, 18686.0, 18684.0, 18682.0, 18722.0, 18718.0]
    },
    "slices": {}
  }
}