{
  "AcquisitionMatrixPE": 104,
  "AcquisitionNumber": 1,
  "AcquisitionTime": "15:32:59.910000",
  "BandwidthPerPixelPhaseEncode": 17.17,
  "BaseResolution": 104,
  "BodyPartExamined": "BRAIN",
  "CoilString": "HC1-7;NC1_2",
  "ConsistencyInfo": "N4_VE11C_LATEST_20160120",
  "ConversionSoftware": "dcm2niix",
  "ConversionSoftwareVersion": "v1.0.20190902",
  "DerivedVendorReportedEchoSpacing": 0.000560011,
  "DeviceSerialNumber": "167006",
  "DwellTime": 2.1e-06,
  "EchoTime": 0.037,
  "EchoTrainLength": 104,
  "EffectiveEchoSpacing": 0.000560011,
  "FlipAngle": 52,
  "ImageComments": "Unaliased_MB4_PE3_LB",
  "ImageOrientationPatientDICOM": [0.997922, -0.0624983, 0.0156892, 0.0643579, 0.954595, -0.29087],
  "ImageType": [
    "ORIGINAL",
    "PRIMARY",
    "P",
    "MB",
    "ND",
    "MOSAIC"
],
  "ImagingFrequency": 123.259,
  "InPlanePhaseEncodingDirectionDICOM": "COL",
  "InstitutionAddress": "Chemin_Queen-Mary_4565_Montreal_District_CA_H3W_1W5",
  "InstitutionName": "IUGM",
  "InstitutionalDepartmentName": "Department",
  "MRAcquisitionType": "2D",
  "MagneticFieldStrength": 3,
  "Manufacturer": "Siemens",
  "ManufacturersModelName": "Prisma_fit",
  "Modality": "MR",
  "MultibandAccelerationFactor": 4,
  "PartialFourier": 1,
  "PatientPosition": "HFS",
  "PercentPhaseFOV": 100,
  "PhaseEncodingDirection": "j",
  "PhaseEncodingSteps": 104,
  "PhaseResolution": 1,
  "PixelBandwidth": 2290,
  "ProcedureStepDescription": "memory_things",
  "ProtocolName": "func_task-things_run-2",
  "PulseSequenceDetails": "%CustomerSeq%_cmrr_mbep2d_bold",
  "ReceiveCoilActiveElements": "HC1-7;NC1,2",
  "ReceiveCoilName": "HeadNeck_64",
  "ReconMatrixPE": 104,
  "RepetitionTime": 1.49,
  "SAR": 0.040294,
  "ScanOptions": "FS",
  "ScanningSequence": "EP",
  "SequenceName": "epfid2d1_104",
  "SequenceVariant": "SK_SS",
  "SeriesDescription": "func_task-things_run-2",
  "SeriesNumber": 14,
  "ShimSetting": [626, -7259, -8781, 621, -11, -218, -17, -23],
  "SliceThickness": 2,
  "SliceTiming": [0, 0.7825, 0.0975, 0.88, 0.195, 0.98, 0.2925, 1.0775, 0.39, 1.175, 0.49, 1.2725, 0.5875, 1.37, 0.685, 0, 0.7825, 0.0975, 0.88, 0.195, 0.98, 0.2925, 1.0775, 0.39, 1.175, 0.49, 1.2725, 0.5875, 1.37, 0.685, 0, 0.7825, 0.0975, 0.88, 0.195, 0.98, 0.2925, 1.0775, 0.39, 1.175, 0.49, 1.2725, 0.5875, 1.37, 0.685, 0, 0.7825, 0.0975, 0.88, 0.195, 0.98, 0.2925, 1.0775, 0.39, 1.175, 0.49, 1.2725, 0.5875, 1.37, 0.685],
  "SoftwareVersions": "syngo_MR_E11",
  "SpacingBetweenSlices": 2,
  "StationName": "MRC35049",
  "TaskName": "things",
  "TotalReadoutTime": 0.0576811,
  "TxRefAmp": 234.676,
  "WipMemBlock": "0952f1c5-6893-4153-8bd1-f312ef45ae12||Sequence: R016 ve11c/master r/e634e98; Dec 19 2017 11:00:25 by eja",
  "dcmmeta_affine": [
    [-1.995843529701233, 0.12871576845645905, -0.0064041935838758945, 100.79742431640625],
    [0.12499663978815079, 1.9091908931732178, -0.5825513005256653, -74.080322265625],
    [0.031378354877233505, 0.5817408561706543, 1.913267731666565, -51.80017852783203],
    [0.0, 0.0, 0.0, 1.0]
],
  "dcmmeta_reorient_transform": [
    [0.0, -1.0, 0.0, 103.0],
    [1.0, 0.0, 0.0, 0.0],
    [0.0, 0.0, 1.0, 0.0],
    [0.0, 0.0, 0.0, 1.0]
],
  "dcmmeta_shape": [104, 104, 60, 190],
  "dcmmeta_slice_dim": 2,
  "dcmmeta_version": 0.6,
  "global": {
    "const": {
      "AcquisitionMatrix": [104, 0, 0, 104],
      "AngioFlag": "N",
      "BitsAllocated": 16,
      "BitsStored": 16,
      "BodyPartExamined": "BRAIN",
      "Columns": 832,
      "EchoNumbers": 1,
      "EchoTime": 37.0,
      "EchoTrainLength": 104,
      "FlipAngle": 52.0,
      "HighBit": 15,
      "ImageOrientationPatient": [0.99792174519419, -0.0624983215378, 0.01568917695552, 0.06435788254213, 0.95459544170979, -0.2908704275473],
      "ImagePositionPatient": [-887.39472020193, -772.01304250846, 208.4510789653],
      "ImageType": [
        "ORIGINAL",
        "PRIMARY",
        "P",
        "MB",
        "ND",
        "MOSAIC"
],
      "ImagedNucleus": "1H",
      "ImagingFrequency": 123.258862,
      "InPlanePhaseEncodingDirection": "COL",
      "LargestImagePixelValue": 4095,
      "MRAcquisitionType": "2D",
      "MagneticFieldStrength": 3.0,
      "Manufacturer": "SIEMENS",
      "ManufacturerModelName": "Prisma_fit",
      "Modality": "MR",
      "NumberOfAverages": 1.0,
      "NumberOfPhaseEncodingSteps": 104,
      "PercentPhaseFieldOfView": 100.0,
      "PercentSampling": 100.0,
      "PerformedProcedureStepStartTime": "145915.013000",
      "PhotometricInterpretation": "MONOCHROME2",
      "PixelBandwidth": 2290.0,
      "PixelRepresentation": 0,
      "PixelSpacing": [2.0, 2.0],
      "ProtocolName": "func_task-things_run-2",
      "RepetitionTime": 1490.0,
      "RescaleIntercept": -4096.0,
      "RescaleSlope": 2.0,
      "RescaleType": "US",
      "Rows": 832,
      "SAR": 0.04029402592443,
      "SamplesPerPixel": 1,
      "ScanOptions": "FS",
      "ScanningSequence": "EP",
      "SequenceName": "epfid2d1_104",
      "SequenceVariant": [
        "SK",
        "SS"
],
      "SeriesDescription": "func_task-things_run-2",
      "SeriesNumber": 14,
      "SeriesTime": "153424.022000",
      "SliceLocation": -28.298772455574,
      "SliceThickness": 2.0,
      "SmallestImagePixelValue": 0,
      "SoftwareVersions": "syngo MR E11",
      "SpacingBetweenSlices": 2.000000059792,
      "SpecificCharacterSet": "ISO_IR 100",
      "StudyID": "1",
      "StudyTime": "145914.904000",
      "TransmitCoilName": "Body",
      "VariableFlipAngleFlag": "N",
      "WindowCenterWidthExplanation": "Algo1",
      "dBdt": 0.0},
    "slices": {}
  },
  "time": {
    "samples": {
      "AcquisitionNumber": [1, 2, 3, 4, 5, 6, 7, 8, 9, 10, 11, 12, 13, 14, 15, 16, 17, 18, 19, 20, 21, 22, 23, 24, 25, 26, 27, 28, 29, 30, 31, 32, 33, 34, 35, 36, 37, 38, 39, 40, 41, 42, 43, 44, 45, 46, 47, 48, 49, 50, 51, 52, 53, 54, 55, 56, 57, 58, 59, 60, 61, 62, 63, 64, 65, 66, 67, 68, 69, 70, 71, 72, 73, 74, 75, 76, 77, 78, 79, 80, 81, 82, 83, 84, 85, 86, 87, 88, 89, 90, 91, 92, 93, 94, 95, 96, 97, 98, 99, 100, 101, 102, 103, 104, 105, 106, 107, 108, 109, 110, 111, 112, 113, 114, 115, 116, 117, 118, 119, 120, 121, 122, 123, 124, 125, 126, 127, 128, 129, 130, 131, 132, 133, 134, 135, 136, 137, 138, 139, 140, 141, 142, 143, 144, 145, 146, 147, 148, 149, 150, 151, 152, 153, 154, 155, 156, 157, 158, 159, 160, 161, 162, 163, 164, 165, 166, 167, 168, 169, 170, 171, 172, 173, 174, 175, 176, 177, 178, 179, 180, 181, 182, 183, 184, 185, 186, 187, 188, 189, 190],
      "AcquisitionTime": ["153259.910000", "153301.400000", "153302.890000", "153304.380000", "153305.870000", "153307.360000", "153308.850000", "153310.340000", "153311.830000", "153313.320000", "153314.810000", "153316.300000", "153317.790000", "153319.280000", "153320.770000", "153322.260000", "153323.750000", "153325.240000", "153326.730000", "153328.220000", "153329.710000", "153331.200000", "153332.690000", "153334.180000", "153335.670000", "153337.160000", "153338.650000", "153340.140000", "153341.630000", "153343.120000", "153344.610000", "153346.100000", "153347.590000", "153349.080000", "153350.570000", "153352.060000", "153353.550000", "153355.040000", "153356.530000", "153358.020000", "153359.510000", "153401.000000", "153402.490000", "153403.980000", "153405.470000", "153406.960000", "153408.450000", "153409.940000", "153411.430000", "153412.920000", "153414.410000", "153415.900000", "153417.390000", "153418.880000", "153420.370000", "153421.860000", "153423.350000", "153424.840000", "153426.330000", "153427.820000", "153429.310000", "153430.800000", "153432.290000", "153433.780000", "153435.270000", "153436.760000", "153438.250000", "153439.740000", "153441.230000", "153442.720000", "153444.210000", "153445.700000", "153447.190000", "153448.680000", "153450.170000", "153451.660000", "153453.150000", "153454.640000", "153456.130000", "153457.620000", "153459.110000", "153500.600000", "153502.090000", "153503.580000", "153505.070000", "153506.560000", "153508.050000", "153509.540000", "153511.030000", "153512.520000", "153514.010000", "153515.500000", "153516.990000", "153518.480000", "153519.970000", "153521.460000", "153522.950000", "153524.440000", "153525.930000", "153527.420000", "153528.910000", "153530.400000", "153531.890000", "153533.380000", "153534.870000", "153536.360000", "153537.850000", "153539.340000", "153540.830000", "153542.320000", "153543.810000", "153545.300000", "153546.790000", "153548.280000", "153549.770000", "153551.260000", "153552.750000", "153554.240000", "153555.730000", "153557.220000", "153558.710000", "153600.200000", "153601.690000", "153603.180000", "153604.670000", "153606.160000", "153607.650000", "153609.140000", "153610.630000", "153612.120000", "153613.610000", "153615.100000", "153616.590000", "153618.080000", "153619.570000", "153621.060000", "153622.550000", "153624.040000", "153625.530000", "153627.020000", "153628.510000", "153630.000000", "153631.490000", "153632.980000", "153634.470000", "153635.960000", "153637.450000", "153638.940000", "153640.430000", "153641.920000", "153643.410000", "153644.900000", "153646.390000", "153647.880000", "153649.370000", "153650.860000", "153652.350000", "153653.840000", "153655.330000", "153656.820000", "153658.310000", "153659.800000", "153701.290000", "153702.780000", "153704.270000", "153705.760000", "153707.250000", "153708.740000", "153710.230000", "153711.720000", "153713.210000", "153714.700000", "153716.190000", "153717.680000", "153719.170000", "153720.660000", "153722.150000", "153723.640000", "153725.130000", "153726.620000", "153728.110000", "153729.600000", "153731.090000", "153732.580000", "153734.070000", "153735.560000", "153737.050000", "153738.540000", "153740.030000", "153741.520000"],
      "ContentTime": ["153424.024000", "153424.027000", "153424.030000", "153424.032000", "153424.035000", "153424.037000", "153424.040000", "153424.042000", "153424.045000", "153424.047000", "153424.050000", "153424.052000", "153424.060000", "153424.062000", "153424.065000", "153424.067000", "153424.070000", "153424.072000", "153424.075000", "153424.077000", "153424.080000", "153424.082000", "153424.085000", "153424.087000", "153424.090000", "153424.093000", "153424.096000", "153424.098000", "153424.100000", "153424.103000", "153424.105000", "153443.964000", "153443.967000", "153443.970000", "153443.972000", "153443.975000", "153443.977000", "153443.980000", "153443.982000", "153443.984000", "153443.987000", "153443.989000", "153443.992000", "153443.994000", "153443.997000", "153444.000000", "153444.003000", "153444.005000", "153444.008000", "153444.010000", "153444.013000", "153503.952000", "153503.955000", "153503.966000", "153503.969000", "153503.971000", "153503.974000", "153503.976000", "153503.978000", "153503.981000", "153503.983000", "153503.986000", "153503.988000", "153503.991000", "153503.993000", "153503.996000", "153503.998000", "153504.002000", "153504.004000", "153504.007000", "153504.009000", "153523.963000", "153523.965000", "153523.968000", "153523.970000", "153523.973000", "153523.975000", "153523.978000", "153523.980000", "153523.983000", "153523.985000", "153523.988000", "153523.990000", "153523.993000", "153523.995000", "153523.998000", "153524.001000", "153524.004000", "153524.006000", "153524.017000", "153524.020000", "153524.022000", "153603.987000", "153603.990000", "153603.993000", "153603.995000", "153603.998000", "153604.009000", "153604.012000", "153604.014000", "153604.017000", "153604.019000", "153604.022000", "153604.024000", "153604.027000", "153604.029000", "153604.032000", "153604.034000", "153604.037000", "153604.039000", "153604.042000", "153604.044000", "153604.047000", "153604.049000", "153604.052000", "153604.054000", "153604.057000", "153604.059000", "153604.062000", "153604.065000", "153604.067000", "153604.069000", "153644.007000", "153644.010000", "153644.012000", "153644.015000", "153644.017000", "153644.020000", "153644.022000", "153644.025000", "153644.028000", "153644.030000", "153644.033000", "153644.035000", "153644.038000", "153644.040000", "153644.043000", "153644.045000", "153644.048000", "153644.050000", "153644.053000", "153644.055000", "153644.058000", "153644.060000", "153644.063000", "153644.065000", "153644.068000", "153644.070000", "153644.072000", "153723.997000", "153724.000000", "153724.003000", "153724.005000", "153724.008000", "153724.010000", "153724.013000", "153724.015000", "153724.018000", "153724.020000", "153724.023000", "153724.025000", "153724.027000", "153724.030000", "153724.032000", "153724.035000", "153724.037000", "153724.040000", "153724.042000", "153724.045000", "153724.047000", "153724.050000", "153724.052000", "153724.055000", "153724.057000", "153724.060000", "153724.062000", "153744.292000", "153744.295000", "153744.297000", "153744.300000", "153744.302000", "153744.305000", "153744.307000", "153744.310000", "153744.313000", "153744.315000", "153744.318000", "153744.320000", "153744.323000", "153744.325000"],
      "InstanceCreationTime": ["153424.024000", "153424.027000", "153424.030000", "153424.032000", "153424.035000", "153424.037000", "153424.040000", "153424.042000", "153424.045000", "153424.047000", "153424.050000", "153424.052000", "153424.060000", "153424.062000", "153424.065000", "153424.067000", "153424.070000", "153424.072000", "153424.075000", "153424.077000", "153424.080000", "153424.082000", "153424.085000", "153424.087000", "153424.090000", "153424.093000", "153424.096000", "153424.098000", "153424.100000", "153424.103000", "153424.105000", "153443.964000", "153443.967000", "153443.970000", "153443.972000", "153443.975000", "153443.977000", "153443.980000", "153443.982000", "153443.984000", "153443.987000", "153443.989000", "153443.992000", "153443.994000", "153443.997000", "153444.000000", "153444.003000", "153444.005000", "153444.008000", "153444.010000", "153444.013000", "153503.952000", "153503.955000", "153503.966000", "153503.969000", "153503.971000", "153503.974000", "153503.976000", "153503.978000", "153503.981000", "153503.983000", "153503.986000", "153503.988000", "153503.991000", "153503.993000", "153503.996000", "153503.998000", "153504.002000", "153504.004000", "153504.007000", "153504.009000", "153523.963000", "153523.965000", "153523.968000", "153523.970000", "153523.973000", "153523.975000", "153523.978000", "153523.980000", "153523.983000", "153523.985000", "153523.988000", "153523.990000", "153523.993000", "153523.995000", "153523.998000", "153524.001000", "153524.004000", "153524.006000", "153524.017000", "153524.020000", "153524.022000", "153603.987000", "153603.990000", "153603.993000", "153603.995000", "153603.998000", "153604.009000", "153604.012000", "153604.014000", "153604.017000", "153604.019000", "153604.022000", "153604.024000", "153604.027000", "153604.029000", "153604.032000", "153604.034000", "153604.037000", "153604.039000", "153604.042000", "153604.044000", "153604.047000", "153604.049000", "153604.052000", "153604.054000", "153604.057000", "153604.059000", "153604.062000", "153604.065000", "153604.067000", "153604.069000", "153644.007000", "153644.010000", "153644.012000", "153644.015000", "153644.017000", "153644.020000", "153644.022000", "153644.025000", "153644.028000", "153644.030000", "153644.033000", "153644.035000", "153644.038000", "153644.040000", "153644.043000", "153644.045000", "153644.048000", "153644.050000", "153644.053000", "153644.055000", "153644.058000", "153644.060000", "153644.063000", "153644.065000", "153644.068000", "153644.070000", "153644.072000", "153723.997000", "153724.000000", "153724.003000", "153724.005000", "153724.008000", "153724.010000", "153724.013000", "153724.015000", "153724.018000", "153724.020000", "153724.023000", "153724.025000", "153724.027000", "153724.030000", "153724.032000", "153724.035000", "153724.037000", "153724.040000", "153724.042000", "153724.045000", "153724.047000", "153724.050000", "153724.052000", "153724.055000", "153724.057000", "153724.060000", "153724.062000", "153744.292000", "153744.295000", "153744.297000", "153744.300000", "153744.302000", "153744.305000", "153744.307000", "153744.310000", "153744.313000", "153744.315000", "153744.318000", "153744.320000", "153744.323000", "153744.325000"],
      "InstanceNumber": [1, 2, 3, 4, 5, 6, 7, 8, 9, 10, 11, 12, 13, 14, 15, 16, 17, 18, 19, 20, 21, 22, 23, 24, 25, 26, 27, 28, 29, 30, 31, 32, 33, 34, 35, 36, 37, 38, 39, 40, 41, 42, 43, 44, 45, 46, 47, 48, 49, 50, 51, 52, 53, 54, 55, 56, 57, 58, 59, 60, 61, 62, 63, 64, 65, 66, 67, 68, 69, 70, 71, 72, 73, 74, 75, 76, 77, 78, 79, 80, 81, 82, 83, 84, 85, 86, 87, 88, 89, 90, 91, 92, 93, 94, 95, 96, 97, 98, 99, 100, 101, 102, 103, 104, 105, 106, 107, 108, 109, 110, 111, 112, 113, 114, 115, 116, 117, 118, 119, 120, 121, 122, 123, 124, 125, 126, 127, 128, 129, 130, 131, 132, 133, 134, 135, 136, 137, 138, 139, 140, 141, 142, 143, 144, 145, 146, 147, 148, 149, 150, 151, 152, 153, 154, 155, 156, 157, 158, 159, 160, 161, 162, 163, 164, 165, 166, 167, 168, 169, 170, 171, 172, 173, 174, 175, 176, 177, 178, 179, 180, 181, 182, 183, 184, 185, 186, 187, 188, 189, 190],
      "WindowCenter": [4846.0, 4870.0, 4872.0, 4874.0, 4850.0, 4844.0, 4870.0, 4850.0, 4848.0, 4874.0, 4874.0, 4876.0, 4880.0, 4872.0, 4874.0, 4822.0, 4820.0, 4826.0, 4872.0, 4874.0, 4878.0, 4880.0, 4852.0, 4824.0, 4822.0, 4848.0, 4852.0, 4850.0, 4826.0, 4824.0, 4870.0, 4878.0, 4852.0, 4846.0, 4846.0, 4850.0, 4848.0, 4848.0, 4848.0, 4850.0, 4848.0, 4850.0, 4876.0, 4874.0, 4846.0, 4820.0, 4820.0, 4822.0, 4844.0, 4870.0, 4876.0, 4850.0, 4826.0, 4850.0, 4822.0, 4876.0, 4874.0, 4850.0, 4850.0, 4872.0, 4872.0, 4872.0, 4848.0, 4848.0, 4876.0, 4848.0, 4848.0, 4872.0, 4852.0, 4850.0, 4874.0, 4878.0, 4872.0, 4850.0, 4822.0, 4824.0, 4846.0, 4846.0, 4874.0, 4876.0, 4852.0, 4874.0, 4870.0, 4850.0, 4872.0, 4872.0, 4852.0, 4872.0, 4850.0, 4824.0, 4824.0, 4850.0, 4846.0, 4850.0, 4870.0, 4868.0, 4850.0, 4870.0, 4874.0, 4852.0, 4848.0, 4826.0, 4870.0, 4870.0, 4874.0, 4822.0, 4820.0, 4822.0, 4850.0, 4850.0, 4850.0, 4874.0, 4874.0, 4852.0, 4872.0, 4874.0, 4874.0, 4850.0, 4846.0, 4848.0, 4874.0, 4870.0, 4870.0, 4852.0, 4846.0, 4848.0, 4872.0, 4870.0, 4876.0, 4848.0, 4848.0, 4818.0, 4850.0, 4850.0, 4850.0, 4872.0, 4868.0, 4872.0, 4846.0, 4850.0, 4846.0, 4850.0, 4874.0, 4872.0, 4848.0, 4844.0, 4846.0, 4870.0, 4870.0, 4874.0, 4810.0, 4842.0, 4826.0, 4800.0, 4818.0, 4824.0, 4822.0, 4850.0, 4876.0, 4878.0, 4878.0, 4842.0, 4800.0, 4870.0, 4874.0, 4848.0, 4824.0, 4822.0, 4848.0, 4844.0, 4850.0, 4870.0, 4808.0, 4838.0, 4842.0, 4874.0, 4846.0, 4822.0, 4820.0, 4818.0, 4852.0, 4848.0, 4874.0, 4876.0, 4874.0, 4852.0, 4850.0, 4852.0, 4848.0, 4822.0],
      "WindowWidth": [18630.0, 18686.0, 18680.0, 18670.0, 18626.0, 18630.0, 18668.0, 18640.0, 18630.0, 18678.0, 18670.0, 18674.0, 18688.0, 18684.0, 18664.0, 18588.0, 18582.0, 18596.0, 18674.0, 18680.0, 18674.0, 18672.0, 18636.0, 18592.0, 18586.0, 18618.0, 18636.0, 18628.0, 18594.0, 18594.0, 18684.0, 18678.0, 18632.0, 18620.0, 18628.0, 18640.0, 18632.0, 18632.0, 18634.0, 18638.0, 18636.0, 18642.0, 18680.0, 18668.0, 18630.0, 18590.0, 18592.0, 18594.0, 18654.0, 18692.0, 18682.0, 18630.0, 18592.0, 18616.0, 18586.0, 18662.0, 18662.0, 18628.0, 18634.0, 18686.0, 18686.0, 18670.0, 18632.0, 18622.0, 18666.0, 18622.0, 18624.0, 18662.0, 18626.0, 18628.0, 18678.0, 18688.0, 18672.0, 18630.0, 18590.0, 18598.0, 18620.0, 18622.0, 18682.0, 18680.0, 18634.0, 18662.0, 18672.0, 18636.0, 18670.0, 18670.0, 18630.0, 18672.0, 18638.0, 18592.0, 18580.0, 18632.0, 18624.0, 18638.0, 18674.0, 18668.0, 18630.0, 18664.0, 18682.0, 18638.0, 18626.0, 18592.0, 18678.0, 18684.0, 18670.0, 18594.0, 18590.0, 18594.0, 18640.0, 18640.0, 18638.0, 18670.0, 18680.0, 18642.0, 18686.0, 18678.0, 18672.0, 18640.0, 18634.0, 18630.0, 18682.0, 18684.0, 18676.0, 18646.0, 18634.0, 18634.0, 18682.0, 18688.0, 18678.0, 18632.0, 18634.0, 18592.0, 18642.0, 18634.0, 18638.0, 18672.0, 18676.0, 18676.0, 18640.0, 18636.0, 18626.0, 18636.0, 18688.0, 18666.0, 18632.0, 18634.0, 18630.0, 18676.0, 18686.0, 18680.0, 18602.0, 18644.0, 18586.0, 18560.0, 18580.0, 18590.0, 18584.0, 18630.0, 18676.0, 18682.0, 18682.0, 18648.0, 18598.0, 18684.0, 18674.0, 18624.0, 18594.0, 18592.0, 18628.0, 18626.0, 18640.0, 18682.0, 18596.0, 18640.0, 18652.0, 18678.0, 18630.0, 18592.0, 18590.0, 18586.0, 18644.0, 18642.0, 18674.0, 18678.0, 18676.0, 18640.0, 18634.0, 18632.0, 18632.0, 18594.0]
    },
    "slices": {}
  }
}