{
  "AcquisitionMatrixPE": 104,
  "AcquisitionNumber": 1,
  "AcquisitionTime": "15:26:50.362500",
  "BandwidthPerPixelPhaseEncode": 17.17,
  "BaseResolution": 104,
  "BodyPartExamined": "BRAIN",
  "CoilString": "HC1-7;NC1_2",
  "ConsistencyInfo": "N4_VE11C_LATEST_20160120",
  "ConversionSoftware": "dcm2niix",
  "ConversionSoftwareVersion": "v1.0.20190902",
  "DerivedVendorReportedEchoSpacing": 0.000560011,
  "DeviceSerialNumber": "167006",
  "DwellTime": 2.1e-06,
  "EchoTime": 0.037,
  "EchoTrainLength": 104,
  "EffectiveEchoSpacing": 0.000560011,
  "FlipAngle": 52,
  "ImageComments": "Unaliased_MB4_PE3_LB",
  "ImageOrientationPatientDICOM": [0.997922, -0.0624983, 0.0156892, 0.0643579, 0.954595, -0.29087],
  "ImageType": [
    "ORIGINAL",
    "PRIMARY",
    "M",
    "MB",
    "ND",
    "MOSAIC"
],
  "ImagingFrequency": 123.259,
  "InPlanePhaseEncodingDirectionDICOM": "COL",
  "InstitutionAddress": "Chemin_Queen-Mary_4565_Montreal_District_CA_H3W_1W5",
  "InstitutionName": "IUGM",
  "InstitutionalDepartmentName": "Department",
  "MRAcquisitionType": "2D",
  "MagneticFieldStrength": 3,
  "Manufacturer": "Siemens",
  "ManufacturersModelName": "Prisma_fit",
  "Modality": "MR",
  "MultibandAccelerationFactor": 4,
  "PartialFourier": 1,
  "PatientPosition": "HFS",
  "PercentPhaseFOV": 100,
  "PhaseEncodingDirection": "j",
  "PhaseEncodingSteps": 104,
  "PhaseResolution": 1,
  "PixelBandwidth": 2290,
  "ProcedureStepDescription": "memory_things",
  "ProtocolName": "func_task-things_run-1",
  "PulseSequenceDetails": "%CustomerSeq%_cmrr_mbep2d_bold",
  "ReceiveCoilActiveElements": "HC1-7;NC1,2",
  "ReceiveCoilName": "HeadNeck_64",
  "ReconMatrixPE": 104,
  "RepetitionTime": 1.49,
  "SAR": 0.040294,
  "ScanOptions": "FS",
  "ScanningSequence": "EP",
  "SequenceName": "epfid2d1_104",
  "SequenceVariant": "SK_SS",
  "SeriesDescription": "func_task-things_run-1",
  "SeriesNumber": 10,
  "ShimSetting": [626, -7259, -8781, 621, -11, -218, -17, -23],
  "SliceThickness": 2,
  "SliceTiming": [0, 0.7825, 0.0975, 0.88, 0.195, 0.98, 0.2925, 1.0775, 0.39, 1.175, 0.49, 1.2725, 0.5875, 1.37, 0.685, 0, 0.7825, 0.0975, 0.88, 0.195, 0.98, 0.2925, 1.0775, 0.39, 1.175, 0.49, 1.2725, 0.5875, 1.37, 0.685, 0, 0.7825, 0.0975, 0.88, 0.195, 0.98, 0.2925, 1.0775, 0.39, 1.175, 0.49, 1.2725, 0.5875, 1.37, 0.685, 0, 0.7825, 0.0975, 0.88, 0.195, 0.98, 0.2925, 1.0775, 0.39, 1.175, 0.49, 1.2725, 0.5875, 1.37, 0.685],
  "SoftwareVersions": "syngo_MR_E11",
  "SpacingBetweenSlices": 2,
  "StationName": "MRC35049",
  "TaskName": "things",
  "TotalReadoutTime": 0.0576811,
  "TxRefAmp": 234.676,
  "WipMemBlock": "61154fd7-0e16-4e30-ad8a-a156eed29cd7||Sequence: R016 ve11c/master r/e634e98; Dec 19 2017 11:00:25 by eja",
  "dcmmeta_affine": [
    [-1.995843529701233, 0.12871576845645905, -0.0064041935838758945, 100.79742431640625],
    [0.12499663978815079, 1.9091908931732178, -0.5825513005256653, -74.080322265625],
    [0.031378354877233505, 0.5817408561706543, 1.913267731666565, -51.80017852783203],
    [0.0, 0.0, 0.0, 1.0]
],
  "dcmmeta_reorient_transform": [
    [0.0, -1.0, 0.0, 103.0],
    [1.0, 0.0, 0.0, 0.0],
    [0.0, 0.0, 1.0, 0.0],
    [0.0, 0.0, 0.0, 1.0]
],
  "dcmmeta_shape": [104, 104, 60, 190],
  "dcmmeta_slice_dim": 2,
  "dcmmeta_version": 0.6,
  "global": {
    "const": {
      "AcquisitionMatrix": [104, 0, 0, 104],
      "AngioFlag": "N",
      "BitsAllocated": 16,
      "BitsStored": 16,
      "BodyPartExamined": "BRAIN",
      "Columns": 832,
      "EchoNumbers": 1,
      "EchoTime": 37.0,
      "EchoTrainLength": 104,
      "FlipAngle": 52.0,
      "HighBit": 15,
      "ImageOrientationPatient": [0.99792174519419, -0.0624983215378, 0.01568917695552, 0.06435788254213, 0.95459544170979, -0.2908704275473],
      "ImagePositionPatient": [-887.39472020193, -772.01304250846, 208.4510789653],
      "ImageType": [
        "ORIGINAL",
        "PRIMARY",
        "M",
        "MB",
        "ND",
        "MOSAIC"
],
      "ImagedNucleus": "1H",
      "ImagingFrequency": 123.258858,
      "InPlanePhaseEncodingDirection": "COL",
      "MRAcquisitionType": "2D",
      "MagneticFieldStrength": 3.0,
      "Manufacturer": "SIEMENS",
      "ManufacturerModelName": "Prisma_fit",
      "Modality": "MR",
      "NumberOfAverages": 1.0,
      "NumberOfPhaseEncodingSteps": 104,
      "PercentPhaseFieldOfView": 100.0,
      "PercentSampling": 100.0,
      "PerformedProcedureStepStartTime": "145915.013000",
      "PhotometricInterpretation": "MONOCHROME2",
      "PixelBandwidth": 2290.0,
      "PixelRepresentation": 0,
      "PixelSpacing": [2.0, 2.0],
      "ProtocolName": "func_task-things_run-1",
      "RepetitionTime": 1490.0,
      "Rows": 832,
      "SAR": 0.04029402592443,
      "SamplesPerPixel": 1,
      "ScanOptions": "FS",
      "ScanningSequence": "EP",
      "SequenceName": "epfid2d1_104",
      "SequenceVariant": [
        "SK",
        "SS"
],
      "SeriesDescription": "func_task-things_run-1",
      "SeriesNumber": 10,
      "SeriesTime": "152822.851000",
      "SliceLocation": -28.298772455574,
      "SliceThickness": 2.0,
      "SmallestImagePixelValue": 0,
      "SoftwareVersions": "syngo MR E11",
      "SpacingBetweenSlices": 2.000000059792,
      "SpecificCharacterSet": "ISO_IR 100",
      "StudyID": "1",
      "StudyTime": "145914.904000",
      "TransmitCoilName": "Body",
      "VariableFlipAngleFlag": "N",
      "WindowCenterWidthExplanation": "Algo1",
      "dBdt": 0.0},
    "slices": {}
  },
  "time": {
    "samples": {
      "AcquisitionNumber": [1, 2, 3, 4, 5, 6, 7, 8, 9, 10, 11, 12, 13, 14, 15, 16, 17, 18, 19, 20, 21, 22, 23, 24, 25, 26, 27, 28, 29, 30, 31, 32, 33, 34, 35, 36, 37, 38, 39, 40, 41, 42, 43, 44, 45, 46, 47, 48, 49, 50, 51, 52, 53, 54, 55, 56, 57, 58, 59, 60, 61, 62, 63, 64, 65, 66, 67, 68, 69, 70, 71, 72, 73, 74, 75, 76, 77, 78, 79, 80, 81, 82, 83, 84, 85, 86, 87, 88, 89, 90, 91, 92, 93, 94, 95, 96, 97, 98, 99, 100, 101, 102, 103, 104, 105, 106, 107, 108, 109, 110, 111, 112, 113, 114, 115, 116, 117, 118, 119, 120, 121, 122, 123, 124, 125, 126, 127, 128, 129, 130, 131, 132, 133, 134, 135, 136, 137, 138, 139, 140, 141, 142, 143, 144, 145, 146, 147, 148, 149, 150, 151, 152, 153, 154, 155, 156, 157, 158, 159, 160, 161, 162, 163, 164, 165, 166, 167, 168, 169, 170, 171, 172, 173, 174, 175, 176, 177, 178, 179, 180, 181, 182, 183, 184, 185, 186, 187, 188, 189, 190],
      "AcquisitionTime": ["152650.362500", "152651.852500", "152653.342500", "152654.832500", "152656.322500", "152657.812500", "152659.302500", "152700.792500", "152702.282500", "152703.772500", "152705.262500", "152706.752500", "152708.242500", "152709.732500", "152711.222500", "152712.712500", "152714.202500", "152715.692500", "152717.182500", "152718.672500", "152720.162500", "152721.652500", "152723.142500", "152724.632500", "152726.122500", "152727.612500", "152729.102500", "152730.592500", "152732.082500", "152733.572500", "152735.062500", "152736.552500", "152738.042500", "152739.532500", "152741.022500", "152742.512500", "152744.002500", "152745.492500", "152746.982500", "152748.472500", "152749.962500", "152751.452500", "152752.942500", "152754.432500", "152755.922500", "152757.412500", "152758.902500", "152800.392500", "152801.882500", "152803.372500", "152804.862500", "152806.352500", "152807.842500", "152809.332500", "152810.822500", "152812.312500", "152813.802500", "152815.292500", "152816.782500", "152818.272500", "152819.762500", "152821.252500", "152822.742500", "152824.232500", "152825.722500", "152827.212500", "152828.702500", "152830.192500", "152831.682500", "152833.172500", "152834.662500", "152836.152500", "152837.642500", "152839.132500", "152840.622500", "152842.112500", "152843.602500", "152845.092500", "152846.582500", "152848.072500", "152849.562500", "152851.052500", "152852.542500", "152854.032500", "152855.522500", "152857.012500", "152858.502500", "152859.992500", "152901.482500", "152902.972500", "152904.462500", "152905.952500", "152907.442500", "152908.932500", "152910.422500", "152911.912500", "152913.402500", "152914.892500", "152916.382500", "152917.872500", "152919.362500", "152920.852500", "152922.342500", "152923.832500", "152925.322500", "152926.812500", "152928.302500", "152929.792500", "152931.282500", "152932.772500", "152934.262500", "152935.752500", "152937.242500", "152938.732500", "152940.222500", "152941.712500", "152943.202500", "152944.692500", "152946.182500", "152947.672500", "152949.162500", "152950.652500", "152952.142500", "152953.632500", "152955.122500", "152956.612500", "152958.102500", "152959.592500", "153001.082500", "153002.572500", "153004.062500", "153005.552500", "153007.042500", "153008.532500", "153010.022500", "153011.512500", "153013.002500", "153014.492500", "153015.982500", "153017.472500", "153018.962500", "153020.452500", "153021.942500", "153023.432500", "153024.922500", "153026.412500", "153027.902500", "153029.392500", "153030.882500", "153032.372500", "153033.862500", "153035.352500", "153036.842500", "153038.332500", "153039.822500", "153041.312500", "153042.802500", "153044.292500", "153045.782500", "153047.272500", "153048.762500", "153050.252500", "153051.742500", "153053.232500", "153054.722500", "153056.212500", "153057.702500", "153059.192500", "153100.682500", "153102.172500", "153103.662500", "153105.152500", "153106.642500", "153108.132500", "153109.622500", "153111.112500", "153112.602500", "153114.092500", "153115.582500", "153117.072500", "153118.562500", "153120.052500", "153121.542500", "153123.032500", "153124.522500", "153126.012500", "153127.502500", "153128.992500", "153130.482500", "153131.972500"],
      "ContentTime": ["152822.854000", "152822.858000", "152822.861000", "152822.864000", "152822.868000", "152822.871000", "152822.874000", "152822.878000", "152822.881000", "152822.884000", "152822.888000", "152822.891000", "152822.894000", "152822.898000", "152822.901000", "152822.904000", "152822.908000", "152822.911000", "152822.914000", "152822.924000", "152822.928000", "152822.931000", "152822.934000", "152822.938000", "152822.941000", "152822.944000", "152822.948000", "152822.951000", "152822.954000", "152822.958000", "152822.961000", "152822.964000", "152822.968000", "152822.971000", "152822.974000", "152822.977000", "152822.991000", "152842.814000", "152842.818000", "152842.821000", "152842.824000", "152842.828000", "152842.831000", "152842.834000", "152842.838000", "152842.841000", "152842.844000", "152842.847000", "152842.851000", "152842.854000", "152842.857000", "152842.860000", "152842.864000", "152842.867000", "152842.870000", "152842.874000", "152842.877000", "152902.813000", "152902.817000", "152902.820000", "152902.823000", "152902.827000", "152902.830000", "152902.833000", "152902.837000", "152902.840000", "152902.843000", "152902.847000", "152902.850000", "152902.853000", "152902.856000", "152902.860000", "152902.863000", "152902.866000", "152902.870000", "152902.873000", "152902.876000", "152922.813000", "152922.817000", "152922.820000", "152922.823000", "152922.827000", "152922.830000", "152922.833000", "152922.837000", "152922.840000", "152922.843000", "152922.846000", "152922.850000", "152922.853000", "152922.856000", "152922.860000", "152922.863000", "152922.866000", "152922.870000", "152922.873000", "152922.876000", "152922.879000", "153002.814000", "153002.818000", "153002.821000", "153002.824000", "153002.828000", "153002.831000", "153002.834000", "153002.838000", "153002.841000", "153002.844000", "153002.847000", "153002.851000", "153002.854000", "153002.857000", "153002.861000", "153002.864000", "153002.867000", "153002.870000", "153002.874000", "153002.877000", "153002.880000", "153002.884000", "153002.887000", "153002.890000", "153002.894000", "153002.906000", "153002.909000", "153002.913000", "153002.916000", "153002.919000", "153002.923000", "153042.814000", "153042.818000", "153042.821000", "153042.824000", "153042.828000", "153042.831000", "153042.834000", "153042.845000", "153042.849000", "153042.852000", "153042.855000", "153042.859000", "153042.862000", "153042.865000", "153042.868000", "153042.872000", "153042.875000", "153042.878000", "153042.882000", "153042.885000", "153042.888000", "153042.891000", "153042.895000", "153042.898000", "153042.902000", "153042.905000", "153122.813000", "153122.817000", "153122.820000", "153122.823000", "153122.827000", "153122.830000", "153122.833000", "153122.837000", "153122.840000", "153122.843000", "153122.847000", "153122.850000", "153122.853000", "153122.856000", "153122.860000", "153122.863000", "153122.866000", "153122.869000", "153122.873000", "153122.876000", "153122.879000", "153122.883000", "153122.886000", "153122.889000", "153122.893000", "153122.896000", "153122.899000", "153133.765000", "153133.769000", "153133.772000", "153133.776000", "153133.779000", "153133.782000", "153133.786000", "153133.790000"],
      "InstanceCreationTime": ["152822.854000", "152822.858000", "152822.861000", "152822.864000", "152822.868000", "152822.871000", "152822.874000", "152822.878000", "152822.881000", "152822.884000", "152822.888000", "152822.891000", "152822.894000", "152822.898000", "152822.901000", "152822.904000", "152822.908000", "152822.911000", "152822.914000", "152822.924000", "152822.928000", "152822.931000", "152822.934000", "152822.938000", "152822.941000", "152822.944000", "152822.948000", "152822.951000", "152822.954000", "152822.958000", "152822.961000", "152822.964000", "152822.968000", "152822.971000", "152822.974000", "152822.977000", "152822.991000", "152842.814000", "152842.818000", "152842.821000", "152842.824000", "152842.828000", "152842.831000", "152842.834000", "152842.838000", "152842.841000", "152842.844000", "152842.847000", "152842.851000", "152842.854000", "152842.857000", "152842.860000", "152842.864000", "152842.867000", "152842.870000", "152842.874000", "152842.877000", "152902.813000", "152902.817000", "152902.820000", "152902.823000", "152902.827000", "152902.830000", "152902.833000", "152902.837000", "152902.840000", "152902.843000", "152902.847000", "152902.850000", "152902.853000", "152902.856000", "152902.860000", "152902.863000", "152902.866000", "152902.870000", "152902.873000", "152902.876000", "152922.813000", "152922.817000", "152922.820000", "152922.823000", "152922.827000", "152922.830000", "152922.833000", "152922.837000", "152922.840000", "152922.843000", "152922.846000", "152922.850000", "152922.853000", "152922.856000", "152922.860000", "152922.863000", "152922.866000", "152922.870000", "152922.873000", "152922.876000", "152922.879000", "153002.814000", "153002.818000", "153002.821000", "153002.824000", "153002.828000", "153002.831000", "153002.834000", "153002.838000", "153002.841000", "153002.844000", "153002.847000", "153002.851000", "153002.854000", "153002.857000", "153002.861000", "153002.864000", "153002.867000", "153002.870000", "153002.874000", "153002.877000", "153002.880000", "153002.884000", "153002.887000", "153002.890000", "153002.894000", "153002.906000", "153002.909000", "153002.913000", "153002.916000", "153002.919000", "153002.923000", "153042.814000", "153042.818000", "153042.821000", "153042.824000", "153042.828000", "153042.831000", "153042.834000", "153042.845000", "153042.849000", "153042.852000", "153042.855000", "153042.859000", "153042.862000", "153042.865000", "153042.868000", "153042.872000", "153042.875000", "153042.878000", "153042.882000", "153042.885000", "153042.888000", "153042.891000", "153042.895000", "153042.898000", "153042.902000", "153042.905000", "153122.813000", "153122.817000", "153122.820000", "153122.823000", "153122.827000", "153122.830000", "153122.833000", "153122.837000", "153122.840000", "153122.843000", "153122.847000", "153122.850000", "153122.853000", "153122.856000", "153122.860000", "153122.863000", "153122.866000", "153122.869000", "153122.873000", "153122.876000", "153122.879000", "153122.883000", "153122.886000", "153122.889000", "153122.893000", "153122.896000", "153122.899000", "153133.765000", "153133.769000", "153133.772000", "153133.776000", "153133.779000", "153133.782000", "153133.786000", "153133.790000"],
      "InstanceNumber": [1, 2, 3, 4, 5, 6, 7, 8, 9, 10, 11, 12, 13, 14, 15, 16, 17, 18, 19, 20, 21, 22, 23, 24, 25, 26, 27, 28, 29, 30, 31, 32, 33, 34, 35, 36, 37, 38, 39, 40, 41, 42, 43, 44, 45, 46, 47, 48, 49, 50, 51, 52, 53, 54, 55, 56, 57, 58, 59, 60, 61, 62, 63, 64, 65, 66, 67, 68, 69, 70, 71, 72, 73, 74, 75, 76, 77, 78, 79, 80, 81, 82, 83, 84, 85, 86, 87, 88, 89, 90, 91, 92, 93, 94, 95, 96, 97, 98, 99, 100, 101, 102, 103, 104, 105, 106, 107, 108, 109, 110, 111, 112, 113, 114, 115, 116, 117, 118, 119, 120, 121, 122, 123, 124, 125, 126, 127, 128, 129, 130, 131, 132, 133, 134, 135, 136, 137, 138, 139, 140, 141, 142, 143, 144, 145, 146, 147, 148, 149, 150, 151, 152, 153, 154, 155, 156, 157, 158, 159, 160, 161, 162, 163, 164, 165, 166, 167, 168, 169, 170, 171, 172, 173, 174, 175, 176, 177, 178, 179, 180, 181, 182, 183, 184, 185, 186, 187, 188, 189, 190],
      "LargestImagePixelValue": [45777, 44344, 44370, 43940, 41330, 41763, 41881, 42493, 41925, 42458, 42615, 42530, 42995, 42010, 43151, 41948, 41593, 41753, 42467, 43725, 43329, 42898, 43357, 42256, 42689, 42655, 42946, 42132, 42396, 42084, 42769, 42874, 42688, 42668, 42654, 42484, 42272, 42383, 43127, 42239, 42567, 42486, 43111, 42669, 42533, 41936, 41733, 41795, 42222, 43054, 42294, 42598, 42754, 41978, 42019, 42824, 42600, 41837, 41894, 42174, 42289, 42182, 42455, 42472, 41932, 42023, 42034, 41987, 42100, 42332, 42021, 41665, 42036, 42503, 42396, 41812, 42168, 42361, 42560, 42223, 42336, 42352, 42213, 42329, 42130, 42236, 42497, 42194, 41765, 42210, 42295, 42455, 42407, 42332, 42214, 42624, 42045, 42155, 42471, 43262, 43112, 42774, 40882, 40900, 40971, 41725, 42060, 42018, 42299, 42524, 42374, 42041, 41560, 42089, 41960, 42445, 42015, 42497, 42720, 42137, 41930, 41622, 42308, 41838, 41960, 41821, 41973, 41740, 41545, 41622, 42312, 41416, 41424, 42036, 41844, 41366, 41827, 41521, 41292, 42144, 42214, 41481, 42231, 42254, 41927, 42407, 42171, 42626, 42287, 42501, 42758, 42603, 42549, 43158, 42736, 42109, 43302, 43171, 42568, 42796, 43235, 43839, 42689, 43000, 42905, 43241, 43278, 42250, 42859, 42583, 42768, 42212, 43206, 42745, 42547, 43018, 42842, 42610, 43140, 43493, 43324, 43937, 42069, 42301, 41810, 43112, 42625, 42916, 42742, 43851],
      "WindowCenter": [10551.0, 10487.0, 10465.0, 10469.0, 10442.0, 10426.0, 10384.0, 10392.0, 10361.0, 10368.0, 10378.0, 10359.0, 10386.0, 10405.0, 10437.0, 10437.0, 10410.0, 10372.0, 10380.0, 10427.0, 10461.0, 10448.0, 10440.0, 10381.0, 10392.0, 10393.0, 10391.0, 10385.0, 10376.0, 10390.0, 10411.0, 10400.0, 10397.0, 10398.0, 10412.0, 10398.0, 10416.0, 10424.0, 10441.0, 10402.0, 10406.0, 10422.0, 10436.0, 10423.0, 10414.0, 10414.0, 10399.0, 10415.0, 10422.0, 10412.0, 10381.0, 10403.0, 10422.0, 10391.0, 10386.0, 10426.0, 10436.0, 10417.0, 10388.0, 10383.0, 10399.0, 10421.0, 10430.0, 10422.0, 10417.0, 10408.0, 10400.0, 10409.0, 10411.0, 10426.0, 10418.0, 10395.0, 10385.0, 10389.0, 10406.0, 10435.0, 10455.0, 10440.0, 10430.0, 10442.0, 10415.0, 10398.0, 10387.0, 10388.0, 10394.0, 10411.0, 10405.0, 10387.0, 10404.0, 10427.0, 10427.0, 10435.0, 10444.0, 10431.0, 10436.0, 10417.0, 10414.0, 10400.0, 10378.0, 10406.0, 10455.0, 10465.0, 10413.0, 10378.0, 10339.0, 10327.0, 10318.0, 10309.0, 10324.0, 10341.0, 10347.0, 10364.0, 10403.0, 10399.0, 10398.0, 10389.0, 10382.0, 10395.0, 10404.0, 10398.0, 10390.0, 10386.0, 10399.0, 10372.0, 10400.0, 10446.0, 10427.0, 10412.0, 10397.0, 10390.0, 10380.0, 10357.0, 10362.0, 10375.0, 10390.0, 10392.0, 10391.0, 10374.0, 10383.0, 10385.0, 10375.0, 10362.0, 10369.0, 10381.0, 10392.0, 10415.0, 10403.0, 10387.0, 10385.0, 10406.0, 10423.0, 10403.0, 10400.0, 10375.0, 10397.0, 10433.0, 10432.0, 10418.0, 10379.0, 10369.0, 10356.0, 10382.0, 10422.0, 10416.0, 10393.0, 10368.0, 10358.0, 10367.0, 10388.0, 10370.0, 10357.0, 10351.0, 10387.0, 10401.0, 10408.0, 10385.0, 10360.0, 10351.0, 10391.0, 10404.0, 10398.0, 10417.0, 10404.0, 10405.0, 10388.0, 10382.0, 10368.0, 10358.0, 10338.0, 10337.0],
      "WindowWidth": [22888.0, 22703.0, 22625.0, 22621.0, 22562.0, 22521.0, 22408.0, 22426.0, 22353.0, 22365.0, 22389.0, 22342.0, 22405.0, 22457.0, 22526.0, 22531.0, 22475.0, 22379.0, 22389.0, 22493.0, 22573.0, 22547.0, 22526.0, 22392.0, 22417.0, 22423.0, 22417.0, 22404.0, 22380.0, 22413.0, 22462.0, 22441.0, 22430.0, 22429.0, 22464.0, 22433.0, 22474.0, 22492.0, 22536.0, 22448.0, 22450.0, 22487.0, 22517.0, 22491.0, 22470.0, 22475.0, 22443.0, 22475.0, 22487.0, 22467.0, 22396.0, 22436.0, 22484.0, 22420.0, 22408.0, 22495.0, 22523.0, 22480.0, 22416.0, 22400.0, 22434.0, 22486.0, 22507.0, 22486.0, 22478.0, 22457.0, 22438.0, 22460.0, 22460.0, 22495.0, 22482.0, 22428.0, 22402.0, 22413.0, 22453.0, 22522.0, 22568.0, 22532.0, 22507.0, 22540.0, 22475.0, 22433.0, 22407.0, 22408.0, 22421.0, 22461.0, 22451.0, 22407.0, 22447.0, 22498.0, 22499.0, 22522.0, 22540.0, 22509.0, 22526.0, 22476.0, 22469.0, 22437.0, 22383.0, 22449.0, 22567.0, 22598.0, 22478.0, 22393.0, 22297.0, 22267.0, 22243.0, 22217.0, 22254.0, 22293.0, 22308.0, 22350.0, 22443.0, 22427.0, 22425.0, 22405.0, 22388.0, 22413.0, 22437.0, 22422.0, 22404.0, 22399.0, 22428.0, 22367.0, 22426.0, 22536.0, 22494.0, 22457.0, 22424.0, 22405.0, 22384.0, 22329.0, 22340.0, 22372.0, 22403.0, 22416.0, 22410.0, 22374.0, 22393.0, 22395.0, 22370.0, 22341.0, 22359.0, 22383.0, 22411.0, 22463.0, 22435.0, 22400.0, 22398.0, 22442.0, 22482.0, 22436.0, 22433.0, 22373.0, 22422.0, 22509.0, 22507.0, 22475.0, 22386.0, 22360.0, 22328.0, 22387.0, 22482.0, 22473.0, 22412.0, 22354.0, 22332.0, 22357.0, 22403.0, 22364.0, 22330.0, 22318.0, 22404.0, 22434.0, 22450.0, 22398.0, 22337.0, 22319.0, 22412.0, 22439.0, 22426.0, 22468.0, 22447.0, 22445.0, 22405.0, 22388.0, 22356.0, 22332.0, 22286.0, 22278.0]
    },
    "slices": {}
  }
}