{
  "AcquisitionMatrixPE": 104,
  "AcquisitionNumber": 1,
  "AcquisitionTime": "15:32:59.910000",
  "BandwidthPerPixelPhaseEncode": 17.17,
  "BaseResolution": 104,
  "BodyPartExamined": "BRAIN",
  "CoilString": "HC1-7;NC1_2",
  "ConsistencyInfo": "N4_VE11C_LATEST_20160120",
  "ConversionSoftware": "dcm2niix",
  "ConversionSoftwareVersion": "v1.0.20190902",
  "DerivedVendorReportedEchoSpacing": 0.000560011,
  "DeviceSerialNumber": "167006",
  "DwellTime": 2.1e-06,
  "EchoTime": 0.037,
  "EchoTrainLength": 104,
  "EffectiveEchoSpacing": 0.000560011,
  "FlipAngle": 52,
  "ImageComments": "Unaliased_MB4_PE3_LB",
  "ImageOrientationPatientDICOM": [0.997922, -0.0624983, 0.0156892, 0.0643579, 0.954595, -0.29087],
  "ImageType": [
    "ORIGINAL",
    "PRIMARY",
    "M",
    "MB",
    "ND",
    "MOSAIC"
],
  "ImagingFrequency": 123.259,
  "InPlanePhaseEncodingDirectionDICOM": "COL",
  "InstitutionAddress": "Chemin_Queen-Mary_4565_Montreal_District_CA_H3W_1W5",
  "InstitutionName": "IUGM",
  "InstitutionalDepartmentName": "Department",
  "MRAcquisitionType": "2D",
  "MagneticFieldStrength": 3,
  "Manufacturer": "Siemens",
  "ManufacturersModelName": "Prisma_fit",
  "Modality": "MR",
  "MultibandAccelerationFactor": 4,
  "PartialFourier": 1,
  "PatientPosition": "HFS",
  "PercentPhaseFOV": 100,
  "PhaseEncodingDirection": "j",
  "PhaseEncodingSteps": 104,
  "PhaseResolution": 1,
  "PixelBandwidth": 2290,
  "ProcedureStepDescription": "memory_things",
  "ProtocolName": "func_task-things_run-2",
  "PulseSequenceDetails": "%CustomerSeq%_cmrr_mbep2d_bold",
  "ReceiveCoilActiveElements": "HC1-7;NC1,2",
  "ReceiveCoilName": "HeadNeck_64",
  "ReconMatrixPE": 104,
  "RepetitionTime": 1.49,
  "SAR": 0.040294,
  "ScanOptions": "FS",
  "ScanningSequence": "EP",
  "SequenceName": "epfid2d1_104",
  "SequenceVariant": "SK_SS",
  "SeriesDescription": "func_task-things_run-2",
  "SeriesNumber": 13,
  "ShimSetting": [626, -7259, -8781, 621, -11, -218, -17, -23],
  "SliceThickness": 2,
  "SliceTiming": [0, 0.7825, 0.0975, 0.88, 0.195, 0.98, 0.2925, 1.0775, 0.39, 1.175, 0.49, 1.2725, 0.5875, 1.37, 0.685, 0, 0.7825, 0.0975, 0.88, 0.195, 0.98, 0.2925, 1.0775, 0.39, 1.175, 0.49, 1.2725, 0.5875, 1.37, 0.685, 0, 0.7825, 0.0975, 0.88, 0.195, 0.98, 0.2925, 1.0775, 0.39, 1.175, 0.49, 1.2725, 0.5875, 1.37, 0.685, 0, 0.7825, 0.0975, 0.88, 0.195, 0.98, 0.2925, 1.0775, 0.39, 1.175, 0.49, 1.2725, 0.5875, 1.37, 0.685],
  "SoftwareVersions": "syngo_MR_E11",
  "SpacingBetweenSlices": 2,
  "StationName": "MRC35049",
  "TaskName": "things",
  "TotalReadoutTime": 0.0576811,
  "TxRefAmp": 234.676,
  "WipMemBlock": "0952f1c5-6893-4153-8bd1-f312ef45ae12||Sequence: R016 ve11c/master r/e634e98; Dec 19 2017 11:00:25 by eja",
  "dcmmeta_affine": [
    [-1.995843529701233, 0.12871576845645905, -0.0064041935838758945, 100.79742431640625],
    [0.12499663978815079, 1.9091908931732178, -0.5825513005256653, -74.080322265625],
    [0.031378354877233505, 0.5817408561706543, 1.913267731666565, -51.80017852783203],
    [0.0, 0.0, 0.0, 1.0]
],
  "dcmmeta_reorient_transform": [
    [0.0, -1.0, 0.0, 103.0],
    [1.0, 0.0, 0.0, 0.0],
    [0.0, 0.0, 1.0, 0.0],
    [0.0, 0.0, 0.0, 1.0]
],
  "dcmmeta_shape": [104, 104, 60, 190],
  "dcmmeta_slice_dim": 2,
  "dcmmeta_version": 0.6,
  "global": {
    "const": {
      "AcquisitionMatrix": [104, 0, 0, 104],
      "AngioFlag": "N",
      "BitsAllocated": 16,
      "BitsStored": 16,
      "BodyPartExamined": "BRAIN",
      "Columns": 832,
      "EchoNumbers": 1,
      "EchoTime": 37.0,
      "EchoTrainLength": 104,
      "FlipAngle": 52.0,
      "HighBit": 15,
      "ImageOrientationPatient": [0.99792174519419, -0.0624983215378, 0.01568917695552, 0.06435788254213, 0.95459544170979, -0.2908704275473],
      "ImagePositionPatient": [-887.39472020193, -772.01304250846, 208.4510789653],
      "ImageType": [
        "ORIGINAL",
        "PRIMARY",
        "M",
        "MB",
        "ND",
        "MOSAIC"
],
      "ImagedNucleus": "1H",
      "ImagingFrequency": 123.258862,
      "InPlanePhaseEncodingDirection": "COL",
      "MRAcquisitionType": "2D",
      "MagneticFieldStrength": 3.0,
      "Manufacturer": "SIEMENS",
      "ManufacturerModelName": "Prisma_fit",
      "Modality": "MR",
      "NumberOfAverages": 1.0,
      "NumberOfPhaseEncodingSteps": 104,
      "PercentPhaseFieldOfView": 100.0,
      "PercentSampling": 100.0,
      "PerformedProcedureStepStartTime": "145915.013000",
      "PhotometricInterpretation": "MONOCHROME2",
      "PixelBandwidth": 2290.0,
      "PixelRepresentation": 0,
      "PixelSpacing": [2.0, 2.0],
      "ProtocolName": "func_task-things_run-2",
      "RepetitionTime": 1490.0,
      "Rows": 832,
      "SAR": 0.04029402592443,
      "SamplesPerPixel": 1,
      "ScanOptions": "FS",
      "ScanningSequence": "EP",
      "SequenceName": "epfid2d1_104",
      "SequenceVariant": [
        "SK",
        "SS"
],
      "SeriesDescription": "func_task-things_run-2",
      "SeriesNumber": 13,
      "SeriesTime": "153423.875000",
      "SliceLocation": -28.298772455574,
      "SliceThickness": 2.0,
      "SmallestImagePixelValue": 0,
      "SoftwareVersions": "syngo MR E11",
      "SpacingBetweenSlices": 2.000000059792,
      "SpecificCharacterSet": "ISO_IR 100",
      "StudyID": "1",
      "StudyTime": "145914.904000",
      "TransmitCoilName": "Body",
      "VariableFlipAngleFlag": "N",
      "WindowCenterWidthExplanation": "Algo1",
      "dBdt": 0.0},
    "slices": {}
  },
  "time": {
    "samples": {
      "AcquisitionNumber": [1, 2, 3, 4, 5, 6, 7, 8, 9, 10, 11, 12, 13, 14, 15, 16, 17, 18, 19, 20, 21, 22, 23, 24, 25, 26, 27, 28, 29, 30, 31, 32, 33, 34, 35, 36, 37, 38, 39, 40, 41, 42, 43, 44, 45, 46, 47, 48, 49, 50, 51, 52, 53, 54, 55, 56, 57, 58, 59, 60, 61, 62, 63, 64, 65, 66, 67, 68, 69, 70, 71, 72, 73, 74, 75, 76, 77, 78, 79, 80, 81, 82, 83, 84, 85, 86, 87, 88, 89, 90, 91, 92, 93, 94, 95, 96, 97, 98, 99, 100, 101, 102, 103, 104, 105, 106, 107, 108, 109, 110, 111, 112, 113, 114, 115, 116, 117, 118, 119, 120, 121, 122, 123, 124, 125, 126, 127, 128, 129, 130, 131, 132, 133, 134, 135, 136, 137, 138, 139, 140, 141, 142, 143, 144, 145, 146, 147, 148, 149, 150, 151, 152, 153, 154, 155, 156, 157, 158, 159, 160, 161, 162, 163, 164, 165, 166, 167, 168, 169, 170, 171, 172, 173, 174, 175, 176, 177, 178, 179, 180, 181, 182, 183, 184, 185, 186, 187, 188, 189, 190],
      "AcquisitionTime": ["153259.910000", "153301.400000", "153302.890000", "153304.380000", "153305.870000", "153307.360000", "153308.850000", "153310.340000", "153311.830000", "153313.320000", "153314.810000", "153316.300000", "153317.790000", "153319.280000", "153320.770000", "153322.260000", "153323.750000", "153325.240000", "153326.730000", "153328.220000", "153329.710000", "153331.200000", "153332.690000", "153334.180000", "153335.670000", "153337.160000", "153338.650000", "153340.140000", "153341.630000", "153343.120000", "153344.610000", "153346.100000", "153347.590000", "153349.080000", "153350.570000", "153352.060000", "153353.550000", "153355.040000", "153356.530000", "153358.020000", "153359.510000", "153401.000000", "153402.490000", "153403.980000", "153405.470000", "153406.960000", "153408.450000", "153409.940000", "153411.430000", "153412.920000", "153414.410000", "153415.900000", "153417.390000", "153418.880000", "153420.370000", "153421.860000", "153423.350000", "153424.840000", "153426.330000", "153427.820000", "153429.310000", "153430.800000", "153432.290000", "153433.780000", "153435.270000", "153436.760000", "153438.250000", "153439.740000", "153441.230000", "153442.720000", "153444.210000", "153445.700000", "153447.190000", "153448.680000", "153450.170000", "153451.660000", "153453.150000", "153454.640000", "153456.130000", "153457.620000", "153459.110000", "153500.600000", "153502.090000", "153503.580000", "153505.070000", "153506.560000", "153508.050000", "153509.540000", "153511.030000", "153512.520000", "153514.010000", "153515.500000", "153516.990000", "153518.480000", "153519.970000", "153521.460000", "153522.950000", "153524.440000", "153525.930000", "153527.420000", "153528.910000", "153530.400000", "153531.890000", "153533.380000", "153534.870000", "153536.360000", "153537.850000", "153539.340000", "153540.830000", "153542.320000", "153543.810000", "153545.300000", "153546.790000", "153548.280000", "153549.770000", "153551.260000", "153552.750000", "153554.240000", "153555.730000", "153557.220000", "153558.710000", "153600.200000", "153601.690000", "153603.180000", "153604.670000", "153606.160000", "153607.650000", "153609.140000", "153610.630000", "153612.120000", "153613.610000", "153615.100000", "153616.590000", "153618.080000", "153619.570000", "153621.060000", "153622.550000", "153624.040000", "153625.530000", "153627.020000", "153628.510000", "153630.000000", "153631.490000", "153632.980000", "153634.470000", "153635.960000", "153637.450000", "153638.940000", "153640.430000", "153641.920000", "153643.410000", "153644.900000", "153646.390000", "153647.880000", "153649.370000", "153650.860000", "153652.350000", "153653.840000", "153655.330000", "153656.820000", "153658.310000", "153659.800000", "153701.290000", "153702.780000", "153704.270000", "153705.760000", "153707.250000", "153708.740000", "153710.230000", "153711.720000", "153713.210000", "153714.700000", "153716.190000", "153717.680000", "153719.170000", "153720.660000", "153722.150000", "153723.640000", "153725.130000", "153726.620000", "153728.110000", "153729.600000", "153731.090000", "153732.580000", "153734.070000", "153735.560000", "153737.050000", "153738.540000", "153740.030000", "153741.520000"],
      "ContentTime": ["153423.879000", "153423.882000", "153423.886000", "153423.889000", "153423.892000", "153423.895000", "153423.899000", "153423.902000", "153423.906000", "153423.909000", "153423.912000", "153423.915000", "153423.919000", "153423.922000", "153423.925000", "153423.929000", "153423.932000", "153423.935000", "153423.938000", "153423.942000", "153423.945000", "153423.948000", "153423.951000", "153423.955000", "153423.958000", "153423.961000", "153423.965000", "153423.968000", "153423.972000", "153423.975000", "153423.979000", "153443.843000", "153443.847000", "153443.850000", "153443.853000", "153443.857000", "153443.860000", "153443.863000", "153443.867000", "153443.884000", "153443.887000", "153443.890000", "153443.894000", "153443.897000", "153443.900000", "153443.904000", "153443.907000", "153443.910000", "153443.918000", "153443.921000", "153443.924000", "153503.842000", "153503.846000", "153503.850000", "153503.853000", "153503.857000", "153503.860000", "153503.864000", "153503.869000", "153503.872000", "153503.875000", "153503.879000", "153503.882000", "153503.885000", "153503.889000", "153503.892000", "153503.895000", "153503.898000", "153503.902000", "153503.905000", "153503.908000", "153523.842000", "153523.846000", "153523.849000", "153523.853000", "153523.856000", "153523.859000", "153523.862000", "153523.866000", "153523.869000", "153523.872000", "153523.876000", "153523.879000", "153523.882000", "153523.885000", "153523.889000", "153523.892000", "153523.895000", "153523.899000", "153523.903000", "153523.906000", "153523.910000", "153603.842000", "153603.846000", "153603.849000", "153603.852000", "153603.856000", "153603.859000", "153603.862000", "153603.866000", "153603.869000", "153603.872000", "153603.875000", "153603.879000", "153603.882000", "153603.885000", "153603.888000", "153603.892000", "153603.895000", "153603.898000", "153603.902000", "153603.905000", "153603.908000", "153603.911000", "153603.915000", "153603.918000", "153603.921000", "153603.925000", "153603.928000", "153603.931000", "153603.935000", "153603.938000", "153643.843000", "153643.847000", "153643.857000", "153643.860000", "153643.863000", "153643.867000", "153643.870000", "153643.873000", "153643.877000", "153643.880000", "153643.883000", "153643.887000", "153643.890000", "153643.893000", "153643.896000", "153643.900000", "153643.903000", "153643.906000", "153643.910000", "153643.926000", "153643.929000", "153643.933000", "153643.936000", "153643.939000", "153643.943000", "153643.946000", "153643.949000", "153723.842000", "153723.846000", "153723.849000", "153723.852000", "153723.856000", "153723.859000", "153723.862000", "153723.865000", "153723.869000", "153723.872000", "153723.875000", "153723.879000", "153723.882000", "153723.885000", "153723.889000", "153723.892000", "153723.895000", "153723.898000", "153723.910000", "153723.913000", "153723.916000", "153723.919000", "153723.923000", "153723.926000", "153723.929000", "153723.933000", "153723.936000", "153744.182000", "153744.185000", "153744.198000", "153744.202000", "153744.205000", "153744.208000", "153744.212000", "153744.215000", "153744.218000", "153744.222000", "153744.225000", "153744.229000", "153744.232000", "153744.236000"],
      "InstanceCreationTime": ["153423.879000", "153423.882000", "153423.886000", "153423.889000", "153423.892000", "153423.895000", "153423.899000", "153423.902000", "153423.906000", "153423.909000", "153423.912000", "153423.915000", "153423.919000", "153423.922000", "153423.925000", "153423.929000", "153423.932000", "153423.935000", "153423.938000", "153423.942000", "153423.945000", "153423.948000", "153423.951000", "153423.955000", "153423.958000", "153423.961000", "153423.965000", "153423.968000", "153423.972000", "153423.975000", "153423.979000", "153443.843000", "153443.847000", "153443.850000", "153443.853000", "153443.857000", "153443.860000", "153443.863000", "153443.867000", "153443.884000", "153443.887000", "153443.890000", "153443.894000", "153443.897000", "153443.900000", "153443.904000", "153443.907000", "153443.910000", "153443.918000", "153443.921000", "153443.924000", "153503.842000", "153503.846000", "153503.850000", "153503.853000", "153503.857000", "153503.860000", "153503.864000", "153503.869000", "153503.872000", "153503.875000", "153503.879000", "153503.882000", "153503.885000", "153503.889000", "153503.892000", "153503.895000", "153503.898000", "153503.902000", "153503.905000", "153503.908000", "153523.842000", "153523.846000", "153523.849000", "153523.853000", "153523.856000", "153523.859000", "153523.862000", "153523.866000", "153523.869000", "153523.872000", "153523.876000", "153523.879000", "153523.882000", "153523.885000", "153523.889000", "153523.892000", "153523.895000", "153523.899000", "153523.903000", "153523.906000", "153523.910000", "153603.842000", "153603.846000", "153603.849000", "153603.852000", "153603.856000", "153603.859000", "153603.862000", "153603.866000", "153603.869000", "153603.872000", "153603.875000", "153603.879000", "153603.882000", "153603.885000", "153603.888000", "153603.892000", "153603.895000", "153603.898000", "153603.902000", "153603.905000", "153603.908000", "153603.911000", "153603.915000", "153603.918000", "153603.921000", "153603.925000", "153603.928000", "153603.931000", "153603.935000", "153603.938000", "153643.843000", "153643.847000", "153643.857000", "153643.860000", "153643.863000", "153643.867000", "153643.870000", "153643.873000", "153643.877000", "153643.880000", "153643.883000", "153643.887000", "153643.890000", "153643.893000", "153643.896000", "153643.900000", "153643.903000", "153643.906000", "153643.910000", "153643.926000", "153643.929000", "153643.933000", "153643.936000", "153643.939000", "153643.943000", "153643.946000", "153643.949000", "153723.842000", "153723.846000", "153723.849000", "153723.852000", "153723.856000", "153723.859000", "153723.862000", "153723.865000", "153723.869000", "153723.872000", "153723.875000", "153723.879000", "153723.882000", "153723.885000", "153723.889000", "153723.892000", "153723.895000", "153723.898000", "153723.910000", "153723.913000", "153723.916000", "153723.919000", "153723.923000", "153723.926000", "153723.929000", "153723.933000", "153723.936000", "153744.182000", "153744.185000", "153744.198000", "153744.202000", "153744.205000", "153744.208000", "153744.212000", "153744.215000", "153744.218000", "153744.222000", "153744.225000", "153744.229000", "153744.232000", "153744.236000"],
      "InstanceNumber": [1, 2, 3, 4, 5, 6, 7, 8, 9, 10, 11, 12, 13, 14, 15, 16, 17, 18, 19, 20, 21, 22, 23, 24, 25, 26, 27, 28, 29, 30, 31, 32, 33, 34, 35, 36, 37, 38, 39, 40, 41, 42, 43, 44, 45, 46, 47, 48, 49, 50, 51, 52, 53, 54, 55, 56, 57, 58, 59, 60, 61, 62, 63, 64, 65, 66, 67, 68, 69, 70, 71, 72, 73, 74, 75, 76, 77, 78, 79, 80, 81, 82, 83, 84, 85, 86, 87, 88, 89, 90, 91, 92, 93, 94, 95, 96, 97, 98, 99, 100, 101, 102, 103, 104, 105, 106, 107, 108, 109, 110, 111, 112, 113, 114, 115, 116, 117, 118, 119, 120, 121, 122, 123, 124, 125, 126, 127, 128, 129, 130, 131, 132, 133, 134, 135, 136, 137, 138, 139, 140, 141, 142, 143, 144, 145, 146, 147, 148, 149, 150, 151, 152, 153, 154, 155, 156, 157, 158, 159, 160, 161, 162, 163, 164, 165, 166, 167, 168, 169, 170, 171, 172, 173, 174, 175, 176, 177, 178, 179, 180, 181, 182, 183, 184, 185, 186, 187, 188, 189, 190],
      "LargestImagePixelValue": [43293, 41965, 41160, 40667, 39911, 40764, 40137, 40432, 39992, 40868, 40334, 39534, 42251, 42497, 39854, 39301, 40052, 39458, 40049, 40394, 40393, 40155, 39900, 40175, 40546, 39711, 40660, 40163, 40039, 39799, 40695, 40039, 39966, 39950, 40081, 40544, 40236, 40460, 40120, 40182, 40161, 39982, 39946, 40033, 39757, 40437, 40206, 40153, 40567, 39431, 39717, 39423, 40783, 42462, 43271, 41855, 41189, 40822, 40917, 40374, 40667, 41036, 40524, 40884, 40589, 40824, 40454, 40624, 40559, 40204, 40654, 40401, 40411, 40960, 40287, 40467, 40410, 40284, 40650, 40596, 40849, 40620, 40231, 41135, 40411, 40541, 40428, 40220, 40774, 41096, 42421, 38906, 43249, 41644, 41388, 40699, 41122, 40557, 39889, 40317, 40337, 40084, 40276, 40100, 41171, 40152, 39906, 39583, 39989, 40194, 39661, 40040, 39783, 40197, 39830, 40754, 40954, 40258, 40501, 39948, 39768, 40046, 39951, 40223, 40423, 40324, 39934, 40043, 40477, 40207, 40133, 40333, 40159, 40556, 39744, 40278, 39704, 40210, 40011, 40225, 40053, 39986, 39915, 40121, 40018, 39813, 40120, 39830, 40263, 40201, 41060, 41560, 41626, 43356, 42001, 40293, 41035, 40673, 40432, 39904, 40434, 40675, 41010, 41784, 41455, 41469, 40126, 39714, 40248, 40485, 40909, 40725, 40902, 40965, 40974, 41411, 41170, 40300, 40123, 40298, 41325, 40734, 40478, 40632, 41159, 40423, 40305, 40372, 40264, 40274],
      "WindowCenter": [10377.0, 10355.0, 10360.0, 10353.0, 10316.0, 10309.0, 10317.0, 10313.0, 10293.0, 10291.0, 10284.0, 10287.0, 10379.0, 10346.0, 10282.0, 10233.0, 10232.0, 10243.0, 10264.0, 10264.0, 10267.0, 10262.0, 10251.0, 10288.0, 10329.0, 10323.0, 10304.0, 10270.0, 10263.0, 10253.0, 10277.0, 10304.0, 10332.0, 10311.0, 10295.0, 10267.0, 10294.0, 10281.0, 10258.0, 10239.0, 10246.0, 10254.0, 10279.0, 10294.0, 10270.0, 10255.0, 10246.0, 10259.0, 10312.0, 10319.0, 10307.0, 10290.0, 10313.0, 10301.0, 10345.0, 10294.0, 10250.0, 10226.0, 10220.0, 10261.0, 10294.0, 10296.0, 10278.0, 10274.0, 10264.0, 10286.0, 10299.0, 10283.0, 10264.0, 10258.0, 10271.0, 10288.0, 10332.0, 10340.0, 10297.0, 10254.0, 10241.0, 10254.0, 10282.0, 10306.0, 10330.0, 10309.0, 10289.0, 10298.0, 10320.0, 10343.0, 10330.0, 10315.0, 10289.0, 10299.0, 10322.0, 10242.0, 10312.0, 10279.0, 10264.0, 10266.0, 10262.0, 10274.0, 10306.0, 10320.0, 10289.0, 10263.0, 10269.0, 10285.0, 10319.0, 10288.0, 10264.0, 10247.0, 10250.0, 10258.0, 10248.0, 10231.0, 10229.0, 10255.0, 10276.0, 10286.0, 10280.0, 10266.0, 10261.0, 10247.0, 10288.0, 10305.0, 10295.0, 10252.0, 10232.0, 10232.0, 10263.0, 10311.0, 10315.0, 10291.0, 10268.0, 10262.0, 10252.0, 10254.0, 10268.0, 10279.0, 10258.0, 10269.0, 10274.0, 10263.0, 10255.0, 10249.0, 10273.0, 10277.0, 10289.0, 10259.0, 10252.0, 10255.0, 10279.0, 10289.0, 10301.0, 10308.0, 10281.0, 10271.0, 10320.0, 10263.0, 10221.0, 10196.0, 10194.0, 10214.0, 10231.0, 10242.0, 10300.0, 10318.0, 10299.0, 10282.0, 10260.0, 10269.0, 10269.0, 10260.0, 10248.0, 10240.0, 10254.0, 10288.0, 10298.0, 10282.0, 10279.0, 10289.0, 10302.0, 10310.0, 10304.0, 10295.0, 10285.0, 10274.0, 10270.0, 10266.0, 10290.0, 10301.0, 10286.0, 10277.0],
      "WindowWidth": [22471.0, 22377.0, 22365.0, 22344.0, 22248.0, 22225.0, 22242.0, 22226.0, 22181.0, 22168.0, 22154.0, 22170.0, 22389.0, 22307.0, 22155.0, 22048.0, 22035.0, 22063.0, 22109.0, 22114.0, 22113.0, 22108.0, 22087.0, 22168.0, 22261.0, 22246.0, 22204.0, 22124.0, 22109.0, 22086.0, 22141.0, 22205.0, 22269.0, 22221.0, 22187.0, 22114.0, 22176.0, 22148.0, 22096.0, 22055.0, 22072.0, 22089.0, 22147.0, 22179.0, 22131.0, 22093.0, 22070.0, 22097.0, 22217.0, 22241.0, 22213.0, 22176.0, 22240.0, 22188.0, 22295.0, 22177.0, 22077.0, 22026.0, 22007.0, 22103.0, 22182.0, 22187.0, 22147.0, 22137.0, 22113.0, 22163.0, 22195.0, 22156.0, 22110.0, 22097.0, 22127.0, 22168.0, 22272.0, 22290.0, 22194.0, 22093.0, 22061.0, 22088.0, 22153.0, 22209.0, 22268.0, 22222.0, 22177.0, 22193.0, 22245.0, 22299.0, 22270.0, 22242.0, 22177.0, 22201.0, 22271.0, 22070.0, 22228.0, 22150.0, 22118.0, 22124.0, 22117.0, 22140.0, 22211.0, 22251.0, 22180.0, 22119.0, 22134.0, 22172.0, 22242.0, 22178.0, 22120.0, 22079.0, 22085.0, 22101.0, 22084.0, 22045.0, 22038.0, 22096.0, 22150.0, 22170.0, 22156.0, 22122.0, 22108.0, 22079.0, 22169.0, 22207.0, 22189.0, 22087.0, 22041.0, 22045.0, 22115.0, 22227.0, 22235.0, 22179.0, 22127.0, 22111.0, 22092.0, 22095.0, 22124.0, 22149.0, 22106.0, 22125.0, 22142.0, 22117.0, 22098.0, 22088.0, 22143.0, 22148.0, 22175.0, 22106.0, 22084.0, 22096.0, 22152.0, 22175.0, 22206.0, 22229.0, 22169.0, 22136.0, 22249.0, 22121.0, 22019.0, 21962.0, 21961.0, 22010.0, 22047.0, 22073.0, 22207.0, 22247.0, 22204.0, 22165.0, 22113.0, 22131.0, 22129.0, 22107.0, 22078.0, 22061.0, 22098.0, 22177.0, 22201.0, 22166.0, 22155.0, 22179.0, 22211.0, 22229.0, 22209.0, 22186.0, 22171.0, 22141.0, 22132.0, 22128.0, 22181.0, 22206.0, 22171.0, 22150.0]
    },
    "slices": {}
  }
}