{
  "AcquisitionMatrixPE": 104,
  "AcquisitionNumber": 1,
  "AcquisitionTime": "15:26:50.362500",
  "BandwidthPerPixelPhaseEncode": 17.17,
  "BaseResolution": 104,
  "BodyPartExamined": "BRAIN",
  "CoilString": "HC1-7;NC1_2",
  "ConsistencyInfo": "N4_VE11C_LATEST_20160120",
  "ConversionSoftware": "dcm2niix",
  "ConversionSoftwareVersion": "v1.0.20190902",
  "DerivedVendorReportedEchoSpacing": 0.000560011,
  "DeviceSerialNumber": "167006",
  "DwellTime": 2.1e-06,
  "EchoTime": 0.037,
  "EchoTrainLength": 104,
  "EffectiveEchoSpacing": 0.000560011,
  "FlipAngle": 52,
  "ImageComments": "Unaliased_MB4_PE3_LB",
  "ImageOrientationPatientDICOM": [0.997922, -0.0624983, 0.0156892, 0.0643579, 0.954595, -0.29087],
  "ImageType": [
    "ORIGINAL",
    "PRIMARY",
    "P",
    "MB",
    "ND",
    "MOSAIC"
],
  "ImagingFrequency": 123.259,
  "InPlanePhaseEncodingDirectionDICOM": "COL",
  "InstitutionAddress": "Chemin_Queen-Mary_4565_Montreal_District_CA_H3W_1W5",
  "InstitutionName": "IUGM",
  "InstitutionalDepartmentName": "Department",
  "MRAcquisitionType": "2D",
  "MagneticFieldStrength": 3,
  "Manufacturer": "Siemens",
  "ManufacturersModelName": "Prisma_fit",
  "Modality": "MR",
  "MultibandAccelerationFactor": 4,
  "PartialFourier": 1,
  "PatientPosition": "HFS",
  "PercentPhaseFOV": 100,
  "PhaseEncodingDirection": "j",
  "PhaseEncodingSteps": 104,
  "PhaseResolution": 1,
  "PixelBandwidth": 2290,
  "ProcedureStepDescription": "memory_things",
  "ProtocolName": "func_task-things_run-1",
  "PulseSequenceDetails": "%CustomerSeq%_cmrr_mbep2d_bold",
  "ReceiveCoilActiveElements": "HC1-7;NC1,2",
  "ReceiveCoilName": "HeadNeck_64",
  "ReconMatrixPE": 104,
  "RepetitionTime": 1.49,
  "SAR": 0.040294,
  "ScanOptions": "FS",
  "ScanningSequence": "EP",
  "SequenceName": "epfid2d1_104",
  "SequenceVariant": "SK_SS",
  "SeriesDescription": "func_task-things_run-1",
  "SeriesNumber": 11,
  "ShimSetting": [626, -7259, -8781, 621, -11, -218, -17, -23],
  "SliceThickness": 2,
  "SliceTiming": [0, 0.7825, 0.0975, 0.88, 0.195, 0.98, 0.2925, 1.0775, 0.39, 1.175, 0.49, 1.2725, 0.5875, 1.37, 0.685, 0, 0.7825, 0.0975, 0.88, 0.195, 0.98, 0.2925, 1.0775, 0.39, 1.175, 0.49, 1.2725, 0.5875, 1.37, 0.685, 0, 0.7825, 0.0975, 0.88, 0.195, 0.98, 0.2925, 1.0775, 0.39, 1.175, 0.49, 1.2725, 0.5875, 1.37, 0.685, 0, 0.7825, 0.0975, 0.88, 0.195, 0.98, 0.2925, 1.0775, 0.39, 1.175, 0.49, 1.2725, 0.5875, 1.37, 0.685],
  "SoftwareVersions": "syngo_MR_E11",
  "SpacingBetweenSlices": 2,
  "StationName": "MRC35049",
  "TaskName": "things",
  "TotalReadoutTime": 0.0576811,
  "TxRefAmp": 234.676,
  "WipMemBlock": "61154fd7-0e16-4e30-ad8a-a156eed29cd7||Sequence: R016 ve11c/master r/e634e98; Dec 19 2017 11:00:25 by eja",
  "dcmmeta_affine": [
    [-1.995843529701233, 0.12871576845645905, -0.0064041935838758945, 100.79742431640625],
    [0.12499663978815079, 1.9091908931732178, -0.5825513005256653, -74.080322265625],
    [0.031378354877233505, 0.5817408561706543, 1.913267731666565, -51.80017852783203],
    [0.0, 0.0, 0.0, 1.0]
],
  "dcmmeta_reorient_transform": [
    [0.0, -1.0, 0.0, 103.0],
    [1.0, 0.0, 0.0, 0.0],
    [0.0, 0.0, 1.0, 0.0],
    [0.0, 0.0, 0.0, 1.0]
],
  "dcmmeta_shape": [104, 104, 60, 190],
  "dcmmeta_slice_dim": 2,
  "dcmmeta_version": 0.6,
  "global": {
    "const": {
      "AcquisitionMatrix": [104, 0, 0, 104],
      "AngioFlag": "N",
      "BitsAllocated": 16,
      "BitsStored": 16,
      "BodyPartExamined": "BRAIN",
      "Columns": 832,
      "EchoNumbers": 1,
      "EchoTime": 37.0,
      "EchoTrainLength": 104,
      "FlipAngle": 52.0,
      "HighBit": 15,
      "ImageOrientationPatient": [0.99792174519419, -0.0624983215378, 0.01568917695552, 0.06435788254213, 0.95459544170979, -0.2908704275473],
      "ImagePositionPatient": [-887.39472020193, -772.01304250846, 208.4510789653],
      "ImageType": [
        "ORIGINAL",
        "PRIMARY",
        "P",
        "MB",
        "ND",
        "MOSAIC"
],
      "ImagedNucleus": "1H",
      "ImagingFrequency": 123.258858,
      "InPlanePhaseEncodingDirection": "COL",
      "LargestImagePixelValue": 4095,
      "MRAcquisitionType": "2D",
      "MagneticFieldStrength": 3.0,
      "Manufacturer": "SIEMENS",
      "ManufacturerModelName": "Prisma_fit",
      "Modality": "MR",
      "NumberOfAverages": 1.0,
      "NumberOfPhaseEncodingSteps": 104,
      "PercentPhaseFieldOfView": 100.0,
      "PercentSampling": 100.0,
      "PerformedProcedureStepStartTime": "145915.013000",
      "PhotometricInterpretation": "MONOCHROME2",
      "PixelBandwidth": 2290.0,
      "PixelRepresentation": 0,
      "PixelSpacing": [2.0, 2.0],
      "ProtocolName": "func_task-things_run-1",
      "RepetitionTime": 1490.0,
      "RescaleIntercept": -4096.0,
      "RescaleSlope": 2.0,
      "RescaleType": "US",
      "Rows": 832,
      "SAR": 0.04029402592443,
      "SamplesPerPixel": 1,
      "ScanOptions": "FS",
      "ScanningSequence": "EP",
      "SequenceName": "epfid2d1_104",
      "SequenceVariant": [
        "SK",
        "SS"
],
      "SeriesDescription": "func_task-things_run-1",
      "SeriesNumber": 11,
      "SeriesTime": "152823.050000",
      "SliceLocation": -28.298772455574,
      "SliceThickness": 2.0,
      "SmallestImagePixelValue": 0,
      "SoftwareVersions": "syngo MR E11",
      "SpacingBetweenSlices": 2.000000059792,
      "SpecificCharacterSet": "ISO_IR 100",
      "StudyID": "1",
      "StudyTime": "145914.904000",
      "TransmitCoilName": "Body",
      "VariableFlipAngleFlag": "N",
      "WindowCenterWidthExplanation": "Algo1",
      "dBdt": 0.0},
    "slices": {}
  },
  "time": {
    "samples": {
      "AcquisitionNumber": [1, 2, 3, 4, 5, 6, 7, 8, 9, 10, 11, 12, 13, 14, 15, 16, 17, 18, 19, 20, 21, 22, 23, 24, 25, 26, 27, 28, 29, 30, 31, 32, 33, 34, 35, 36, 37, 38, 39, 40, 41, 42, 43, 44, 45, 46, 47, 48, 49, 50, 51, 52, 53, 54, 55, 56, 57, 58, 59, 60, 61, 62, 63, 64, 65, 66, 67, 68, 69, 70, 71, 72, 73, 74, 75, 76, 77, 78, 79, 80, 81, 82, 83, 84, 85, 86, 87, 88, 89, 90, 91, 92, 93, 94, 95, 96, 97, 98, 99, 100, 101, 102, 103, 104, 105, 106, 107, 108, 109, 110, 111, 112, 113, 114, 115, 116, 117, 118, 119, 120, 121, 122, 123, 124, 125, 126, 127, 128, 129, 130, 131, 132, 133, 134, 135, 136, 137, 138, 139, 140, 141, 142, 143, 144, 145, 146, 147, 148, 149, 150, 151, 152, 153, 154, 155, 156, 157, 158, 159, 160, 161, 162, 163, 164, 165, 166, 167, 168, 169, 170, 171, 172, 173, 174, 175, 176, 177, 178, 179, 180, 181, 182, 183, 184, 185, 186, 187, 188, 189, 190],
      "AcquisitionTime": ["152650.362500", "152651.852500", "152653.342500", "152654.832500", "152656.322500", "152657.812500", "152659.302500", "152700.792500", "152702.282500", "152703.772500", "152705.262500", "152706.752500", "152708.242500", "152709.732500", "152711.222500", "152712.712500", "152714.202500", "152715.692500", "152717.182500", "152718.672500", "152720.162500", "152721.652500", "152723.142500", "152724.632500", "152726.122500", "152727.612500", "152729.102500", "152730.592500", "152732.082500", "152733.572500", "152735.062500", "152736.552500", "152738.042500", "152739.532500", "152741.022500", "152742.512500", "152744.002500", "152745.492500", "152746.982500", "152748.472500", "152749.962500", "152751.452500", "152752.942500", "152754.432500", "152755.922500", "152757.412500", "152758.902500", "152800.392500", "152801.882500", "152803.372500", "152804.862500", "152806.352500", "152807.842500", "152809.332500", "152810.822500", "152812.312500", "152813.802500", "152815.292500", "152816.782500", "152818.272500", "152819.762500", "152821.252500", "152822.742500", "152824.232500", "152825.722500", "152827.212500", "152828.702500", "152830.192500", "152831.682500", "152833.172500", "152834.662500", "152836.152500", "152837.642500", "152839.132500", "152840.622500", "152842.112500", "152843.602500", "152845.092500", "152846.582500", "152848.072500", "152849.562500", "152851.052500", "152852.542500", "152854.032500", "152855.522500", "152857.012500", "152858.502500", "152859.992500", "152901.482500", "152902.972500", "152904.462500", "152905.952500", "152907.442500", "152908.932500", "152910.422500", "152911.912500", "152913.402500", "152914.892500", "152916.382500", "152917.872500", "152919.362500", "152920.852500", "152922.342500", "152923.832500", "152925.322500", "152926.812500", "152928.302500", "152929.792500", "152931.282500", "152932.772500", "152934.262500", "152935.752500", "152937.242500", "152938.732500", "152940.222500", "152941.712500", "152943.202500", "152944.692500", "152946.182500", "152947.672500", "152949.162500", "152950.652500", "152952.142500", "152953.632500", "152955.122500", "152956.612500", "152958.102500", "152959.592500", "153001.082500", "153002.572500", "153004.062500", "153005.552500", "153007.042500", "153008.532500", "153010.022500", "153011.512500", "153013.002500", "153014.492500", "153015.982500", "153017.472500", "153018.962500", "153020.452500", "153021.942500", "153023.432500", "153024.922500", "153026.412500", "153027.902500", "153029.392500", "153030.882500", "153032.372500", "153033.862500", "153035.352500", "153036.842500", "153038.332500", "153039.822500", "153041.312500", "153042.802500", "153044.292500", "153045.782500", "153047.272500", "153048.762500", "153050.252500", "153051.742500", "153053.232500", "153054.722500", "153056.212500", "153057.702500", "153059.192500", "153100.682500", "153102.172500", "153103.662500", "153105.152500", "153106.642500", "153108.132500", "153109.622500", "153111.112500", "153112.602500", "153114.092500", "153115.582500", "153117.072500", "153118.562500", "153120.052500", "153121.542500", "153123.032500", "153124.522500", "153126.012500", "153127.502500", "153128.992500", "153130.482500", "153131.972500"],
      "ContentTime": ["152823.052000", "152823.055000", "152823.058000", "152823.060000", "152823.063000", "152823.065000", "152823.068000", "152823.070000", "152823.073000", "152823.075000", "152823.086000", "152823.089000", "152823.091000", "152823.094000", "152823.096000", "152823.099000", "152823.101000", "152823.104000", "152823.106000", "152823.109000", "152823.111000", "152823.114000", "152823.116000", "152823.119000", "152823.121000", "152823.124000", "152823.126000", "152823.129000", "152823.131000", "152823.134000", "152823.136000", "152823.139000", "152823.141000", "152823.144000", "152823.146000", "152823.149000", "152823.151000", "152842.930000", "152842.932000", "152842.935000", "152842.937000", "152842.940000", "152842.942000", "152842.945000", "152842.947000", "152842.950000", "152842.952000", "152842.955000", "152842.957000", "152842.960000", "152842.962000", "152842.965000", "152842.967000", "152842.976000", "152842.978000", "152842.981000", "152842.983000", "152902.923000", "152902.925000", "152902.928000", "152902.930000", "152902.933000", "152902.935000", "152902.938000", "152902.942000", "152902.945000", "152902.947000", "152902.951000", "152902.953000", "152902.956000", "152902.958000", "152902.961000", "152902.963000", "152902.966000", "152902.968000", "152902.991000", "152902.994000", "152922.922000", "152922.924000", "152922.927000", "152922.929000", "152922.933000", "152922.935000", "152922.938000", "152922.940000", "152922.943000", "152922.945000", "152922.948000", "152922.950000", "152922.953000", "152922.955000", "152922.963000", "152922.965000", "152922.968000", "152922.970000", "152922.973000", "152922.975000", "152922.978000", "153002.971000", "153002.973000", "153002.985000", "153002.988000", "153002.991000", "153002.993000", "153002.996000", "153002.998000", "153003.002000", "153003.004000", "153003.007000", "153003.009000", "153003.012000", "153003.014000", "153003.017000", "153003.019000", "153003.022000", "153003.025000", "153003.027000", "153003.030000", "153003.032000", "153003.035000", "153003.037000", "153003.040000", "153003.042000", "153003.045000", "153003.047000", "153003.049000", "153003.052000", "153003.072000", "153043.463000", "153043.465000", "153043.468000", "153043.470000", "153043.473000", "153043.476000", "153043.478000", "153043.481000", "153043.483000", "153043.485000", "153043.488000", "153043.490000", "153043.493000", "153043.495000", "153043.498000", "153043.500000", "153043.503000", "153043.505000", "153043.508000", "153043.511000", "153043.513000", "153043.516000", "153043.521000", "153043.524000", "153043.526000", "153043.529000", "153043.532000", "153122.957000", "153122.960000", "153122.962000", "153122.965000", "153122.967000", "153122.970000", "153122.972000", "153122.975000", "153122.977000", "153122.980000", "153122.982000", "153122.985000", "153122.987000", "153122.990000", "153122.992000", "153122.995000", "153122.997000", "153123.001000", "153123.003000", "153123.006000", "153123.008000", "153123.011000", "153123.013000", "153123.016000", "153123.018000", "153123.021000", "153123.023000", "153133.841000", "153133.843000", "153133.846000", "153133.848000", "153133.851000", "153133.858000", "153133.861000", "153133.863000"],
      "InstanceCreationTime": ["152823.052000", "152823.055000", "152823.058000", "152823.060000", "152823.063000", "152823.065000", "152823.068000", "152823.070000", "152823.073000", "152823.075000", "152823.086000", "152823.089000", "152823.091000", "152823.094000", "152823.096000", "152823.099000", "152823.101000", "152823.104000", "152823.106000", "152823.109000", "152823.111000", "152823.114000", "152823.116000", "152823.119000", "152823.121000", "152823.124000", "152823.126000", "152823.129000", "152823.131000", "152823.134000", "152823.136000", "152823.139000", "152823.141000", "152823.144000", "152823.146000", "152823.149000", "152823.151000", "152842.930000", "152842.932000", "152842.935000", "152842.937000", "152842.940000", "152842.942000", "152842.945000", "152842.947000", "152842.950000", "152842.952000", "152842.955000", "152842.957000", "152842.960000", "152842.962000", "152842.965000", "152842.967000", "152842.976000", "152842.978000", "152842.981000", "152842.983000", "152902.923000", "152902.925000", "152902.928000", "152902.930000", "152902.933000", "152902.935000", "152902.938000", "152902.942000", "152902.945000", "152902.947000", "152902.951000", "152902.953000", "152902.956000", "152902.958000", "152902.961000", "152902.963000", "152902.966000", "152902.968000", "152902.991000", "152902.994000", "152922.922000", "152922.924000", "152922.927000", "152922.929000", "152922.933000", "152922.935000", "152922.938000", "152922.940000", "152922.943000", "152922.945000", "152922.948000", "152922.950000", "152922.953000", "152922.955000", "152922.963000", "152922.965000", "152922.968000", "152922.970000", "152922.973000", "152922.975000", "152922.978000", "153002.971000", "153002.973000", "153002.985000", "153002.988000", "153002.991000", "153002.993000", "153002.996000", "153002.998000", "153003.002000", "153003.004000", "153003.007000", "153003.009000", "153003.012000", "153003.014000", "153003.017000", "153003.019000", "153003.022000", "153003.025000", "153003.027000", "153003.030000", "153003.032000", "153003.035000", "153003.037000", "153003.040000", "153003.042000", "153003.045000", "153003.047000", "153003.049000", "153003.052000", "153003.072000", "153043.463000", "153043.465000", "153043.468000", "153043.470000", "153043.473000", "153043.476000", "153043.478000", "153043.481000", "153043.483000", "153043.485000", "153043.488000", "153043.490000", "153043.493000", "153043.495000", "153043.498000", "153043.500000", "153043.503000", "153043.505000", "153043.508000", "153043.511000", "153043.513000", "153043.516000", "153043.521000", "153043.524000", "153043.526000", "153043.529000", "153043.532000", "153122.957000", "153122.960000", "153122.962000", "153122.965000", "153122.967000", "153122.970000", "153122.972000", "153122.975000", "153122.977000", "153122.980000", "153122.982000", "153122.985000", "153122.987000", "153122.990000", "153122.992000", "153122.995000", "153122.997000", "153123.001000", "153123.003000", "153123.006000", "153123.008000", "153123.011000", "153123.013000", "153123.016000", "153123.018000", "153123.021000", "153123.023000", "153133.841000", "153133.843000", "153133.846000", "153133.848000", "153133.851000", "153133.858000", "153133.861000", "153133.863000"],
      "InstanceNumber": [1, 2, 3, 4, 5, 6, 7, 8, 9, 10, 11, 12, 13, 14, 15, 16, 17, 18, 19, 20, 21, 22, 23, 24, 25, 26, 27, 28, 29, 30, 31, 32, 33, 34, 35, 36, 37, 38, 39, 40, 41, 42, 43, 44, 45, 46, 47, 48, 49, 50, 51, 52, 53, 54, 55, 56, 57, 58, 59, 60, 61, 62, 63, 64, 65, 66, 67, 68, 69, 70, 71, 72, 73, 74, 75, 76, 77, 78, 79, 80, 81, 82, 83, 84, 85, 86, 87, 88, 89, 90, 91, 92, 93, 94, 95, 96, 97, 98, 99, 100, 101, 102, 103, 104, 105, 106, 107, 108, 109, 110, 111, 112, 113, 114, 115, 116, 117, 118, 119, 120, 121, 122, 123, 124, 125, 126, 127, 128, 129, 130, 131, 132, 133, 134, 135, 136, 137, 138, 139, 140, 141, 142, 143, 144, 145, 146, 147, 148, 149, 150, 151, 152, 153, 154, 155, 156, 157, 158, 159, 160, 161, 162, 163, 164, 165, 166, 167, 168, 169, 170, 171, 172, 173, 174, 175, 176, 177, 178, 179, 180, 181, 182, 183, 184, 185, 186, 187, 188, 189, 190],
      "WindowCenter": [4876.0, 4874.0, 4838.0, 4800.0, 4868.0, 4848.0, 4824.0, 4822.0, 4826.0, 4850.0, 4874.0, 4874.0, 4878.0, 4872.0, 4832.0, 4872.0, 4850.0, 4824.0, 4846.0, 4872.0, 4876.0, 4874.0, 4872.0, 4876.0, 4874.0, 4848.0, 4876.0, 4872.0, 4876.0, 4870.0, 4874.0, 4874.0, 4852.0, 4852.0, 4876.0, 4874.0, 4848.0, 4872.0, 4874.0, 4852.0, 4852.0, 4850.0, 4876.0, 4848.0, 4838.0, 4844.0, 4870.0, 4874.0, 4850.0, 4852.0, 4874.0, 4852.0, 4876.0, 4882.0, 4874.0, 4844.0, 4874.0, 4874.0, 4852.0, 4852.0, 4850.0, 4854.0, 4872.0, 4846.0, 4874.0, 4876.0, 4852.0, 4852.0, 4874.0, 4876.0, 4852.0, 4850.0, 4876.0, 4874.0, 4842.0, 4870.0, 4874.0, 4872.0, 4874.0, 4876.0, 4848.0, 4848.0, 4852.0, 4872.0, 4876.0, 4876.0, 4874.0, 4872.0, 4874.0, 4876.0, 4876.0, 4850.0, 4872.0, 4878.0, 4874.0, 4870.0, 4876.0, 4872.0, 4874.0, 4778.0, 4774.0, 4812.0, 4872.0, 4850.0, 4822.0, 4826.0, 4848.0, 4874.0, 4872.0, 4840.0, 4804.0, 4802.0, 4872.0, 4850.0, 4848.0, 4822.0, 4846.0, 4852.0, 4848.0, 4810.0, 4848.0, 4874.0, 4874.0, 4848.0, 4876.0, 4854.0, 4870.0, 4874.0, 4876.0, 4874.0, 4852.0, 4878.0, 4874.0, 4812.0, 4808.0, 4870.0, 4878.0, 4852.0, 4854.0, 4874.0, 4876.0, 4878.0, 4874.0, 4840.0, 4874.0, 4876.0, 4876.0, 4876.0, 4848.0, 4874.0, 4874.0, 4876.0, 4878.0, 4848.0, 4872.0, 4876.0, 4850.0, 4872.0, 4876.0, 4852.0, 4850.0, 4812.0, 4844.0, 4876.0, 4848.0, 4852.0, 4850.0, 4876.0, 4848.0, 4848.0, 4848.0, 4850.0, 4848.0, 4872.0, 4874.0, 4874.0, 4874.0, 4874.0, 4852.0, 4852.0, 4846.0, 4782.0, 4808.0, 4876.0, 4850.0, 4850.0, 4848.0, 4854.0, 4878.0, 4878.0],
      "WindowWidth": [18670.0, 18664.0, 18640.0, 18594.0, 18672.0, 18616.0, 18592.0, 18586.0, 18592.0, 18630.0, 18678.0, 18676.0, 18676.0, 18672.0, 18636.0, 18682.0, 18626.0, 18582.0, 18626.0, 18682.0, 18676.0, 18672.0, 18678.0, 18680.0, 18674.0, 18652.0, 18674.0, 18672.0, 18680.0, 18672.0, 18670.0, 18680.0, 18642.0, 18644.0, 18674.0, 18684.0, 18648.0, 18688.0, 18680.0, 18638.0, 18630.0, 18632.0, 18668.0, 18644.0, 18642.0, 18648.0, 18672.0, 18670.0, 18632.0, 18638.0, 18670.0, 18640.0, 18668.0, 18672.0, 18674.0, 18648.0, 18682.0, 18670.0, 18628.0, 18630.0, 18626.0, 18636.0, 18682.0, 18648.0, 18678.0, 18676.0, 18638.0, 18634.0, 18672.0, 18678.0, 18636.0, 18640.0, 18666.0, 18668.0, 18648.0, 18680.0, 18674.0, 18674.0, 18674.0, 18670.0, 18626.0, 18630.0, 18634.0, 18676.0, 18672.0, 18676.0, 18674.0, 18682.0, 18670.0, 18670.0, 18682.0, 18638.0, 18680.0, 18680.0, 18680.0, 18678.0, 18672.0, 18666.0, 18684.0, 18558.0, 18556.0, 18608.0, 18676.0, 18624.0, 18588.0, 18584.0, 18630.0, 18672.0, 18682.0, 18640.0, 18596.0, 18590.0, 18680.0, 18632.0, 18626.0, 18590.0, 18632.0, 18632.0, 18642.0, 18602.0, 18648.0, 18680.0, 18672.0, 18644.0, 18670.0, 18632.0, 18678.0, 18680.0, 18672.0, 18666.0, 18644.0, 18672.0, 18680.0, 18604.0, 18602.0, 18678.0, 18680.0, 18638.0, 18632.0, 18668.0, 18678.0, 18676.0, 18676.0, 18644.0, 18684.0, 18678.0, 18668.0, 18668.0, 18646.0, 18678.0, 18674.0, 18662.0, 18672.0, 18650.0, 18672.0, 18682.0, 18652.0, 18680.0, 18678.0, 18640.0, 18642.0, 18608.0, 18644.0, 18680.0, 18634.0, 18638.0, 18648.0, 18676.0, 18646.0, 18646.0, 18650.0, 18642.0, 18650.0, 18680.0, 18676.0, 18674.0, 18678.0, 18672.0, 18648.0, 18638.0, 18638.0, 18564.0, 18594.0, 18684.0, 18632.0, 18618.0, 18622.0, 18628.0, 18674.0, 18674.0]
    },
    "slices": {}
  }
}