{
  "AcquisitionMatrixPE": 104,
  "AcquisitionNumber": 1,
  "AcquisitionTime": "15:58:44.285000",
  "BandwidthPerPixelPhaseEncode": 17.17,
  "BaseResolution": 104,
  "BodyPartExamined": "BRAIN",
  "CoilString": "HC1-7;NC1_2",
  "ConsistencyInfo": "N4_VE11C_LATEST_20160120",
  "ConversionSoftware": "dcm2niix",
  "ConversionSoftwareVersion": "v1.0.20190902",
  "DerivedVendorReportedEchoSpacing": 0.000560011,
  "DeviceSerialNumber": "167006",
  "DwellTime": 2.1e-06,
  "EchoTime": 0.037,
  "EchoTrainLength": 104,
  "EffectiveEchoSpacing": 0.000560011,
  "FlipAngle": 52,
  "ImageComments": "Unaliased_MB4_PE3_LB",
  "ImageOrientationPatientDICOM": [0.997922, -0.0624983, 0.0156892, 0.0643579, 0.954595, -0.29087],
  "ImageType": [
    "ORIGINAL",
    "PRIMARY",
    "M",
    "MB",
    "ND",
    "MOSAIC"
],
  "ImagingFrequency": 123.259,
  "InPlanePhaseEncodingDirectionDICOM": "COL",
  "InstitutionAddress": "Chemin_Queen-Mary_4565_Montreal_District_CA_H3W_1W5",
  "InstitutionName": "IUGM",
  "InstitutionalDepartmentName": "Department",
  "MRAcquisitionType": "2D",
  "MagneticFieldStrength": 3,
  "Manufacturer": "Siemens",
  "ManufacturersModelName": "Prisma_fit",
  "Modality": "MR",
  "MultibandAccelerationFactor": 4,
  "PartialFourier": 1,
  "PatientPosition": "HFS",
  "PercentPhaseFOV": 100,
  "PhaseEncodingDirection": "j",
  "PhaseEncodingSteps": 104,
  "PhaseResolution": 1,
  "PixelBandwidth": 2290,
  "ProcedureStepDescription": "memory_things",
  "ProtocolName": "func_task-things_run-5",
  "PulseSequenceDetails": "%CustomerSeq%_cmrr_mbep2d_bold",
  "ReceiveCoilActiveElements": "HC1-7;NC1,2",
  "ReceiveCoilName": "HeadNeck_64",
  "ReconMatrixPE": 104,
  "RepetitionTime": 1.49,
  "SAR": 0.040294,
  "ScanOptions": "FS",
  "ScanningSequence": "EP",
  "SequenceName": "epfid2d1_104",
  "SequenceVariant": "SK_SS",
  "SeriesDescription": "func_task-things_run-5",
  "SeriesNumber": 22,
  "ShimSetting": [626, -7259, -8781, 621, -11, -218, -17, -23],
  "SliceThickness": 2,
  "SliceTiming": [0, 0.785, 0.1, 0.8825, 0.1975, 0.98, 0.295, 1.08, 0.3925, 1.1775, 0.49, 1.275, 0.59, 1.3725, 0.6875, 0, 0.785, 0.1, 0.8825, 0.1975, 0.98, 0.295, 1.08, 0.3925, 1.1775, 0.49, 1.275, 0.59, 1.3725, 0.6875, 0, 0.785, 0.1, 0.8825, 0.1975, 0.98, 0.295, 1.08, 0.3925, 1.1775, 0.49, 1.275, 0.59, 1.3725, 0.6875, 0, 0.785, 0.1, 0.8825, 0.1975, 0.98, 0.295, 1.08, 0.3925, 1.1775, 0.49, 1.275, 0.59, 1.3725, 0.6875],
  "SoftwareVersions": "syngo_MR_E11",
  "SpacingBetweenSlices": 2,
  "StationName": "MRC35049",
  "TaskName": "things",
  "TotalReadoutTime": 0.0576811,
  "TxRefAmp": 234.676,
  "WipMemBlock": "623c0f35-5012-4504-8bca-01f7219b314b||Sequence: R016 ve11c/master r/e634e98; Dec 19 2017 11:00:25 by eja",
  "dcmmeta_affine": [
    [-1.995843529701233, 0.12871576845645905, -0.0064041935838758945, 100.79742431640625],
    [0.12499663978815079, 1.9091908931732178, -0.5825513005256653, -74.080322265625],
    [0.031378354877233505, 0.5817408561706543, 1.913267731666565, -51.80017852783203],
    [0.0, 0.0, 0.0, 1.0]
],
  "dcmmeta_reorient_transform": [
    [0.0, -1.0, 0.0, 103.0],
    [1.0, 0.0, 0.0, 0.0],
    [0.0, 0.0, 1.0, 0.0],
    [0.0, 0.0, 0.0, 1.0]
],
  "dcmmeta_shape": [104, 104, 60, 190],
  "dcmmeta_slice_dim": 2,
  "dcmmeta_version": 0.6,
  "global": {
    "const": {
      "AcquisitionMatrix": [104, 0, 0, 104],
      "AngioFlag": "N",
      "BitsAllocated": 16,
      "BitsStored": 16,
      "BodyPartExamined": "BRAIN",
      "Columns": 832,
      "EchoNumbers": 1,
      "EchoTime": 37.0,
      "EchoTrainLength": 104,
      "FlipAngle": 52.0,
      "HighBit": 15,
      "ImageOrientationPatient": [0.99792174519419, -0.0624983215378, 0.01568917695552, 0.06435788254213, 0.95459544170979, -0.2908704275473],
      "ImagePositionPatient": [-887.39472020193, -772.01304250846, 208.4510789653],
      "ImageType": [
        "ORIGINAL",
        "PRIMARY",
        "M",
        "MB",
        "ND",
        "MOSAIC"
],
      "ImagedNucleus": "1H",
      "ImagingFrequency": 123.258872,
      "InPlanePhaseEncodingDirection": "COL",
      "MRAcquisitionType": "2D",
      "MagneticFieldStrength": 3.0,
      "Manufacturer": "SIEMENS",
      "ManufacturerModelName": "Prisma_fit",
      "Modality": "MR",
      "NumberOfAverages": 1.0,
      "NumberOfPhaseEncodingSteps": 104,
      "PercentPhaseFieldOfView": 100.0,
      "PercentSampling": 100.0,
      "PerformedProcedureStepStartTime": "145915.013000",
      "PhotometricInterpretation": "MONOCHROME2",
      "PixelBandwidth": 2290.0,
      "PixelRepresentation": 0,
      "PixelSpacing": [2.0, 2.0],
      "ProtocolName": "func_task-things_run-5",
      "RepetitionTime": 1490.0,
      "Rows": 832,
      "SAR": 0.04029402592443,
      "SamplesPerPixel": 1,
      "ScanOptions": "FS",
      "ScanningSequence": "EP",
      "SequenceName": "epfid2d1_104",
      "SequenceVariant": [
        "SK",
        "SS"
],
      "SeriesDescription": "func_task-things_run-5",
      "SeriesNumber": 22,
      "SeriesTime": "155943.875000",
      "SliceLocation": -28.298772455574,
      "SliceThickness": 2.0,
      "SmallestImagePixelValue": 0,
      "SoftwareVersions": "syngo MR E11",
      "SpacingBetweenSlices": 2.000000059792,
      "SpecificCharacterSet": "ISO_IR 100",
      "StudyID": "1",
      "StudyTime": "145914.904000",
      "TransmitCoilName": "Body",
      "VariableFlipAngleFlag": "N",
      "WindowCenterWidthExplanation": "Algo1",
      "dBdt": 0.0},
    "slices": {}
  },
  "time": {
    "samples": {
      "AcquisitionNumber": [1, 2, 3, 4, 5, 6, 7, 8, 9, 10, 11, 12, 13, 14, 15, 16, 17, 18, 19, 20, 21, 22, 23, 24, 25, 26, 27, 28, 29, 30, 31, 32, 33, 34, 35, 36, 37, 38, 39, 40, 41, 42, 43, 44, 45, 46, 47, 48, 49, 50, 51, 52, 53, 54, 55, 56, 57, 58, 59, 60, 61, 62, 63, 64, 65, 66, 67, 68, 69, 70, 71, 72, 73, 74, 75, 76, 77, 78, 79, 80, 81, 82, 83, 84, 85, 86, 87, 88, 89, 90, 91, 92, 93, 94, 95, 96, 97, 98, 99, 100, 101, 102, 103, 104, 105, 106, 107, 108, 109, 110, 111, 112, 113, 114, 115, 116, 117, 118, 119, 120, 121, 122, 123, 124, 125, 126, 127, 128, 129, 130, 131, 132, 133, 134, 135, 136, 137, 138, 139, 140, 141, 142, 143, 144, 145, 146, 147, 148, 149, 150, 151, 152, 153, 154, 155, 156, 157, 158, 159, 160, 161, 162, 163, 164, 165, 166, 167, 168, 169, 170, 171, 172, 173, 174, 175, 176, 177, 178, 179, 180, 181, 182, 183, 184, 185, 186, 187, 188, 189, 190],
      "AcquisitionTime": ["155844.285000", "155845.775000", "155847.265000", "155848.755000", "155850.245000", "155851.735000", "155853.225000", "155854.715000", "155856.205000", "155857.695000", "155859.185000", "155900.675000", "155902.165000", "155903.655000", "155905.145000", "155906.635000", "155908.125000", "155909.615000", "155911.105000", "155912.595000", "155914.085000", "155915.575000", "155917.065000", "155918.555000", "155920.045000", "155921.535000", "155923.025000", "155924.515000", "155926.005000", "155927.495000", "155928.985000", "155930.475000", "155931.965000", "155933.455000", "155934.945000", "155936.435000", "155937.925000", "155939.415000", "155940.905000", "155942.395000", "155943.885000", "155945.375000", "155946.865000", "155948.355000", "155949.845000", "155951.335000", "155952.825000", "155954.315000", "155955.805000", "155957.295000", "155958.785000", "160000.275000", "160001.765000", "160003.255000", "160004.745000", "160006.235000", "160007.725000", "160009.215000", "160010.705000", "160012.195000", "160013.685000", "160015.175000", "160016.665000", "160018.155000", "160019.645000", "160021.135000", "160022.625000", "160024.115000", "160025.605000", "160027.095000", "160028.585000", "160030.075000", "160031.565000", "160033.055000", "160034.545000", "160036.035000", "160037.525000", "160039.015000", "160040.505000", "160041.995000", "160043.485000", "160044.975000", "160046.465000", "160047.955000", "160049.445000", "160050.935000", "160052.425000", "160053.915000", "160055.405000", "160056.895000", "160058.385000", "160059.875000", "160101.365000", "160102.855000", "160104.345000", "160105.835000", "160107.325000", "160108.815000", "160110.305000", "160111.795000", "160113.285000", "160114.775000", "160116.265000", "160117.755000", "160119.245000", "160120.735000", "160122.225000", "160123.715000", "160125.205000", "160126.695000", "160128.185000", "160129.675000", "160131.165000", "160132.655000", "160134.145000", "160135.635000", "160137.125000", "160138.615000", "160140.105000", "160141.595000", "160143.085000", "160144.575000", "160146.065000", "160147.555000", "160149.045000", "160150.535000", "160152.025000", "160153.515000", "160155.005000", "160156.495000", "160157.985000", "160159.475000", "160200.965000", "160202.455000", "160203.945000", "160205.435000", "160206.925000", "160208.415000", "160209.905000", "160211.395000", "160212.885000", "160214.375000", "160215.865000", "160217.355000", "160218.845000", "160220.335000", "160221.825000", "160223.315000", "160224.805000", "160226.295000", "160227.785000", "160229.275000", "160230.765000", "160232.255000", "160233.745000", "160235.235000", "160236.725000", "160238.215000", "160239.705000", "160241.195000", "160242.685000", "160244.175000", "160245.665000", "160247.155000", "160248.645000", "160250.135000", "160251.625000", "160253.115000", "160254.605000", "160256.095000", "160257.585000", "160259.075000", "160300.565000", "160302.055000", "160303.545000", "160305.035000", "160306.525000", "160308.015000", "160309.505000", "160310.995000", "160312.485000", "160313.975000", "160315.465000", "160316.955000", "160318.445000", "160319.935000", "160321.425000", "160322.915000", "160324.405000", "160325.895000"],
      "ContentTime": ["155943.878000", "155943.882000", "155943.885000", "155943.888000", "155943.892000", "155943.895000", "160003.843000", "160003.847000", "160003.850000", "160003.864000", "160003.867000", "160003.870000", "160003.873000", "160003.877000", "160003.880000", "160003.883000", "160003.887000", "160003.890000", "160003.893000", "160003.897000", "160003.900000", "160003.903000", "160003.907000", "160003.910000", "160003.913000", "160003.917000", "160003.920000", "160023.843000", "160023.847000", "160023.850000", "160023.853000", "160023.857000", "160023.860000", "160023.863000", "160023.867000", "160023.870000", "160023.881000", "160023.884000", "160023.887000", "160023.891000", "160023.894000", "160023.897000", "160023.900000", "160023.904000", "160023.907000", "160023.910000", "160023.913000", "160043.842000", "160043.846000", "160043.849000", "160043.852000", "160043.856000", "160043.859000", "160043.862000", "160043.866000", "160043.869000", "160043.872000", "160043.876000", "160043.879000", "160043.883000", "160043.886000", "160043.890000", "160043.895000", "160043.899000", "160043.902000", "160043.905000", "160043.909000", "160103.842000", "160103.846000", "160103.849000", "160103.852000", "160103.856000", "160103.859000", "160103.863000", "160103.866000", "160103.869000", "160103.873000", "160103.876000", "160103.879000", "160103.883000", "160103.886000", "160103.889000", "160103.893000", "160103.896000", "160103.899000", "160103.903000", "160103.906000", "160103.909000", "160143.843000", "160143.847000", "160143.850000", "160143.854000", "160143.857000", "160143.860000", "160143.864000", "160143.867000", "160143.870000", "160143.874000", "160143.877000", "160143.880000", "160143.884000", "160143.887000", "160143.890000", "160143.894000", "160143.897000", "160143.900000", "160143.904000", "160143.907000", "160143.910000", "160143.914000", "160143.917000", "160143.926000", "160143.930000", "160143.933000", "160143.936000", "160143.940000", "160143.943000", "160143.946000", "160143.950000", "160223.843000", "160223.847000", "160223.850000", "160223.853000", "160223.859000", "160223.862000", "160223.865000", "160223.869000", "160223.872000", "160223.876000", "160223.879000", "160223.882000", "160223.885000", "160223.889000", "160223.892000", "160223.895000", "160223.899000", "160223.902000", "160223.905000", "160223.909000", "160223.912000", "160223.915000", "160223.919000", "160223.922000", "160223.926000", "160223.929000", "160223.932000", "160303.842000", "160303.846000", "160303.849000", "160303.853000", "160303.856000", "160303.859000", "160303.863000", "160303.866000", "160303.877000", "160303.881000", "160303.884000", "160303.888000", "160303.891000", "160303.894000", "160303.898000", "160303.901000", "160303.904000", "160303.908000", "160303.911000", "160303.914000", "160303.918000", "160303.921000", "160303.938000", "160303.942000", "160303.945000", "160303.948000", "160303.952000", "160328.522000", "160328.526000", "160328.529000", "160328.533000", "160328.536000", "160328.539000", "160328.543000", "160328.546000", "160328.549000", "160328.553000", "160328.556000", "160328.559000", "160328.563000", "160328.566000", "160328.570000", "160328.573000", "160328.577000"],
      "InstanceCreationTime": ["155943.878000", "155943.882000", "155943.885000", "155943.888000", "155943.892000", "155943.895000", "160003.843000", "160003.847000", "160003.850000", "160003.864000", "160003.867000", "160003.870000", "160003.873000", "160003.877000", "160003.880000", "160003.883000", "160003.887000", "160003.890000", "160003.893000", "160003.897000", "160003.900000", "160003.903000", "160003.907000", "160003.910000", "160003.913000", "160003.917000", "160003.920000", "160023.843000", "160023.847000", "160023.850000", "160023.853000", "160023.857000", "160023.860000", "160023.863000", "160023.867000", "160023.870000", "160023.881000", "160023.884000", "160023.887000", "160023.891000", "160023.894000", "160023.897000", "160023.900000", "160023.904000", "160023.907000", "160023.910000", "160023.913000", "160043.842000", "160043.846000", "160043.849000", "160043.852000", "160043.856000", "160043.859000", "160043.862000", "160043.866000", "160043.869000", "160043.872000", "160043.876000", "160043.879000", "160043.883000", "160043.886000", "160043.890000", "160043.895000", "160043.899000", "160043.902000", "160043.905000", "160043.909000", "160103.842000", "160103.846000", "160103.849000", "160103.852000", "160103.856000", "160103.859000", "160103.863000", "160103.866000", "160103.869000", "160103.873000", "160103.876000", "160103.879000", "160103.883000", "160103.886000", "160103.889000", "160103.893000", "160103.896000", "160103.899000", "160103.903000", "160103.906000", "160103.909000", "160143.843000", "160143.847000", "160143.850000", "160143.854000", "160143.857000", "160143.860000", "160143.864000", "160143.867000", "160143.870000", "160143.874000", "160143.877000", "160143.880000", "160143.884000", "160143.887000", "160143.890000", "160143.894000", "160143.897000", "160143.900000", "160143.904000", "160143.907000", "160143.910000", "160143.914000", "160143.917000", "160143.926000", "160143.930000", "160143.933000", "160143.936000", "160143.940000", "160143.943000", "160143.946000", "160143.950000", "160223.843000", "160223.847000", "160223.850000", "160223.853000", "160223.859000", "160223.862000", "160223.865000", "160223.869000", "160223.872000", "160223.876000", "160223.879000", "160223.882000", "160223.885000", "160223.889000", "160223.892000", "160223.895000", "160223.899000", "160223.902000", "160223.905000", "160223.909000", "160223.912000", "160223.915000", "160223.919000", "160223.922000", "160223.926000", "160223.929000", "160223.932000", "160303.842000", "160303.846000", "160303.849000", "160303.853000", "160303.856000", "160303.859000", "160303.863000", "160303.866000", "160303.877000", "160303.881000", "160303.884000", "160303.888000", "160303.891000", "160303.894000", "160303.898000", "160303.901000", "160303.904000", "160303.908000", "160303.911000", "160303.914000", "160303.918000", "160303.921000", "160303.938000", "160303.942000", "160303.945000", "160303.948000", "160303.952000", "160328.522000", "160328.526000", "160328.529000", "160328.533000", "160328.536000", "160328.539000", "160328.543000", "160328.546000", "160328.549000", "160328.553000", "160328.556000", "160328.559000", "160328.563000", "160328.566000", "160328.570000", "160328.573000", "160328.577000"],
      "InstanceNumber": [1, 2, 3, 4, 5, 6, 7, 8, 9, 10, 11, 12, 13, 14, 15, 16, 17, 18, 19, 20, 21, 22, 23, 24, 25, 26, 27, 28, 29, 30, 31, 32, 33, 34, 35, 36, 37, 38, 39, 40, 41, 42, 43, 44, 45, 46, 47, 48, 49, 50, 51, 52, 53, 54, 55, 56, 57, 58, 59, 60, 61, 62, 63, 64, 65, 66, 67, 68, 69, 70, 71, 72, 73, 74, 75, 76, 77, 78, 79, 80, 81, 82, 83, 84, 85, 86, 87, 88, 89, 90, 91, 92, 93, 94, 95, 96, 97, 98, 99, 100, 101, 102, 103, 104, 105, 106, 107, 108, 109, 110, 111, 112, 113, 114, 115, 116, 117, 118, 119, 120, 121, 122, 123, 124, 125, 126, 127, 128, 129, 130, 131, 132, 133, 134, 135, 136, 137, 138, 139, 140, 141, 142, 143, 144, 145, 146, 147, 148, 149, 150, 151, 152, 153, 154, 155, 156, 157, 158, 159, 160, 161, 162, 163, 164, 165, 166, 167, 168, 169, 170, 171, 172, 173, 174, 175, 176, 177, 178, 179, 180, 181, 182, 183, 184, 185, 186, 187, 188, 189, 190],
      "LargestImagePixelValue": [42911, 41819, 40551, 40302, 39658, 39966, 39725, 39560, 39345, 39507, 39362, 39659, 39535, 40863, 40512, 40048, 39703, 39514, 39585, 39381, 39269, 38651, 40491, 40330, 40808, 39344, 41483, 40641, 40644, 39964, 40088, 39552, 40834, 40654, 39688, 40015, 39940, 40639, 41475, 41502, 41191, 40950, 41156, 40194, 39550, 39743, 39774, 40773, 41084, 40486, 40281, 40455, 40337, 39713, 40279, 40908, 40865, 40609, 39982, 40653, 40598, 40789, 40879, 40355, 40560, 40266, 40930, 40755, 40882, 40851, 41461, 41500, 41696, 40933, 40596, 39941, 39340, 39966, 40604, 40716, 39969, 40453, 39480, 40003, 39779, 40244, 40122, 39880, 40009, 39889, 40099, 40059, 39774, 40158, 40069, 40504, 40660, 41272, 40543, 40724, 40875, 41339, 41111, 40787, 40625, 41062, 41088, 40707, 39967, 40860, 40303, 40867, 41041, 41054, 40551, 40611, 41629, 41178, 41010, 41064, 40883, 40668, 40945, 40543, 40900, 40799, 41016, 40986, 41423, 40975, 41862, 41280, 40847, 40979, 40651, 41142, 41052, 40934, 41806, 41292, 40891, 41655, 40593, 40601, 41098, 40905, 40741, 40688, 40625, 41198, 41080, 40528, 41047, 41830, 41453, 41494, 41160, 41512, 41304, 41349, 39815, 40227, 41519, 39982, 40504, 40406, 40501, 40712, 40741, 40892, 40182, 39172, 40298, 40483, 41142, 40794, 40392, 40397, 40670, 40210, 39643, 40299, 40816, 40257, 40430, 40552, 40164, 40485, 39645, 40003],
      "WindowCenter": [10197.0, 10129.0, 10099.0, 10097.0, 10090.0, 10080.0, 10049.0, 10037.0, 10042.0, 10054.0, 10063.0, 10068.0, 10079.0, 10105.0, 10092.0, 10063.0, 10044.0, 10055.0, 10078.0, 10050.0, 10021.0, 9994.0, 10049.0, 10066.0, 10122.0, 10099.0, 10117.0, 10063.0, 10007.0, 9984.0, 10007.0, 10029.0, 10035.0, 10023.0, 10024.0, 10029.0, 10028.0, 10049.0, 10064.0, 10071.0, 10076.0, 10067.0, 10067.0, 10038.0, 10030.0, 10036.0, 10053.0, 10053.0, 10018.0, 10011.0, 10031.0, 10034.0, 10026.0, 10014.0, 10034.0, 10049.0, 10057.0, 10059.0, 10060.0, 10077.0, 10069.0, 10061.0, 10050.0, 10028.0, 10040.0, 10073.0, 10093.0, 10091.0, 10112.0, 10102.0, 10087.0, 10086.0, 10119.0, 10166.0, 10112.0, 10094.0, 10039.0, 10015.0, 10019.0, 10035.0, 10043.0, 10035.0, 10004.0, 10000.0, 10006.0, 10037.0, 10028.0, 10023.0, 10005.0, 10033.0, 10059.0, 10061.0, 10040.0, 10019.0, 10033.0, 10070.0, 10096.0, 10105.0, 10092.0, 10100.0, 10121.0, 10128.0, 10107.0, 10089.0, 10081.0, 10093.0, 10104.0, 10098.0, 10070.0, 10070.0, 10073.0, 10095.0, 10089.0, 10080.0, 10080.0, 10118.0, 10153.0, 10120.0, 10093.0, 10105.0, 10097.0, 10074.0, 10042.0, 10016.0, 10013.0, 10035.0, 10052.0, 10063.0, 10099.0, 10120.0, 10118.0, 10089.0, 10079.0, 10085.0, 10090.0, 10104.0, 10085.0, 10071.0, 10068.0, 10087.0, 10127.0, 10142.0, 10109.0, 10074.0, 10049.0, 10021.0, 9998.0, 10001.0, 10054.0, 10093.0, 10075.0, 10054.0, 10061.0, 10039.0, 10014.0, 10029.0, 10017.0, 10015.0, 10022.0, 10056.0, 10057.0, 10081.0, 10101.0, 10098.0, 10082.0, 10074.0, 10054.0, 10016.0, 9981.0, 9986.0, 9999.0, 9986.0, 9997.0, 10011.0, 10018.0, 10011.0, 10005.0, 10019.0, 10048.0, 10053.0, 10046.0, 10056.0, 10064.0, 10042.0, 10022.0, 10027.0, 10068.0, 10090.0, 10065.0, 10039.0],
      "WindowWidth": [21999.0, 21808.0, 21718.0, 21704.0, 21682.0, 21651.0, 21580.0, 21553.0, 21559.0, 21590.0, 21607.0, 21614.0, 21637.0, 21696.0, 21669.0, 21605.0, 21560.0, 21585.0, 21635.0, 21574.0, 21506.0, 21450.0, 21570.0, 21613.0, 21761.0, 21714.0, 21731.0, 21608.0, 21481.0, 21423.0, 21475.0, 21529.0, 21535.0, 21513.0, 21522.0, 21534.0, 21534.0, 21577.0, 21604.0, 21619.0, 21636.0, 21617.0, 21614.0, 21557.0, 21540.0, 21553.0, 21592.0, 21587.0, 21508.0, 21489.0, 21538.0, 21548.0, 21530.0, 21509.0, 21549.0, 21581.0, 21599.0, 21601.0, 21606.0, 21643.0, 21626.0, 21609.0, 21579.0, 21535.0, 21556.0, 21627.0, 21671.0, 21671.0, 21718.0, 21697.0, 21658.0, 21653.0, 21739.0, 21860.0, 21719.0, 21682.0, 21557.0, 21499.0, 21503.0, 21538.0, 21562.0, 21543.0, 21478.0, 21465.0, 21479.0, 21544.0, 21528.0, 21521.0, 21475.0, 21537.0, 21600.0, 21605.0, 21560.0, 21511.0, 21540.0, 21621.0, 21678.0, 21697.0, 21670.0, 21689.0, 21737.0, 21755.0, 21709.0, 21666.0, 21647.0, 21672.0, 21698.0, 21685.0, 21627.0, 21616.0, 21628.0, 21676.0, 21664.0, 21645.0, 21648.0, 21733.0, 21815.0, 21741.0, 21682.0, 21703.0, 21683.0, 21630.0, 21558.0, 21500.0, 21494.0, 21541.0, 21580.0, 21609.0, 21686.0, 21737.0, 21728.0, 21666.0, 21642.0, 21654.0, 21664.0, 21696.0, 21655.0, 21620.0, 21615.0, 21660.0, 21750.0, 21785.0, 21717.0, 21636.0, 21580.0, 21512.0, 21466.0, 21466.0, 21584.0, 21667.0, 21629.0, 21580.0, 21597.0, 21543.0, 21488.0, 21519.0, 21498.0, 21492.0, 21505.0, 21580.0, 21586.0, 21643.0, 21694.0, 21706.0, 21660.0, 21636.0, 21588.0, 21499.0, 21420.0, 21430.0, 21459.0, 21434.0, 21456.0, 21487.0, 21500.0, 21487.0, 21475.0, 21508.0, 21569.0, 21581.0, 21568.0, 21591.0, 21607.0, 21561.0, 21514.0, 21525.0, 21617.0, 21664.0, 21613.0, 21555.0]
    },
    "slices": {}
  }
}