{
  "AcquisitionMatrixPE": 104,
  "AcquisitionNumber": 1,
  "AcquisitionTime": "16:08:23.262500",
  "BandwidthPerPixelPhaseEncode": 17.17,
  "BaseResolution": 104,
  "BodyPartExamined": "BRAIN",
  "CoilString": "HC1-7;NC1_2",
  "ConsistencyInfo": "N4_VE11C_LATEST_20160120",
  "ConversionSoftware": "dcm2niix",
  "ConversionSoftwareVersion": "v1.0.20190902",
  "DerivedVendorReportedEchoSpacing": 0.000560011,
  "DeviceSerialNumber": "167006",
  "DwellTime": 2.1e-06,
  "EchoTime": 0.037,
  "EchoTrainLength": 104,
  "EffectiveEchoSpacing": 0.000560011,
  "FlipAngle": 52,
  "ImageComments": "Unaliased_MB4_PE3_LB",
  "ImageOrientationPatientDICOM": [0.997922, -0.0624983, 0.0156892, 0.0643579, 0.954595, -0.29087],
  "ImageType": [
    "ORIGINAL",
    "PRIMARY",
    "P",
    "MB",
    "ND",
    "MOSAIC"
],
  "ImagingFrequency": 123.259,
  "InPlanePhaseEncodingDirectionDICOM": "COL",
  "InstitutionAddress": "Chemin_Queen-Mary_4565_Montreal_District_CA_H3W_1W5",
  "InstitutionName": "IUGM",
  "InstitutionalDepartmentName": "Department",
  "MRAcquisitionType": "2D",
  "MagneticFieldStrength": 3,
  "Manufacturer": "Siemens",
  "ManufacturersModelName": "Prisma_fit",
  "Modality": "MR",
  "MultibandAccelerationFactor": 4,
  "PartialFourier": 1,
  "PatientPosition": "HFS",
  "PercentPhaseFOV": 100,
  "PhaseEncodingDirection": "j",
  "PhaseEncodingSteps": 104,
  "PhaseResolution": 1,
  "PixelBandwidth": 2290,
  "ProcedureStepDescription": "memory_things",
  "ProtocolName": "func_task-things_run-6",
  "PulseSequenceDetails": "%CustomerSeq%_cmrr_mbep2d_bold",
  "ReceiveCoilActiveElements": "HC1-7;NC1,2",
  "ReceiveCoilName": "HeadNeck_64",
  "ReconMatrixPE": 104,
  "RepetitionTime": 1.49,
  "SAR": 0.040294,
  "ScanOptions": "FS",
  "ScanningSequence": "EP",
  "SequenceName": "epfid2d1_104",
  "SequenceVariant": "SK_SS",
  "SeriesDescription": "func_task-things_run-6",
  "SeriesNumber": 26,
  "ShimSetting": [626, -7259, -8781, 621, -11, -218, -17, -23],
  "SliceThickness": 2,
  "SliceTiming": [0, 0.785, 0.0975, 0.8825, 0.1975, 0.98, 0.295, 1.0775, 0.3925, 1.1775, 0.49, 1.275, 0.5875, 1.3725, 0.6875, 0, 0.785, 0.0975, 0.8825, 0.1975, 0.98, 0.295, 1.0775, 0.3925, 1.1775, 0.49, 1.275, 0.5875, 1.3725, 0.6875, 0, 0.785, 0.0975, 0.8825, 0.1975, 0.98, 0.295, 1.0775, 0.3925, 1.1775, 0.49, 1.275, 0.5875, 1.3725, 0.6875, 0, 0.785, 0.0975, 0.8825, 0.1975, 0.98, 0.295, 1.0775, 0.3925, 1.1775, 0.49, 1.275, 0.5875, 1.3725, 0.6875],
  "SoftwareVersions": "syngo_MR_E11",
  "SpacingBetweenSlices": 2,
  "StationName": "MRC35049",
  "TaskName": "things",
  "TotalReadoutTime": 0.0576811,
  "TxRefAmp": 234.676,
  "WipMemBlock": "4d18526e-7f97-45ea-a0a5-cbcf91602e87||Sequence: R016 ve11c/master r/e634e98; Dec 19 2017 11:00:25 by eja",
  "dcmmeta_affine": [
    [-1.995843529701233, 0.12871576845645905, -0.0064041935838758945, 100.79742431640625],
    [0.12499663978815079, 1.9091908931732178, -0.5825513005256653, -74.080322265625],
    [0.031378354877233505, 0.5817408561706543, 1.913267731666565, -51.80017852783203],
    [0.0, 0.0, 0.0, 1.0]
],
  "dcmmeta_reorient_transform": [
    [0.0, -1.0, 0.0, 103.0],
    [1.0, 0.0, 0.0, 0.0],
    [0.0, 0.0, 1.0, 0.0],
    [0.0, 0.0, 0.0, 1.0]
],
  "dcmmeta_shape": [104, 104, 60, 190],
  "dcmmeta_slice_dim": 2,
  "dcmmeta_version": 0.6,
  "global": {
    "const": {
      "AcquisitionMatrix": [104, 0, 0, 104],
      "AngioFlag": "N",
      "BitsAllocated": 16,
      "BitsStored": 16,
      "BodyPartExamined": "BRAIN",
      "Columns": 832,
      "EchoNumbers": 1,
      "EchoTime": 37.0,
      "EchoTrainLength": 104,
      "FlipAngle": 52.0,
      "HighBit": 15,
      "ImageOrientationPatient": [0.99792174519419, -0.0624983215378, 0.01568917695552, 0.06435788254213, 0.95459544170979, -0.2908704275473],
      "ImagePositionPatient": [-887.39472020193, -772.01304250846, 208.4510789653],
      "ImageType": [
        "ORIGINAL",
        "PRIMARY",
        "P",
        "MB",
        "ND",
        "MOSAIC"
],
      "ImagedNucleus": "1H",
      "ImagingFrequency": 123.258873,
      "InPlanePhaseEncodingDirection": "COL",
      "LargestImagePixelValue": 4095,
      "MRAcquisitionType": "2D",
      "MagneticFieldStrength": 3.0,
      "Manufacturer": "SIEMENS",
      "ManufacturerModelName": "Prisma_fit",
      "Modality": "MR",
      "NumberOfAverages": 1.0,
      "NumberOfPhaseEncodingSteps": 104,
      "PercentPhaseFieldOfView": 100.0,
      "PercentSampling": 100.0,
      "PerformedProcedureStepStartTime": "145915.013000",
      "PhotometricInterpretation": "MONOCHROME2",
      "PixelBandwidth": 2290.0,
      "PixelRepresentation": 0,
      "PixelSpacing": [2.0, 2.0],
      "ProtocolName": "func_task-things_run-6",
      "RepetitionTime": 1490.0,
      "RescaleIntercept": -4096.0,
      "RescaleSlope": 2.0,
      "RescaleType": "US",
      "Rows": 832,
      "SAR": 0.04029402592443,
      "SamplesPerPixel": 1,
      "ScanOptions": "FS",
      "ScanningSequence": "EP",
      "SequenceName": "epfid2d1_104",
      "SequenceVariant": [
        "SK",
        "SS"
],
      "SeriesDescription": "func_task-things_run-6",
      "SeriesNumber": 26,
      "SeriesTime": "160935.139000",
      "SliceLocation": -28.298772455574,
      "SliceThickness": 2.0,
      "SmallestImagePixelValue": 0,
      "SoftwareVersions": "syngo MR E11",
      "SpacingBetweenSlices": 2.000000059792,
      "SpecificCharacterSet": "ISO_IR 100",
      "StudyID": "1",
      "StudyTime": "145914.904000",
      "TransmitCoilName": "Body",
      "VariableFlipAngleFlag": "N",
      "WindowCenterWidthExplanation": "Algo1",
      "dBdt": 0.0},
    "slices": {}
  },
  "time": {
    "samples": {
      "AcquisitionNumber": [1, 2, 3, 4, 5, 6, 7, 8, 9, 10, 11, 12, 13, 14, 15, 16, 17, 18, 19, 20, 21, 22, 23, 24, 25, 26, 27, 28, 29, 30, 31, 32, 33, 34, 35, 36, 37, 38, 39, 40, 41, 42, 43, 44, 45, 46, 47, 48, 49, 50, 51, 52, 53, 54, 55, 56, 57, 58, 59, 60, 61, 62, 63, 64, 65, 66, 67, 68, 69, 70, 71, 72, 73, 74, 75, 76, 77, 78, 79, 80, 81, 82, 83, 84, 85, 86, 87, 88, 89, 90, 91, 92, 93, 94, 95, 96, 97, 98, 99, 100, 101, 102, 103, 104, 105, 106, 107, 108, 109, 110, 111, 112, 113, 114, 115, 116, 117, 118, 119, 120, 121, 122, 123, 124, 125, 126, 127, 128, 129, 130, 131, 132, 133, 134, 135, 136, 137, 138, 139, 140, 141, 142, 143, 144, 145, 146, 147, 148, 149, 150, 151, 152, 153, 154, 155, 156, 157, 158, 159, 160, 161, 162, 163, 164, 165, 166, 167, 168, 169, 170, 171, 172, 173, 174, 175, 176, 177, 178, 179, 180, 181, 182, 183, 184, 185, 186, 187, 188, 189, 190],
      "AcquisitionTime": ["160823.262500", "160824.752500", "160826.242500", "160827.732500", "160829.222500", "160830.712500", "160832.202500", "160833.692500", "160835.182500", "160836.672500", "160838.162500", "160839.652500", "160841.142500", "160842.632500", "160844.122500", "160845.612500", "160847.102500", "160848.592500", "160850.082500", "160851.572500", "160853.062500", "160854.552500", "160856.042500", "160857.532500", "160859.022500", "160900.512500", "160902.002500", "160903.492500", "160904.982500", "160906.472500", "160907.962500", "160909.452500", "160910.942500", "160912.432500", "160913.922500", "160915.412500", "160916.902500", "160918.392500", "160919.882500", "160921.372500", "160922.862500", "160924.352500", "160925.842500", "160927.332500", "160928.822500", "160930.312500", "160931.802500", "160933.292500", "160934.782500", "160936.272500", "160937.762500", "160939.252500", "160940.742500", "160942.232500", "160943.722500", "160945.212500", "160946.702500", "160948.192500", "160949.682500", "160951.172500", "160952.662500", "160954.152500", "160955.642500", "160957.132500", "160958.622500", "161000.112500", "161001.602500", "161003.092500", "161004.582500", "161006.072500", "161007.562500", "161009.052500", "161010.542500", "161012.032500", "161013.522500", "161015.012500", "161016.502500", "161017.992500", "161019.482500", "161020.972500", "161022.462500", "161023.952500", "161025.442500", "161026.932500", "161028.422500", "161029.912500", "161031.402500", "161032.892500", "161034.382500", "161035.872500", "161037.362500", "161038.852500", "161040.342500", "161041.832500", "161043.322500", "161044.812500", "161046.302500", "161047.792500", "161049.282500", "161050.772500", "161052.262500", "161053.752500", "161055.242500", "161056.732500", "161058.222500", "161059.712500", "161101.202500", "161102.692500", "161104.182500", "161105.672500", "161107.162500", "161108.652500", "161110.142500", "161111.632500", "161113.122500", "161114.612500", "161116.102500", "161117.592500", "161119.082500", "161120.572500", "161122.062500", "161123.552500", "161125.042500", "161126.532500", "161128.022500", "161129.512500", "161131.002500", "161132.492500", "161133.982500", "161135.472500", "161136.962500", "161138.452500", "161139.942500", "161141.432500", "161142.922500", "161144.412500", "161145.902500", "161147.392500", "161148.882500", "161150.372500", "161151.862500", "161153.352500", "161154.842500", "161156.332500", "161157.822500", "161159.312500", "161200.802500", "161202.292500", "161203.782500", "161205.272500", "161206.762500", "161208.252500", "161209.742500", "161211.232500", "161212.722500", "161214.212500", "161215.702500", "161217.192500", "161218.682500", "161220.172500", "161221.662500", "161223.152500", "161224.642500", "161226.132500", "161227.622500", "161229.112500", "161230.602500", "161232.092500", "161233.582500", "161235.072500", "161236.562500", "161238.052500", "161239.542500", "161241.032500", "161242.522500", "161244.012500", "161245.502500", "161246.992500", "161248.482500", "161249.972500", "161251.462500", "161252.952500", "161254.442500", "161255.932500", "161257.422500", "161258.912500", "161300.402500", "161301.892500", "161303.382500", "161304.872500"],
      "ContentTime": ["160935.141000", "160935.143000", "160935.146000", "160935.149000", "160935.151000", "160935.153000", "160935.162000", "160935.164000", "160935.167000", "160935.169000", "160935.172000", "160935.174000", "160935.177000", "160935.179000", "160935.182000", "160935.184000", "160935.187000", "160935.189000", "160935.192000", "160955.099000", "160955.102000", "160955.104000", "160955.106000", "160955.109000", "160955.111000", "160955.114000", "160955.116000", "160955.119000", "160955.121000", "160955.124000", "160955.126000", "160955.129000", "160955.131000", "160955.134000", "160955.136000", "160955.139000", "160955.141000", "160955.144000", "160955.146000", "161015.126000", "161015.129000", "161015.131000", "161015.134000", "161015.136000", "161015.139000", "161015.141000", "161015.144000", "161015.146000", "161015.149000", "161015.151000", "161015.154000", "161015.156000", "161015.159000", "161015.161000", "161015.164000", "161015.166000", "161015.169000", "161015.171000", "161015.174000", "161035.103000", "161035.106000", "161035.109000", "161035.111000", "161035.114000", "161035.116000", "161035.119000", "161035.121000", "161035.124000", "161035.126000", "161035.129000", "161035.131000", "161035.134000", "161035.137000", "161035.139000", "161035.141000", "161035.144000", "161035.147000", "161035.149000", "161035.152000", "161035.154000", "161055.096000", "161055.099000", "161055.101000", "161055.103000", "161055.106000", "161055.108000", "161055.111000", "161055.113000", "161055.116000", "161055.118000", "161055.121000", "161055.123000", "161055.126000", "161055.128000", "161055.131000", "161055.133000", "161055.136000", "161055.138000", "161055.141000", "161055.143000", "161135.548000", "161135.551000", "161135.554000", "161135.556000", "161135.559000", "161135.561000", "161135.564000", "161135.566000", "161135.569000", "161135.572000", "161135.574000", "161135.577000", "161135.579000", "161135.582000", "161135.584000", "161135.587000", "161135.589000", "161135.592000", "161135.594000", "161135.597000", "161135.599000", "161135.602000", "161135.604000", "161135.607000", "161135.609000", "161135.612000", "161135.614000", "161135.621000", "161215.134000", "161215.137000", "161215.140000", "161215.142000", "161215.145000", "161215.147000", "161215.150000", "161215.152000", "161215.155000", "161215.157000", "161215.194000", "161215.196000", "161215.199000", "161215.201000", "161215.204000", "161215.206000", "161215.209000", "161215.211000", "161215.214000", "161215.216000", "161215.219000", "161215.221000", "161215.224000", "161215.226000", "161215.229000", "161215.231000", "161255.125000", "161255.128000", "161255.130000", "161255.133000", "161255.135000", "161255.138000", "161255.140000", "161255.143000", "161255.145000", "161255.148000", "161255.150000", "161255.162000", "161255.165000", "161255.168000", "161255.170000", "161255.173000", "161255.175000", "161255.178000", "161255.180000", "161255.183000", "161255.185000", "161255.188000", "161255.190000", "161255.193000", "161255.195000", "161255.198000", "161255.200000", "161307.348000", "161307.351000", "161307.353000", "161307.356000", "161307.358000", "161307.361000", "161307.363000", "161307.366000", "161307.368000"],
      "InstanceCreationTime": ["160935.141000", "160935.143000", "160935.146000", "160935.149000", "160935.151000", "160935.153000", "160935.162000", "160935.164000", "160935.167000", "160935.169000", "160935.172000", "160935.174000", "160935.177000", "160935.179000", "160935.182000", "160935.184000", "160935.187000", "160935.189000", "160935.192000", "160955.099000", "160955.102000", "160955.104000", "160955.106000", "160955.109000", "160955.111000", "160955.114000", "160955.116000", "160955.119000", "160955.121000", "160955.124000", "160955.126000", "160955.129000", "160955.131000", "160955.134000", "160955.136000", "160955.139000", "160955.141000", "160955.144000", "160955.146000", "161015.126000", "161015.129000", "161015.131000", "161015.134000", "161015.136000", "161015.139000", "161015.141000", "161015.144000", "161015.146000", "161015.149000", "161015.151000", "161015.154000", "161015.156000", "161015.159000", "161015.161000", "161015.164000", "161015.166000", "161015.169000", "161015.171000", "161015.174000", "161035.103000", "161035.106000", "161035.109000", "161035.111000", "161035.114000", "161035.116000", "161035.119000", "161035.121000", "161035.124000", "161035.126000", "161035.129000", "161035.131000", "161035.134000", "161035.137000", "161035.139000", "161035.141000", "161035.144000", "161035.147000", "161035.149000", "161035.152000", "161035.154000", "161055.096000", "161055.099000", "161055.101000", "161055.103000", "161055.106000", "161055.108000", "161055.111000", "161055.113000", "161055.116000", "161055.118000", "161055.121000", "161055.123000", "161055.126000", "161055.128000", "161055.131000", "161055.133000", "161055.136000", "161055.138000", "161055.141000", "161055.143000", "161135.548000", "161135.551000", "161135.554000", "161135.556000", "161135.559000", "161135.561000", "161135.564000", "161135.566000", "161135.569000", "161135.572000", "161135.574000", "161135.577000", "161135.579000", "161135.582000", "161135.584000", "161135.587000", "161135.589000", "161135.592000", "161135.594000", "161135.597000", "161135.599000", "161135.602000", "161135.604000", "161135.607000", "161135.609000", "161135.612000", "161135.614000", "161135.621000", "161215.134000", "161215.137000", "161215.140000", "161215.142000", "161215.145000", "161215.147000", "161215.150000", "161215.152000", "161215.155000", "161215.157000", "161215.194000", "161215.196000", "161215.199000", "161215.201000", "161215.204000", "161215.206000", "161215.209000", "161215.211000", "161215.214000", "161215.216000", "161215.219000", "161215.221000", "161215.224000", "161215.226000", "161215.229000", "161215.231000", "161255.125000", "161255.128000", "161255.130000", "161255.133000", "161255.135000", "161255.138000", "161255.140000", "161255.143000", "161255.145000", "161255.148000", "161255.150000", "161255.162000", "161255.165000", "161255.168000", "161255.170000", "161255.173000", "161255.175000", "161255.178000", "161255.180000", "161255.183000", "161255.185000", "161255.188000", "161255.190000", "161255.193000", "161255.195000", "161255.198000", "161255.200000", "161307.348000", "161307.351000", "161307.353000", "161307.356000", "161307.358000", "161307.361000", "161307.363000", "161307.366000", "161307.368000"],
      "InstanceNumber": [1, 2, 3, 4, 5, 6, 7, 8, 9, 10, 11, 12, 13, 14, 15, 16, 17, 18, 19, 20, 21, 22, 23, 24, 25, 26, 27, 28, 29, 30, 31, 32, 33, 34, 35, 36, 37, 38, 39, 40, 41, 42, 43, 44, 45, 46, 47, 48, 49, 50, 51, 52, 53, 54, 55, 56, 57, 58, 59, 60, 61, 62, 63, 64, 65, 66, 67, 68, 69, 70, 71, 72, 73, 74, 75, 76, 77, 78, 79, 80, 81, 82, 83, 84, 85, 86, 87, 88, 89, 90, 91, 92, 93, 94, 95, 96, 97, 98, 99, 100, 101, 102, 103, 104, 105, 106, 107, 108, 109, 110, 111, 112, 113, 114, 115, 116, 117, 118, 119, 120, 121, 122, 123, 124, 125, 126, 127, 128, 129, 130, 131, 132, 133, 134, 135, 136, 137, 138, 139, 140, 141, 142, 143, 144, 145, 146, 147, 148, 149, 150, 151, 152, 153, 154, 155, 156, 157, 158, 159, 160, 161, 162, 163, 164, 165, 166, 167, 168, 169, 170, 171, 172, 173, 174, 175, 176, 177, 178, 179, 180, 181, 182, 183, 184, 185, 186, 187, 188, 189, 190],
      "WindowCenter": [4800.0, 4834.0, 4826.0, 4774.0, 4776.0, 4774.0, 4774.0, 4804.0, 4836.0, 4798.0, 4802.0, 4800.0, 4824.0, 4802.0, 4772.0, 4776.0, 4774.0, 4772.0, 4770.0, 4798.0, 4802.0, 4824.0, 4830.0, 4832.0, 4778.0, 4776.0, 4772.0, 4770.0, 4772.0, 4796.0, 4796.0, 4800.0, 4778.0, 4798.0, 4796.0, 4770.0, 4774.0, 4798.0, 4768.0, 4774.0, 4802.0, 4802.0, 4774.0, 4778.0, 4780.0, 4776.0, 4796.0, 4862.0, 4898.0, 4866.0, 4828.0, 4776.0, 4808.0, 4806.0, 4776.0, 4774.0, 4824.0, 4860.0, 4860.0, 4838.0, 4774.0, 4778.0, 4776.0, 4774.0, 4776.0, 4774.0, 4802.0, 4772.0, 4774.0, 4798.0, 4802.0, 4830.0, 4802.0, 4828.0, 4798.0, 4784.0, 4792.0, 4778.0, 4772.0, 4800.0, 4830.0, 4826.0, 4802.0, 4796.0, 4774.0, 4774.0, 4776.0, 4774.0, 4772.0, 4802.0, 4798.0, 4778.0, 4800.0, 4798.0, 4832.0, 4834.0, 4828.0, 4800.0, 4776.0, 4800.0, 4780.0, 4798.0, 4800.0, 4802.0, 4800.0, 4776.0, 4778.0, 4786.0, 4774.0, 4772.0, 4802.0, 4826.0, 4802.0, 4794.0, 4774.0, 4774.0, 4772.0, 4776.0, 4776.0, 4768.0, 4798.0, 4794.0, 4800.0, 4776.0, 4776.0, 4796.0, 4802.0, 4826.0, 4798.0, 4774.0, 4798.0, 4776.0, 4776.0, 4772.0, 4776.0, 4800.0, 4802.0, 4800.0, 4778.0, 4778.0, 4798.0, 4800.0, 4830.0, 4826.0, 4796.0, 4798.0, 4802.0, 4778.0, 4800.0, 4798.0, 4804.0, 4800.0, 4802.0, 4778.0, 4804.0, 4810.0, 4804.0, 4826.0, 4824.0, 4836.0, 4834.0, 4796.0, 4776.0, 4780.0, 4802.0, 4804.0, 4802.0, 4778.0, 4798.0, 4802.0, 4776.0, 4800.0, 4804.0, 4780.0, 4806.0, 4812.0, 4778.0, 4832.0, 4862.0, 4834.0, 4776.0, 4776.0, 4776.0, 4774.0, 4776.0, 4776.0, 4778.0, 4774.0, 4798.0, 4798.0],
      "WindowWidth": [18606.0, 18648.0, 18638.0, 18564.0, 18570.0, 18570.0, 18568.0, 18606.0, 18646.0, 18600.0, 18600.0, 18604.0, 18638.0, 18602.0, 18574.0, 18572.0, 18570.0, 18564.0, 18568.0, 18604.0, 18600.0, 18640.0, 18642.0, 18644.0, 18578.0, 18574.0, 18568.0, 18568.0, 18570.0, 18598.0, 18600.0, 18600.0, 18572.0, 18600.0, 18602.0, 18572.0, 18574.0, 18600.0, 18560.0, 18570.0, 18606.0, 18604.0, 18570.0, 18570.0, 18572.0, 18572.0, 18598.0, 18684.0, 18726.0, 18686.0, 18636.0, 18574.0, 18616.0, 18612.0, 18572.0, 18574.0, 18638.0, 18680.0, 18682.0, 18648.0, 18568.0, 18572.0, 18572.0, 18562.0, 18570.0, 18566.0, 18600.0, 18568.0, 18570.0, 18600.0, 18602.0, 18640.0, 18602.0, 18638.0, 18600.0, 18576.0, 18580.0, 18570.0, 18566.0, 18606.0, 18644.0, 18638.0, 18606.0, 18604.0, 18568.0, 18566.0, 18578.0, 18578.0, 18576.0, 18600.0, 18602.0, 18572.0, 18602.0, 18594.0, 18638.0, 18638.0, 18632.0, 18598.0, 18570.0, 18602.0, 18576.0, 18600.0, 18598.0, 18598.0, 18600.0, 18574.0, 18570.0, 18576.0, 18570.0, 18570.0, 18610.0, 18638.0, 18602.0, 18596.0, 18568.0, 18570.0, 18568.0, 18572.0, 18572.0, 18566.0, 18604.0, 18604.0, 18602.0, 18568.0, 18572.0, 18596.0, 18600.0, 18636.0, 18596.0, 18564.0, 18600.0, 18568.0, 18566.0, 18564.0, 18570.0, 18600.0, 18596.0, 18604.0, 18576.0, 18572.0, 18600.0, 18600.0, 18636.0, 18634.0, 18594.0, 18606.0, 18612.0, 18572.0, 18602.0, 18594.0, 18602.0, 18600.0, 18602.0, 18578.0, 18610.0, 18616.0, 18614.0, 18630.0, 18632.0, 18646.0, 18638.0, 18592.0, 18568.0, 18574.0, 18602.0, 18610.0, 18608.0, 18568.0, 18594.0, 18596.0, 18570.0, 18598.0, 18600.0, 18574.0, 18612.0, 18620.0, 18570.0, 18638.0, 18678.0, 18642.0, 18568.0, 18568.0, 18570.0, 18568.0, 18568.0, 18574.0, 18576.0, 18566.0, 18600.0, 18600.0]
    },
    "slices": {}
  }
}