{
  "AcquisitionMatrixPE": 104,
  "AcquisitionNumber": 1,
  "AcquisitionTime": "13:55:1.212500",
  "BandwidthPerPixelPhaseEncode": 17.17,
  "BaseResolution": 104,
  "BodyPartExamined": "BRAIN",
  "CoilString": "HC1-7;NC1_2",
  "ConsistencyInfo": "N4_VE11C_LATEST_20160120",
  "ConversionSoftware": "dcm2niix",
  "ConversionSoftwareVersion": "v1.0.20190902",
  "DerivedVendorReportedEchoSpacing": 0.000560011,
  "DeviceSerialNumber": "167006",
  "DwellTime": 2.1e-06,
  "EchoTime": 0.037,
  "EchoTrainLength": 104,
  "EffectiveEchoSpacing": 0.000560011,
  "FlipAngle": 52,
  "ImageComments": "Unaliased_MB4_PE3_LB",
  "ImageOrientationPatientDICOM": [0.999345, 0.0125136, 0.0339532, -0.00244179, 0.959484, -0.281753],
  "ImageType": [
    "ORIGINAL",
    "PRIMARY",
    "M",
    "MB",
    "ND",
    "MOSAIC"
],
  "ImagingFrequency": 123.259,
  "InPlanePhaseEncodingDirectionDICOM": "COL",
  "InstitutionAddress": "Chemin_Queen-Mary_4565_Montreal_District_CA_H3W_1W5",
  "InstitutionName": "IUGM",
  "InstitutionalDepartmentName": "Department",
  "MRAcquisitionType": "2D",
  "MagneticFieldStrength": 3,
  "Manufacturer": "Siemens",
  "ManufacturersModelName": "Prisma_fit",
  "Modality": "MR",
  "MultibandAccelerationFactor": 4,
  "PartialFourier": 1,
  "PatientPosition": "HFS",
  "PercentPhaseFOV": 100,
  "PhaseEncodingDirection": "j",
  "PhaseEncodingSteps": 104,
  "PhaseResolution": 1,
  "PixelBandwidth": 2290,
  "ProcedureStepDescription": "memory_things",
  "ProtocolName": "func_task-things_run-6",
  "PulseSequenceDetails": "%CustomerSeq%_cmrr_mbep2d_bold",
  "ReceiveCoilActiveElements": "HC1-7;NC1,2",
  "ReceiveCoilName": "HeadNeck_64",
  "ReconMatrixPE": 104,
  "RepetitionTime": 1.49,
  "SAR": 0.0496345,
  "ScanOptions": "FS",
  "ScanningSequence": "EP",
  "SequenceName": "epfid2d1_104",
  "SequenceVariant": "SK_SS",
  "SeriesDescription": "func_task-things_run-6",
  "SeriesNumber": 25,
  "ShimSetting": [637, -7204, -8802, 762, 44, -7, 55, -11],
  "SliceThickness": 2,
  "SliceTiming": [0, 0.785, 0.0975, 0.8825, 0.1975, 0.98, 0.295, 1.0775, 0.3925, 1.1775, 0.49, 1.275, 0.5875, 1.3725, 0.6875, 0, 0.785, 0.0975, 0.8825, 0.1975, 0.98, 0.295, 1.0775, 0.3925, 1.1775, 0.49, 1.275, 0.5875, 1.3725, 0.6875, 0, 0.785, 0.0975, 0.8825, 0.1975, 0.98, 0.295, 1.0775, 0.3925, 1.1775, 0.49, 1.275, 0.5875, 1.3725, 0.6875, 0, 0.785, 0.0975, 0.8825, 0.1975, 0.98, 0.295, 1.0775, 0.3925, 1.1775, 0.49, 1.275, 0.5875, 1.3725, 0.6875],
  "SoftwareVersions": "syngo_MR_E11",
  "SpacingBetweenSlices": 2,
  "StationName": "MRC35049",
  "TaskName": "things",
  "TotalReadoutTime": 0.0576811,
  "TxRefAmp": 236.672,
  "WipMemBlock": "839bc0c7-c8f1-44aa-8a7b-89f27c2d81d2||Sequence: R016 ve11c/master r/e634e98; Dec 19 2017 11:00:25 by eja",
  "dcmmeta_affine": [
    [-1.998690128326416, -0.0048835789784789085, 0.07220669090747833, 107.31095886230469],
    [-0.02502727508544922, 1.9189674854278564, -0.5629719495773315, -71.19432830810547],
    [0.06790648400783539, 0.5635067820549011, 1.917771816253662, -71.96598052978516],
    [0.0, 0.0, 0.0, 1.0]
],
  "dcmmeta_reorient_transform": [
    [0.0, -1.0, 0.0, 103.0],
    [1.0, 0.0, 0.0, 0.0],
    [0.0, 0.0, 1.0, 0.0],
    [0.0, 0.0, 0.0, 1.0]
],
  "dcmmeta_shape": [104, 104, 60, 190],
  "dcmmeta_slice_dim": 2,
  "dcmmeta_version": 0.6,
  "global": {
    "const": {
      "AcquisitionMatrix": [104, 0, 0, 104],
      "AngioFlag": "N",
      "BitsAllocated": 16,
      "BitsStored": 16,
      "BodyPartExamined": "BRAIN",
      "Columns": 832,
      "EchoNumbers": 1,
      "EchoTime": 37.0,
      "EchoTrainLength": 104,
      "FlipAngle": 52.0,
      "HighBit": 15,
      "ImageOrientationPatient": [0.99934507862987, 0.01251363746617, 0.03395324278497, -0.0024417895986, 0.95948374823865, -0.2817533931109],
      "ImagePositionPatient": [-832.55354469473, -834.0734241038, 166.47372974032],
      "ImageType": [
        "ORIGINAL",
        "PRIMARY",
        "M",
        "MB",
        "ND",
        "MOSAIC"
],
      "ImagedNucleus": "1H",
      "ImagingFrequency": 123.258978,
      "InPlanePhaseEncodingDirection": "COL",
      "MRAcquisitionType": "2D",
      "MagneticFieldStrength": 3.0,
      "Manufacturer": "SIEMENS",
      "ManufacturerModelName": "Prisma_fit",
      "Modality": "MR",
      "NumberOfAverages": 1.0,
      "NumberOfPhaseEncodingSteps": 104,
      "PercentPhaseFieldOfView": 100.0,
      "PercentSampling": 100.0,
      "PerformedProcedureStepStartTime": "130541.861000",
      "PhotometricInterpretation": "MONOCHROME2",
      "PixelBandwidth": 2290.0,
      "PixelRepresentation": 0,
      "PixelSpacing": [2.0, 2.0],
      "ProtocolName": "func_task-things_run-6",
      "RepetitionTime": 1490.0,
      "Rows": 832,
      "SAR": 0.04963453296609,
      "SamplesPerPixel": 1,
      "ScanOptions": "FS",
      "ScanningSequence": "EP",
      "SequenceName": "epfid2d1_104",
      "SequenceVariant": [
        "SK",
        "SS"
],
      "SeriesDescription": "func_task-things_run-6",
      "SeriesNumber": 25,
      "SeriesTime": "135631.031000",
      "SliceLocation": -45.092676098572,
      "SliceThickness": 2.0,
      "SmallestImagePixelValue": 0,
      "SoftwareVersions": "syngo MR E11",
      "SpacingBetweenSlices": 2.0000000306902,
      "SpecificCharacterSet": "ISO_IR 100",
      "StudyID": "1",
      "StudyTime": "130541.765000",
      "TransmitCoilName": "Body",
      "VariableFlipAngleFlag": "N",
      "WindowCenterWidthExplanation": "Algo1",
      "dBdt": 0.0},
    "slices": {}
  },
  "time": {
    "samples": {
      "AcquisitionNumber": [1, 2, 3, 4, 5, 6, 7, 8, 9, 10, 11, 12, 13, 14, 15, 16, 17, 18, 19, 20, 21, 22, 23, 24, 25, 26, 27, 28, 29, 30, 31, 32, 33, 34, 35, 36, 37, 38, 39, 40, 41, 42, 43, 44, 45, 46, 47, 48, 49, 50, 51, 52, 53, 54, 55, 56, 57, 58, 59, 60, 61, 62, 63, 64, 65, 66, 67, 68, 69, 70, 71, 72, 73, 74, 75, 76, 77, 78, 79, 80, 81, 82, 83, 84, 85, 86, 87, 88, 89, 90, 91, 92, 93, 94, 95, 96, 97, 98, 99, 100, 101, 102, 103, 104, 105, 106, 107, 108, 109, 110, 111, 112, 113, 114, 115, 116, 117, 118, 119, 120, 121, 122, 123, 124, 125, 126, 127, 128, 129, 130, 131, 132, 133, 134, 135, 136, 137, 138, 139, 140, 141, 142, 143, 144, 145, 146, 147, 148, 149, 150, 151, 152, 153, 154, 155, 156, 157, 158, 159, 160, 161, 162, 163, 164, 165, 166, 167, 168, 169, 170, 171, 172, 173, 174, 175, 176, 177, 178, 179, 180, 181, 182, 183, 184, 185, 186, 187, 188, 189, 190],
      "AcquisitionTime": ["135501.212500", "135502.702500", "135504.192500", "135505.682500", "135507.172500", "135508.662500", "135510.152500", "135511.642500", "135513.132500", "135514.622500", "135516.112500", "135517.602500", "135519.092500", "135520.582500", "135522.072500", "135523.562500", "135525.052500", "135526.542500", "135528.032500", "135529.522500", "135531.012500", "135532.502500", "135533.992500", "135535.482500", "135536.972500", "135538.462500", "135539.952500", "135541.442500", "135542.932500", "135544.422500", "135545.912500", "135547.402500", "135548.892500", "135550.382500", "135551.872500", "135553.362500", "135554.852500", "135556.342500", "135557.832500", "135559.322500", "135600.812500", "135602.302500", "135603.792500", "135605.282500", "135606.772500", "135608.262500", "135609.752500", "135611.242500", "135612.732500", "135614.222500", "135615.712500", "135617.202500", "135618.692500", "135620.182500", "135621.672500", "135623.162500", "135624.652500", "135626.142500", "135627.632500", "135629.122500", "135630.612500", "135632.102500", "135633.592500", "135635.082500", "135636.572500", "135638.062500", "135639.552500", "135641.042500", "135642.532500", "135644.022500", "135645.512500", "135647.002500", "135648.492500", "135649.982500", "135651.472500", "135652.962500", "135654.452500", "135655.942500", "135657.432500", "135658.922500", "135700.412500", "135701.902500", "135703.392500", "135704.882500", "135706.372500", "135707.862500", "135709.352500", "135710.842500", "135712.332500", "135713.822500", "135715.312500", "135716.802500", "135718.292500", "135719.782500", "135721.272500", "135722.762500", "135724.252500", "135725.742500", "135727.232500", "135728.722500", "135730.212500", "135731.702500", "135733.192500", "135734.682500", "135736.172500", "135737.662500", "135739.152500", "135740.642500", "135742.132500", "135743.622500", "135745.112500", "135746.602500", "135748.092500", "135749.582500", "135751.072500", "135752.562500", "135754.052500", "135755.542500", "135757.032500", "135758.522500", "135800.012500", "135801.502500", "135802.992500", "135804.482500", "135805.972500", "135807.462500", "135808.952500", "135810.442500", "135811.932500", "135813.422500", "135814.912500", "135816.402500", "135817.892500", "135819.382500", "135820.872500", "135822.362500", "135823.852500", "135825.342500", "135826.832500", "135828.322500", "135829.812500", "135831.302500", "135832.792500", "135834.282500", "135835.772500", "135837.262500", "135838.752500", "135840.242500", "135841.732500", "135843.222500", "135844.712500", "135846.202500", "135847.692500", "135849.182500", "135850.672500", "135852.162500", "135853.652500", "135855.142500", "135856.632500", "135858.122500", "135859.612500", "135901.102500", "135902.592500", "135904.082500", "135905.572500", "135907.062500", "135908.552500", "135910.042500", "135911.532500", "135913.022500", "135914.512500", "135916.002500", "135917.492500", "135918.982500", "135920.472500", "135921.962500", "135923.452500", "135924.942500", "135926.432500", "135927.922500", "135929.412500", "135930.902500", "135932.392500", "135933.882500", "135935.372500", "135936.862500", "135938.352500", "135939.842500", "135941.332500", "135942.822500"],
      "ContentTime": ["135631.034000", "135631.038000", "135631.041000", "135631.045000", "135631.048000", "135631.052000", "135631.055000", "135631.059000", "135631.062000", "135631.066000", "135631.069000", "135631.073000", "135631.076000", "135631.080000", "135631.083000", "135631.086000", "135631.090000", "135631.093000", "135631.097000", "135631.100000", "135631.104000", "135631.107000", "135631.119000", "135631.123000", "135631.126000", "135631.130000", "135631.133000", "135631.136000", "135631.140000", "135631.144000", "135631.147000", "135631.150000", "135631.154000", "135631.157000", "135631.160000", "135650.989000", "135651.002000", "135651.006000", "135651.009000", "135651.013000", "135651.016000", "135651.020000", "135651.023000", "135651.026000", "135651.030000", "135651.033000", "135651.037000", "135651.040000", "135651.044000", "135651.047000", "135651.051000", "135651.054000", "135651.058000", "135651.061000", "135651.064000", "135651.068000", "135710.989000", "135710.993000", "135710.996000", "135711.001000", "135711.004000", "135711.008000", "135711.011000", "135711.015000", "135711.018000", "135711.022000", "135711.025000", "135711.029000", "135711.032000", "135711.035000", "135711.039000", "135711.042000", "135711.046000", "135711.049000", "135711.053000", "135711.056000", "135730.990000", "135730.994000", "135730.997000", "135731.002000", "135731.005000", "135731.009000", "135731.012000", "135731.015000", "135731.019000", "135731.022000", "135731.026000", "135731.029000", "135731.033000", "135731.036000", "135731.039000", "135731.043000", "135731.046000", "135731.050000", "135731.068000", "135731.071000", "135810.989000", "135810.993000", "135810.997000", "135811.001000", "135811.005000", "135811.008000", "135811.011000", "135811.015000", "135811.018000", "135811.022000", "135811.025000", "135811.029000", "135811.032000", "135811.036000", "135811.039000", "135811.043000", "135811.046000", "135811.049000", "135811.053000", "135811.056000", "135811.060000", "135811.063000", "135811.067000", "135811.070000", "135811.074000", "135811.077000", "135811.080000", "135811.084000", "135811.087000", "135811.091000", "135850.989000", "135850.993000", "135850.997000", "135851.001000", "135851.005000", "135851.008000", "135851.011000", "135851.015000", "135851.019000", "135851.022000", "135851.025000", "135851.029000", "135851.032000", "135851.036000", "135851.039000", "135851.043000", "135851.046000", "135851.050000", "135851.053000", "135851.057000", "135851.060000", "135851.063000", "135851.067000", "135851.071000", "135851.074000", "135851.077000", "135851.081000", "135930.989000", "135930.993000", "135930.997000", "135931.001000", "135931.005000", "135931.008000", "135931.012000", "135931.015000", "135931.019000", "135931.022000", "135931.026000", "135931.029000", "135931.032000", "135931.036000", "135931.040000", "135931.043000", "135931.046000", "135931.050000", "135931.053000", "135931.057000", "135931.060000", "135931.064000", "135931.067000", "135931.071000", "135931.074000", "135931.077000", "135931.081000", "135945.441000", "135945.444000", "135945.448000", "135945.451000", "135945.455000", "135945.458000", "135945.462000", "135945.474000", "135945.477000", "135945.481000"],
      "InstanceCreationTime": ["135631.034000", "135631.038000", "135631.041000", "135631.045000", "135631.048000", "135631.052000", "135631.055000", "135631.059000", "135631.062000", "135631.066000", "135631.069000", "135631.073000", "135631.076000", "135631.080000", "135631.083000", "135631.086000", "135631.090000", "135631.093000", "135631.097000", "135631.100000", "135631.104000", "135631.107000", "135631.119000", "135631.123000", "135631.126000", "135631.130000", "135631.133000", "135631.136000", "135631.140000", "135631.144000", "135631.147000", "135631.150000", "135631.154000", "135631.157000", "135631.160000", "135650.989000", "135651.002000", "135651.006000", "135651.009000", "135651.013000", "135651.016000", "135651.020000", "135651.023000", "135651.026000", "135651.030000", "135651.033000", "135651.037000", "135651.040000", "135651.044000", "135651.047000", "135651.051000", "135651.054000", "135651.058000", "135651.061000", "135651.064000", "135651.068000", "135710.989000", "135710.993000", "135710.996000", "135711.001000", "135711.004000", "135711.008000", "135711.011000", "135711.015000", "135711.018000", "135711.022000", "135711.025000", "135711.029000", "135711.032000", "135711.035000", "135711.039000", "135711.042000", "135711.046000", "135711.049000", "135711.053000", "135711.056000", "135730.990000", "135730.994000", "135730.997000", "135731.002000", "135731.005000", "135731.009000", "135731.012000", "135731.015000", "135731.019000", "135731.022000", "135731.026000", "135731.029000", "135731.033000", "135731.036000", "135731.039000", "135731.043000", "135731.046000", "135731.050000", "135731.068000", "135731.071000", "135810.989000", "135810.993000", "135810.997000", "135811.001000", "135811.005000", "135811.008000", "135811.011000", "135811.015000", "135811.018000", "135811.022000", "135811.025000", "135811.029000", "135811.032000", "135811.036000", "135811.039000", "135811.043000", "135811.046000", "135811.049000", "135811.053000", "135811.056000", "135811.060000", "135811.063000", "135811.067000", "135811.070000", "135811.074000", "135811.077000", "135811.080000", "135811.084000", "135811.087000", "135811.091000", "135850.989000", "135850.993000", "135850.997000", "135851.001000", "135851.005000", "135851.008000", "135851.011000", "135851.015000", "135851.019000", "135851.022000", "135851.025000", "135851.029000", "135851.032000", "135851.036000", "135851.039000", "135851.043000", "135851.046000", "135851.050000", "135851.053000", "135851.057000", "135851.060000", "135851.063000", "135851.067000", "135851.071000", "135851.074000", "135851.077000", "135851.081000", "135930.989000", "135930.993000", "135930.997000", "135931.001000", "135931.005000", "135931.008000", "135931.012000", "135931.015000", "135931.019000", "135931.022000", "135931.026000", "135931.029000", "135931.032000", "135931.036000", "135931.040000", "135931.043000", "135931.046000", "135931.050000", "135931.053000", "135931.057000", "135931.060000", "135931.064000", "135931.067000", "135931.071000", "135931.074000", "135931.077000", "135931.081000", "135945.441000", "135945.444000", "135945.448000", "135945.451000", "135945.455000", "135945.458000", "135945.462000", "135945.474000", "135945.477000", "135945.481000"],
      "InstanceNumber": [1, 2, 3, 4, 5, 6, 7, 8, 9, 10, 11, 12, 13, 14, 15, 16, 17, 18, 19, 20, 21, 22, 23, 24, 25, 26, 27, 28, 29, 30, 31, 32, 33, 34, 35, 36, 37, 38, 39, 40, 41, 42, 43, 44, 45, 46, 47, 48, 49, 50, 51, 52, 53, 54, 55, 56, 57, 58, 59, 60, 61, 62, 63, 64, 65, 66, 67, 68, 69, 70, 71, 72, 73, 74, 75, 76, 77, 78, 79, 80, 81, 82, 83, 84, 85, 86, 87, 88, 89, 90, 91, 92, 93, 94, 95, 96, 97, 98, 99, 100, 101, 102, 103, 104, 105, 106, 107, 108, 109, 110, 111, 112, 113, 114, 115, 116, 117, 118, 119, 120, 121, 122, 123, 124, 125, 126, 127, 128, 129, 130, 131, 132, 133, 134, 135, 136, 137, 138, 139, 140, 141, 142, 143, 144, 145, 146, 147, 148, 149, 150, 151, 152, 153, 154, 155, 156, 157, 158, 159, 160, 161, 162, 163, 164, 165, 166, 167, 168, 169, 170, 171, 172, 173, 174, 175, 176, 177, 178, 179, 180, 181, 182, 183, 184, 185, 186, 187, 188, 189, 190],
      "LargestImagePixelValue": [41202, 39285, 39118, 39569, 38850, 38548, 38458, 38147, 38052, 37572, 39125, 38147, 37835, 38378, 38214, 38131, 38472, 38801, 38795, 38904, 38384, 39074, 38758, 38510, 38331, 38919, 38789, 38958, 38750, 38757, 38656, 38979, 38647, 38453, 38203, 38470, 38401, 38475, 38580, 38802, 38710, 38965, 38952, 38701, 38351, 38367, 38321, 37990, 38210, 38330, 38041, 38329, 38839, 38765, 38778, 38622, 38171, 37990, 38491, 38190, 38639, 38782, 38517, 38198, 38423, 38107, 37814, 38097, 38656, 38533, 38530, 38750, 38325, 38185, 38745, 38469, 38313, 38098, 38261, 37883, 37823, 38204, 37996, 38458, 38542, 38279, 38350, 38604, 38626, 38354, 38322, 38188, 38826, 38899, 38539, 38443, 38368, 37903, 38377, 37906, 38239, 38264, 38048, 38470, 38098, 38330, 38064, 38279, 38356, 38346, 38267, 38077, 38585, 38401, 38285, 38533, 38096, 38592, 38718, 38477, 38874, 38836, 38933, 38506, 38619, 38108, 37927, 38243, 38604, 38463, 38554, 38416, 38485, 38622, 38715, 38698, 38234, 38441, 38263, 38164, 38156, 37797, 37783, 38119, 38429, 38435, 38547, 38465, 38413, 38364, 38476, 38087, 38432, 38519, 38615, 38550, 38335, 37769, 38005, 37960, 37631, 37942, 38048, 37891, 38744, 38659, 38512, 38069, 38613, 38285, 37725, 37942, 37591, 37454, 37935, 37532, 38178, 38124, 38185, 38089, 38181, 38537, 38705, 39020, 38338, 38728, 38259, 38091, 38393, 38427],
      "WindowCenter": [10305.0, 10245.0, 10225.0, 10240.0, 10197.0, 10198.0, 10197.0, 10189.0, 10191.0, 10184.0, 10209.0, 10215.0, 10224.0, 10217.0, 10216.0, 10220.0, 10240.0, 10263.0, 10256.0, 10260.0, 10255.0, 10252.0, 10240.0, 10237.0, 10245.0, 10254.0, 10266.0, 10247.0, 10246.0, 10240.0, 10253.0, 10228.0, 10228.0, 10230.0, 10215.0, 10214.0, 10220.0, 10231.0, 10236.0, 10247.0, 10244.0, 10238.0, 10244.0, 10229.0, 10225.0, 10216.0, 10221.0, 10222.0, 10222.0, 10215.0, 10214.0, 10230.0, 10247.0, 10241.0, 10231.0, 10219.0, 10200.0, 10221.0, 10211.0, 10228.0, 10230.0, 10236.0, 10223.0, 10216.0, 10214.0, 10217.0, 10224.0, 10250.0, 10273.0, 10262.0, 10226.0, 10220.0, 10207.0, 10212.0, 10219.0, 10222.0, 10225.0, 10225.0, 10215.0, 10210.0, 10217.0, 10225.0, 10217.0, 10223.0, 10215.0, 10206.0, 10215.0, 10211.0, 10248.0, 10229.0, 10242.0, 10236.0, 10239.0, 10219.0, 10207.0, 10205.0, 10196.0, 10192.0, 10213.0, 10227.0, 10229.0, 10224.0, 10217.0, 10206.0, 10207.0, 10220.0, 10219.0, 10226.0, 10225.0, 10223.0, 10226.0, 10227.0, 10232.0, 10226.0, 10217.0, 10215.0, 10232.0, 10247.0, 10253.0, 10247.0, 10241.0, 10224.0, 10214.0, 10206.0, 10213.0, 10216.0, 10224.0, 10207.0, 10218.0, 10213.0, 10221.0, 10222.0, 10230.0, 10229.0, 10224.0, 10213.0, 10206.0, 10206.0, 10189.0, 10181.0, 10174.0, 10182.0, 10207.0, 10234.0, 10250.0, 10242.0, 10235.0, 10225.0, 10222.0, 10217.0, 10223.0, 10215.0, 10243.0, 10253.0, 10243.0, 10219.0, 10208.0, 10191.0, 10198.0, 10200.0, 10202.0, 10210.0, 10226.0, 10244.0, 10243.0, 10241.0, 10227.0, 10217.0, 10208.0, 10209.0, 10204.0, 10200.0, 10195.0, 10204.0, 10225.0, 10221.0, 10238.0, 10238.0, 10221.0, 10227.0, 10246.0, 10251.0, 10257.0, 10251.0, 10229.0, 10230.0, 10224.0, 10226.0, 10225.0, 10226.0],
      "WindowWidth": [21970.0, 21814.0, 21756.0, 21786.0, 21680.0, 21683.0, 21677.0, 21658.0, 21663.0, 21652.0, 21703.0, 21722.0, 21742.0, 21727.0, 21724.0, 21732.0, 21779.0, 21829.0, 21812.0, 21819.0, 21809.0, 21800.0, 21777.0, 21771.0, 21788.0, 21811.0, 21839.0, 21793.0, 21787.0, 21776.0, 21802.0, 21746.0, 21746.0, 21752.0, 21720.0, 21717.0, 21727.0, 21756.0, 21768.0, 21795.0, 21784.0, 21772.0, 21784.0, 21752.0, 21743.0, 21723.0, 21732.0, 21734.0, 21737.0, 21722.0, 21718.0, 21756.0, 21795.0, 21779.0, 21754.0, 21726.0, 21689.0, 21734.0, 21711.0, 21750.0, 21755.0, 21764.0, 21740.0, 21722.0, 21718.0, 21726.0, 21744.0, 21805.0, 21856.0, 21832.0, 21746.0, 21726.0, 21700.0, 21710.0, 21727.0, 21736.0, 21743.0, 21747.0, 21723.0, 21711.0, 21728.0, 21746.0, 21727.0, 21741.0, 21721.0, 21700.0, 21721.0, 21711.0, 21799.0, 21754.0, 21787.0, 21772.0, 21774.0, 21724.0, 21698.0, 21693.0, 21675.0, 21671.0, 21714.0, 21751.0, 21758.0, 21741.0, 21725.0, 21699.0, 21704.0, 21732.0, 21731.0, 21748.0, 21745.0, 21740.0, 21748.0, 21753.0, 21762.0, 21747.0, 21727.0, 21721.0, 21761.0, 21794.0, 21807.0, 21791.0, 21781.0, 21741.0, 21720.0, 21701.0, 21718.0, 21726.0, 21744.0, 21706.0, 21726.0, 21717.0, 21734.0, 21738.0, 21756.0, 21754.0, 21742.0, 21713.0, 21698.0, 21699.0, 21663.0, 21642.0, 21630.0, 21645.0, 21697.0, 21765.0, 21800.0, 21781.0, 21766.0, 21740.0, 21733.0, 21724.0, 21736.0, 21718.0, 21785.0, 21808.0, 21780.0, 21726.0, 21699.0, 21665.0, 21680.0, 21687.0, 21690.0, 21708.0, 21745.0, 21789.0, 21783.0, 21775.0, 21747.0, 21723.0, 21700.0, 21703.0, 21698.0, 21685.0, 21675.0, 21698.0, 21742.0, 21735.0, 21774.0, 21774.0, 21736.0, 21749.0, 21795.0, 21803.0, 21813.0, 21801.0, 21755.0, 21750.0, 21735.0, 21743.0, 21739.0, 21741.0]
    },
    "slices": {}
  }
}