{
  "AcquisitionMatrixPE": 104,
  "AcquisitionNumber": 1,
  "AcquisitionTime": "13:37:8.370000",
  "BandwidthPerPixelPhaseEncode": 17.17,
  "BaseResolution": 104,
  "BodyPartExamined": "BRAIN",
  "CoilString": "HC1-7;NC1_2",
  "ConsistencyInfo": "N4_VE11C_LATEST_20160120",
  "ConversionSoftware": "dcm2niix",
  "ConversionSoftwareVersion": "v1.0.20190902",
  "DerivedVendorReportedEchoSpacing": 0.000560011,
  "DeviceSerialNumber": "167006",
  "DwellTime": 2.1e-06,
  "EchoTime": 0.037,
  "EchoTrainLength": 104,
  "EffectiveEchoSpacing": 0.000560011,
  "FlipAngle": 52,
  "ImageComments": "Unaliased_MB4_PE3_LB",
  "ImageOrientationPatientDICOM": [0.999345, 0.0125136, 0.0339532, -0.00244179, 0.959484, -0.281753],
  "ImageType": [
    "ORIGINAL",
    "PRIMARY",
    "P",
    "MB",
    "ND",
    "MOSAIC"
],
  "ImagingFrequency": 123.259,
  "InPlanePhaseEncodingDirectionDICOM": "COL",
  "InstitutionAddress": "Chemin_Queen-Mary_4565_Montreal_District_CA_H3W_1W5",
  "InstitutionName": "IUGM",
  "InstitutionalDepartmentName": "Department",
  "MRAcquisitionType": "2D",
  "MagneticFieldStrength": 3,
  "Manufacturer": "Siemens",
  "ManufacturersModelName": "Prisma_fit",
  "Modality": "MR",
  "MultibandAccelerationFactor": 4,
  "PartialFourier": 1,
  "PatientPosition": "HFS",
  "PercentPhaseFOV": 100,
  "PhaseEncodingDirection": "j",
  "PhaseEncodingSteps": 104,
  "PhaseResolution": 1,
  "PixelBandwidth": 2290,
  "ProcedureStepDescription": "memory_things",
  "ProtocolName": "func_task-things_run-3",
  "PulseSequenceDetails": "%CustomerSeq%_cmrr_mbep2d_bold",
  "ReceiveCoilActiveElements": "HC1-7;NC1,2",
  "ReceiveCoilName": "HeadNeck_64",
  "ReconMatrixPE": 104,
  "RepetitionTime": 1.49,
  "SAR": 0.0496345,
  "ScanOptions": "FS",
  "ScanningSequence": "EP",
  "SequenceName": "epfid2d1_104",
  "SequenceVariant": "SK_SS",
  "SeriesDescription": "func_task-things_run-3",
  "SeriesNumber": 17,
  "ShimSetting": [637, -7204, -8802, 762, 44, -7, 55, -11],
  "SliceThickness": 2,
  "SliceTiming": [0, 0.785, 0.0975, 0.8825, 0.195, 0.98, 0.295, 1.0775, 0.3925, 1.175, 0.49, 1.275, 0.5875, 1.3725, 0.685, 0, 0.785, 0.0975, 0.8825, 0.195, 0.98, 0.295, 1.0775, 0.3925, 1.175, 0.49, 1.275, 0.5875, 1.3725, 0.685, 0, 0.785, 0.0975, 0.8825, 0.195, 0.98, 0.295, 1.0775, 0.3925, 1.175, 0.49, 1.275, 0.5875, 1.3725, 0.685, 0, 0.785, 0.0975, 0.8825, 0.195, 0.98, 0.295, 1.0775, 0.3925, 1.175, 0.49, 1.275, 0.5875, 1.3725, 0.685],
  "SoftwareVersions": "syngo_MR_E11",
  "SpacingBetweenSlices": 2,
  "StationName": "MRC35049",
  "TaskName": "things",
  "TotalReadoutTime": 0.0576811,
  "TxRefAmp": 236.672,
  "WipMemBlock": "377a65b5-99f2-4a2b-b603-2e57eb0da6ab||Sequence: R016 ve11c/master r/e634e98; Dec 19 2017 11:00:25 by eja",
  "dcmmeta_affine": [
    [-1.998690128326416, -0.0048835789784789085, 0.07220669090747833, 107.31095886230469],
    [-0.02502727508544922, 1.9189674854278564, -0.5629719495773315, -71.19432830810547],
    [0.06790648400783539, 0.5635067820549011, 1.917771816253662, -71.96598052978516],
    [0.0, 0.0, 0.0, 1.0]
],
  "dcmmeta_reorient_transform": [
    [0.0, -1.0, 0.0, 103.0],
    [1.0, 0.0, 0.0, 0.0],
    [0.0, 0.0, 1.0, 0.0],
    [0.0, 0.0, 0.0, 1.0]
],
  "dcmmeta_shape": [104, 104, 60, 190],
  "dcmmeta_slice_dim": 2,
  "dcmmeta_version": 0.6,
  "global": {
    "const": {
      "AcquisitionMatrix": [104, 0, 0, 104],
      "AngioFlag": "N",
      "BitsAllocated": 16,
      "BitsStored": 16,
      "BodyPartExamined": "BRAIN",
      "Columns": 832,
      "EchoNumbers": 1,
      "EchoTime": 37.0,
      "EchoTrainLength": 104,
      "FlipAngle": 52.0,
      "HighBit": 15,
      "ImageOrientationPatient": [0.99934507862987, 0.01251363746617, 0.03395324278497, -0.0024417895986, 0.95948374823865, -0.2817533931109],
      "ImagePositionPatient": [-832.55354469473, -834.0734241038, 166.47372974032],
      "ImageType": [
        "ORIGINAL",
        "PRIMARY",
        "P",
        "MB",
        "ND",
        "MOSAIC"
],
      "ImagedNucleus": "1H",
      "ImagingFrequency": 123.25897,
      "InPlanePhaseEncodingDirection": "COL",
      "LargestImagePixelValue": 4095,
      "MRAcquisitionType": "2D",
      "MagneticFieldStrength": 3.0,
      "Manufacturer": "SIEMENS",
      "ManufacturerModelName": "Prisma_fit",
      "Modality": "MR",
      "NumberOfAverages": 1.0,
      "NumberOfPhaseEncodingSteps": 104,
      "PercentPhaseFieldOfView": 100.0,
      "PercentSampling": 100.0,
      "PerformedProcedureStepStartTime": "130541.861000",
      "PhotometricInterpretation": "MONOCHROME2",
      "PixelBandwidth": 2290.0,
      "PixelRepresentation": 0,
      "PixelSpacing": [2.0, 2.0],
      "ProtocolName": "func_task-things_run-3",
      "RepetitionTime": 1490.0,
      "RescaleIntercept": -4096.0,
      "RescaleSlope": 2.0,
      "RescaleType": "US",
      "Rows": 832,
      "SAR": 0.04963453296609,
      "SamplesPerPixel": 1,
      "ScanOptions": "FS",
      "ScanningSequence": "EP",
      "SequenceName": "epfid2d1_104",
      "SequenceVariant": [
        "SK",
        "SS"
],
      "SeriesDescription": "func_task-things_run-3",
      "SeriesNumber": 17,
      "SeriesTime": "133811.096000",
      "SliceLocation": -45.092676098572,
      "SliceThickness": 2.0,
      "SmallestImagePixelValue": 0,
      "SoftwareVersions": "syngo MR E11",
      "SpacingBetweenSlices": 2.0000000306902,
      "SpecificCharacterSet": "ISO_IR 100",
      "StudyID": "1",
      "StudyTime": "130541.765000",
      "TransmitCoilName": "Body",
      "VariableFlipAngleFlag": "N",
      "WindowCenterWidthExplanation": "Algo1",
      "dBdt": 0.0},
    "slices": {}
  },
  "time": {
    "samples": {
      "AcquisitionNumber": [1, 2, 3, 4, 5, 6, 7, 8, 9, 10, 11, 12, 13, 14, 15, 16, 17, 18, 19, 20, 21, 22, 23, 24, 25, 26, 27, 28, 29, 30, 31, 32, 33, 34, 35, 36, 37, 38, 39, 40, 41, 42, 43, 44, 45, 46, 47, 48, 49, 50, 51, 52, 53, 54, 55, 56, 57, 58, 59, 60, 61, 62, 63, 64, 65, 66, 67, 68, 69, 70, 71, 72, 73, 74, 75, 76, 77, 78, 79, 80, 81, 82, 83, 84, 85, 86, 87, 88, 89, 90, 91, 92, 93, 94, 95, 96, 97, 98, 99, 100, 101, 102, 103, 104, 105, 106, 107, 108, 109, 110, 111, 112, 113, 114, 115, 116, 117, 118, 119, 120, 121, 122, 123, 124, 125, 126, 127, 128, 129, 130, 131, 132, 133, 134, 135, 136, 137, 138, 139, 140, 141, 142, 143, 144, 145, 146, 147, 148, 149, 150, 151, 152, 153, 154, 155, 156, 157, 158, 159, 160, 161, 162, 163, 164, 165, 166, 167, 168, 169, 170, 171, 172, 173, 174, 175, 176, 177, 178, 179, 180, 181, 182, 183, 184, 185, 186, 187, 188, 189, 190],
      "AcquisitionTime": ["133708.370000", "133709.860000", "133711.350000", "133712.840000", "133714.330000", "133715.820000", "133717.310000", "133718.800000", "133720.290000", "133721.780000", "133723.270000", "133724.760000", "133726.250000", "133727.740000", "133729.230000", "133730.720000", "133732.210000", "133733.700000", "133735.190000", "133736.680000", "133738.170000", "133739.660000", "133741.150000", "133742.640000", "133744.130000", "133745.620000", "133747.110000", "133748.600000", "133750.090000", "133751.580000", "133753.070000", "133754.560000", "133756.050000", "133757.540000", "133759.030000", "133800.520000", "133802.010000", "133803.500000", "133804.990000", "133806.480000", "133807.970000", "133809.460000", "133810.950000", "133812.440000", "133813.930000", "133815.420000", "133816.910000", "133818.400000", "133819.890000", "133821.380000", "133822.870000", "133824.360000", "133825.850000", "133827.340000", "133828.830000", "133830.320000", "133831.810000", "133833.300000", "133834.790000", "133836.280000", "133837.770000", "133839.260000", "133840.750000", "133842.240000", "133843.730000", "133845.220000", "133846.710000", "133848.200000", "133849.690000", "133851.180000", "133852.670000", "133854.160000", "133855.650000", "133857.140000", "133858.630000", "133900.120000", "133901.610000", "133903.100000", "133904.590000", "133906.080000", "133907.570000", "133909.060000", "133910.550000", "133912.040000", "133913.530000", "133915.020000", "133916.510000", "133918.000000", "133919.490000", "133920.980000", "133922.470000", "133923.960000", "133925.450000", "133926.940000", "133928.430000", "133929.920000", "133931.410000", "133932.900000", "133934.390000", "133935.880000", "133937.370000", "133938.860000", "133940.350000", "133941.840000", "133943.330000", "133944.820000", "133946.310000", "133947.800000", "133949.290000", "133950.780000", "133952.270000", "133953.760000", "133955.250000", "133956.740000", "133958.230000", "133959.720000", "134001.210000", "134002.700000", "134004.190000", "134005.680000", "134007.170000", "134008.660000", "134010.150000", "134011.640000", "134013.130000", "134014.620000", "134016.110000", "134017.600000", "134019.090000", "134020.580000", "134022.070000", "134023.560000", "134025.050000", "134026.540000", "134028.030000", "134029.520000", "134031.010000", "134032.500000", "134033.990000", "134035.480000", "134036.970000", "134038.460000", "134039.950000", "134041.440000", "134042.930000", "134044.420000", "134045.910000", "134047.400000", "134048.890000", "134050.380000", "134051.870000", "134053.360000", "134054.850000", "134056.340000", "134057.830000", "134059.320000", "134100.810000", "134102.300000", "134103.790000", "134105.280000", "134106.770000", "134108.260000", "134109.750000", "134111.240000", "134112.730000", "134114.220000", "134115.710000", "134117.200000", "134118.690000", "134120.180000", "134121.670000", "134123.160000", "134124.650000", "134126.140000", "134127.630000", "134129.120000", "134130.610000", "134132.100000", "134133.590000", "134135.080000", "134136.570000", "134138.060000", "134139.550000", "134141.040000", "134142.530000", "134144.020000", "134145.510000", "134147.000000", "134148.490000", "134149.980000"],
      "ContentTime": ["133811.098000", "133811.101000", "133811.103000", "133811.106000", "133811.108000", "133811.115000", "133811.117000", "133811.120000", "133811.122000", "133831.130000", "133831.133000", "133831.136000", "133831.139000", "133831.141000", "133831.144000", "133831.146000", "133831.149000", "133831.151000", "133831.154000", "133831.156000", "133831.164000", "133831.167000", "133831.169000", "133831.172000", "133831.175000", "133831.177000", "133831.180000", "133831.182000", "133831.185000", "133851.124000", "133851.127000", "133851.130000", "133851.132000", "133851.135000", "133851.137000", "133851.140000", "133851.142000", "133851.145000", "133851.147000", "133851.150000", "133851.152000", "133851.155000", "133851.157000", "133851.160000", "133851.162000", "133851.165000", "133851.167000", "133851.170000", "133851.172000", "133911.117000", "133911.120000", "133911.123000", "133911.125000", "133911.128000", "133911.130000", "133911.133000", "133911.135000", "133911.138000", "133911.140000", "133911.143000", "133911.145000", "133911.154000", "133911.157000", "133911.161000", "133911.163000", "133911.166000", "133911.168000", "133911.171000", "133911.174000", "133931.122000", "133931.125000", "133931.128000", "133931.130000", "133931.133000", "133931.135000", "133931.138000", "133931.140000", "133931.143000", "133931.145000", "133931.148000", "133931.150000", "133931.153000", "133931.155000", "133931.158000", "133931.161000", "133931.163000", "133931.166000", "133931.168000", "133931.171000", "133931.173000", "134011.163000", "134011.165000", "134011.168000", "134011.170000", "134011.173000", "134011.175000", "134011.178000", "134011.181000", "134011.183000", "134011.186000", "134011.188000", "134011.191000", "134011.193000", "134011.196000", "134011.198000", "134011.201000", "134011.204000", "134011.206000", "134011.209000", "134011.211000", "134011.214000", "134011.216000", "134011.219000", "134011.221000", "134011.224000", "134011.226000", "134011.229000", "134011.232000", "134011.234000", "134011.237000", "134011.239000", "134051.148000", "134051.151000", "134051.154000", "134051.156000", "134051.159000", "134051.161000", "134051.164000", "134051.166000", "134051.169000", "134051.172000", "134051.175000", "134051.177000", "134051.180000", "134051.182000", "134051.185000", "134051.188000", "134051.190000", "134051.193000", "134051.195000", "134051.198000", "134051.200000", "134051.203000", "134051.205000", "134051.208000", "134051.210000", "134051.213000", "134051.216000", "134131.136000", "134131.138000", "134131.146000", "134131.149000", "134131.151000", "134131.154000", "134131.156000", "134131.159000", "134131.161000", "134131.164000", "134131.167000", "134131.169000", "134131.172000", "134131.174000", "134131.177000", "134131.179000", "134131.182000", "134131.185000", "134131.187000", "134131.190000", "134131.192000", "134131.195000", "134131.197000", "134131.200000", "134131.202000", "134131.205000", "134131.208000", "134152.993000", "134152.996000", "134153.000000", "134153.003000", "134153.005000", "134153.008000", "134153.010000", "134153.013000", "134153.015000", "134153.018000", "134153.021000", "134153.023000", "134153.026000", "134153.028000", "134153.031000"],
      "InstanceCreationTime": ["133811.098000", "133811.101000", "133811.103000", "133811.106000", "133811.108000", "133811.115000", "133811.117000", "133811.120000", "133811.122000", "133831.130000", "133831.133000", "133831.136000", "133831.139000", "133831.141000", "133831.144000", "133831.146000", "133831.149000", "133831.151000", "133831.154000", "133831.156000", "133831.164000", "133831.167000", "133831.169000", "133831.172000", "133831.175000", "133831.177000", "133831.180000", "133831.182000", "133831.185000", "133851.124000", "133851.127000", "133851.130000", "133851.132000", "133851.135000", "133851.137000", "133851.140000", "133851.142000", "133851.145000", "133851.147000", "133851.150000", "133851.152000", "133851.155000", "133851.157000", "133851.160000", "133851.162000", "133851.165000", "133851.167000", "133851.170000", "133851.172000", "133911.117000", "133911.120000", "133911.123000", "133911.125000", "133911.128000", "133911.130000", "133911.133000", "133911.135000", "133911.138000", "133911.140000", "133911.143000", "133911.145000", "133911.154000", "133911.157000", "133911.161000", "133911.163000", "133911.166000", "133911.168000", "133911.171000", "133911.174000", "133931.122000", "133931.125000", "133931.128000", "133931.130000", "133931.133000", "133931.135000", "133931.138000", "133931.140000", "133931.143000", "133931.145000", "133931.148000", "133931.150000", "133931.153000", "133931.155000", "133931.158000", "133931.161000", "133931.163000", "133931.166000", "133931.168000", "133931.171000", "133931.173000", "134011.163000", "134011.165000", "134011.168000", "134011.170000", "134011.173000", "134011.175000", "134011.178000", "134011.181000", "134011.183000", "134011.186000", "134011.188000", "134011.191000", "134011.193000", "134011.196000", "134011.198000", "134011.201000", "134011.204000", "134011.206000", "134011.209000", "134011.211000", "134011.214000", "134011.216000", "134011.219000", "134011.221000", "134011.224000", "134011.226000", "134011.229000", "134011.232000", "134011.234000", "134011.237000", "134011.239000", "134051.148000", "134051.151000", "134051.154000", "134051.156000", "134051.159000", "134051.161000", "134051.164000", "134051.166000", "134051.169000", "134051.172000", "134051.175000", "134051.177000", "134051.180000", "134051.182000", "134051.185000", "134051.188000", "134051.190000", "134051.193000", "134051.195000", "134051.198000", "134051.200000", "134051.203000", "134051.205000", "134051.208000", "134051.210000", "134051.213000", "134051.216000", "134131.136000", "134131.138000", "134131.146000", "134131.149000", "134131.151000", "134131.154000", "134131.156000", "134131.159000", "134131.161000", "134131.164000", "134131.167000", "134131.169000", "134131.172000", "134131.174000", "134131.177000", "134131.179000", "134131.182000", "134131.185000", "134131.187000", "134131.190000", "134131.192000", "134131.195000", "134131.197000", "134131.200000", "134131.202000", "134131.205000", "134131.208000", "134152.993000", "134152.996000", "134153.000000", "134153.003000", "134153.005000", "134153.008000", "134153.010000", "134153.013000", "134153.015000", "134153.018000", "134153.021000", "134153.023000", "134153.026000", "134153.028000", "134153.031000"],
      "InstanceNumber": [1, 2, 3, 4, 5, 6, 7, 8, 9, 10, 11, 12, 13, 14, 15, 16, 17, 18, 19, 20, 21, 22, 23, 24, 25, 26, 27, 28, 29, 30, 31, 32, 33, 34, 35, 36, 37, 38, 39, 40, 41, 42, 43, 44, 45, 46, 47, 48, 49, 50, 51, 52, 53, 54, 55, 56, 57, 58, 59, 60, 61, 62, 63, 64, 65, 66, 67, 68, 69, 70, 71, 72, 73, 74, 75, 76, 77, 78, 79, 80, 81, 82, 83, 84, 85, 86, 87, 88, 89, 90, 91, 92, 93, 94, 95, 96, 97, 98, 99, 100, 101, 102, 103, 104, 105, 106, 107, 108, 109, 110, 111, 112, 113, 114, 115, 116, 117, 118, 119, 120, 121, 122, 123, 124, 125, 126, 127, 128, 129, 130, 131, 132, 133, 134, 135, 136, 137, 138, 139, 140, 141, 142, 143, 144, 145, 146, 147, 148, 149, 150, 151, 152, 153, 154, 155, 156, 157, 158, 159, 160, 161, 162, 163, 164, 165, 166, 167, 168, 169, 170, 171, 172, 173, 174, 175, 176, 177, 178, 179, 180, 181, 182, 183, 184, 185, 186, 187, 188, 189, 190],
      "WindowCenter": [4776.0, 4750.0, 4776.0, 4756.0, 4752.0, 4754.0, 4750.0, 4756.0, 4778.0, 4750.0, 4752.0, 4752.0, 4750.0, 4774.0, 4774.0, 4754.0, 4778.0, 4752.0, 4750.0, 4778.0, 4754.0, 4754.0, 4756.0, 4752.0, 4750.0, 4754.0, 4750.0, 4752.0, 4754.0, 4752.0, 4776.0, 4756.0, 4776.0, 4752.0, 4752.0, 4752.0, 4752.0, 4750.0, 4752.0, 4752.0, 4756.0, 4754.0, 4754.0, 4774.0, 4752.0, 4752.0, 4752.0, 4754.0, 4778.0, 4750.0, 4752.0, 4754.0, 4752.0, 4754.0, 4754.0, 4752.0, 4778.0, 4754.0, 4752.0, 4754.0, 4752.0, 4754.0, 4754.0, 4752.0, 4752.0, 4756.0, 4752.0, 4754.0, 4752.0, 4752.0, 4754.0, 4754.0, 4752.0, 4752.0, 4754.0, 4756.0, 4754.0, 4750.0, 4778.0, 4752.0, 4778.0, 4754.0, 4756.0, 4778.0, 4752.0, 4776.0, 4778.0, 4752.0, 4752.0, 4756.0, 4752.0, 4750.0, 4754.0, 4774.0, 4752.0, 4752.0, 4756.0, 4750.0, 4754.0, 4750.0, 4756.0, 4754.0, 4776.0, 4750.0, 4752.0, 4752.0, 4754.0, 4776.0, 4752.0, 4754.0, 4752.0, 4756.0, 4752.0, 4754.0, 4754.0, 4752.0, 4754.0, 4752.0, 4752.0, 4754.0, 4754.0, 4758.0, 4774.0, 4752.0, 4750.0, 4754.0, 4776.0, 4754.0, 4754.0, 4752.0, 4752.0, 4754.0, 4754.0, 4754.0, 4754.0, 4756.0, 4754.0, 4752.0, 4754.0, 4774.0, 4754.0, 4754.0, 4752.0, 4778.0, 4754.0, 4780.0, 4752.0, 4752.0, 4754.0, 4752.0, 4776.0, 4750.0, 4780.0, 4752.0, 4756.0, 4754.0, 4778.0, 4778.0, 4754.0, 4754.0, 4754.0, 4750.0, 4752.0, 4778.0, 4754.0, 4778.0, 4754.0, 4752.0, 4756.0, 4778.0, 4776.0, 4754.0, 4756.0, 4754.0, 4756.0, 4750.0, 4754.0, 4754.0, 4754.0, 4752.0, 4752.0, 4776.0, 4752.0, 4752.0, 4754.0, 4776.0, 4754.0, 4776.0, 4774.0, 4756.0],
      "WindowWidth": [18578.0, 18542.0, 18580.0, 18548.0, 18550.0, 18546.0, 18544.0, 18544.0, 18584.0, 18544.0, 18548.0, 18548.0, 18550.0, 18578.0, 18578.0, 18548.0, 18580.0, 18548.0, 18548.0, 18576.0, 18554.0, 18548.0, 18548.0, 18546.0, 18546.0, 18548.0, 18546.0, 18548.0, 18546.0, 18544.0, 18582.0, 18550.0, 18582.0, 18548.0, 18538.0, 18548.0, 18544.0, 18548.0, 18546.0, 18546.0, 18542.0, 18548.0, 18546.0, 18582.0, 18550.0, 18548.0, 18546.0, 18546.0, 18580.0, 18546.0, 18548.0, 18548.0, 18548.0, 18548.0, 18544.0, 18542.0, 18576.0, 18546.0, 18552.0, 18548.0, 18542.0, 18546.0, 18548.0, 18548.0, 18546.0, 18546.0, 18548.0, 18548.0, 18552.0, 18546.0, 18554.0, 18544.0, 18544.0, 18550.0, 18548.0, 18548.0, 18550.0, 18544.0, 18574.0, 18544.0, 18576.0, 18550.0, 18548.0, 18582.0, 18548.0, 18578.0, 18580.0, 18546.0, 18546.0, 18544.0, 18548.0, 18546.0, 18550.0, 18578.0, 18546.0, 18546.0, 18548.0, 18538.0, 18546.0, 18544.0, 18546.0, 18546.0, 18578.0, 18544.0, 18548.0, 18546.0, 18550.0, 18582.0, 18546.0, 18548.0, 18544.0, 18548.0, 18546.0, 18548.0, 18546.0, 18544.0, 18550.0, 18546.0, 18546.0, 18550.0, 18552.0, 18548.0, 18578.0, 18546.0, 18546.0, 18544.0, 18580.0, 18548.0, 18548.0, 18544.0, 18548.0, 18548.0, 18548.0, 18548.0, 18546.0, 18546.0, 18540.0, 18544.0, 18544.0, 18580.0, 18550.0, 18546.0, 18546.0, 18578.0, 18546.0, 18582.0, 18544.0, 18548.0, 18546.0, 18548.0, 18576.0, 18540.0, 18582.0, 18548.0, 18548.0, 18546.0, 18574.0, 18578.0, 18548.0, 18546.0, 18546.0, 18536.0, 18544.0, 18580.0, 18550.0, 18580.0, 18548.0, 18546.0, 18552.0, 18584.0, 18578.0, 18544.0, 18548.0, 18546.0, 18552.0, 18546.0, 18552.0, 18546.0, 18546.0, 18548.0, 18542.0, 18580.0, 18546.0, 18548.0, 18550.0, 18578.0, 18546.0, 18580.0, 18580.0, 18548.0]
    },
    "slices": {}
  }
}