{
  "AcquisitionMatrixPE": 104,
  "AcquisitionNumber": 1,
  "AcquisitionTime": "13:48:58.372500",
  "BandwidthPerPixelPhaseEncode": 17.17,
  "BaseResolution": 104,
  "BodyPartExamined": "BRAIN",
  "CoilString": "HC1-7;NC1_2",
  "ConsistencyInfo": "N4_VE11C_LATEST_20160120",
  "ConversionSoftware": "dcm2niix",
  "ConversionSoftwareVersion": "v1.0.20190902",
  "DerivedVendorReportedEchoSpacing": 0.000560011,
  "DeviceSerialNumber": "167006",
  "DwellTime": 2.1e-06,
  "EchoTime": 0.037,
  "EchoTrainLength": 104,
  "EffectiveEchoSpacing": 0.000560011,
  "FlipAngle": 52,
  "ImageComments": "Unaliased_MB4_PE3_LB",
  "ImageOrientationPatientDICOM": [0.999345, 0.0125136, 0.0339532, -0.00244179, 0.959484, -0.281753],
  "ImageType": [
    "ORIGINAL",
    "PRIMARY",
    "M",
    "MB",
    "ND",
    "MOSAIC"
],
  "ImagingFrequency": 123.259,
  "InPlanePhaseEncodingDirectionDICOM": "COL",
  "InstitutionAddress": "Chemin_Queen-Mary_4565_Montreal_District_CA_H3W_1W5",
  "InstitutionName": "IUGM",
  "InstitutionalDepartmentName": "Department",
  "MRAcquisitionType": "2D",
  "MagneticFieldStrength": 3,
  "Manufacturer": "Siemens",
  "ManufacturersModelName": "Prisma_fit",
  "Modality": "MR",
  "MultibandAccelerationFactor": 4,
  "PartialFourier": 1,
  "PatientPosition": "HFS",
  "PercentPhaseFOV": 100,
  "PhaseEncodingDirection": "j",
  "PhaseEncodingSteps": 104,
  "PhaseResolution": 1,
  "PixelBandwidth": 2290,
  "ProcedureStepDescription": "memory_things",
  "ProtocolName": "func_task-things_run-5",
  "PulseSequenceDetails": "%CustomerSeq%_cmrr_mbep2d_bold",
  "ReceiveCoilActiveElements": "HC1-7;NC1,2",
  "ReceiveCoilName": "HeadNeck_64",
  "ReconMatrixPE": 104,
  "RepetitionTime": 1.49,
  "SAR": 0.0496345,
  "ScanOptions": "FS",
  "ScanningSequence": "EP",
  "SequenceName": "epfid2d1_104",
  "SequenceVariant": "SK_SS",
  "SeriesDescription": "func_task-things_run-5",
  "SeriesNumber": 22,
  "ShimSetting": [637, -7204, -8802, 762, 44, -7, 55, -11],
  "SliceThickness": 2,
  "SliceTiming": [0, 0.785, 0.0975, 0.8825, 0.1975, 0.98, 0.295, 1.0775, 0.3925, 1.1775, 0.49, 1.275, 0.5875, 1.3725, 0.6875, 0, 0.785, 0.0975, 0.8825, 0.1975, 0.98, 0.295, 1.0775, 0.3925, 1.1775, 0.49, 1.275, 0.5875, 1.3725, 0.6875, 0, 0.785, 0.0975, 0.8825, 0.1975, 0.98, 0.295, 1.0775, 0.3925, 1.1775, 0.49, 1.275, 0.5875, 1.3725, 0.6875, 0, 0.785, 0.0975, 0.8825, 0.1975, 0.98, 0.295, 1.0775, 0.3925, 1.1775, 0.49, 1.275, 0.5875, 1.3725, 0.6875],
  "SoftwareVersions": "syngo_MR_E11",
  "SpacingBetweenSlices": 2,
  "StationName": "MRC35049",
  "TaskName": "things",
  "TotalReadoutTime": 0.0576811,
  "TxRefAmp": 236.672,
  "WipMemBlock": "9f39517f-2469-4deb-ae4e-3cb74d7ae932||Sequence: R016 ve11c/master r/e634e98; Dec 19 2017 11:00:25 by eja",
  "dcmmeta_affine": [
    [-1.998690128326416, -0.0048835789784789085, 0.07220669090747833, 107.31095886230469],
    [-0.02502727508544922, 1.9189674854278564, -0.5629719495773315, -71.19432830810547],
    [0.06790648400783539, 0.5635067820549011, 1.917771816253662, -71.96598052978516],
    [0.0, 0.0, 0.0, 1.0]
],
  "dcmmeta_reorient_transform": [
    [0.0, -1.0, 0.0, 103.0],
    [1.0, 0.0, 0.0, 0.0],
    [0.0, 0.0, 1.0, 0.0],
    [0.0, 0.0, 0.0, 1.0]
],
  "dcmmeta_shape": [104, 104, 60, 190],
  "dcmmeta_slice_dim": 2,
  "dcmmeta_version": 0.6,
  "global": {
    "const": {
      "AcquisitionMatrix": [104, 0, 0, 104],
      "AngioFlag": "N",
      "BitsAllocated": 16,
      "BitsStored": 16,
      "BodyPartExamined": "BRAIN",
      "Columns": 832,
      "EchoNumbers": 1,
      "EchoTime": 37.0,
      "EchoTrainLength": 104,
      "FlipAngle": 52.0,
      "HighBit": 15,
      "ImageOrientationPatient": [0.99934507862987, 0.01251363746617, 0.03395324278497, -0.0024417895986, 0.95948374823865, -0.2817533931109],
      "ImagePositionPatient": [-832.55354469473, -834.0734241038, 166.47372974032],
      "ImageType": [
        "ORIGINAL",
        "PRIMARY",
        "M",
        "MB",
        "ND",
        "MOSAIC"
],
      "ImagedNucleus": "1H",
      "ImagingFrequency": 123.258973,
      "InPlanePhaseEncodingDirection": "COL",
      "MRAcquisitionType": "2D",
      "MagneticFieldStrength": 3.0,
      "Manufacturer": "SIEMENS",
      "ManufacturerModelName": "Prisma_fit",
      "Modality": "MR",
      "NumberOfAverages": 1.0,
      "NumberOfPhaseEncodingSteps": 104,
      "PercentPhaseFieldOfView": 100.0,
      "PercentSampling": 100.0,
      "PerformedProcedureStepStartTime": "130541.861000",
      "PhotometricInterpretation": "MONOCHROME2",
      "PixelBandwidth": 2290.0,
      "PixelRepresentation": 0,
      "PixelSpacing": [2.0, 2.0],
      "ProtocolName": "func_task-things_run-5",
      "RepetitionTime": 1490.0,
      "Rows": 832,
      "SAR": 0.04963453296609,
      "SamplesPerPixel": 1,
      "ScanOptions": "FS",
      "ScanningSequence": "EP",
      "SequenceName": "epfid2d1_104",
      "SequenceVariant": [
        "SK",
        "SS"
],
      "SeriesDescription": "func_task-things_run-5",
      "SeriesNumber": 22,
      "SeriesTime": "135028.857000",
      "SliceLocation": -45.092676098572,
      "SliceThickness": 2.0,
      "SmallestImagePixelValue": 0,
      "SoftwareVersions": "syngo MR E11",
      "SpacingBetweenSlices": 2.0000000306902,
      "SpecificCharacterSet": "ISO_IR 100",
      "StudyID": "1",
      "StudyTime": "130541.765000",
      "TransmitCoilName": "Body",
      "VariableFlipAngleFlag": "N",
      "WindowCenterWidthExplanation": "Algo1",
      "dBdt": 0.0},
    "slices": {}
  },
  "time": {
    "samples": {
      "AcquisitionNumber": [1, 2, 3, 4, 5, 6, 7, 8, 9, 10, 11, 12, 13, 14, 15, 16, 17, 18, 19, 20, 21, 22, 23, 24, 25, 26, 27, 28, 29, 30, 31, 32, 33, 34, 35, 36, 37, 38, 39, 40, 41, 42, 43, 44, 45, 46, 47, 48, 49, 50, 51, 52, 53, 54, 55, 56, 57, 58, 59, 60, 61, 62, 63, 64, 65, 66, 67, 68, 69, 70, 71, 72, 73, 74, 75, 76, 77, 78, 79, 80, 81, 82, 83, 84, 85, 86, 87, 88, 89, 90, 91, 92, 93, 94, 95, 96, 97, 98, 99, 100, 101, 102, 103, 104, 105, 106, 107, 108, 109, 110, 111, 112, 113, 114, 115, 116, 117, 118, 119, 120, 121, 122, 123, 124, 125, 126, 127, 128, 129, 130, 131, 132, 133, 134, 135, 136, 137, 138, 139, 140, 141, 142, 143, 144, 145, 146, 147, 148, 149, 150, 151, 152, 153, 154, 155, 156, 157, 158, 159, 160, 161, 162, 163, 164, 165, 166, 167, 168, 169, 170, 171, 172, 173, 174, 175, 176, 177, 178, 179, 180, 181, 182, 183, 184, 185, 186, 187, 188, 189, 190],
      "AcquisitionTime": ["134858.372500", "134859.862500", "134901.352500", "134902.842500", "134904.332500", "134905.822500", "134907.312500", "134908.802500", "134910.292500", "134911.782500", "134913.272500", "134914.762500", "134916.252500", "134917.742500", "134919.232500", "134920.722500", "134922.212500", "134923.702500", "134925.192500", "134926.682500", "134928.172500", "134929.662500", "134931.152500", "134932.642500", "134934.132500", "134935.622500", "134937.112500", "134938.602500", "134940.092500", "134941.582500", "134943.072500", "134944.562500", "134946.052500", "134947.542500", "134949.032500", "134950.522500", "134952.012500", "134953.502500", "134954.992500", "134956.482500", "134957.972500", "134959.462500", "135000.952500", "135002.442500", "135003.932500", "135005.422500", "135006.912500", "135008.402500", "135009.892500", "135011.382500", "135012.872500", "135014.362500", "135015.852500", "135017.342500", "135018.832500", "135020.322500", "135021.812500", "135023.302500", "135024.792500", "135026.282500", "135027.772500", "135029.262500", "135030.752500", "135032.242500", "135033.732500", "135035.222500", "135036.712500", "135038.202500", "135039.692500", "135041.182500", "135042.672500", "135044.162500", "135045.652500", "135047.142500", "135048.632500", "135050.122500", "135051.612500", "135053.102500", "135054.592500", "135056.082500", "135057.572500", "135059.062500", "135100.552500", "135102.042500", "135103.532500", "135105.022500", "135106.512500", "135108.002500", "135109.492500", "135110.982500", "135112.472500", "135113.962500", "135115.452500", "135116.942500", "135118.432500", "135119.922500", "135121.412500", "135122.902500", "135124.392500", "135125.882500", "135127.372500", "135128.862500", "135130.352500", "135131.842500", "135133.332500", "135134.822500", "135136.312500", "135137.802500", "135139.292500", "135140.782500", "135142.272500", "135143.762500", "135145.252500", "135146.742500", "135148.232500", "135149.722500", "135151.212500", "135152.702500", "135154.192500", "135155.682500", "135157.172500", "135158.662500", "135200.152500", "135201.642500", "135203.132500", "135204.622500", "135206.112500", "135207.602500", "135209.092500", "135210.582500", "135212.072500", "135213.562500", "135215.052500", "135216.542500", "135218.032500", "135219.522500", "135221.012500", "135222.502500", "135223.992500", "135225.482500", "135226.972500", "135228.462500", "135229.952500", "135231.442500", "135232.932500", "135234.422500", "135235.912500", "135237.402500", "135238.892500", "135240.382500", "135241.872500", "135243.362500", "135244.852500", "135246.342500", "135247.832500", "135249.322500", "135250.812500", "135252.302500", "135253.792500", "135255.282500", "135256.772500", "135258.262500", "135259.752500", "135301.242500", "135302.732500", "135304.222500", "135305.712500", "135307.202500", "135308.692500", "135310.182500", "135311.672500", "135313.162500", "135314.652500", "135316.142500", "135317.632500", "135319.122500", "135320.612500", "135322.102500", "135323.592500", "135325.082500", "135326.572500", "135328.062500", "135329.552500", "135331.042500", "135332.532500", "135334.022500", "135335.512500", "135337.002500", "135338.492500", "135339.982500"],
      "ContentTime": ["135028.860000", "135028.864000", "135028.868000", "135028.871000", "135028.874000", "135028.878000", "135028.881000", "135028.885000", "135028.888000", "135028.891000", "135028.895000", "135028.898000", "135028.901000", "135028.905000", "135028.908000", "135028.912000", "135028.915000", "135028.918000", "135028.922000", "135028.925000", "135028.928000", "135028.932000", "135028.935000", "135028.939000", "135028.942000", "135028.945000", "135028.957000", "135028.960000", "135028.964000", "135028.967000", "135028.971000", "135028.974000", "135028.978000", "135028.981000", "135028.985000", "135028.988000", "135028.992000", "135048.823000", "135048.827000", "135048.830000", "135048.834000", "135048.837000", "135048.841000", "135048.844000", "135048.847000", "135048.851000", "135048.854000", "135048.858000", "135048.861000", "135048.864000", "135048.868000", "135048.871000", "135048.874000", "135048.878000", "135048.881000", "135048.885000", "135048.891000", "135048.895000", "135108.823000", "135108.827000", "135108.830000", "135108.834000", "135108.837000", "135108.841000", "135108.844000", "135108.847000", "135108.851000", "135108.854000", "135108.858000", "135108.861000", "135108.865000", "135108.868000", "135108.871000", "135108.875000", "135108.878000", "135108.882000", "135108.885000", "135108.888000", "135128.823000", "135128.827000", "135128.831000", "135128.834000", "135128.837000", "135128.841000", "135128.844000", "135128.848000", "135128.851000", "135128.855000", "135128.858000", "135128.861000", "135128.865000", "135128.868000", "135128.871000", "135128.875000", "135128.889000", "135128.897000", "135128.900000", "135128.903000", "135208.823000", "135208.827000", "135208.831000", "135208.834000", "135208.837000", "135208.841000", "135208.844000", "135208.848000", "135208.851000", "135208.855000", "135208.858000", "135208.862000", "135208.865000", "135208.869000", "135208.872000", "135208.875000", "135208.879000", "135208.882000", "135208.886000", "135208.889000", "135208.893000", "135208.896000", "135208.899000", "135208.903000", "135208.906000", "135208.910000", "135208.913000", "135208.917000", "135208.920000", "135248.822000", "135248.826000", "135248.829000", "135248.833000", "135248.837000", "135248.840000", "135248.843000", "135248.847000", "135248.850000", "135248.854000", "135248.857000", "135248.861000", "135248.864000", "135248.868000", "135248.871000", "135248.875000", "135248.878000", "135248.881000", "135248.885000", "135248.888000", "135248.892000", "135248.895000", "135248.899000", "135248.902000", "135248.906000", "135248.909000", "135248.912000", "135328.823000", "135328.827000", "135328.831000", "135328.834000", "135328.838000", "135328.841000", "135328.845000", "135328.848000", "135328.852000", "135328.855000", "135328.860000", "135328.863000", "135328.867000", "135328.871000", "135328.874000", "135328.877000", "135328.881000", "135328.884000", "135328.888000", "135328.891000", "135328.895000", "135328.898000", "135328.902000", "135328.905000", "135328.908000", "135328.912000", "135342.459000", "135342.463000", "135342.466000", "135342.470000", "135342.473000", "135342.477000", "135342.480000", "135342.484000", "135342.487000", "135342.491000"],
      "InstanceCreationTime": ["135028.860000", "135028.864000", "135028.868000", "135028.871000", "135028.874000", "135028.878000", "135028.881000", "135028.885000", "135028.888000", "135028.891000", "135028.895000", "135028.898000", "135028.901000", "135028.905000", "135028.908000", "135028.912000", "135028.915000", "135028.918000", "135028.922000", "135028.925000", "135028.928000", "135028.932000", "135028.935000", "135028.939000", "135028.942000", "135028.945000", "135028.957000", "135028.960000", "135028.964000", "135028.967000", "135028.971000", "135028.974000", "135028.978000", "135028.981000", "135028.985000", "135028.988000", "135028.992000", "135048.823000", "135048.827000", "135048.830000", "135048.834000", "135048.837000", "135048.841000", "135048.844000", "135048.847000", "135048.851000", "135048.854000", "135048.858000", "135048.861000", "135048.864000", "135048.868000", "135048.871000", "135048.874000", "135048.878000", "135048.881000", "135048.885000", "135048.891000", "135048.895000", "135108.823000", "135108.827000", "135108.830000", "135108.834000", "135108.837000", "135108.841000", "135108.844000", "135108.847000", "135108.851000", "135108.854000", "135108.858000", "135108.861000", "135108.865000", "135108.868000", "135108.871000", "135108.875000", "135108.878000", "135108.882000", "135108.885000", "135108.888000", "135128.823000", "135128.827000", "135128.831000", "135128.834000", "135128.837000", "135128.841000", "135128.844000", "135128.848000", "135128.851000", "135128.855000", "135128.858000", "135128.861000", "135128.865000", "135128.868000", "135128.871000", "135128.875000", "135128.889000", "135128.897000", "135128.900000", "135128.903000", "135208.823000", "135208.827000", "135208.831000", "135208.834000", "135208.837000", "135208.841000", "135208.844000", "135208.848000", "135208.851000", "135208.855000", "135208.858000", "135208.862000", "135208.865000", "135208.869000", "135208.872000", "135208.875000", "135208.879000", "135208.882000", "135208.886000", "135208.889000", "135208.893000", "135208.896000", "135208.899000", "135208.903000", "135208.906000", "135208.910000", "135208.913000", "135208.917000", "135208.920000", "135248.822000", "135248.826000", "135248.829000", "135248.833000", "135248.837000", "135248.840000", "135248.843000", "135248.847000", "135248.850000", "135248.854000", "135248.857000", "135248.861000", "135248.864000", "135248.868000", "135248.871000", "135248.875000", "135248.878000", "135248.881000", "135248.885000", "135248.888000", "135248.892000", "135248.895000", "135248.899000", "135248.902000", "135248.906000", "135248.909000", "135248.912000", "135328.823000", "135328.827000", "135328.831000", "135328.834000", "135328.838000", "135328.841000", "135328.845000", "135328.848000", "135328.852000", "135328.855000", "135328.860000", "135328.863000", "135328.867000", "135328.871000", "135328.874000", "135328.877000", "135328.881000", "135328.884000", "135328.888000", "135328.891000", "135328.895000", "135328.898000", "135328.902000", "135328.905000", "135328.908000", "135328.912000", "135342.459000", "135342.463000", "135342.466000", "135342.470000", "135342.473000", "135342.477000", "135342.480000", "135342.484000", "135342.487000", "135342.491000"],
      "InstanceNumber": [1, 2, 3, 4, 5, 6, 7, 8, 9, 10, 11, 12, 13, 14, 15, 16, 17, 18, 19, 20, 21, 22, 23, 24, 25, 26, 27, 28, 29, 30, 31, 32, 33, 34, 35, 36, 37, 38, 39, 40, 41, 42, 43, 44, 45, 46, 47, 48, 49, 50, 51, 52, 53, 54, 55, 56, 57, 58, 59, 60, 61, 62, 63, 64, 65, 66, 67, 68, 69, 70, 71, 72, 73, 74, 75, 76, 77, 78, 79, 80, 81, 82, 83, 84, 85, 86, 87, 88, 89, 90, 91, 92, 93, 94, 95, 96, 97, 98, 99, 100, 101, 102, 103, 104, 105, 106, 107, 108, 109, 110, 111, 112, 113, 114, 115, 116, 117, 118, 119, 120, 121, 122, 123, 124, 125, 126, 127, 128, 129, 130, 131, 132, 133, 134, 135, 136, 137, 138, 139, 140, 141, 142, 143, 144, 145, 146, 147, 148, 149, 150, 151, 152, 153, 154, 155, 156, 157, 158, 159, 160, 161, 162, 163, 164, 165, 166, 167, 168, 169, 170, 171, 172, 173, 174, 175, 176, 177, 178, 179, 180, 181, 182, 183, 184, 185, 186, 187, 188, 189, 190],
      "LargestImagePixelValue": [42263, 40976, 40174, 39520, 39547, 39313, 40048, 38943, 39136, 39219, 39610, 39575, 39310, 38906, 39749, 39606, 39101, 38644, 39183, 39342, 38851, 38920, 39224, 39989, 38483, 39160, 39504, 39372, 39143, 39251, 39319, 39316, 39490, 39501, 39046, 39520, 38914, 39074, 39107, 39330, 39632, 39640, 38956, 39021, 38981, 39448, 39776, 39898, 38871, 38854, 39352, 39660, 38972, 39013, 39677, 39727, 38738, 39157, 39223, 39656, 38621, 38793, 39409, 39750, 38504, 39010, 39265, 38926, 39051, 39369, 39854, 38764, 38991, 38899, 39937, 39626, 39221, 38711, 39361, 38539, 38708, 39117, 39300, 38575, 38861, 39045, 39648, 39120, 38587, 38917, 39844, 39840, 38774, 39003, 39151, 39366, 38636, 38896, 39391, 38450, 39007, 39394, 38840, 38866, 39496, 39375, 39531, 38446, 39152, 39069, 38675, 38818, 38984, 39255, 38737, 38129, 38524, 39142, 38727, 38662, 38767, 39286, 39097, 39015, 38411, 39261, 38558, 38147, 39170, 38629, 38925, 38794, 38946, 38188, 38329, 39041, 38966, 38816, 38722, 38667, 39279, 38598, 38840, 38237, 38893, 39040, 38947, 38465, 39163, 39491, 38229, 38439, 39343, 38839, 39564, 38102, 38748, 39332, 38188, 38135, 38834, 39092, 39532, 38564, 38105, 38891, 39419, 38387, 38677, 38332, 38814, 39010, 38651, 38656, 39046, 39227, 38185, 38582, 38639, 39252, 38325, 38727, 38675, 38984, 38323, 39055, 38580, 38629, 37736, 38643],
      "WindowCenter": [10327.0, 10279.0, 10263.0, 10274.0, 10260.0, 10261.0, 10253.0, 10237.0, 10231.0, 10229.0, 10227.0, 10240.0, 10236.0, 10244.0, 10252.0, 10257.0, 10253.0, 10262.0, 10262.0, 10263.0, 10248.0, 10251.0, 10244.0, 10255.0, 10239.0, 10260.0, 10276.0, 10287.0, 10298.0, 10263.0, 10252.0, 10242.0, 10244.0, 10250.0, 10252.0, 10258.0, 10255.0, 10239.0, 10243.0, 10235.0, 10242.0, 10235.0, 10221.0, 10210.0, 10210.0, 10223.0, 10225.0, 10249.0, 10242.0, 10240.0, 10238.0, 10243.0, 10235.0, 10235.0, 10251.0, 10241.0, 10239.0, 10244.0, 10253.0, 10269.0, 10249.0, 10248.0, 10268.0, 10278.0, 10250.0, 10240.0, 10228.0, 10218.0, 10223.0, 10226.0, 10241.0, 10240.0, 10246.0, 10239.0, 10250.0, 10233.0, 10233.0, 10222.0, 10222.0, 10221.0, 10226.0, 10236.0, 10243.0, 10233.0, 10239.0, 10236.0, 10241.0, 10239.0, 10229.0, 10236.0, 10248.0, 10248.0, 10245.0, 10247.0, 10237.0, 10234.0, 10228.0, 10258.0, 10270.0, 10242.0, 10227.0, 10211.0, 10203.0, 10219.0, 10235.0, 10244.0, 10268.0, 10265.0, 10264.0, 10247.0, 10241.0, 10224.0, 10230.0, 10235.0, 10222.0, 10216.0, 10209.0, 10218.0, 10206.0, 10212.0, 10221.0, 10242.0, 10238.0, 10245.0, 10229.0, 10251.0, 10250.0, 10244.0, 10238.0, 10208.0, 10211.0, 10228.0, 10238.0, 10235.0, 10241.0, 10238.0, 10236.0, 10238.0, 10244.0, 10240.0, 10246.0, 10239.0, 10248.0, 10251.0, 10251.0, 10230.0, 10222.0, 10216.0, 10210.0, 10226.0, 10232.0, 10238.0, 10252.0, 10248.0, 10270.0, 10246.0, 10233.0, 10236.0, 10226.0, 10216.0, 10222.0, 10228.0, 10238.0, 10229.0, 10233.0, 10246.0, 10245.0, 10232.0, 10229.0, 10232.0, 10248.0, 10239.0, 10222.0, 10219.0, 10225.0, 10227.0, 10247.0, 10256.0, 10250.0, 10248.0, 10224.0, 10222.0, 10222.0, 10229.0, 10215.0, 10226.0, 10244.0, 10264.0, 10246.0, 10240.0],
      "WindowWidth": [22024.0, 21892.0, 21846.0, 21867.0, 21827.0, 21826.0, 21805.0, 21769.0, 21755.0, 21750.0, 21744.0, 21773.0, 21768.0, 21785.0, 21802.0, 21810.0, 21805.0, 21826.0, 21826.0, 21829.0, 21797.0, 21797.0, 21783.0, 21803.0, 21774.0, 21821.0, 21858.0, 21885.0, 21911.0, 21827.0, 21802.0, 21776.0, 21784.0, 21796.0, 21803.0, 21817.0, 21812.0, 21775.0, 21783.0, 21764.0, 21777.0, 21763.0, 21733.0, 21703.0, 21705.0, 21733.0, 21739.0, 21793.0, 21784.0, 21777.0, 21771.0, 21781.0, 21761.0, 21762.0, 21798.0, 21774.0, 21776.0, 21783.0, 21806.0, 21842.0, 21800.0, 21795.0, 21838.0, 21863.0, 21800.0, 21774.0, 21743.0, 21719.0, 21730.0, 21742.0, 21774.0, 21778.0, 21790.0, 21774.0, 21795.0, 21757.0, 21757.0, 21736.0, 21734.0, 21732.0, 21742.0, 21764.0, 21780.0, 21760.0, 21771.0, 21766.0, 21773.0, 21773.0, 21748.0, 21765.0, 21790.0, 21792.0, 21788.0, 21790.0, 21768.0, 21757.0, 21746.0, 21813.0, 21844.0, 21780.0, 21739.0, 21706.0, 21691.0, 21727.0, 21766.0, 21787.0, 21839.0, 21836.0, 21831.0, 21791.0, 21778.0, 21740.0, 21752.0, 21762.0, 21736.0, 21722.0, 21708.0, 21721.0, 21699.0, 21709.0, 21732.0, 21777.0, 21772.0, 21788.0, 21751.0, 21801.0, 21804.0, 21787.0, 21768.0, 21704.0, 21707.0, 21747.0, 21772.0, 21768.0, 21781.0, 21770.0, 21764.0, 21771.0, 21785.0, 21779.0, 21790.0, 21775.0, 21795.0, 21804.0, 21802.0, 21751.0, 21732.0, 21720.0, 21705.0, 21741.0, 21759.0, 21770.0, 21802.0, 21798.0, 21843.0, 21793.0, 21760.0, 21761.0, 21745.0, 21722.0, 21733.0, 21746.0, 21770.0, 21752.0, 21762.0, 21790.0, 21786.0, 21757.0, 21751.0, 21758.0, 21794.0, 21772.0, 21732.0, 21724.0, 21739.0, 21745.0, 21795.0, 21813.0, 21802.0, 21794.0, 21741.0, 21735.0, 21736.0, 21752.0, 21720.0, 21740.0, 21786.0, 21832.0, 21792.0, 21773.0]
    },
    "slices": {}
  }
}