{
  "AcquisitionMatrixPE": 104,
  "AcquisitionNumber": 1,
  "AcquisitionTime": "13:25:18.757500",
  "BandwidthPerPixelPhaseEncode": 17.17,
  "BaseResolution": 104,
  "BodyPartExamined": "BRAIN",
  "CoilString": "HC1-7;NC1_2",
  "ConsistencyInfo": "N4_VE11C_LATEST_20160120",
  "ConversionSoftware": "dcm2niix",
  "ConversionSoftwareVersion": "v1.0.20190902",
  "DerivedVendorReportedEchoSpacing": 0.000560011,
  "DeviceSerialNumber": "167006",
  "DwellTime": 2.1e-06,
  "EchoTime": 0.037,
  "EchoTrainLength": 104,
  "EffectiveEchoSpacing": 0.000560011,
  "FlipAngle": 52,
  "ImageComments": "Unaliased_MB4_PE3_LB",
  "ImageOrientationPatientDICOM": [0.999345, 0.0125136, 0.0339532, -0.00244179, 0.959484, -0.281753],
  "ImageType": [
    "ORIGINAL",
    "PRIMARY",
    "M",
    "MB",
    "ND",
    "MOSAIC"
],
  "ImagingFrequency": 123.259,
  "InPlanePhaseEncodingDirectionDICOM": "COL",
  "InstitutionAddress": "Chemin_Queen-Mary_4565_Montreal_District_CA_H3W_1W5",
  "InstitutionName": "IUGM",
  "InstitutionalDepartmentName": "Department",
  "MRAcquisitionType": "2D",
  "MagneticFieldStrength": 3,
  "Manufacturer": "Siemens",
  "ManufacturersModelName": "Prisma_fit",
  "Modality": "MR",
  "MultibandAccelerationFactor": 4,
  "PartialFourier": 1,
  "PatientPosition": "HFS",
  "PercentPhaseFOV": 100,
  "PhaseEncodingDirection": "j",
  "PhaseEncodingSteps": 104,
  "PhaseResolution": 1,
  "PixelBandwidth": 2290,
  "ProcedureStepDescription": "memory_things",
  "ProtocolName": "func_task-things_run-1",
  "PulseSequenceDetails": "%CustomerSeq%_cmrr_mbep2d_bold",
  "ReceiveCoilActiveElements": "HC1-7;NC1,2",
  "ReceiveCoilName": "HeadNeck_64",
  "ReconMatrixPE": 104,
  "RepetitionTime": 1.49,
  "SAR": 0.0496345,
  "ScanOptions": "FS",
  "ScanningSequence": "EP",
  "SequenceName": "epfid2d1_104",
  "SequenceVariant": "SK_SS",
  "SeriesDescription": "func_task-things_run-1",
  "SeriesNumber": 10,
  "ShimSetting": [637, -7204, -8802, 762, 44, -7, 55, -11],
  "SliceThickness": 2,
  "SliceTiming": [0, 0.785, 0.0975, 0.8825, 0.195, 0.98, 0.295, 1.0775, 0.3925, 1.175, 0.49, 1.275, 0.5875, 1.3725, 0.685, 0, 0.785, 0.0975, 0.8825, 0.195, 0.98, 0.295, 1.0775, 0.3925, 1.175, 0.49, 1.275, 0.5875, 1.3725, 0.685, 0, 0.785, 0.0975, 0.8825, 0.195, 0.98, 0.295, 1.0775, 0.3925, 1.175, 0.49, 1.275, 0.5875, 1.3725, 0.685, 0, 0.785, 0.0975, 0.8825, 0.195, 0.98, 0.295, 1.0775, 0.3925, 1.175, 0.49, 1.275, 0.5875, 1.3725, 0.685],
  "SoftwareVersions": "syngo_MR_E11",
  "SpacingBetweenSlices": 2,
  "StationName": "MRC35049",
  "TaskName": "things",
  "TotalReadoutTime": 0.0576811,
  "TxRefAmp": 236.672,
  "WipMemBlock": "ea59af49-028f-4a8f-b113-beec796dea86||Sequence: R016 ve11c/master r/e634e98; Dec 19 2017 11:00:25 by eja",
  "dcmmeta_affine": [
    [-1.998690128326416, -0.0048835789784789085, 0.07220669090747833, 107.31095886230469],
    [-0.02502727508544922, 1.9189674854278564, -0.5629719495773315, -71.19432830810547],
    [0.06790648400783539, 0.5635067820549011, 1.917771816253662, -71.96598052978516],
    [0.0, 0.0, 0.0, 1.0]
],
  "dcmmeta_reorient_transform": [
    [0.0, -1.0, 0.0, 103.0],
    [1.0, 0.0, 0.0, 0.0],
    [0.0, 0.0, 1.0, 0.0],
    [0.0, 0.0, 0.0, 1.0]
],
  "dcmmeta_shape": [104, 104, 60, 190],
  "dcmmeta_slice_dim": 2,
  "dcmmeta_version": 0.6,
  "global": {
    "const": {
      "AcquisitionMatrix": [104, 0, 0, 104],
      "AngioFlag": "N",
      "BitsAllocated": 16,
      "BitsStored": 16,
      "BodyPartExamined": "BRAIN",
      "Columns": 832,
      "EchoNumbers": 1,
      "EchoTime": 37.0,
      "EchoTrainLength": 104,
      "FlipAngle": 52.0,
      "HighBit": 15,
      "ImageOrientationPatient": [0.99934507862987, 0.01251363746617, 0.03395324278497, -0.0024417895986, 0.95948374823865, -0.2817533931109],
      "ImagePositionPatient": [-832.55354469473, -834.0734241038, 166.47372974032],
      "ImageType": [
        "ORIGINAL",
        "PRIMARY",
        "M",
        "MB",
        "ND",
        "MOSAIC"
],
      "ImagedNucleus": "1H",
      "ImagingFrequency": 123.258961,
      "InPlanePhaseEncodingDirection": "COL",
      "MRAcquisitionType": "2D",
      "MagneticFieldStrength": 3.0,
      "Manufacturer": "SIEMENS",
      "ManufacturerModelName": "Prisma_fit",
      "Modality": "MR",
      "NumberOfAverages": 1.0,
      "NumberOfPhaseEncodingSteps": 104,
      "PercentPhaseFieldOfView": 100.0,
      "PercentSampling": 100.0,
      "PerformedProcedureStepStartTime": "130541.861000",
      "PhotometricInterpretation": "MONOCHROME2",
      "PixelBandwidth": 2290.0,
      "PixelRepresentation": 0,
      "PixelSpacing": [2.0, 2.0],
      "ProtocolName": "func_task-things_run-1",
      "RepetitionTime": 1490.0,
      "Rows": 832,
      "SAR": 0.04963453296609,
      "SamplesPerPixel": 1,
      "ScanOptions": "FS",
      "ScanningSequence": "EP",
      "SequenceName": "epfid2d1_104",
      "SequenceVariant": [
        "SK",
        "SS"
],
      "SeriesDescription": "func_task-things_run-1",
      "SeriesNumber": 10,
      "SeriesTime": "132646.725000",
      "SliceLocation": -45.092676098572,
      "SliceThickness": 2.0,
      "SmallestImagePixelValue": 0,
      "SoftwareVersions": "syngo MR E11",
      "SpacingBetweenSlices": 2.0000000306902,
      "SpecificCharacterSet": "ISO_IR 100",
      "StudyID": "1",
      "StudyTime": "130541.765000",
      "TransmitCoilName": "Body",
      "VariableFlipAngleFlag": "N",
      "WindowCenterWidthExplanation": "Algo1",
      "dBdt": 0.0},
    "slices": {}
  },
  "time": {
    "samples": {
      "AcquisitionNumber": [1, 2, 3, 4, 5, 6, 7, 8, 9, 10, 11, 12, 13, 14, 15, 16, 17, 18, 19, 20, 21, 22, 23, 24, 25, 26, 27, 28, 29, 30, 31, 32, 33, 34, 35, 36, 37, 38, 39, 40, 41, 42, 43, 44, 45, 46, 47, 48, 49, 50, 51, 52, 53, 54, 55, 56, 57, 58, 59, 60, 61, 62, 63, 64, 65, 66, 67, 68, 69, 70, 71, 72, 73, 74, 75, 76, 77, 78, 79, 80, 81, 82, 83, 84, 85, 86, 87, 88, 89, 90, 91, 92, 93, 94, 95, 96, 97, 98, 99, 100, 101, 102, 103, 104, 105, 106, 107, 108, 109, 110, 111, 112, 113, 114, 115, 116, 117, 118, 119, 120, 121, 122, 123, 124, 125, 126, 127, 128, 129, 130, 131, 132, 133, 134, 135, 136, 137, 138, 139, 140, 141, 142, 143, 144, 145, 146, 147, 148, 149, 150, 151, 152, 153, 154, 155, 156, 157, 158, 159, 160, 161, 162, 163, 164, 165, 166, 167, 168, 169, 170, 171, 172, 173, 174, 175, 176, 177, 178, 179, 180, 181, 182, 183, 184, 185, 186, 187, 188, 189, 190],
      "AcquisitionTime": ["132518.757500", "132520.247500", "132521.737500", "132523.227500", "132524.717500", "132526.207500", "132527.697500", "132529.187500", "132530.677500", "132532.167500", "132533.657500", "132535.147500", "132536.637500", "132538.127500", "132539.617500", "132541.107500", "132542.597500", "132544.087500", "132545.577500", "132547.067500", "132548.557500", "132550.047500", "132551.537500", "132553.027500", "132554.517500", "132556.007500", "132557.497500", "132558.987500", "132600.477500", "132601.967500", "132603.457500", "132604.947500", "132606.437500", "132607.927500", "132609.417500", "132610.907500", "132612.397500", "132613.887500", "132615.377500", "132616.867500", "132618.357500", "132619.847500", "132621.337500", "132622.827500", "132624.317500", "132625.807500", "132627.297500", "132628.787500", "132630.277500", "132631.767500", "132633.257500", "132634.747500", "132636.237500", "132637.727500", "132639.217500", "132640.707500", "132642.197500", "132643.687500", "132645.177500", "132646.667500", "132648.157500", "132649.647500", "132651.137500", "132652.627500", "132654.117500", "132655.607500", "132657.097500", "132658.587500", "132700.077500", "132701.567500", "132703.057500", "132704.547500", "132706.037500", "132707.527500", "132709.017500", "132710.507500", "132711.997500", "132713.487500", "132714.977500", "132716.467500", "132717.957500", "132719.447500", "132720.937500", "132722.427500", "132723.917500", "132725.407500", "132726.897500", "132728.387500", "132729.877500", "132731.367500", "132732.857500", "132734.347500", "132735.837500", "132737.327500", "132738.817500", "132740.307500", "132741.797500", "132743.287500", "132744.777500", "132746.267500", "132747.757500", "132749.247500", "132750.737500", "132752.227500", "132753.717500", "132755.207500", "132756.697500", "132758.187500", "132759.677500", "132801.167500", "132802.657500", "132804.147500", "132805.637500", "132807.127500", "132808.617500", "132810.107500", "132811.597500", "132813.087500", "132814.577500", "132816.067500", "132817.557500", "132819.047500", "132820.537500", "132822.027500", "132823.517500", "132825.007500", "132826.497500", "132827.987500", "132829.477500", "132830.967500", "132832.457500", "132833.947500", "132835.437500", "132836.927500", "132838.417500", "132839.907500", "132841.397500", "132842.887500", "132844.377500", "132845.867500", "132847.357500", "132848.847500", "132850.337500", "132851.827500", "132853.317500", "132854.807500", "132856.297500", "132857.787500", "132859.277500", "132900.767500", "132902.257500", "132903.747500", "132905.237500", "132906.727500", "132908.217500", "132909.707500", "132911.197500", "132912.687500", "132914.177500", "132915.667500", "132917.157500", "132918.647500", "132920.137500", "132921.627500", "132923.117500", "132924.607500", "132926.097500", "132927.587500", "132929.077500", "132930.567500", "132932.057500", "132933.547500", "132935.037500", "132936.527500", "132938.017500", "132939.507500", "132940.997500", "132942.487500", "132943.977500", "132945.467500", "132946.957500", "132948.447500", "132949.937500", "132951.427500", "132952.917500", "132954.407500", "132955.897500", "132957.387500", "132958.877500", "133000.367500"],
      "ContentTime": ["132646.729000", "132646.733000", "132646.736000", "132646.740000", "132646.744000", "132646.747000", "132646.750000", "132646.754000", "132646.757000", "132646.761000", "132646.765000", "132646.769000", "132646.773000", "132646.777000", "132646.780000", "132646.784000", "132646.798000", "132646.802000", "132646.805000", "132646.809000", "132646.813000", "132646.816000", "132706.686000", "132706.690000", "132706.694000", "132706.697000", "132706.700000", "132706.704000", "132706.707000", "132706.711000", "132706.714000", "132706.718000", "132706.721000", "132706.724000", "132706.728000", "132706.731000", "132706.734000", "132706.738000", "132706.741000", "132706.745000", "132706.748000", "132706.751000", "132726.686000", "132726.690000", "132726.693000", "132726.697000", "132726.700000", "132726.703000", "132726.707000", "132726.710000", "132726.713000", "132726.717000", "132726.720000", "132726.724000", "132726.727000", "132726.730000", "132726.734000", "132726.737000", "132726.741000", "132726.744000", "132726.748000", "132726.751000", "132746.687000", "132746.691000", "132746.694000", "132746.698000", "132746.701000", "132746.705000", "132746.708000", "132746.711000", "132746.715000", "132746.718000", "132746.722000", "132746.725000", "132746.729000", "132746.732000", "132746.736000", "132746.739000", "132746.742000", "132746.746000", "132746.749000", "132746.752000", "132746.756000", "132806.687000", "132806.691000", "132806.694000", "132806.698000", "132806.701000", "132806.705000", "132806.708000", "132806.712000", "132806.715000", "132806.718000", "132806.722000", "132806.725000", "132806.729000", "132806.732000", "132806.735000", "132806.739000", "132806.742000", "132806.746000", "132806.749000", "132806.752000", "132826.686000", "132826.690000", "132826.693000", "132826.714000", "132826.717000", "132826.733000", "132826.736000", "132826.739000", "132826.743000", "132826.746000", "132826.749000", "132826.753000", "132826.756000", "132826.760000", "132826.763000", "132826.766000", "132826.852000", "132826.856000", "132826.859000", "132826.863000", "132906.686000", "132906.690000", "132906.693000", "132906.697000", "132906.700000", "132906.704000", "132906.707000", "132906.710000", "132906.714000", "132906.717000", "132906.721000", "132906.724000", "132906.727000", "132906.731000", "132906.734000", "132906.738000", "132906.742000", "132906.746000", "132906.749000", "132906.753000", "132906.756000", "132906.760000", "132906.763000", "132906.766000", "132906.770000", "132906.773000", "132906.777000", "132906.780000", "132906.783000", "132946.686000", "132946.690000", "132946.694000", "132946.697000", "132946.700000", "132946.704000", "132946.707000", "132946.710000", "132946.714000", "132946.717000", "132946.721000", "132946.724000", "132946.728000", "132946.731000", "132946.734000", "132946.738000", "132946.741000", "132946.749000", "132946.752000", "132946.756000", "132946.759000", "132946.762000", "132946.766000", "132946.769000", "132946.773000", "132946.776000", "132946.780000", "133002.075000", "133002.079000", "133002.082000", "133002.086000", "133002.089000", "133002.093000", "133002.096000", "133002.100000", "133002.103000", "133002.107000", "133002.110000"],
      "InstanceCreationTime": ["132646.729000", "132646.733000", "132646.736000", "132646.740000", "132646.744000", "132646.747000", "132646.750000", "132646.754000", "132646.757000", "132646.761000", "132646.765000", "132646.769000", "132646.773000", "132646.777000", "132646.780000", "132646.784000", "132646.798000", "132646.802000", "132646.805000", "132646.809000", "132646.813000", "132646.816000", "132706.686000", "132706.690000", "132706.694000", "132706.697000", "132706.700000", "132706.704000", "132706.707000", "132706.711000", "132706.714000", "132706.718000", "132706.721000", "132706.724000", "132706.728000", "132706.731000", "132706.734000", "132706.738000", "132706.741000", "132706.745000", "132706.748000", "132706.751000", "132726.686000", "132726.690000", "132726.693000", "132726.697000", "132726.700000", "132726.703000", "132726.707000", "132726.710000", "132726.713000", "132726.717000", "132726.720000", "132726.724000", "132726.727000", "132726.730000", "132726.734000", "132726.737000", "132726.741000", "132726.744000", "132726.748000", "132726.751000", "132746.687000", "132746.691000", "132746.694000", "132746.698000", "132746.701000", "132746.705000", "132746.708000", "132746.711000", "132746.715000", "132746.718000", "132746.722000", "132746.725000", "132746.729000", "132746.732000", "132746.736000", "132746.739000", "132746.742000", "132746.746000", "132746.749000", "132746.752000", "132746.756000", "132806.687000", "132806.691000", "132806.694000", "132806.698000", "132806.701000", "132806.705000", "132806.708000", "132806.712000", "132806.715000", "132806.718000", "132806.722000", "132806.725000", "132806.729000", "132806.732000", "132806.735000", "132806.739000", "132806.742000", "132806.746000", "132806.749000", "132806.752000", "132826.686000", "132826.690000", "132826.693000", "132826.714000", "132826.717000", "132826.733000", "132826.736000", "132826.739000", "132826.743000", "132826.746000", "132826.749000", "132826.753000", "132826.756000", "132826.760000", "132826.763000", "132826.766000", "132826.852000", "132826.856000", "132826.859000", "132826.863000", "132906.686000", "132906.690000", "132906.693000", "132906.697000", "132906.700000", "132906.704000", "132906.707000", "132906.710000", "132906.714000", "132906.717000", "132906.721000", "132906.724000", "132906.727000", "132906.731000", "132906.734000", "132906.738000", "132906.742000", "132906.746000", "132906.749000", "132906.753000", "132906.756000", "132906.760000", "132906.763000", "132906.766000", "132906.770000", "132906.773000", "132906.777000", "132906.780000", "132906.783000", "132946.686000", "132946.690000", "132946.694000", "132946.697000", "132946.700000", "132946.704000", "132946.707000", "132946.710000", "132946.714000", "132946.717000", "132946.721000", "132946.724000", "132946.728000", "132946.731000", "132946.734000", "132946.738000", "132946.741000", "132946.749000", "132946.752000", "132946.756000", "132946.759000", "132946.762000", "132946.766000", "132946.769000", "132946.773000", "132946.776000", "132946.780000", "133002.075000", "133002.079000", "133002.082000", "133002.086000", "133002.089000", "133002.093000", "133002.096000", "133002.100000", "133002.103000", "133002.107000", "133002.110000"],
      "InstanceNumber": [1, 2, 3, 4, 5, 6, 7, 8, 9, 10, 11, 12, 13, 14, 15, 16, 17, 18, 19, 20, 21, 22, 23, 24, 25, 26, 27, 28, 29, 30, 31, 32, 33, 34, 35, 36, 37, 38, 39, 40, 41, 42, 43, 44, 45, 46, 47, 48, 49, 50, 51, 52, 53, 54, 55, 56, 57, 58, 59, 60, 61, 62, 63, 64, 65, 66, 67, 68, 69, 70, 71, 72, 73, 74, 75, 76, 77, 78, 79, 80, 81, 82, 83, 84, 85, 86, 87, 88, 89, 90, 91, 92, 93, 94, 95, 96, 97, 98, 99, 100, 101, 102, 103, 104, 105, 106, 107, 108, 109, 110, 111, 112, 113, 114, 115, 116, 117, 118, 119, 120, 121, 122, 123, 124, 125, 126, 127, 128, 129, 130, 131, 132, 133, 134, 135, 136, 137, 138, 139, 140, 141, 142, 143, 144, 145, 146, 147, 148, 149, 150, 151, 152, 153, 154, 155, 156, 157, 158, 159, 160, 161, 162, 163, 164, 165, 166, 167, 168, 169, 170, 171, 172, 173, 174, 175, 176, 177, 178, 179, 180, 181, 182, 183, 184, 185, 186, 187, 188, 189, 190],
      "LargestImagePixelValue": [42022, 41133, 39878, 39111, 39425, 39029, 38925, 38318, 38950, 38624, 39576, 38505, 39096, 39070, 39735, 39173, 38646, 39142, 38841, 39145, 38799, 38683, 38738, 39500, 39092, 38936, 38908, 39262, 39692, 38808, 39375, 39503, 39255, 38993, 38490, 39448, 39463, 39793, 38570, 39466, 38967, 39491, 39612, 38631, 38804, 39537, 38816, 38944, 39102, 39343, 39343, 39422, 39235, 38961, 39695, 39238, 38626, 39289, 39412, 38759, 38561, 39295, 39258, 39281, 38580, 39212, 39174, 39911, 38477, 39027, 39346, 38892, 38484, 38788, 39039, 39158, 38445, 38836, 38983, 39237, 38763, 38666, 39259, 39392, 38707, 38750, 39165, 39096, 38219, 38734, 38734, 39469, 38276, 38839, 38329, 39362, 38193, 38876, 38550, 38788, 38055, 38495, 38997, 38280, 38052, 38217, 38535, 38830, 38255, 38245, 38490, 38868, 38258, 38227, 39037, 38579, 38270, 38224, 38854, 39068, 38354, 38120, 39042, 39052, 38921, 38220, 38073, 38663, 38687, 38531, 37868, 38582, 38629, 38584, 38826, 37916, 38133, 38791, 38991, 38998, 37749, 38512, 38930, 38489, 39026, 38306, 38450, 38658, 38965, 39283, 38128, 38321, 38624, 38569, 38945, 38165, 38860, 39103, 38870, 37893, 38310, 38854, 38771, 38217, 38200, 38455, 39082, 38241, 37831, 38391, 38598, 38979, 39157, 38219, 38017, 38520, 38991, 39146, 37964, 38592, 38612, 38993, 38505, 37761, 38201, 38532, 38536, 39333, 38254, 38139],
      "WindowCenter": [10406.0, 10391.0, 10396.0, 10390.0, 10379.0, 10308.0, 10316.0, 10317.0, 10317.0, 10324.0, 10319.0, 10309.0, 10323.0, 10316.0, 10322.0, 10315.0, 10309.0, 10306.0, 10301.0, 10306.0, 10311.0, 10315.0, 10310.0, 10315.0, 10315.0, 10307.0, 10314.0, 10314.0, 10311.0, 10300.0, 10304.0, 10312.0, 10314.0, 10317.0, 10312.0, 10330.0, 10322.0, 10313.0, 10300.0, 10297.0, 10303.0, 10314.0, 10324.0, 10310.0, 10307.0, 10311.0, 10300.0, 10308.0, 10309.0, 10312.0, 10313.0, 10323.0, 10305.0, 10287.0, 10319.0, 10314.0, 10316.0, 10320.0, 10304.0, 10289.0, 10285.0, 10301.0, 10299.0, 10314.0, 10290.0, 10303.0, 10304.0, 10316.0, 10309.0, 10337.0, 10330.0, 10324.0, 10296.0, 10299.0, 10290.0, 10290.0, 10284.0, 10290.0, 10299.0, 10299.0, 10299.0, 10284.0, 10288.0, 10294.0, 10301.0, 10293.0, 10291.0, 10288.0, 10274.0, 10281.0, 10284.0, 10312.0, 10301.0, 10301.0, 10294.0, 10306.0, 10286.0, 10292.0, 10293.0, 10298.0, 10295.0, 10302.0, 10315.0, 10311.0, 10306.0, 10296.0, 10302.0, 10301.0, 10303.0, 10284.0, 10292.0, 10284.0, 10300.0, 10302.0, 10309.0, 10292.0, 10285.0, 10293.0, 10305.0, 10307.0, 10303.0, 10284.0, 10281.0, 10290.0, 10281.0, 10292.0, 10303.0, 10297.0, 10291.0, 10284.0, 10271.0, 10276.0, 10274.0, 10291.0, 10300.0, 10287.0, 10287.0, 10293.0, 10301.0, 10297.0, 10281.0, 10286.0, 10282.0, 10285.0, 10306.0, 10286.0, 10287.0, 10293.0, 10282.0, 10288.0, 10285.0, 10277.0, 10291.0, 10302.0, 10300.0, 10293.0, 10292.0, 10290.0, 10291.0, 10280.0, 10287.0, 10299.0, 10302.0, 10286.0, 10287.0, 10293.0, 10298.0, 10300.0, 10289.0, 10293.0, 10293.0, 10291.0, 10300.0, 10303.0, 10303.0, 10294.0, 10292.0, 10281.0, 10271.0, 10290.0, 10291.0, 10299.0, 10292.0, 10279.0, 10275.0, 10276.0, 10283.0, 10298.0, 10291.0, 10276.0],
      "WindowWidth": [22219.0, 22162.0, 22166.0, 22145.0, 22117.0, 21945.0, 21960.0, 21964.0, 21965.0, 21982.0, 21966.0, 21946.0, 21977.0, 21961.0, 21975.0, 21959.0, 21944.0, 21934.0, 21928.0, 21937.0, 21952.0, 21960.0, 21948.0, 21956.0, 21958.0, 21938.0, 21954.0, 21953.0, 21945.0, 21923.0, 21932.0, 21951.0, 21956.0, 21965.0, 21956.0, 21992.0, 21972.0, 21952.0, 21920.0, 21912.0, 21925.0, 21955.0, 21977.0, 21945.0, 21938.0, 21945.0, 21923.0, 21940.0, 21944.0, 21948.0, 21951.0, 21975.0, 21930.0, 21889.0, 21965.0, 21956.0, 21962.0, 21967.0, 21927.0, 21896.0, 21889.0, 21922.0, 21920.0, 21954.0, 21903.0, 21930.0, 21933.0, 21959.0, 21947.0, 22010.0, 21992.0, 21980.0, 21918.0, 21920.0, 21898.0, 21899.0, 21886.0, 21901.0, 21922.0, 21919.0, 21919.0, 21886.0, 21891.0, 21905.0, 21926.0, 21907.0, 21900.0, 21892.0, 21862.0, 21878.0, 21887.0, 21949.0, 21927.0, 21925.0, 21911.0, 21935.0, 21892.0, 21905.0, 21908.0, 21917.0, 21913.0, 21928.0, 21957.0, 21951.0, 21943.0, 21920.0, 21928.0, 21927.0, 21932.0, 21886.0, 21904.0, 21887.0, 21922.0, 21928.0, 21946.0, 21906.0, 21890.0, 21908.0, 21933.0, 21939.0, 21931.0, 21887.0, 21877.0, 21897.0, 21878.0, 21905.0, 21932.0, 21914.0, 21901.0, 21886.0, 21857.0, 21867.0, 21862.0, 21899.0, 21921.0, 21895.0, 21892.0, 21905.0, 21926.0, 21913.0, 21881.0, 21892.0, 21880.0, 21888.0, 21936.0, 21892.0, 21893.0, 21905.0, 21882.0, 21892.0, 21889.0, 21870.0, 21902.0, 21927.0, 21922.0, 21906.0, 21903.0, 21899.0, 21901.0, 21881.0, 21896.0, 21918.0, 21927.0, 21891.0, 21895.0, 21908.0, 21918.0, 21922.0, 21901.0, 21908.0, 21909.0, 21903.0, 21923.0, 21931.0, 21931.0, 21909.0, 21901.0, 21876.0, 21856.0, 21896.0, 21902.0, 21918.0, 21903.0, 21876.0, 21863.0, 21865.0, 21879.0, 21910.0, 21898.0, 21864.0]
    },
    "slices": {}
  }
}