{
  "AcquisitionMatrixPE": 104,
  "AcquisitionNumber": 1,
  "AcquisitionTime": "13:55:1.212500",
  "BandwidthPerPixelPhaseEncode": 17.17,
  "BaseResolution": 104,
  "BodyPartExamined": "BRAIN",
  "CoilString": "HC1-7;NC1_2",
  "ConsistencyInfo": "N4_VE11C_LATEST_20160120",
  "ConversionSoftware": "dcm2niix",
  "ConversionSoftwareVersion": "v1.0.20190902",
  "DerivedVendorReportedEchoSpacing": 0.000560011,
  "DeviceSerialNumber": "167006",
  "DwellTime": 2.1e-06,
  "EchoTime": 0.037,
  "EchoTrainLength": 104,
  "EffectiveEchoSpacing": 0.000560011,
  "FlipAngle": 52,
  "ImageComments": "Unaliased_MB4_PE3_LB",
  "ImageOrientationPatientDICOM": [0.999345, 0.0125136, 0.0339532, -0.00244179, 0.959484, -0.281753],
  "ImageType": [
    "ORIGINAL",
    "PRIMARY",
    "P",
    "MB",
    "ND",
    "MOSAIC"
],
  "ImagingFrequency": 123.259,
  "InPlanePhaseEncodingDirectionDICOM": "COL",
  "InstitutionAddress": "Chemin_Queen-Mary_4565_Montreal_District_CA_H3W_1W5",
  "InstitutionName": "IUGM",
  "InstitutionalDepartmentName": "Department",
  "MRAcquisitionType": "2D",
  "MagneticFieldStrength": 3,
  "Manufacturer": "Siemens",
  "ManufacturersModelName": "Prisma_fit",
  "Modality": "MR",
  "MultibandAccelerationFactor": 4,
  "PartialFourier": 1,
  "PatientPosition": "HFS",
  "PercentPhaseFOV": 100,
  "PhaseEncodingDirection": "j",
  "PhaseEncodingSteps": 104,
  "PhaseResolution": 1,
  "PixelBandwidth": 2290,
  "ProcedureStepDescription": "memory_things",
  "ProtocolName": "func_task-things_run-6",
  "PulseSequenceDetails": "%CustomerSeq%_cmrr_mbep2d_bold",
  "ReceiveCoilActiveElements": "HC1-7;NC1,2",
  "ReceiveCoilName": "HeadNeck_64",
  "ReconMatrixPE": 104,
  "RepetitionTime": 1.49,
  "SAR": 0.0496345,
  "ScanOptions": "FS",
  "ScanningSequence": "EP",
  "SequenceName": "epfid2d1_104",
  "SequenceVariant": "SK_SS",
  "SeriesDescription": "func_task-things_run-6",
  "SeriesNumber": 26,
  "ShimSetting": [637, -7204, -8802, 762, 44, -7, 55, -11],
  "SliceThickness": 2,
  "SliceTiming": [0, 0.785, 0.0975, 0.8825, 0.1975, 0.98, 0.295, 1.0775, 0.3925, 1.1775, 0.49, 1.275, 0.5875, 1.3725, 0.6875, 0, 0.785, 0.0975, 0.8825, 0.1975, 0.98, 0.295, 1.0775, 0.3925, 1.1775, 0.49, 1.275, 0.5875, 1.3725, 0.6875, 0, 0.785, 0.0975, 0.8825, 0.1975, 0.98, 0.295, 1.0775, 0.3925, 1.1775, 0.49, 1.275, 0.5875, 1.3725, 0.6875, 0, 0.785, 0.0975, 0.8825, 0.1975, 0.98, 0.295, 1.0775, 0.3925, 1.1775, 0.49, 1.275, 0.5875, 1.3725, 0.6875],
  "SoftwareVersions": "syngo_MR_E11",
  "SpacingBetweenSlices": 2,
  "StationName": "MRC35049",
  "TaskName": "things",
  "TotalReadoutTime": 0.0576811,
  "TxRefAmp": 236.672,
  "WipMemBlock": "839bc0c7-c8f1-44aa-8a7b-89f27c2d81d2||Sequence: R016 ve11c/master r/e634e98; Dec 19 2017 11:00:25 by eja",
  "dcmmeta_affine": [
    [-1.998690128326416, -0.0048835789784789085, 0.07220669090747833, 107.31095886230469],
    [-0.02502727508544922, 1.9189674854278564, -0.5629719495773315, -71.19432830810547],
    [0.06790648400783539, 0.5635067820549011, 1.917771816253662, -71.96598052978516],
    [0.0, 0.0, 0.0, 1.0]
],
  "dcmmeta_reorient_transform": [
    [0.0, -1.0, 0.0, 103.0],
    [1.0, 0.0, 0.0, 0.0],
    [0.0, 0.0, 1.0, 0.0],
    [0.0, 0.0, 0.0, 1.0]
],
  "dcmmeta_shape": [104, 104, 60, 190],
  "dcmmeta_slice_dim": 2,
  "dcmmeta_version": 0.6,
  "global": {
    "const": {
      "AcquisitionMatrix": [104, 0, 0, 104],
      "AngioFlag": "N",
      "BitsAllocated": 16,
      "BitsStored": 16,
      "BodyPartExamined": "BRAIN",
      "Columns": 832,
      "EchoNumbers": 1,
      "EchoTime": 37.0,
      "EchoTrainLength": 104,
      "FlipAngle": 52.0,
      "HighBit": 15,
      "ImageOrientationPatient": [0.99934507862987, 0.01251363746617, 0.03395324278497, -0.0024417895986, 0.95948374823865, -0.2817533931109],
      "ImagePositionPatient": [-832.55354469473, -834.0734241038, 166.47372974032],
      "ImageType": [
        "ORIGINAL",
        "PRIMARY",
        "P",
        "MB",
        "ND",
        "MOSAIC"
],
      "ImagedNucleus": "1H",
      "ImagingFrequency": 123.258978,
      "InPlanePhaseEncodingDirection": "COL",
      "LargestImagePixelValue": 4095,
      "MRAcquisitionType": "2D",
      "MagneticFieldStrength": 3.0,
      "Manufacturer": "SIEMENS",
      "ManufacturerModelName": "Prisma_fit",
      "Modality": "MR",
      "NumberOfAverages": 1.0,
      "NumberOfPhaseEncodingSteps": 104,
      "PercentPhaseFieldOfView": 100.0,
      "PercentSampling": 100.0,
      "PerformedProcedureStepStartTime": "130541.861000",
      "PhotometricInterpretation": "MONOCHROME2",
      "PixelBandwidth": 2290.0,
      "PixelRepresentation": 0,
      "PixelSpacing": [2.0, 2.0],
      "ProtocolName": "func_task-things_run-6",
      "RepetitionTime": 1490.0,
      "RescaleIntercept": -4096.0,
      "RescaleSlope": 2.0,
      "RescaleType": "US",
      "Rows": 832,
      "SAR": 0.04963453296609,
      "SamplesPerPixel": 1,
      "ScanOptions": "FS",
      "ScanningSequence": "EP",
      "SequenceName": "epfid2d1_104",
      "SequenceVariant": [
        "SK",
        "SS"
],
      "SeriesDescription": "func_task-things_run-6",
      "SeriesNumber": 26,
      "SeriesTime": "135631.213000",
      "SliceLocation": -45.092676098572,
      "SliceThickness": 2.0,
      "SmallestImagePixelValue": 0,
      "SoftwareVersions": "syngo MR E11",
      "SpacingBetweenSlices": 2.0000000306902,
      "SpecificCharacterSet": "ISO_IR 100",
      "StudyID": "1",
      "StudyTime": "130541.765000",
      "TransmitCoilName": "Body",
      "VariableFlipAngleFlag": "N",
      "WindowCenterWidthExplanation": "Algo1",
      "dBdt": 0.0},
    "slices": {}
  },
  "time": {
    "samples": {
      "AcquisitionNumber": [1, 2, 3, 4, 5, 6, 7, 8, 9, 10, 11, 12, 13, 14, 15, 16, 17, 18, 19, 20, 21, 22, 23, 24, 25, 26, 27, 28, 29, 30, 31, 32, 33, 34, 35, 36, 37, 38, 39, 40, 41, 42, 43, 44, 45, 46, 47, 48, 49, 50, 51, 52, 53, 54, 55, 56, 57, 58, 59, 60, 61, 62, 63, 64, 65, 66, 67, 68, 69, 70, 71, 72, 73, 74, 75, 76, 77, 78, 79, 80, 81, 82, 83, 84, 85, 86, 87, 88, 89, 90, 91, 92, 93, 94, 95, 96, 97, 98, 99, 100, 101, 102, 103, 104, 105, 106, 107, 108, 109, 110, 111, 112, 113, 114, 115, 116, 117, 118, 119, 120, 121, 122, 123, 124, 125, 126, 127, 128, 129, 130, 131, 132, 133, 134, 135, 136, 137, 138, 139, 140, 141, 142, 143, 144, 145, 146, 147, 148, 149, 150, 151, 152, 153, 154, 155, 156, 157, 158, 159, 160, 161, 162, 163, 164, 165, 166, 167, 168, 169, 170, 171, 172, 173, 174, 175, 176, 177, 178, 179, 180, 181, 182, 183, 184, 185, 186, 187, 188, 189, 190],
      "AcquisitionTime": ["135501.212500", "135502.702500", "135504.192500", "135505.682500", "135507.172500", "135508.662500", "135510.152500", "135511.642500", "135513.132500", "135514.622500", "135516.112500", "135517.602500", "135519.092500", "135520.582500", "135522.072500", "135523.562500", "135525.052500", "135526.542500", "135528.032500", "135529.522500", "135531.012500", "135532.502500", "135533.992500", "135535.482500", "135536.972500", "135538.462500", "135539.952500", "135541.442500", "135542.932500", "135544.422500", "135545.912500", "135547.402500", "135548.892500", "135550.382500", "135551.872500", "135553.362500", "135554.852500", "135556.342500", "135557.832500", "135559.322500", "135600.812500", "135602.302500", "135603.792500", "135605.282500", "135606.772500", "135608.262500", "135609.752500", "135611.242500", "135612.732500", "135614.222500", "135615.712500", "135617.202500", "135618.692500", "135620.182500", "135621.672500", "135623.162500", "135624.652500", "135626.142500", "135627.632500", "135629.122500", "135630.612500", "135632.102500", "135633.592500", "135635.082500", "135636.572500", "135638.062500", "135639.552500", "135641.042500", "135642.532500", "135644.022500", "135645.512500", "135647.002500", "135648.492500", "135649.982500", "135651.472500", "135652.962500", "135654.452500", "135655.942500", "135657.432500", "135658.922500", "135700.412500", "135701.902500", "135703.392500", "135704.882500", "135706.372500", "135707.862500", "135709.352500", "135710.842500", "135712.332500", "135713.822500", "135715.312500", "135716.802500", "135718.292500", "135719.782500", "135721.272500", "135722.762500", "135724.252500", "135725.742500", "135727.232500", "135728.722500", "135730.212500", "135731.702500", "135733.192500", "135734.682500", "135736.172500", "135737.662500", "135739.152500", "135740.642500", "135742.132500", "135743.622500", "135745.112500", "135746.602500", "135748.092500", "135749.582500", "135751.072500", "135752.562500", "135754.052500", "135755.542500", "135757.032500", "135758.522500", "135800.012500", "135801.502500", "135802.992500", "135804.482500", "135805.972500", "135807.462500", "135808.952500", "135810.442500", "135811.932500", "135813.422500", "135814.912500", "135816.402500", "135817.892500", "135819.382500", "135820.872500", "135822.362500", "135823.852500", "135825.342500", "135826.832500", "135828.322500", "135829.812500", "135831.302500", "135832.792500", "135834.282500", "135835.772500", "135837.262500", "135838.752500", "135840.242500", "135841.732500", "135843.222500", "135844.712500", "135846.202500", "135847.692500", "135849.182500", "135850.672500", "135852.162500", "135853.652500", "135855.142500", "135856.632500", "135858.122500", "135859.612500", "135901.102500", "135902.592500", "135904.082500", "135905.572500", "135907.062500", "135908.552500", "135910.042500", "135911.532500", "135913.022500", "135914.512500", "135916.002500", "135917.492500", "135918.982500", "135920.472500", "135921.962500", "135923.452500", "135924.942500", "135926.432500", "135927.922500", "135929.412500", "135930.902500", "135932.392500", "135933.882500", "135935.372500", "135936.862500", "135938.352500", "135939.842500", "135941.332500", "135942.822500"],
      "ContentTime": ["135631.215000", "135631.218000", "135631.220000", "135631.223000", "135631.225000", "135631.228000", "135631.231000", "135631.233000", "135631.236000", "135631.238000", "135631.241000", "135631.244000", "135631.246000", "135631.249000", "135631.257000", "135631.259000", "135631.262000", "135631.265000", "135631.267000", "135631.270000", "135631.272000", "135631.275000", "135631.277000", "135631.280000", "135631.282000", "135631.285000", "135631.287000", "135631.290000", "135631.292000", "135631.295000", "135631.298000", "135631.300000", "135631.303000", "135631.305000", "135631.308000", "135651.109000", "135651.112000", "135651.114000", "135651.117000", "135651.127000", "135651.130000", "135651.132000", "135651.135000", "135651.138000", "135651.140000", "135651.143000", "135651.145000", "135651.148000", "135651.150000", "135651.153000", "135651.155000", "135651.158000", "135651.161000", "135651.163000", "135651.166000", "135651.168000", "135711.102000", "135711.105000", "135711.107000", "135711.110000", "135711.113000", "135711.115000", "135711.118000", "135711.120000", "135711.123000", "135711.125000", "135711.128000", "135711.130000", "135711.133000", "135711.135000", "135711.138000", "135711.140000", "135711.143000", "135711.146000", "135711.148000", "135711.151000", "135731.125000", "135731.128000", "135731.130000", "135731.133000", "135731.136000", "135731.139000", "135731.142000", "135731.144000", "135731.147000", "135731.150000", "135731.152000", "135731.155000", "135731.157000", "135731.160000", "135731.162000", "135731.165000", "135731.167000", "135731.170000", "135731.172000", "135731.175000", "135811.145000", "135811.147000", "135811.150000", "135811.153000", "135811.155000", "135811.158000", "135811.161000", "135811.163000", "135811.166000", "135811.168000", "135811.171000", "135811.173000", "135811.176000", "135811.178000", "135811.181000", "135811.184000", "135811.186000", "135811.189000", "135811.191000", "135811.194000", "135811.196000", "135811.199000", "135811.202000", "135811.204000", "135811.207000", "135811.209000", "135811.212000", "135811.215000", "135811.217000", "135811.228000", "135851.129000", "135851.132000", "135851.134000", "135851.137000", "135851.139000", "135851.142000", "135851.145000", "135851.147000", "135851.150000", "135851.152000", "135851.155000", "135851.157000", "135851.160000", "135851.163000", "135851.165000", "135851.168000", "135851.171000", "135851.173000", "135851.176000", "135851.178000", "135851.181000", "135851.184000", "135851.186000", "135851.189000", "135851.192000", "135851.194000", "135851.197000", "135931.136000", "135931.139000", "135931.142000", "135931.144000", "135931.147000", "135931.150000", "135931.152000", "135931.155000", "135931.157000", "135931.160000", "135931.163000", "135931.165000", "135931.168000", "135931.170000", "135931.173000", "135931.176000", "135931.178000", "135931.181000", "135931.183000", "135931.186000", "135931.189000", "135931.191000", "135931.194000", "135931.196000", "135931.199000", "135931.201000", "135931.204000", "135945.533000", "135945.536000", "135945.539000", "135945.541000", "135945.544000", "135945.546000", "135945.549000", "135945.552000", "135945.554000", "135945.557000"],
      "InstanceCreationTime": ["135631.215000", "135631.218000", "135631.220000", "135631.223000", "135631.225000", "135631.228000", "135631.231000", "135631.233000", "135631.236000", "135631.238000", "135631.241000", "135631.244000", "135631.246000", "135631.249000", "135631.257000", "135631.259000", "135631.262000", "135631.265000", "135631.267000", "135631.270000", "135631.272000", "135631.275000", "135631.277000", "135631.280000", "135631.282000", "135631.285000", "135631.287000", "135631.290000", "135631.292000", "135631.295000", "135631.298000", "135631.300000", "135631.303000", "135631.305000", "135631.308000", "135651.109000", "135651.112000", "135651.114000", "135651.117000", "135651.127000", "135651.130000", "135651.132000", "135651.135000", "135651.138000", "135651.140000", "135651.143000", "135651.145000", "135651.148000", "135651.150000", "135651.153000", "135651.155000", "135651.158000", "135651.161000", "135651.163000", "135651.166000", "135651.168000", "135711.102000", "135711.105000", "135711.107000", "135711.110000", "135711.113000", "135711.115000", "135711.118000", "135711.120000", "135711.123000", "135711.125000", "135711.128000", "135711.130000", "135711.133000", "135711.135000", "135711.138000", "135711.140000", "135711.143000", "135711.146000", "135711.148000", "135711.151000", "135731.125000", "135731.128000", "135731.130000", "135731.133000", "135731.136000", "135731.139000", "135731.142000", "135731.144000", "135731.147000", "135731.150000", "135731.152000", "135731.155000", "135731.157000", "135731.160000", "135731.162000", "135731.165000", "135731.167000", "135731.170000", "135731.172000", "135731.175000", "135811.145000", "135811.147000", "135811.150000", "135811.153000", "135811.155000", "135811.158000", "135811.161000", "135811.163000", "135811.166000", "135811.168000", "135811.171000", "135811.173000", "135811.176000", "135811.178000", "135811.181000", "135811.184000", "135811.186000", "135811.189000", "135811.191000", "135811.194000", "135811.196000", "135811.199000", "135811.202000", "135811.204000", "135811.207000", "135811.209000", "135811.212000", "135811.215000", "135811.217000", "135811.228000", "135851.129000", "135851.132000", "135851.134000", "135851.137000", "135851.139000", "135851.142000", "135851.145000", "135851.147000", "135851.150000", "135851.152000", "135851.155000", "135851.157000", "135851.160000", "135851.163000", "135851.165000", "135851.168000", "135851.171000", "135851.173000", "135851.176000", "135851.178000", "135851.181000", "135851.184000", "135851.186000", "135851.189000", "135851.192000", "135851.194000", "135851.197000", "135931.136000", "135931.139000", "135931.142000", "135931.144000", "135931.147000", "135931.150000", "135931.152000", "135931.155000", "135931.157000", "135931.160000", "135931.163000", "135931.165000", "135931.168000", "135931.170000", "135931.173000", "135931.176000", "135931.178000", "135931.181000", "135931.183000", "135931.186000", "135931.189000", "135931.191000", "135931.194000", "135931.196000", "135931.199000", "135931.201000", "135931.204000", "135945.533000", "135945.536000", "135945.539000", "135945.541000", "135945.544000", "135945.546000", "135945.549000", "135945.552000", "135945.554000", "135945.557000"],
      "InstanceNumber": [1, 2, 3, 4, 5, 6, 7, 8, 9, 10, 11, 12, 13, 14, 15, 16, 17, 18, 19, 20, 21, 22, 23, 24, 25, 26, 27, 28, 29, 30, 31, 32, 33, 34, 35, 36, 37, 38, 39, 40, 41, 42, 43, 44, 45, 46, 47, 48, 49, 50, 51, 52, 53, 54, 55, 56, 57, 58, 59, 60, 61, 62, 63, 64, 65, 66, 67, 68, 69, 70, 71, 72, 73, 74, 75, 76, 77, 78, 79, 80, 81, 82, 83, 84, 85, 86, 87, 88, 89, 90, 91, 92, 93, 94, 95, 96, 97, 98, 99, 100, 101, 102, 103, 104, 105, 106, 107, 108, 109, 110, 111, 112, 113, 114, 115, 116, 117, 118, 119, 120, 121, 122, 123, 124, 125, 126, 127, 128, 129, 130, 131, 132, 133, 134, 135, 136, 137, 138, 139, 140, 141, 142, 143, 144, 145, 146, 147, 148, 149, 150, 151, 152, 153, 154, 155, 156, 157, 158, 159, 160, 161, 162, 163, 164, 165, 166, 167, 168, 169, 170, 171, 172, 173, 174, 175, 176, 177, 178, 179, 180, 181, 182, 183, 184, 185, 186, 187, 188, 189, 190],
      "WindowCenter": [4750.0, 4752.0, 4778.0, 4776.0, 4754.0, 4756.0, 4760.0, 4754.0, 4754.0, 4754.0, 4776.0, 4774.0, 4754.0, 4754.0, 4752.0, 4752.0, 4778.0, 4776.0, 4754.0, 4754.0, 4754.0, 4774.0, 4754.0, 4754.0, 4776.0, 4778.0, 4776.0, 4752.0, 4754.0, 4758.0, 4754.0, 4750.0, 4778.0, 4754.0, 4754.0, 4754.0, 4756.0, 4752.0, 4756.0, 4752.0, 4778.0, 4754.0, 4754.0, 4750.0, 4752.0, 4754.0, 4782.0, 4752.0, 4754.0, 4756.0, 4754.0, 4754.0, 4756.0, 4776.0, 4776.0, 4754.0, 4780.0, 4756.0, 4754.0, 4754.0, 4754.0, 4754.0, 4752.0, 4760.0, 4752.0, 4756.0, 4774.0, 4754.0, 4780.0, 4756.0, 4756.0, 4780.0, 4778.0, 4778.0, 4754.0, 4776.0, 4756.0, 4756.0, 4780.0, 4756.0, 4754.0, 4780.0, 4756.0, 4754.0, 4754.0, 4756.0, 4756.0, 4780.0, 4756.0, 4752.0, 4778.0, 4754.0, 4760.0, 4754.0, 4758.0, 4754.0, 4754.0, 4756.0, 4750.0, 4758.0, 4782.0, 4758.0, 4778.0, 4754.0, 4752.0, 4760.0, 4752.0, 4758.0, 4756.0, 4758.0, 4758.0, 4780.0, 4758.0, 4756.0, 4780.0, 4758.0, 4778.0, 4782.0, 4778.0, 4752.0, 4754.0, 4754.0, 4758.0, 4756.0, 4758.0, 4754.0, 4758.0, 4756.0, 4752.0, 4756.0, 4756.0, 4778.0, 4780.0, 4782.0, 4754.0, 4780.0, 4756.0, 4758.0, 4758.0, 4758.0, 4754.0, 4756.0, 4756.0, 4778.0, 4756.0, 4778.0, 4778.0, 4754.0, 4778.0, 4754.0, 4774.0, 4754.0, 4754.0, 4754.0, 4754.0, 4776.0, 4750.0, 4778.0, 4776.0, 4776.0, 4778.0, 4758.0, 4776.0, 4756.0, 4776.0, 4778.0, 4778.0, 4776.0, 4754.0, 4756.0, 4776.0, 4780.0, 4754.0, 4756.0, 4752.0, 4754.0, 4754.0, 4758.0, 4752.0, 4782.0, 4754.0, 4756.0, 4756.0, 4782.0, 4776.0, 4782.0, 4776.0, 4778.0, 4754.0, 4754.0],
      "WindowWidth": [18546.0, 18546.0, 18578.0, 18580.0, 18546.0, 18550.0, 18550.0, 18546.0, 18544.0, 18546.0, 18580.0, 18576.0, 18546.0, 18548.0, 18550.0, 18548.0, 18578.0, 18580.0, 18544.0, 18546.0, 18546.0, 18578.0, 18544.0, 18548.0, 18580.0, 18578.0, 18578.0, 18544.0, 18548.0, 18550.0, 18546.0, 18542.0, 18576.0, 18552.0, 18546.0, 18548.0, 18546.0, 18546.0, 18546.0, 18544.0, 18576.0, 18550.0, 18546.0, 18548.0, 18546.0, 18546.0, 18578.0, 18542.0, 18544.0, 18546.0, 18548.0, 18546.0, 18546.0, 18578.0, 18580.0, 18546.0, 18578.0, 18550.0, 18542.0, 18544.0, 18542.0, 18540.0, 18540.0, 18550.0, 18544.0, 18550.0, 18576.0, 18544.0, 18578.0, 18546.0, 18548.0, 18576.0, 18576.0, 18576.0, 18546.0, 18578.0, 18548.0, 18546.0, 18576.0, 18548.0, 18544.0, 18580.0, 18546.0, 18548.0, 18544.0, 18546.0, 18548.0, 18580.0, 18540.0, 18546.0, 18576.0, 18542.0, 18544.0, 18546.0, 18544.0, 18544.0, 18546.0, 18548.0, 18542.0, 18542.0, 18578.0, 18542.0, 18576.0, 18544.0, 18542.0, 18544.0, 18540.0, 18546.0, 18550.0, 18544.0, 18546.0, 18576.0, 18546.0, 18540.0, 18574.0, 18544.0, 18578.0, 18578.0, 18576.0, 18546.0, 18544.0, 18550.0, 18546.0, 18540.0, 18546.0, 18540.0, 18540.0, 18544.0, 18536.0, 18546.0, 18548.0, 18572.0, 18582.0, 18582.0, 18542.0, 18574.0, 18548.0, 18548.0, 18546.0, 18548.0, 18544.0, 18546.0, 18546.0, 18574.0, 18542.0, 18576.0, 18576.0, 18540.0, 18574.0, 18546.0, 18566.0, 18552.0, 18546.0, 18546.0, 18546.0, 18572.0, 18544.0, 18578.0, 18576.0, 18576.0, 18574.0, 18548.0, 18574.0, 18542.0, 18580.0, 18572.0, 18578.0, 18580.0, 18548.0, 18546.0, 18574.0, 18578.0, 18544.0, 18544.0, 18546.0, 18546.0, 18544.0, 18544.0, 18548.0, 18578.0, 18548.0, 18546.0, 18548.0, 18578.0, 18576.0, 18578.0, 18576.0, 18578.0, 18548.0, 18542.0]
    },
    "slices": {}
  }
}